2096921,2096921,179101,595297,0
2096921,2096921,178906,595462,0
2096921,2096921,179049,595607,0
2096921,2096921,179303,595337,0
2096921,2096921,179256,595669,0
2096921,2096921,179004,595301,0
2096921,2096921,179171,595669,0
2096921,2096921,179066,596207,0
2096921,2096921,179367,595854,0
2096921,2096921,179252,595768,0
2096921,2096921,179146,595758,0
2096921,2096921,179249,595614,0
2096921,2096921,179144,595827,0
2096921,2096921,179215,595859,0
2096921,2096921,179352,595758,0
2096921,2096921,179130,595758,0
2096921,2096921,179525,596027,0
2096921,2096921,179212,595976,0
2096921,2096921,179260,595866,0
2096921,2096921,179312,596156,0
2096921,2096921,179388,596233,0
2096921,2096921,179304,596087,0
2096921,2096921,179210,596342,0
2096921,2096921,179560,596337,0
2096921,2096921,179661,596490,0
2096921,2096921,179383,596533,0
2096921,2096921,179624,596421,0
2096921,2096921,179596,596502,0
2096921,2096921,179275,596937,0
2096921,2096921,179592,596736,0
2096921,2096921,179631,596371,0
2096921,2096921,179421,596734,0
2096921,2096921,179454,596882,0
2096921,2096921,179627,596894,0
2096921,2096921,179658,597056,0
2096921,2096921,179407,596735,0
2096921,2096921,179663,596875,0
2096921,2096921,179893,596846,0
2096921,2096921,179841,597051,0
2096921,2096921,179826,597284,0
2096921,2096921,179778,596997,0
2096921,2096921,179743,597024,0
2096921,2096921,179563,596960,0
2096921,2096921,180040,597080,0
2096921,2096921,179655,597334,0
2096921,2096921,179754,597245,0
2096921,2096921,179670,597356,0
2096921,2096921,179751,597490,0
2096921,2096921,179848,597543,0
2096921,2096921,179839,597503,0
2096921,2096921,179779,597722,0
2096921,2096921,179395,597538,0
2096921,2096921,179950,597338,0
2096921,2096921,179943,597700,0
2096921,2096921,179853,597406,0
2096921,2096921,180016,597654,0
2096921,2096921,180218,597487,0
2096921,2096921,180138,597627,0
2096921,2096921,180478,597656,0
2096921,2096921,180195,597608,0
2096921,2096921,180215,597816,0
2096921,2096921,179643,598034,0
2096921,2096921,180199,597882,0
2096921,2096921,180562,598143,0
2096921,2096921,180458,597813,0
2096921,2096921,180052,597870,0
2096921,2096921,179961,597789,0
2096921,2096921,179910,598064,0
2096921,2096921,179994,597987,0
2096921,2096921,180271,598177,0
2096921,2096921,180309,598138,0
2096921,2096921,180354,598318,0
2096921,2096921,180222,598402,0
2096921,2096921,180238,598352,0
2096921,2096921,180319,598203,0
2096921,2096921,180339,598310,0
2096921,2096921,180361,598453,0
2096921,2096921,180394,598542,0
2096921,2096921,180591,598613,0
2096921,2096921,180414,598570,0
2096921,2096921,180397,598195,0
2096921,2096921,180343,598623,0
2096921,2096921,180155,598553,0
2096921,2096921,180211,598481,0
2096921,2096921,179996,598350,0
2096921,2096921,180705,598612,0
2096921,2096921,180461,598639,0
2096921,2096921,180533,598834,0
2096921,2096921,180411,599153,0
2096921,2096921,180555,598695,0
2096921,2096921,180285,598618,0
2096921,2096921,180680,598638,0
2096921,2096921,180463,598968,0
2096921,2096921,180525,599076,0
2096921,2096921,180527,598881,0
2096921,2096921,180364,598959,0
2096921,2096921,180495,598966,0
2096921,2096921,180620,598890,0
2096921,2096921,180679,598938,0
2096921,2096921,180523,598861,0
2096921,2096921,180508,599002,0
2096921,2096921,180557,599169,0
2096921,2096921,180612,599031,0
2096921,2096921,180658,598947,0
2096921,2096921,180782,599116,0
2096921,2096921,180677,599128,0
2096921,2096921,180666,599247,0
2096921,2096921,180633,599202,0
2096921,2096921,180740,599362,0
2096921,2096921,180595,599227,0
2096921,2096921,180557,599207,0
2096921,2096921,180784,599140,0
2096921,2096921,180638,599179,0
2096921,2096921,180377,599120,0
2096921,2096921,180624,599519,0
2096921,2096921,180477,599291,0
2096921,2096921,180848,599448,0
2096921,2096921,180822,599392,0
2096921,2096921,181092,599726,0
2096921,2096921,180672,599732,0
2096921,2096921,180864,599418,0
2096921,2096921,180454,599691,0
2096921,2096921,180459,599460,0
2096921,2096921,180658,599753,0
2096921,2096921,180579,599453,0
2096921,2096921,180532,599454,0
2096921,2096921,180704,599486,0
2096921,2096921,180590,599811,0
2096921,2096921,180809,599563,0
2096921,2096921,180956,600114,0
2096921,2096921,180754,599719,0
2096921,2096921,180659,599897,0
2096921,2096921,180985,599665,0
2096921,2096921,181059,599587,0
2096921,2096921,180896,599659,0
2096921,2096921,180914,599724,0
2096921,2096921,181131,600224,0
2096921,2096921,181010,599761,0
2096921,2096921,180948,599785,0
2096921,2096921,180908,599980,0
2096921,2096921,180993,600146,0
2096921,2096921,180941,600008,0
2096921,2096921,180899,599785,0
2096921,2096921,180967,600290,0
2096921,2096921,180780,600048,0
2096921,2096921,180830,600329,0
2096921,2096921,181070,600319,0
2096921,2096921,181115,600410,0
2096921,2096921,181260,600324,0
2096921,2096921,181232,600215,0
2096921,2096921,181208,599911,0
2096921,2096921,181040,600100,0
2096921,2096921,180990,600123,0
2096921,2096921,181028,600137,0
2096921,2096921,181341,600196,0
2096921,2096921,181186,600119,0
2096921,2096921,180977,600093,0
2096921,2096921,180950,599988,0
2096921,2096921,181217,600029,0
2096921,2096921,181461,600544,0
2096921,2096921,181013,600465,0
2096921,2096921,180988,600615,0
2096921,2096921,180729,600212,0
2096921,2096921,180864,600521,0
2096921,2096921,180705,600575,0
2096921,2096921,180711,600477,0
2096921,2096921,181030,600430,0
2096921,2096921,181019,600505,0
2096921,2096921,181287,600414,0
2096921,2096921,181211,600558,0
2096921,2096921,181264,600248,0
2096921,2096921,180935,600176,0
2096921,2096921,180991,600390,0
2096921,2096921,181235,600592,0
2096921,2096921,181172,600493,0
2096921,2096921,181400,600444,0
2096921,2096921,181198,600171,0
2096921,2096921,181179,600659,0
2096921,2096921,181213,600567,0
2096921,2096921,181195,600500,0
2096921,2096921,181311,600549,0
2096921,2096921,180965,600322,0
2096921,2096921,180533,600280,0
2096921,2096921,180989,600416,0
2096921,2096921,180875,600151,0
2096921,2096921,180985,600339,0
2096921,2096921,180984,600332,0
2096921,2096921,181238,600432,0
2096921,2096921,180949,600551,0
2096921,2096921,181166,600699,0
2096921,2096921,181048,600600,0
2096921,2096921,181379,600680,0
2096921,2096921,181181,600585,0
2096921,2096921,181090,600287,0
2096921,2096921,181223,600186,0
2096921,2096921,180915,600378,0
2096921,2096921,180855,600384,0
2096921,2096921,181402,600362,0
2096921,2096921,181169,600480,0
2096921,2096921,181248,600304,0
2096921,2096921,181081,600420,0
2096921,2096921,181334,600393,0
2096921,2096921,181022,600255,0
2096921,2096921,180905,600521,0
2096921,2096921,180854,600369,0
2096921,2096921,181076,600419,0
2096921,2096921,180914,600500,0
2096921,2096921,181427,600774,0
2096921,2096921,180875,600337,0
2096921,2096921,181007,599995,0
2096921,2096921,181143,600584,0
2096921,2096921,181037,600349,0
2096921,2096921,180824,600353,0
2096921,2096921,181223,600448,0
2096921,2096921,181098,600369,0
2096921,2096921,181194,600470,0
2096921,2096921,181176,600512,0
2096921,2096921,181101,599942,0
2096921,2096921,180967,599939,0
2096921,2096921,180897,599786,0
2096921,2096921,180978,599794,0
2096921,2096921,181087,599152,0
2096921,2096921,180833,599155,0
2096921,2096921,180509,599157,0
2096921,2096921,180397,599560,0
2096921,2096921,180596,599406,0
2096921,2096921,180458,599190,0
2096921,2096921,180473,598427,0
2096921,2096921,180055,598582,0
2096921,2096921,180340,598154,0
2096921,2096921,180307,598644,0
2096921,2096921,180219,598632,0
2096921,2096921,179932,597696,0
2096921,2096921,179784,597260,0
2096921,2096921,179729,597092,0
2096921,2096921,180091,597037,0
2096921,2096921,179758,597156,0
2096921,2096921,179749,596219,0
2096921,2096921,179603,596549,0
2096921,2096921,179376,596193,0
2096921,2096921,179363,596409,0
2096921,2096921,179232,596211,0
2096921,2096921,178568,593945,0
2096921,2096921,178283,593129,0
2096921,2096921,178295,593243,0
2096921,2096921,178494,593218,0
2096921,2096921,178359,593115,0
2096921,2096921,177270,590305,0
2096921,2096921,177028,589892,0
2096921,2096921,177163,589804,0
2096921,2096921,176983,589801,0
2096921,2096921,176642,589573,0
2096921,2096921,176151,588000,0
2096921,2096921,175489,587455,0
2096921,2096921,175884,587164,0
2096921,2096921,175430,587329,0
2096921,2096921,175696,587220,0
2096921,2096921,175436,585796,0
2096921,2096921,175718,585473,0
2096921,2096921,175184,585417,0
2096921,2096921,174925,585538,0
2096921,2096921,174919,585388,0
2096921,2096921,174389,584072,0
2096921,2096921,174403,583727,0
2096921,2096921,174375,583752,0
2096921,2096921,174640,583726,0
2096921,2096921,174816,584115,0
2096921,2096921,174244,583380,0
2096921,2096921,174131,583105,0
2096921,2096921,173996,583129,0
2096921,2096921,173923,582938,0
2096921,2096921,173906,582953,0
2096921,2096921,173792,582270,0
2096921,2096921,173784,582303,0
2096921,2096921,174040,582348,0
2096921,2096921,173856,582301,0
2096921,2096921,173939,582161,0
2096921,2096921,173770,582190,0
2096921,2096921,173856,581996,0
2096921,2096921,173752,581925,0
2096921,2096921,173683,581752,0
2096921,2096921,173641,582185,0
2096921,2096921,173619,581740,0
2096921,2096921,173325,581763,0
2096921,2096921,173615,581860,0
2096921,2096921,173832,581752,0
2096921,2096921,173758,581719,0
2096921,2096921,173680,582106,0
2096921,2096921,173845,581875,0
2096921,2096921,173757,582109,0
2096921,2096921,173674,581933,0
2096921,2096921,173649,581994,0
2096921,2096921,173659,582123,0
2096921,2096921,173961,582439,0
2096921,2096921,174024,582604,0
2096921,2096921,173582,582440,0
2096921,2096921,173620,582246,0
2096921,2096921,174135,582299,0
2096921,2096921,174003,582667,0
2096921,2096921,173709,582740,0
2096921,2096921,173954,582796,0
2096921,2096921,173862,582779,0
2096921,2096921,173843,582876,0
2096921,2096921,174038,583020,0
2096921,2096921,174316,583119,0
2096921,2096921,174193,582943,0
2096921,2096921,174109,582953,0
2096921,2096921,174355,583524,0
2096921,2096921,174439,583686,0
2096921,2096921,174178,583725,0
2096921,2096921,174539,583592,0
2096921,2096921,174365,583606,0
2096921,2096921,174408,583916,0
2096921,2096921,174584,584334,0
2096921,2096921,174737,584344,0
2096921,2096921,174448,584266,0
2096921,2096921,174403,584604,0
2096921,2096921,174688,585299,0
2096921,2096921,174996,585317,0
2096921,2096921,175068,585359,0
2096921,2096921,174978,585305,0
2096921,2096921,174944,585442,0
2096921,2096921,175073,585574,0
2096921,2096921,175283,586141,0
2096921,2096921,175500,586074,0
2096921,2096921,175500,586197,0
2096921,2096921,175031,585958,0
2096921,2096921,175562,586455,0
2096921,2096921,175315,586881,0
2096921,2096921,175429,586751,0
2096921,2096921,175408,586775,0
2096921,2096921,175386,586974,0
2096921,2096921,175592,587485,0
2096921,2096921,175687,587713,0
2096921,2096921,175777,587507,0
2096921,2096921,176005,587645,0
2096921,2096921,175762,587620,0
2096921,2096921,176407,588003,0
2096921,2096921,176327,588403,0
2096921,2096921,176206,588290,0
2096921,2096921,176318,588509,0
2096921,2096921,175911,588192,0
2096921,2096921,176300,588712,0
2096921,2096921,176221,589004,0
2096921,2096921,176456,589061,0
2096921,2096921,176513,589092,0
2096921,2096921,176304,588896,0
2096921,2096921,176933,589355,0
2096921,2096921,176690,589912,0
2096921,2096921,176806,590044,0
2096921,2096921,176725,589790,0
2096921,2096921,176547,589729,0
2096921,2096921,176956,590085,0
2096921,2096921,176829,590521,0
2096921,2096921,176869,590518,0
2096921,2096921,176838,590557,0
2096921,2096921,176950,590955,0
2096921,2096921,177301,591323,0
2096921,2096921,177491,591228,0
2096921,2096921,177440,591253,0
2096921,2096921,177135,591517,0
2096921,2096921,177294,591251,0
2096921,2096921,177598,592179,0
2096921,2096921,177469,591813,0
2096921,2096921,177224,592191,0
2096921,2096921,177412,592148,0
2096921,2096921,177497,592427,0
2096921,2096921,177616,592711,0
2096921,2096921,177789,592965,0
2096921,2096921,177689,592796,0
2096921,2096921,178110,592906,0
2096921,2096921,177743,592706,0
2096921,2096921,178109,593571,0
2096921,2096921,178133,593541,0
2096921,2096921,178100,593883,0
2096921,2096921,178094,593683,0
2096921,2096921,178235,593701,0
2096921,2096921,178486,594204,0
2096921,2096921,178629,594295,0
2096921,2096921,178402,594258,0
2096921,2096921,178337,594289,0
2096921,2096921,178147,594264,0
2096921,2096921,178491,594408,0
2096921,2096921,178311,594656,0
2096921,2096921,178490,594715,0
2096921,2096921,178500,594749,0
2096921,2096921,178462,594495,0
2096921,2096921,178459,595341,0
2096921,2096921,178600,594965,0
2096921,2096921,178656,594971,0
2096921,2096921,178681,594815,0
2096921,2096921,178448,595054,0
2096921,2096921,178620,595284,0
2096921,2096921,178483,595170,0
2096921,2096921,178544,595383,0
2096921,2096921,178431,595432,0
2096921,2096921,178705,595320,0
2096921,2096921,178591,595732,0
2096921,2096921,179082,595602,0
2096921,2096921,178798,595400,0
2096921,2096921,178601,595798,0
2096921,2096921,178926,595270,0
2096921,2096921,178786,595694,0
2096921,2096921,178725,596029,0
2096921,2096921,178747,595949,0
2096921,2096921,178586,595771,0
2096921,2096921,179029,595849,0
2096921,2096921,178849,595955,0
2096921,2096921,179279,595688,0
2096921,2096921,178952,595899,0
2096921,2096921,179022,595591,0
2096921,2096921,178594,595779,0
2096921,2096921,178549,595884,0
2096921,2096921,178547,595416,0
2096921,2096921,178963,595618,0
2096921,2096921,178938,595967,0
2096921,2096921,178825,595863,0
2096921,2096921,178671,595938,0
2096921,2096921,178910,595912,0
2096921,2096921,178997,596222,0
2096921,2096921,179032,595880,0
2096921,2096921,179119,596194,0
2096921,2096921,179060,595842,0
2096921,2096921,178697,595768,0
2096921,2096921,178777,595934,0
2096921,2096921,178576,596176,0
2096921,2096921,178842,595951,0
2096921,2096921,178958,596403,0
2096921,2096921,178837,596308,0
2096921,2096921,178591,596463,0
2096921,2096921,178938,596064,0
2096921,2096921,179114,596096,0
2096921,2096921,178930,596386,0
2096921,2096921,178704,596525,0
2096921,2096921,178774,596404,0
2096921,2096921,178797,596903,0
2096921,2096921,178851,596554,0
2096921,2096921,178787,597077,0
2096921,2096921,178842,596791,0
2096921,2096921,179277,597191,0
2096921,2096921,178981,596932,0
2096921,2096921,179062,597022,0
2096921,2096921,179135,597190,0
2096921,2096921,179159,597165,0
2096921,2096921,179385,597349,0
2096921,2096921,179324,597233,0
2096921,2096921,179312,597588,0
2096921,2096921,179393,598088,0
2096921,2096921,179742,597661,0
2096921,2096921,179874,598132,0
2096921,2096921,179575,597829,0
2096921,2096921,179285,597871,0
2096921,2096921,179281,598360,0
2096921,2096921,179612,598609,0
2096921,2096921,179824,598425,0
2096921,2096921,179858,598262,0
2096921,2096921,179693,598267,0
2096921,2096921,179744,599179,0
2096921,2096921,180082,599443,0
2096921,2096921,180295,599667,0
2096921,2096921,180166,599243,0
2096921,2096921,180091,599465,0
2096921,2096921,180252,600065,0
2096921,2096921,180185,599974,0
2096921,2096921,180236,599947,0
2096921,2096921,180222,600072,0
2096921,2096921,180034,600321,0
2096921,2096921,180502,600861,0
2096921,2096921,180511,600928,0
2096921,2096921,180611,600964,0
2096921,2096921,180211,600929,0
2096921,2096921,180562,600884,0
2096921,2096921,180549,600824,0
2096921,2096921,180640,601092,0
2096921,2096921,180813,600911,0
2096921,2096921,180867,601328,0
2096921,2096921,180664,601150,0
2096921,2096921,180848,601697,0
2096921,2096921,180889,601835,0
2096921,2096921,180939,601753,0
2096921,2096921,181120,601948,0
2096921,2096921,180838,601862,0
2096921,2096921,181124,602270,0
2096921,2096921,181065,602388,0
2096921,2096921,180866,602701,0
2096921,2096921,180890,602296,0
2096921,2096921,180646,602709,0
2096921,2096921,181091,603196,0
2096921,2096921,181476,603099,0
2096921,2096921,181527,603126,0
2096921,2096921,181679,603134,0
2096921,2096921,181369,603029,0
2096921,2096921,181412,603528,0
2096921,2096921,181478,604021,0
2096921,2096921,181427,603847,0
2096921,2096921,181783,603804,0
2096921,2096921,181360,603837,0
2096921,2096921,181533,604444,0
2096921,2096921,182030,604742,0
2096921,2096921,181741,604799,0
2096921,2096921,182047,604417,0
2096921,2096921,181966,604370,0
2096921,2096921,182155,604963,0
2096921,2096921,182148,605194,0
2096921,2096921,182190,605261,0
2096921,2096921,182310,605208,0
2096921,2096921,182286,605142,0
2096921,2096921,182393,605758,0
2096921,2096921,182207,605687,0
2096921,2096921,182303,605795,0
2096921,2096921,182067,605823,0
2096921,2096921,182199,605813,0
2096921,2096921,181957,606224,0
2096921,2096921,182121,606337,0
2096921,2096921,182372,606355,0
2096921,2096921,182331,606344,0
2096921,2096921,182574,606540,0
2096921,2096921,182737,606618,0
2096921,2096921,182526,606915,0
2096921,2096921,182672,607162,0
2096921,2096921,182732,607180,0
2096921,2096921,182826,607201,0
2096921,2096921,182863,607495,0
2096921,2096921,182942,607667,0
2096921,2096921,182898,607678,0
2096921,2096921,182678,607770,0
2096921,2096921,183095,607625,0
2096921,2096921,183451,608252,0
2096921,2096921,183265,608406,0
2096921,2096921,183094,608212,0
2096921,2096921,182976,607925,0
2096921,2096921,183122,608103,0
2096921,2096921,183382,608912,0
2096921,2096921,183395,609007,0
2096921,2096921,183346,609088,0
2096921,2096921,183515,608647,0
2096921,2096921,183417,608774,0
2096921,2096921,183650,609302,0
2096921,2096921,183619,609754,0
2096921,2096921,183761,609703,0
2096921,2096921,183646,609595,0
2096921,2096921,183647,609709,0
2096921,2096921,183664,609832,0
2096921,2096921,183738,609858,0
2096921,2096921,183849,609779,0
2096921,2096921,183657,610112,0
2096921,2096921,183874,609926,0
2096921,2096921,183957,610639,0
2096921,2096921,183938,610767,0
2096921,2096921,183749,610743,0
2096921,2096921,183871,610811,0
2096921,2096921,184197,610403,0
2096921,2096921,184105,610697,0
2096921,2096921,184024,610949,0
2096921,2096921,183858,611026,0
2096921,2096921,184172,610889,0
2096921,2096921,184307,611103,0
2096921,2096921,184320,611338,0
2096921,2096921,184170,611617,0
2096921,2096921,184311,611779,0
2096921,2096921,184264,611601,0
2096921,2096921,184304,611722,0
2096921,2096921,184403,612123,0
2096921,2096921,184723,612024,0
2096921,2096921,184525,611999,0
2096921,2096921,184667,612206,0
2096921,2096921,184672,612358,0
2096921,2096921,184803,612878,0
2096921,2096921,184983,612960,0
2096921,2096921,184821,612878,0
2096921,2096921,184838,612949,0
2096921,2096921,184692,612726,0
2096921,2096921,184568,612774,0
2096921,2096921,184864,613153,0
2096921,2096921,184866,613064,0
2096921,2096921,184941,613135,0
2096921,2096921,185085,613358,0
2096921,2096921,185066,613770,0
2096921,2096921,184950,613889,0
2096921,2096921,185290,613778,0
2096921,2096921,184892,613725,0
2096921,2096921,184852,613584,0
2096921,2096921,184984,613974,0
2096921,2096921,184999,614039,0
2096921,2096921,185168,614309,0
2096921,2096921,185523,614140,0
2096921,2096921,185099,614035,0
2096921,2096921,185720,614309,0
2096921,2096921,185200,614584,0
2096921,2096921,185532,614960,0
2096921,2096921,185339,614727,0
2096921,2096921,185319,614369,0
2096921,2096921,185351,614850,0
2096921,2096921,185495,614995,0
2096921,2096921,185245,615387,0
2096921,2096921,185322,615242,0
2096921,2096921,185608,615350,0
2096921,2096921,186006,615646,0
2096921,2096921,185815,615633,0
2096921,2096921,185712,615510,0
2096921,2096921,185653,615512,0
2096921,2096921,185462,615513,0
2096921,2096921,185648,615843,0
2096921,2096921,185821,616122,0
2096921,2096921,185752,616226,0
2096921,2096921,185728,615679,0
2096921,2096921,185985,615811,0
2096921,2096921,185857,615958,0
2096921,2096921,186182,616229,0
2096921,2096921,186079,616407,0
2096921,2096921,185799,616455,0
2096921,2096921,185995,616350,0
2096921,2096921,185962,616604,0
2096921,2096921,186076,616419,0
2096921,2096921,185965,616904,0
2096921,2096921,185928,616814,0
2096921,2096921,185881,617028,0
2096921,2096921,186359,617026,0
2096921,2096921,186437,617351,0
2096921,2096921,186620,617270,0
2096921,2096921,186279,617403,0
2096921,2096921,186103,617086,0
2096921,2096921,186552,617544,0
2096921,2096921,186402,617302,0
2096921,2096921,186155,617397,0
2096921,2096921,186417,617277,0
2096921,2096921,186465,617629,0
2096921,2096921,186706,618014,0
2096921,2096921,186531,618112,0
2096921,2096921,186271,618127,0
2096921,2096921,186584,618030,0
2096921,2096921,186488,617955,0
2096921,2096921,186491,618574,0
2096921,2096921,186472,618404,0
2096921,2096921,186289,618295,0
2096921,2096921,186926,618336,0
2096921,2096921,186660,618522,0
2096921,2096921,186691,618564,0
2096921,2096921,186793,618805,0
2096921,2096921,186495,618771,0
2096921,2096921,186957,618903,0
2096921,2096921,187067,618619,0
2096921,2096921,186955,619076,0
2096921,2096921,186840,619049,0
2096921,2096921,186942,619313,0
2096921,2096921,186892,619198,0
2096921,2096921,186953,619294,0
2096921,2096921,186842,619522,0
2096921,2096921,187112,619423,0
2096921,2096921,187111,619466,0
2096921,2096921,187209,619684,0
2096921,2096921,187067,619696,0
2096921,2096921,187262,619536,0
2096921,2096921,187215,619662,0
2096921,2096921,187196,619812,0
2096921,2096921,187033,619944,0
2096921,2096921,187546,619658,0
2096921,2096921,187155,620040,0
2096921,2096921,187439,620213,0
2096921,2096921,187069,620104,0
2096921,2096921,187133,619953,0
2096921,2096921,187156,620005,0
2096921,2096921,187066,620496,0
2096921,2096921,187285,620607,0
2096921,2096921,187307,620538,0
2096921,2096921,187364,620582,0
2096921,2096921,187563,620671,0
2096921,2096921,187761,621166,0
2096921,2096921,187724,620908,0
2096921,2096921,187412,620960,0
2096921,2096921,187538,621240,0
2096921,2096921,187264,620790,0
2096921,2096921,187590,621080,0
2096921,2096921,187421,621030,0
2096921,2096921,187633,621166,0
2096921,2096921,187648,621133,0
2096921,2096921,187429,620764,0
2096921,2096921,187629,621567,0
2096921,2096921,187794,621525,0
2096921,2096921,187648,621630,0
2096921,2096921,187605,621318,0
2096921,2096921,187451,621555,0
2096921,2096921,187694,621271,0
2096921,2096921,187536,621549,0
2096921,2096921,187463,621249,0
2096921,2096921,187679,621454,0
2096921,2096921,187690,621447,0
2096921,2096921,187680,621885,0
2096921,2096921,187664,621692,0
2096921,2096921,187842,621839,0
2096921,2096921,187648,622027,0
2096921,2096921,187814,621787,0
2096921,2096921,188060,621651,0
2096921,2096921,187796,622244,0
2096921,2096921,187955,622042,0
2096921,2096921,187878,621911,0
2096921,2096921,187830,622055,0
2096921,2096921,188273,622406,0
2096921,2096921,187815,622303,0
2096921,2096921,188072,622278,0
2096921,2096921,187491,621953,0
2096921,2096921,187898,622133,0
2096921,2096921,187766,622449,0
2096921,2096921,187859,622508,0
2096921,2096921,187746,622221,0
2096921,2096921,187644,622386,0
2096921,2096921,187826,622269,0
2096921,2096921,188109,622642,0
2096921,2096921,187938,622738,0
2096921,2096921,188000,622703,0
2096921,2096921,188124,622652,0
2096921,2096921,187968,622665,0
2096921,2096921,187638,622665,0
2096921,2096921,187685,622651,0
2096921,2096921,187843,622628,0
2096921,2096921,188114,622679,0
2096921,2096921,188293,622727,0
2096921,2096921,188406,622574,0
2096921,2096921,188195,622494,0
2096921,2096921,187915,622223,0
2096921,2096921,187907,622327,0
2096921,2096921,187777,622398,0
2096921,2096921,187558,621867,0
2096921,2096921,187561,621929,0
2096921,2096921,187537,621830,0
2096921,2096921,187692,622045,0
2096921,2096921,187573,622069,0
2096921,2096921,187319,621548,0
2096921,2096921,187350,621350,0
2096921,2096921,187316,621229,0
2096921,2096921,187536,621326,0
2096921,2096921,187309,621262,0
2096921,2096921,186983,620286,0
2096921,2096921,186962,620287,0
2096921,2096921,186667,619938,0
2096921,2096921,187122,620342,0
2096921,2096921,187151,620263,0
2096921,2096921,186754,619118,0
2096921,2096921,186366,619059,0
2096921,2096921,186558,618976,0
2096921,2096921,186520,619251,0
2096921,2096921,186460,618833,0
2096921,2096921,185387,616622,0
2096921,2096921,185295,616116,0
2096921,2096921,185359,616127,0
2096921,2096921,185349,616013,0
2096921,2096921,185067,615928,0
2096921,2096921,184362,613585,0
2096921,2096921,183942,612922,0
2096921,2096921,183951,612729,0
2096921,2096921,183811,612733,0
2096921,2096921,183897,613029,0
2096921,2096921,183108,610678,0
2096921,2096921,182842,610214,0
2096921,2096921,183116,610309,0
2096921,2096921,182703,610388,0
2096921,2096921,183095,609823,0
2096921,2096921,182301,608316,0
2096921,2096921,182213,608371,0
2096921,2096921,182079,608297,0
2096921,2096921,182098,608164,0
2096921,2096921,182046,608196,0
2096921,2096921,181651,607258,0
2096921,2096921,181467,606774,0
2096921,2096921,181626,606824,0
2096921,2096921,181558,606512,0
2096921,2096921,181382,606668,0
2096921,2096921,181292,606036,0
2096921,2096921,181368,606065,0
2096921,2096921,181141,605892,0
2096921,2096921,181175,605876,0
2096921,2096921,181246,605713,0
2096921,2096921,180961,605399,0
2096921,2096921,180821,605002,0
2096921,2096921,180875,604729,0
2096921,2096921,180596,605009,0
2096921,2096921,181233,605189,0
2096921,2096921,180749,604770,0
2096921,2096921,180670,605023,0
2096921,2096921,180750,605024,0
2096921,2096921,180931,604910,0
2096921,2096921,180897,604703,0
2096921,2096921,180611,604560,0
2096921,2096921,180447,604416,0
2096921,2096921,180831,604816,0
2096921,2096921,180640,604790,0
2096921,2096921,180985,604737,0
2096921,2096921,180741,604962,0
2096921,2096921,180975,604664,0
2096921,2096921,181022,605002,0
2096921,2096921,180854,604919,0
2096921,2096921,180654,604852,0
2096921,2096921,180814,604999,0
2096921,2096921,180964,604931,0
2096921,2096921,181041,604851,0
2096921,2096921,180737,605046,0
2096921,2096921,180841,604995,0
2096921,2096921,180889,605517,0
2096921,2096921,180977,605533,0
2096921,2096921,181084,605380,0
2096921,2096921,180774,605471,0
2096921,2096921,180996,605357,0
2096921,2096921,180754,605569,0
2096921,2096921,180644,605730,0
2096921,2096921,181208,605631,0
2096921,2096921,181153,605639,0
2096921,2096921,181208,605787,0
2096921,2096921,181035,606378,0
2096921,2096921,181601,606683,0
2096921,2096921,181019,606464,0
2096921,2096921,181042,606323,0
2096921,2096921,181017,605801,0
2096921,2096921,181092,606609,0
2096921,2096921,181548,606681,0
2096921,2096921,181576,606933,0
2096921,2096921,181504,606888,0
2096921,2096921,181533,606904,0
2096921,2096921,181666,607735,0
2096921,2096921,181797,607698,0
2096921,2096921,181924,607840,0
2096921,2096921,181693,607621,0
2096921,2096921,181620,607902,0
2096921,2096921,181750,608275,0
2096921,2096921,182144,608388,0
2096921,2096921,182105,608282,0
2096921,2096921,182166,608111,0
2096921,2096921,182039,608011,0
2096921,2096921,182478,608878,0
2096921,2096921,182379,608658,0
2096921,2096921,182269,609279,0
2096921,2096921,182264,608740,0
2096921,2096921,182487,608950,0
2096921,2096921,182340,609380,0
2096921,2096921,182438,609571,0
2096921,2096921,182393,609803,0
2096921,2096921,182686,609644,0
2096921,2096921,182589,609578,0
2096921,2096921,182813,610259,0
2096921,2096921,183394,610316,0
2096921,2096921,182895,610393,0
2096921,2096921,182497,610217,0
2096921,2096921,182967,610440,0
2096921,2096921,183214,610723,0
2096921,2096921,183224,610928,0
2096921,2096921,183215,610845,0
2096921,2096921,182997,610638,0
2096921,2096921,183220,610908,0
2096921,2096921,183520,611312,0
2096921,2096921,183419,611633,0
2096921,2096921,183319,611805,0
2096921,2096921,183165,611702,0
2096921,2096921,183441,611761,0
2096921,2096921,183577,612221,0
2096921,2096921,183823,612120,0
2096921,2096921,183739,612247,0
2096921,2096921,183686,611805,0
2096921,2096921,183626,612507,0
2096921,2096921,184101,612682,0
2096921,2096921,183871,613036,0
2096921,2096921,183734,612964,0
2096921,2096921,183823,612719,0
2096921,2096921,184193,612643,0
2096921,2096921,183851,613398,0
2096921,2096921,184240,613631,0
2096921,2096921,184258,613383,0
2096921,2096921,184179,613542,0
2096921,2096921,184165,613608,0
2096921,2096921,184503,613741,0
2096921,2096921,184281,613903,0
2096921,2096921,184517,614184,0
2096921,2096921,184401,613853,0
2096921,2096921,184331,613863,0
2096921,2096921,184316,614557,0
2096921,2096921,184535,614434,0
2096921,2096921,184729,614509,0
2096921,2096921,184909,614329,0
2096921,2096921,184517,614525,0
2096921,2096921,184914,614591,0
2096921,2096921,184698,614881,0
2096921,2096921,184777,614983,0
2096921,2096921,184759,614934,0
2096921,2096921,184839,615004,0
2096921,2096921,184754,615089,0
2096921,2096921,184808,615043,0
2096921,2096921,184810,615014,0
2096921,2096921,184841,615054,0
2096921,2096921,184747,615319,0
2096921,2096921,185074,615379,0
2096921,2096921,185078,615570,0
2096921,2096921,184805,615607,0
2096921,2096921,184926,615505,0
2096921,2096921,184892,615241,0
2096921,2096921,184648,615534,0
2096921,2096921,184707,615038,0
2096921,2096921,184803,615359,0
2096921,2096921,184689,615185,0
2096921,2096921,185035,615523,0
2096921,2096921,185071,615365,0
2096921,2096921,185292,615758,0
2096921,2096921,185061,615355,0
2096921,2096921,184720,615361,0
2096921,2096921,184605,615378,0
2096921,2096921,184686,615165,0
2096921,2096921,184838,615084,0
2096921,2096921,184710,615044,0
2096921,2096921,184845,614966,0
2096921,2096921,185168,615305,0
2096921,2096921,184746,615224,0
2096921,2096921,184747,615401,0
2096921,2096921,184566,615063,0
2096921,2096921,184889,615039,0
2096921,2096921,184772,614978,0
2096921,2096921,184344,614957,0
2096921,2096921,184572,614799,0
2096921,2096921,184702,614687,0
2096921,2096921,184454,614387,0
2096921,2096921,184797,614774,0
2096921,2096921,184933,614738,0
2096921,2096921,184612,614421,0
2096921,2096921,184665,614559,0
2096921,2096921,184608,614862,0
2096921,2096921,184350,614770,0
2096921,2096921,184266,614355,0
2096921,2096921,184513,614114,0
2096921,2096921,184676,614131,0
2096921,2096921,184501,614229,0
2096921,2096921,184487,614251,0
2096921,2096921,184384,614285,0
2096921,2096921,184750,614485,0
2096921,2096921,184767,614637,0
2096921,2096921,184694,614361,0
2096921,2096921,184520,614412,0
2096921,2096921,184577,614304,0
2096921,2096921,184436,614122,0
2096921,2096921,184525,614280,0
2096921,2096921,184271,614377,0
2096921,2096921,184606,614463,0
2096921,2096921,184583,614525,0
2096921,2096921,184766,614374,0
2096921,2096921,184656,614577,0
2096921,2096921,184580,614416,0
2096921,2096921,184552,614471,0
2096921,2096921,184585,614543,0
2096921,2096921,184528,614660,0
2096921,2096921,184606,614577,0
2096921,2096921,184527,614466,0
2096921,2096921,184587,614302,0
2096921,2096921,184357,614684,0
2096921,2096921,184834,614592,0
2096921,2096921,184823,614899,0
2096921,2096921,184953,615114,0
2096921,2096921,184860,614770,0
2096921,2096921,184631,615236,0
2096921,2096921,184621,615081,0
2096921,2096921,184623,615114,0
2096921,2096921,184779,615111,0
2096921,2096921,184873,615145,0
2096921,2096921,184759,615462,0
2096921,2096921,185036,615518,0
2096921,2096921,184946,615791,0
2096921,2096921,184944,615524,0
2096921,2096921,184991,615675,0
2096921,2096921,185218,615960,0
2096921,2096921,185090,615790,0
2096921,2096921,185393,615892,0
2096921,2096921,185193,616251,0
2096921,2096921,185290,616116,0
2096921,2096921,185291,616599,0
2096921,2096921,185322,616566,0
2096921,2096921,185233,616539,0
2096921,2096921,185262,616382,0
2096921,2096921,185196,616683,0
2096921,2096921,185252,616576,0
2096921,2096921,185153,616909,0
2096921,2096921,185544,616832,0
2096921,2096921,185682,616923,0
2096921,2096921,185582,616809,0
2096921,2096921,185696,617397,0
2096921,2096921,185661,617130,0
2096921,2096921,185676,617413,0
2096921,2096921,185545,617162,0
2096921,2096921,185598,617496,0
2096921,2096921,185882,617335,0
2096921,2096921,185917,617554,0
2096921,2096921,185574,617482,0
2096921,2096921,185603,617711,0
2096921,2096921,185753,617398,0
2096921,2096921,186060,617726,0
2096921,2096921,185768,618273,0
2096921,2096921,185904,618047,0
2096921,2096921,185964,617760,0
2096921,2096921,186162,617925,0
2096921,2096921,186059,618356,0
2096921,2096921,186246,618127,0
2096921,2096921,186260,618312,0
2096921,2096921,186058,618324,0
2096921,2096921,186255,618522,0
2096921,2096921,186614,618646,0
2096921,2096921,186487,618555,0
2096921,2096921,186390,618874,0
2096921,2096921,186067,619013,0
2096921,2096921,186108,618334,0
2096921,2096921,186126,618864,0
2096921,2096921,186242,618989,0
2096921,2096921,186145,619011,0
2096921,2096921,186310,619065,0
2096921,2096921,186451,619017,0
2096921,2096921,186656,619126,0
2096921,2096921,186546,618829,0
2096921,2096921,186581,619099,0
2096921,2096921,186596,619420,0
2096921,2096921,186592,619209,0
2096921,2096921,186571,619186,0
2096921,2096921,186395,619356,0
2096921,2096921,186550,619281,0
2096921,2096921,186542,619478,0
2096921,2096921,186454,619532,0
2096921,2096921,186566,619727,0
2096921,2096921,186661,620116,0
2096921,2096921,186678,619826,0
2096921,2096921,186769,619854,0
2096921,2096921,186510,619725,0
2096921,2096921,186787,619773,0
2096921,2096921,186845,620013,0
2096921,2096921,186676,620022,0
2096921,2096921,186398,619966,0
2096921,2096921,186770,620205,0
2096921,2096921,187108,620312,0
2096921,2096921,187018,620265,0
2096921,2096921,186846,620223,0
2096921,2096921,186715,620063,0
2096921,2096921,186647,620105,0
2096921,2096921,186801,620441,0
2096921,2096921,186931,620646,0
2096921,2096921,186853,620463,0
2096921,2096921,186911,620610,0
2096921,2096921,186790,620599,0
2096921,2096921,187009,620796,0
2096921,2096921,187025,620718,0
2096921,2096921,186916,620775,0
2096921,2096921,186896,620925,0
2096921,2096921,187151,620751,0
2096921,2096921,187176,620792,0
2096921,2096921,187147,620534,0
2096921,2096921,187228,620674,0
2096921,2096921,187146,620730,0
2096921,2096921,187365,620792,0
2096921,2096921,187082,621036,0
2096921,2096921,187414,620936,0
2096921,2096921,187484,621085,0
2096921,2096921,187522,620776,0
2096921,2096921,187126,620893,0
2096921,2096921,187226,621050,0
2096921,2096921,187202,621004,0
2096921,2096921,187361,621013,0
2096921,2096921,187368,621078,0
2096921,2096921,187472,621080,0
2096921,2096921,187383,621231,0
2096921,2096921,187508,621330,0
2096921,2096921,187098,621179,0
2096921,2096921,186994,621077,0
2096921,2096921,187383,621121,0
2096921,2096921,187321,621140,0
2096921,2096921,187286,621066,0
2096921,2096921,187196,621023,0
2096921,2096921,187431,621340,0
2096921,2096921,187251,621292,0
2096921,2096921,187314,621579,0
2096921,2096921,187590,621518,0
2096921,2096921,187284,621216,0
2096921,2096921,187402,621112,0
2096921,2096921,187275,621456,0
2096921,2096921,187297,620968,0
2096921,2096921,186987,621175,0
2096921,2096921,187214,621707,0
2096921,2096921,187224,621386,0
2096921,2096921,187392,621461,0
2096921,2096921,187518,621194,0
2096921,2096921,187335,621284,0
2096921,2096921,187359,621348,0
2096921,2096921,187578,621063,0
2096921,2096921,187450,621514,0
2096921,2096921,187243,621100,0
2096921,2096921,187489,621277,0
2096921,2096921,187607,621186,0
2096921,2096921,187670,621462,0
2096921,2096921,187561,621490,0
2096921,2096921,187687,621572,0
2096921,2096921,187547,621605,0
2096921,2096921,187338,621385,0
2096921,2096921,187522,621130,0
2096921,2096921,187412,621252,0
2096921,2096921,187357,621322,0
2096921,2096921,187146,621451,0
2096921,2096921,187578,621421,0
2096921,2096921,187483,621215,0
2096921,2096921,187698,621531,0
2096921,2096921,187580,621477,0
2096921,2096921,187565,621196,0
2096921,2096921,187503,621502,0
2096921,2096921,187427,621059,0
2096921,2096921,187504,621374,0
2096921,2096921,187452,621236,0
2096921,2096921,187478,621525,0
2096921,2096921,187124,621183,0
2096921,2096921,187511,621157,0
2096921,2096921,187287,621144,0
2096921,2096921,187698,621242,0
2096921,2096921,187289,621103,0
2096921,2096921,187502,621243,0
2096921,2096921,187440,621070,0
2096921,2096921,187400,621177,0
2096921,2096921,187246,621049,0
2096921,2096921,187453,620925,0
2096921,2096921,187240,620932,0
2096921,2096921,187417,621316,0
2096921,2096921,187609,621157,0
2096921,2096921,187572,621173,0
2096921,2096921,187445,620895,0
2096921,2096921,187492,621139,0
2096921,2096921,187233,621122,0
2096921,2096921,187539,621113,0
2096921,2096921,187457,621040,0
2096921,2096921,187501,620809,0
2096921,2096921,187405,620851,0
2096921,2096921,187450,620959,0
2096921,2096921,187375,620947,0
2096921,2096921,187452,620858,0
2096921,2096921,187400,621055,0
2096921,2096921,187712,621047,0
2096921,2096921,187169,620887,0
2096921,2096921,187220,620747,0
2096921,2096921,187074,620307,0
2096921,2096921,187305,620433,0
2096921,2096921,187455,620637,0
2096921,2096921,187750,620890,0
2096921,2096921,187273,620853,0
2096921,2096921,187621,620795,0
2096921,2096921,187317,620784,0
2096921,2096921,187524,620541,0
2096921,2096921,187183,620607,0
2096921,2096921,187245,620474,0
2096921,2096921,187192,620533,0
2096921,2096921,187334,620509,0
2096921,2096921,187252,620261,0
2096921,2096921,187318,620478,0
2096921,2096921,187085,620502,0
2096921,2096921,187443,620174,0
2096921,2096921,187456,620238,0
2096921,2096921,187393,620177,0
2096921,2096921,187262,620435,0
2096921,2096921,187406,620086,0
2096921,2096921,187210,619945,0
2096921,2096921,187154,620307,0
2096921,2096921,187126,620329,0
2096921,2096921,187367,620133,0
2096921,2096921,187300,620200,0
2096921,2096921,187357,620172,0
2096921,2096921,187098,619987,0
2096921,2096921,187246,619928,0
2096921,2096921,186931,620029,0
2096921,2096921,187235,619787,0
2096921,2096921,187071,619663,0
2096921,2096921,187302,619721,0
2096921,2096921,187117,619666,0
2096921,2096921,187395,619622,0
2096921,2096921,187261,619957,0
2096921,2096921,187270,619473,0
2096921,2096921,187153,619590,0
2096921,2096921,187067,619495,0
2096921,2096921,186795,619467,0
2096921,2096921,186994,619467,0
2096921,2096921,186865,619024,0
2096921,2096921,186768,618836,0
2096921,2096921,186932,619067,0
2096921,2096921,187110,619319,0
2096921,2096921,187155,619192,0
2096921,2096921,186919,619322,0
2096921,2096921,186963,619377,0
2096921,2096921,186838,619176,0
2096921,2096921,186811,618977,0
2096921,2096921,186810,619059,0
2096921,2096921,186904,618728,0
2096921,2096921,186932,618566,0
2096921,2096921,186727,618601,0
2096921,2096921,186999,618860,0
2096921,2096921,186994,618936,0
2096921,2096921,186700,618379,0
2096921,2096921,186673,618342,0
2096921,2096921,186749,618546,0
2096921,2096921,186414,618405,0
2096921,2096921,186673,618549,0
2096921,2096921,186416,618157,0
2096921,2096921,186274,618043,0
2096921,2096921,186490,618388,0
2096921,2096921,186350,618353,0
2096921,2096921,186722,618234,0
2096921,2096921,186534,618052,0
2096921,2096921,186505,618085,0
2096921,2096921,186588,618138,0
2096921,2096921,186385,618062,0
2096921,2096921,186610,617633,0
2096921,2096921,186311,617497,0
2096921,2096921,186192,617732,0
2096921,2096921,186472,617868,0
2096921,2096921,186224,617752,0
2096921,2096921,186593,617497,0
2096921,2096921,186534,617369,0
2096921,2096921,186281,617275,0
2096921,2096921,186100,617242,0
2096921,2096921,186273,617351,0
2096921,2096921,186462,617338,0
2096921,2096921,186368,616887,0
2096921,2096921,186005,616905,0
2096921,2096921,186352,617144,0
2096921,2096921,186390,617188,0
2096921,2096921,186364,617084,0
2096921,2096921,186110,616615,0
2096921,2096921,185992,616240,0
2096921,2096921,186029,616112,0
2096921,2096921,185934,616049,0
2096921,2096921,185770,616111,0
2096921,2096921,185896,615684,0
2096921,2096921,185602,615308,0
2096921,2096921,185501,615212,0
2096921,2096921,185545,615010,0
2096921,2096921,185614,615304,0
2096921,2096921,185235,614651,0
2096921,2096921,184987,613928,0
2096921,2096921,185329,614176,0
2096921,2096921,185305,614121,0
2096921,2096921,185020,613817,0
2096921,2096921,184650,612916,0
2096921,2096921,184392,612352,0
2096921,2096921,184365,612568,0
2096921,2096921,184626,612800,0
2096921,2096921,184582,612478,0
2096921,2096921,184099,611593,0
2096921,2096921,184016,610997,0
2096921,2096921,184131,611173,0
2096921,2096921,184149,611146,0
2096921,2096921,183799,611055,0
2096921,2096921,182846,608624,0
2096921,2096921,182616,607759,0
2096921,2096921,182787,607624,0
2096921,2096921,182440,607537,0
2096921,2096921,182844,607684,0
2096921,2096921,181570,604874,0
2096921,2096921,181377,603895,0
2096921,2096921,181380,603851,0
2096921,2096921,181193,603715,0
2096921,2096921,181137,603868,0
2096921,2096921,180362,601655,0
2096921,2096921,179868,600977,0
2096921,2096921,179855,601088,0
2096921,2096921,180003,600898,0
2096921,2096921,180165,600928,0
2096921,2096921,179417,598936,0
2096921,2096921,179343,598463,0
2096921,2096921,179369,598623,0
2096921,2096921,179151,598413,0
2096921,2096921,179067,598272,0
2096921,2096921,178524,597161,0
2096921,2096921,178560,596620,0
2096921,2096921,178628,596349,0
2096921,2096921,178482,596643,0
2096921,2096921,178582,596733,0
2096921,2096921,178022,595442,0
2096921,2096921,177922,595381,0
2096921,2096921,178183,595299,0
2096921,2096921,178023,595313,0
2096921,2096921,178236,595228,0
2096921,2096921,177759,594392,0
2096921,2096921,177258,594185,0
2096921,2096921,177512,594389,0
2096921,2096921,177446,594193,0
2096921,2096921,177409,594298,0
2096921,2096921,177689,593790,0
2096921,2096921,177235,593311,0
2096921,2096921,177154,593626,0
2096921,2096921,177101,593566,0
2096921,2096921,177190,593608,0
2096921,2096921,177203,593200,0
2096921,2096921,177020,593118,0
2096921,2096921,177098,593106,0
2096921,2096921,177055,592963,0
2096921,2096921,177031,593087,0
2096921,2096921,176882,592816,0
2096921,2096921,177243,592671,0
2096921,2096921,176986,592480,0
2096921,2096921,176916,592417,0
2096921,2096921,177172,592690,0
2096921,2096921,176969,592481,0
2096921,2096921,177385,592572,0
2096921,2096921,177103,592827,0
2096921,2096921,177024,592902,0
2096921,2096921,177143,592761,0
2096921,2096921,176979,593037,0
2096921,2096921,177132,593079,0
2096921,2096921,177186,593095,0
2096921,2096921,177009,593070,0
2096921,2096921,177216,592929,0
2096921,2096921,177045,592927,0
2096921,2096921,177206,592535,0
2096921,2096921,176918,592948,0
2096921,2096921,177036,592581,0
2096921,2096921,177096,593087,0
2096921,2096921,176835,592980,0
2096921,2096921,177409,592899,0
2096921,2096921,177451,593098,0
2096921,2096921,177614,593274,0
2096921,2096921,177219,593191,0
2096921,2096921,177283,593286,0
2096921,2096921,177357,593291,0
2096921,2096921,177325,593264,0
2096921,2096921,177399,593498,0
2096921,2096921,177486,593305,0
2096921,2096921,177480,593404,0
2096921,2096921,177543,593635,0
2096921,2096921,177609,593619,0
2096921,2096921,177584,593628,0
2096921,2096921,177654,593754,0
2096921,2096921,178077,593723,0
2096921,2096921,177626,594336,0
2096921,2096921,177713,594175,0
2096921,2096921,177714,594052,0
2096921,2096921,177860,594267,0
2096921,2096921,177663,594284,0
2096921,2096921,178057,594376,0
2096921,2096921,177898,594112,0
2096921,2096921,177925,594284,0
2096921,2096921,177599,594577,0
2096921,2096921,178278,594544,0
2096921,2096921,177801,594522,0
2096921,2096921,178030,594673,0
2096921,2096921,177904,594859,0
2096921,2096921,177902,594728,0
2096921,2096921,178117,595055,0
2096921,2096921,177920,594923,0
2096921,2096921,177928,594987,0
2096921,2096921,178174,594996,0
2096921,2096921,177954,594967,0
2096921,2096921,178462,595237,0
2096921,2096921,178497,595281,0
2096921,2096921,178434,595210,0
2096921,2096921,178545,595222,0
2096921,2096921,178444,595236,0
2096921,2096921,178612,595562,0
2096921,2096921,178381,595586,0
2096921,2096921,178143,595325,0
2096921,2096921,178355,595539,0
2096921,2096921,178277,595539,0
2096921,2096921,178501,596042,0
2096921,2096921,178474,595974,0
2096921,2096921,178713,595748,0
2096921,2096921,178598,595898,0
2096921,2096921,178613,596022,0
2096921,2096921,178860,596315,0
2096921,2096921,178798,596358,0
2096921,2096921,178551,596099,0
2096921,2096921,178526,596395,0
2096921,2096921,178686,596385,0
2096921,2096921,178893,596565,0
2096921,2096921,178808,596592,0
2096921,2096921,178774,596685,0
2096921,2096921,179062,597020,0
2096921,2096921,178854,596961,0
2096921,2096921,179082,597093,0
2096921,2096921,179152,597079,0
2096921,2096921,178872,596987,0
2096921,2096921,179147,596802,0
2096921,2096921,178983,596939,0
2096921,2096921,179386,597134,0
2096921,2096921,179216,597355,0
2096921,2096921,178978,596877,0
2096921,2096921,179114,597009,0
2096921,2096921,179259,596974,0
2096921,2096921,179183,597147,0
2096921,2096921,179302,597138,0
2096921,2096921,179272,597316,0
2096921,2096921,179283,597139,0
2096921,2096921,179235,597154,0
2096921,2096921,179060,597155,0
2096921,2096921,179200,597140,0
2096921,2096921,179108,596975,0
2096921,2096921,179286,597222,0
2096921,2096921,179219,596995,0
2096921,2096921,179106,597132,0
2096921,2096921,179140,596982,0
2096921,2096921,179070,597038,0
2096921,2096921,179011,597041,0
2096921,2096921,179182,597123,0
2096921,2096921,178919,596962,0
2096921,2096921,179142,596908,0
2096921,2096921,179216,596740,0
2096921,2096921,179164,596697,0
2096921,2096921,179144,596901,0
2096921,2096921,179322,596616,0
2096921,2096921,178811,596628,0
2096921,2096921,179219,596571,0
2096921,2096921,179211,596337,0
2096921,2096921,179164,596166,0
2096921,2096921,178952,596229,0
2096921,2096921,178636,595878,0
2096921,2096921,178826,596149,0
2096921,2096921,178942,595884,0
2096921,2096921,179053,596076,0
2096921,2096921,179016,595749,0
2096921,2096921,178509,595585,0
2096921,2096921,178803,595478,0
2096921,2096921,178211,595600,0
2096921,2096921,178771,595904,0
2096921,2096921,178452,595095,0
2096921,2096921,178576,595005,0
2096921,2096921,178582,595091,0
2096921,2096921,178589,595226,0
2096921,2096921,178470,595219,0
2096921,2096921,178679,594973,0
2096921,2096921,178362,594906,0
2096921,2096921,178449,594708,0
2096921,2096921,178532,594582,0
2096921,2096921,178328,594632,0
2096921,2096921,178164,594173,0
2096921,2096921,177989,594139,0
2096921,2096921,178234,594306,0
2096921,2096921,178212,594309,0
2096921,2096921,178194,594191,0
2096921,2096921,178311,594225,0
2096921,2096921,178175,594310,0
2096921,2096921,178322,593974,0
2096921,2096921,178107,594157,0
2096921,2096921,177981,593858,0
2096921,2096921,178071,594026,0
2096921,2096921,177809,593769,0
2096921,2096921,178238,593674,0
2096921,2096921,178093,593962,0
2096921,2096921,178263,593690,0
2096921,2096921,178412,593652,0
2096921,2096921,178229,593580,0
2096921,2096921,178187,593760,0
2096921,2096921,178127,593608,0
2096921,2096921,178144,593516,0
2096921,2096921,178051,593285,0
2096921,2096921,178045,593146,0
2096921,2096921,177951,593613,0
2096921,2096921,178112,593666,0
2096921,2096921,178099,593559,0
2096921,2096921,178205,593555,0
2096921,2096921,177883,593597,0
2096921,2096921,178098,593626,0
2096921,2096921,177730,593861,0
2096921,2096921,178014,593625,0
2096921,2096921,178121,593841,0
2096921,2096921,178066,593643,0
2096921,2096921,178226,593804,0
2096921,2096921,177845,593943,0
2096921,2096921,178427,593835,0
2096921,2096921,178351,593866,0
2096921,2096921,178621,593881,0
2096921,2096921,178348,594060,0
2096921,2096921,178510,594134,0
2096921,2096921,178306,593868,0
2096921,2096921,178330,594208,0
2096921,2096921,178176,594182,0
2096921,2096921,178079,594307,0
2096921,2096921,178463,594072,0
2096921,2096921,178549,594381,0
2096921,2096921,178422,594619,0
2096921,2096921,178492,594645,0
2096921,2096921,178423,594631,0
2096921,2096921,178369,594546,0
2096921,2096921,178413,594636,0
2096921,2096921,178462,594543,0
2096921,2096921,178717,594532,0
2096921,2096921,178746,594622,0
2096921,2096921,178517,594826,0
2096921,2096921,178837,594566,0
2096921,2096921,178696,594739,0
2096921,2096921,178804,594799,0
2096921,2096921,178888,594739,0
2096921,2096921,178536,594618,0
2096921,2096921,178578,594897,0
2096921,2096921,178773,595034,0
2096921,2096921,178686,595132,0
2096921,2096921,178685,595030,0
2096921,2096921,178693,595057,0
2096921,2096921,178992,595202,0
2096921,2096921,178483,595323,0
2096921,2096921,178669,595259,0
2096921,2096921,178958,595340,0
2096921,2096921,178923,595553,0
2096921,2096921,178742,595317,0
2096921,2096921,178807,595359,0
2096921,2096921,178982,595222,0
2096921,2096921,178836,595529,0
2096921,2096921,178913,595419,0
2096921,2096921,179004,595382,0
2096921,2096921,179150,595608,0
2096921,2096921,179025,595613,0
2096921,2096921,178983,595703,0
2096921,2096921,178840,595720,0
2096921,2096921,178738,595506,0
2096921,2096921,178992,595725,0
2096921,2096921,178943,595851,0
2096921,2096921,179029,596022,0
2096921,2096921,179200,595955,0
2096921,2096921,179154,595899,0
2096921,2096921,179167,596357,0
2096921,2096921,179333,596038,0
2096921,2096921,179295,596048,0
2096921,2096921,179334,596100,0
2096921,2096921,179009,596163,0
2096921,2096921,179215,596018,0
2096921,2096921,179222,596027,0
2096921,2096921,179475,596257,0
2096921,2096921,179075,595807,0
2096921,2096921,179204,596161,0
2096921,2096921,179652,596613,0
2096921,2096921,179654,596502,0
2096921,2096921,179518,596440,0
2096921,2096921,179042,596359,0
2096921,2096921,179140,596393,0
2096921,2096921,179450,596387,0
2096921,2096921,179572,596460,0
2096921,2096921,179431,596818,0
2096921,2096921,179561,596622,0
2096921,2096921,179523,596772,0
2096921,2096921,179617,596955,0
2096921,2096921,179937,596798,0
2096921,2096921,179669,596841,0
2096921,2096921,179327,596694,0
2096921,2096921,179518,596871,0
2096921,2096921,179457,597064,0
2096921,2096921,179549,596975,0
2096921,2096921,179681,597363,0
2096921,2096921,179685,596966,0
2096921,2096921,179685,597180,0
2096921,2096921,179519,597190,0
2096921,2096921,179917,597245,0
2096921,2096921,179918,597255,0
2096921,2096921,179698,597105,0
2096921,2096921,179687,597150,0
2096921,2096921,179706,597277,0
2096921,2096921,179855,597149,0
2096921,2096921,179714,597130,0
2096921,2096921,179965,597421,0
2096921,2096921,179811,597310,0
2096921,2096921,179702,597248,0
2096921,2096921,179708,597450,0
2096921,2096921,180032,597435,0
2096921,2096921,179586,597310,0
2096921,2096921,179960,597197,0
2096921,2096921,179924,597724,0
2096921,2096921,180098,597465,0
2096921,2096921,179954,597569,0
2096921,2096921,179964,597518,0
2096921,2096921,179831,597741,0
2096921,2096921,179976,597855,0
2096921,2096921,180135,597799,0
2096921,2096921,180091,597697,0
2096921,2096921,179855,597810,0
2096921,2096921,179939,597734,0
2096921,2096921,179858,597852,0
2096921,2096921,179953,597848,0
2096921,2096921,179975,598061,0
2096921,2096921,180079,597945,0
2096921,2096921,180173,597852,0
2096921,2096921,180242,597950,0
2096921,2096921,180447,598354,0
2096921,2096921,180188,598169,0
2096921,2096921,180355,598294,0
2096921,2096921,179960,598070,0
2096921,2096921,179945,598439,0
2096921,2096921,180041,598213,0
2096921,2096921,180046,598292,0
2096921,2096921,180039,598304,0
2096921,2096921,180297,598468,0
2096921,2096921,180436,598497,0
2096921,2096921,180611,598437,0
2096921,2096921,180195,598698,0
2096921,2096921,180373,598518,0
2096921,2096921,180229,598431,0
2096921,2096921,180329,598474,0
2096921,2096921,180362,598544,0
2096921,2096921,180360,598538,0
2096921,2096921,180536,598600,0
2096921,2096921,180473,598469,0
2096921,2096921,180361,598442,0
2096921,2096921,180329,598954,0
2096921,2096921,180464,598768,0
2096921,2096921,180373,598768,0
2096921,2096921,180288,598936,0
2096921,2096921,180593,598786,0
2096921,2096921,180294,598763,0
2096921,2096921,180697,598976,0
2096921,2096921,180553,598706,0
2096921,2096921,180485,598880,0
2096921,2096921,180539,599037,0
2096921,2096921,180871,598830,0
2096921,2096921,180585,598560,0
2096921,2096921,180600,598918,0
2096921,2096921,180432,598846,0
2096921,2096921,180704,598591,0
2096921,2096921,180295,598879,0
2096921,2096921,180472,598760,0
2096921,2096921,180670,598855,0
2096921,2096921,180607,599122,0
2096921,2096921,180722,598919,0
2096921,2096921,180621,599323,0
2096921,2096921,180557,599477,0
2096921,2096921,180629,599433,0
2096921,2096921,180447,599227,0
2096921,2096921,180548,598982,0
2096921,2096921,180591,599385,0
2096921,2096921,180727,599320,0
2096921,2096921,180643,599103,0
2096921,2096921,180739,599240,0
2096921,2096921,180547,599426,0
2096921,2096921,180842,599444,0
2096921,2096921,180609,599445,0
2096921,2096921,180423,599440,0
2096921,2096921,180146,599499,0
2096921,2096921,180585,599569,0
2096921,2096921,180792,599621,0
2096921,2096921,180987,599587,0
2096921,2096921,180999,599801,0
2096921,2096921,180596,599778,0
2096921,2096921,180666,599781,0
2096921,2096921,180786,599860,0
2096921,2096921,180574,599937,0
2096921,2096921,180403,599235,0
2096921,2096921,180683,599491,0
2096921,2096921,180727,599698,0
2096921,2096921,180798,599731,0
2096921,2096921,180684,599601,0
2096921,2096921,180865,599815,0
2096921,2096921,181086,599598,0
2096921,2096921,180968,600036,0
2096921,2096921,180840,599900,0
2096921,2096921,180790,599866,0
2096921,2096921,180989,599893,0
2096921,2096921,181056,600165,0
2096921,2096921,181012,599810,0
2096921,2096921,180943,600082,0
2096921,2096921,180677,599910,0
2096921,2096921,180654,600300,0
2096921,2096921,180987,600253,0
2096921,2096921,180733,600349,0
2096921,2096921,181071,599945,0
2096921,2096921,180757,600183,0
2096921,2096921,180852,599973,0
2096921,2096921,181039,600041,0
2096921,2096921,180812,599732,0
2096921,2096921,180723,600115,0
2096921,2096921,181038,600099,0
2096921,2096921,181199,599881,0
2096921,2096921,181057,600273,0
2096921,2096921,181282,600092,0
2096921,2096921,181155,600388,0
2096921,2096921,181283,600553,0
2096921,2096921,180983,600253,0
2096921,2096921,181046,599917,0
2096921,2096921,180804,600058,0
2096921,2096921,180829,600085,0
2096921,2096921,181174,600419,0
2096921,2096921,181222,600236,0
2096921,2096921,181235,600264,0
2096921,2096921,181181,600515,0
2096921,2096921,181121,600420,0
2096921,2096921,181283,600520,0
2096921,2096921,180978,600443,0
2096921,2096921,181079,600441,0
2096921,2096921,180815,600312,0
2096921,2096921,181045,600089,0
2096921,2096921,181199,600165,0
2096921,2096921,181128,600251,0
2096921,2096921,180907,600242,0
2096921,2096921,180983,600657,0
2096921,2096921,181177,600322,0
2096921,2096921,181210,600225,0
2096921,2096921,181014,600639,0
2096921,2096921,181275,600336,0
2096921,2096921,180956,600271,0
2096921,2096921,180837,600453,0
2096921,2096921,180966,600330,0
2096921,2096921,181235,600463,0
2096921,2096921,181065,600392,0
2096921,2096921,180951,600288,0
2096921,2096921,180872,600753,0
2096921,2096921,180860,600196,0
2096921,2096921,180672,600114,0
2096921,2096921,180699,600143,0
2096921,2096921,181010,600230,0
2096921,2096921,181029,600363,0
2096921,2096921,181026,600407,0
2096921,2096921,181022,600490,0
2096921,2096921,181119,600525,0
2096921,2096921,180958,600417,0
2096921,2096921,181071,600489,0
2096921,2096921,180915,600385,0
2096921,2096921,180994,600497,0
2096921,2096921,180815,600303,0
2096921,2096921,180767,600435,0
2096921,2096921,180831,600142,0
2096921,2096921,180863,600094,0
2096921,2096921,181172,600362,0
2096921,2096921,181124,600586,0
2096921,2096921,181177,600467,0
2096921,2096921,181296,600637,0
2096921,2096921,180938,600335,0
2096921,2096921,180884,600405,0
2096921,2096921,180911,600167,0
2096921,2096921,181053,600281,0
2096921,2096921,180873,599971,0
2096921,2096921,181002,600298,0
2096921,2096921,181065,600075,0
2096921,2096921,181101,600300,0
2096921,2096921,180825,599851,0
2096921,2096921,180678,599702,0
2096921,2096921,180677,599687,0
2096921,2096921,180528,599665,0
2096921,2096921,180693,599495,0
2096921,2096921,180608,599371,0
2096921,2096921,180660,599221,0
2096921,2096921,180491,599297,0
2096921,2096921,180620,599308,0
2096921,2096921,180719,599179,0
2096921,2096921,180651,598638,0
2096921,2096921,180628,598230,0
2096921,2096921,180729,598241,0
2096921,2096921,180633,598228,0
2096921,2096921,180166,598331,0
2096921,2096921,179635,597418,0
2096921,2096921,179719,597193,0
2096921,2096921,179948,597330,0
2096921,2096921,179846,597018,0
2096921,2096921,179926,596902,0
2096921,2096921,179576,596017,0
2096921,2096921,179766,595902,0
2096921,2096921,179242,595875,0
2096921,2096921,179404,595882,0
2096921,2096921,179337,596032,0
2096921,2096921,178276,593752,0
2096921,2096921,178010,593160,0
2096921,2096921,178138,593086,0
2096921,2096921,178192,592553,0
2096921,2096921,178255,593135,0
2096921,2096921,177338,590540,0
2096921,2096921,177043,589677,0
2096921,2096921,176785,589414,0
2096921,2096921,176716,589547,0
2096921,2096921,176872,589535,0
2096921,2096921,176156,587394,0
2096921,2096921,176013,587241,0
2096921,2096921,175821,586927,0
2096921,2096921,175786,587086,0
2096921,2096921,176040,587014,0
2096921,2096921,175103,585565,0
2096921,2096921,175266,585136,0
2096921,2096921,174895,585356,0
2096921,2096921,174905,585261,0
2096921,2096921,174909,585243,0
2096921,2096921,174573,583999,0
2096921,2096921,174349,583790,0
2096921,2096921,174219,583609,0
2096921,2096921,174454,583664,0
2096921,2096921,174365,583822,0
2096921,2096921,174096,582885,0
2096921,2096921,174200,582932,0
2096921,2096921,173966,582730,0
2096921,2096921,174032,582604,0
2096921,2096921,174055,582576,0
2096921,2096921,173770,582258,0
2096921,2096921,173893,582003,0
2096921,2096921,173526,581765,0
2096921,2096921,173739,582092,0
2096921,2096921,173920,582164,0
2096921,2096921,173788,581885,0
2096921,2096921,173414,581876,0
2096921,2096921,173662,581732,0
2096921,2096921,173832,581572,0
2096921,2096921,173606,581714,0
2096921,2096921,173625,581467,0
2096921,2096921,173813,581519,0
2096921,2096921,173620,581599,0
2096921,2096921,173668,581749,0
2096921,2096921,173681,581716,0
2096921,2096921,173478,581753,0
2096921,2096921,173556,581614,0
2096921,2096921,173484,581838,0
2096921,2096921,173597,581729,0
2096921,2096921,173462,581427,0
2096921,2096921,173659,582010,0
2096921,2096921,173709,581798,0
2096921,2096921,173775,582140,0
2096921,2096921,173771,581938,0
2096921,2096921,173598,582218,0
2096921,2096921,173785,582411,0
2096921,2096921,173700,582180,0
2096921,2096921,174078,582197,0
2096921,2096921,173737,582358,0
2096921,2096921,173996,582212,0
2096921,2096921,173867,582631,0
2096921,2096921,174165,582541,0
2096921,2096921,173912,582562,0
2096921,2096921,174143,582645,0
2096921,2096921,174050,582741,0
2096921,2096921,174440,583282,0
2096921,2096921,174289,583394,0
2096921,2096921,174464,583244,0
2096921,2096921,174093,583555,0
2096921,2096921,174257,583534,0
2096921,2096921,174312,583687,0
2096921,2096921,174169,583981,0
2096921,2096921,174511,584164,0
2096921,2096921,174570,583890,0
2096921,2096921,174539,584475,0
2096921,2096921,174725,584665,0
2096921,2096921,174493,584917,0
2096921,2096921,174688,584762,0
2096921,2096921,174686,584773,0
2096921,2096921,174797,584777,0
2096921,2096921,174807,585520,0
2096921,2096921,174885,585538,0
2096921,2096921,174891,585573,0
2096921,2096921,174954,585708,0
2096921,2096921,175058,585769,0
2096921,2096921,175212,586262,0
2096921,2096921,175409,586759,0
2096921,2096921,175448,586501,0
2096921,2096921,175177,586503,0
2096921,2096921,175519,586382,0
2096921,2096921,175502,587042,0
2096921,2096921,175396,587249,0
2096921,2096921,175618,587340,0
2096921,2096921,175661,587023,0
2096921,2096921,175851,587160,0
2096921,2096921,175781,587712,0
2096921,2096921,175762,588107,0
2096921,2096921,175688,587863,0
2096921,2096921,175820,587985,0
2096921,2096921,175805,587805,0
2096921,2096921,176011,588662,0
2096921,2096921,176236,588543,0
2096921,2096921,176297,588545,0
2096921,2096921,176042,588317,0
2096921,2096921,176355,588729,0
2096921,2096921,176378,589148,0
2096921,2096921,176567,589582,0
2096921,2096921,176563,589675,0
2096921,2096921,176326,589662,0
2096921,2096921,176624,589461,0
2096921,2096921,176455,590233,0
2096921,2096921,176635,590195,0
2096921,2096921,176739,590397,0
2096921,2096921,177100,590237,0
2096921,2096921,176768,590359,0
2096921,2096921,177198,590810,0
2096921,2096921,177258,591441,0
2096921,2096921,176963,591023,0
2096921,2096921,177166,591029,0
2096921,2096921,176887,590945,0
2096921,2096921,177228,591636,0
2096921,2096921,177406,591653,0
2096921,2096921,177349,591926,0
2096921,2096921,177673,592074,0
2096921,2096921,177473,592087,0
2096921,2096921,177671,592369,0
2096921,2096921,177797,592811,0
2096921,2096921,177743,592649,0
2096921,2096921,177593,592690,0
2096921,2096921,177865,592648,0
2096921,2096921,177789,593319,0
2096921,2096921,178116,593605,0
2096921,2096921,177694,593488,0
2096921,2096921,177872,593170,0
2096921,2096921,178212,593133,0
2096921,2096921,178076,593703,0
2096921,2096921,177920,593883,0
2096921,2096921,178096,593568,0
2096921,2096921,178245,593696,0
2096921,2096921,178382,593839,0
2096921,2096921,178388,594275,0
2096921,2096921,178452,594330,0
2096921,2096921,178334,594381,0
2096921,2096921,178276,594122,0
2096921,2096921,178132,594566,0
2096921,2096921,178535,594527,0
2096921,2096921,178756,594781,0
2096921,2096921,178392,594749,0
2096921,2096921,178412,594587,0
2096921,2096921,178466,594283,0
2096921,2096921,178529,594935,0
2096921,2096921,178343,594839,0
2096921,2096921,178380,594842,0
2096921,2096921,178605,594830,0
2096921,2096921,178868,594915,0
2096921,2096921,178659,595270,0
2096921,2096921,178718,595471,0
2096921,2096921,178753,595237,0
2096921,2096921,178664,595234,0
2096921,2096921,178440,595311,0
2096921,2096921,178536,595099,0
2096921,2096921,178389,595366,0
2096921,2096921,178555,595305,0
2096921,2096921,178565,595177,0
2096921,2096921,178452,595342,0
2096921,2096921,178751,595444,0
2096921,2096921,178625,595500,0
2096921,2096921,178640,595250,0
2096921,2096921,178386,595119,0
2096921,2096921,178555,595478,0
2096921,2096921,178712,595212,0
2096921,2096921,178524,595630,0
2096921,2096921,178812,595493,0
2096921,2096921,178733,595331,0
2096921,2096921,178756,595374,0
2096921,2096921,178532,595496,0
2096921,2096921,178750,595448,0
2096921,2096921,178459,595693,0
2096921,2096921,178498,595396,0
2096921,2096921,178382,595378,0
2096921,2096921,178488,595242,0
2096921,2096921,178527,595569,0
2096921,2096921,178765,595301,0
2096921,2096921,178751,595164,0
2096921,2096921,178591,595287,0
2096921,2096921,179107,595803,0
2096921,2096921,178908,596157,0
2096921,2096921,178688,595832,0
2096921,2096921,178554,595952,0
2096921,2096921,178481,595730,0
2096921,2096921,178648,595809,0
2096921,2096921,178674,595820,0
2096921,2096921,178672,596025,0
2096921,2096921,178857,595950,0
2096921,2096921,178656,596132,0
2096921,2096921,178926,596309,0
2096921,2096921,179055,596422,0
2096921,2096921,178850,596219,0
2096921,2096921,178912,596321,0
2096921,2096921,178810,596101,0
2096921,2096921,178918,596874,0
2096921,2096921,179034,596716,0
2096921,2096921,179014,596661,0
2096921,2096921,179208,596622,0
2096921,2096921,179284,596986,0
2096921,2096921,179419,597251,0
2096921,2096921,179446,597107,0
2096921,2096921,179275,596997,0
2096921,2096921,178976,596908,0
2096921,2096921,179102,597042,0
2096921,2096921,179440,597770,0
2096921,2096921,179580,597804,0
2096921,2096921,179639,597823,0
2096921,2096921,179676,597865,0
2096921,2096921,179538,598071,0
2096921,2096921,179928,598697,0
2096921,2096921,179676,598788,0
2096921,2096921,179852,598822,0
2096921,2096921,179609,598850,0
2096921,2096921,179601,598786,0
2096921,2096921,179867,599275,0
2096921,2096921,179964,599298,0
2096921,2096921,180040,599169,0
2096921,2096921,180363,599310,0
2096921,2096921,180016,599593,0
2096921,2096921,180460,600339,0
2096921,2096921,180396,600192,0
2096921,2096921,180181,600146,0
2096921,2096921,180142,600340,0
2096921,2096921,180260,600139,0
2096921,2096921,180368,600646,0
2096921,2096921,180150,600647,0
2096921,2096921,180412,600725,0
2096921,2096921,180483,600838,0
2096921,2096921,180882,601020,0
2096921,2096921,180949,601384,0
2096921,2096921,181061,601310,0
2096921,2096921,180845,601319,0
2096921,2096921,180858,601611,0
2096921,2096921,180701,601482,0
2096921,2096921,180680,601935,0
2096921,2096921,180899,601913,0
2096921,2096921,181082,601886,0
2096921,2096921,180947,602137,0
2096921,2096921,181047,602223,0
2096921,2096921,181058,602959,0
2096921,2096921,181150,602889,0
2096921,2096921,180985,602744,0
2096921,2096921,181156,602933,0
2096921,2096921,181099,602796,0
2096921,2096921,181218,603238,0
2096921,2096921,181394,603122,0
2096921,2096921,181393,603485,0
2096921,2096921,181392,603486,0
2096921,2096921,181350,603748,0
2096921,2096921,182005,604038,0
2096921,2096921,181630,604328,0
2096921,2096921,181639,604406,0
2096921,2096921,181648,604376,0
2096921,2096921,181443,604162,0
2096921,2096921,181715,604777,0
2096921,2096921,181788,604897,0
2096921,2096921,181874,604856,0
2096921,2096921,181833,604999,0
2096921,2096921,181901,604800,0
2096921,2096921,182020,605344,0
2096921,2096921,182202,605521,0
2096921,2096921,182186,605641,0
2096921,2096921,182374,605738,0
2096921,2096921,182239,605699,0
2096921,2096921,182221,605874,0
2096921,2096921,182219,606054,0
2096921,2096921,182326,606101,0
2096921,2096921,182353,605933,0
2096921,2096921,182407,606164,0
2096921,2096921,182779,606693,0
2096921,2096921,182876,606811,0
2096921,2096921,182505,606539,0
2096921,2096921,182608,606490,0
2096921,2096921,182395,606554,0
2096921,2096921,182699,607019,0
2096921,2096921,182752,607399,0
2096921,2096921,182725,607138,0
2096921,2096921,182679,607254,0
2096921,2096921,183071,607323,0
2096921,2096921,183078,608143,0
2096921,2096921,182971,608265,0
2096921,2096921,182937,607984,0
2096921,2096921,183141,608057,0
2096921,2096921,182719,607963,0
2096921,2096921,183005,608234,0
2096921,2096921,183086,608306,0
2096921,2096921,183046,608380,0
2096921,2096921,182986,608505,0
2096921,2096921,183328,608323,0
2096921,2096921,183459,608766,0
2096921,2096921,183596,609257,0
2096921,2096921,183401,609323,0
2096921,2096921,183679,609259,0
2096921,2096921,183361,609523,0
2096921,2096921,183367,609371,0
2096921,2096921,183359,609895,0
2096921,2096921,183544,609757,0
2096921,2096921,183712,609565,0
2096921,2096921,183736,609927,0
2096921,2096921,183703,610071,0
2096921,2096921,183913,609964,0
2096921,2096921,183895,609998,0
2096921,2096921,183794,610323,0
2096921,2096921,183891,610326,0
2096921,2096921,184049,610497,0
2096921,2096921,183920,610696,0
2096921,2096921,183834,610776,0
2096921,2096921,183902,611171,0
2096921,2096921,184231,610867,0
2096921,2096921,184426,611178,0
2096921,2096921,184324,611521,0
2096921,2096921,184170,611427,0
2096921,2096921,184145,611400,0
2096921,2096921,183989,611330,0
2096921,2096921,184347,611605,0
2096921,2096921,184254,611864,0
2096921,2096921,184276,611702,0
2096921,2096921,184391,612051,0
2096921,2096921,184593,611858,0
2096921,2096921,184690,612513,0
2096921,2096921,184894,612774,0
2096921,2096921,184636,612617,0
2096921,2096921,184522,612304,0
2096921,2096921,184462,612415,0
2096921,2096921,184790,612636,0
2096921,2096921,184594,613066,0
2096921,2096921,184622,612706,0
2096921,2096921,184962,613040,0
2096921,2096921,184907,612944,0
2096921,2096921,185031,613396,0
2096921,2096921,184841,613597,0
2096921,2096921,185083,613545,0
2096921,2096921,184715,613340,0
2096921,2096921,184792,613701,0
2096921,2096921,184951,613711,0
2096921,2096921,184948,613749,0
2096921,2096921,185221,613649,0
2096921,2096921,185118,613690,0
2096921,2096921,185042,613938,0
2096921,2096921,185389,614455,0
2096921,2096921,185235,614526,0
2096921,2096921,185264,614497,0
2096921,2096921,185326,614355,0
2096921,2096921,185326,614465,0
2096921,2096921,185411,614819,0
2096921,2096921,185452,614855,0
2096921,2096921,185332,614477,0
2096921,2096921,185445,614932,0
2096921,2096921,185285,614757,0
2096921,2096921,185616,615133,0
2096921,2096921,185602,615262,0
2096921,2096921,185435,615342,0
2096921,2096921,185455,615281,0
2096921,2096921,185346,615214,0
2096921,2096921,185750,615269,0
2096921,2096921,185943,615549,0
2096921,2096921,185595,615488,0
2096921,2096921,185820,615549,0
2096921,2096921,185931,615592,0
2096921,2096921,185839,615934,0
2096921,2096921,185672,616104,0
2096921,2096921,185723,616266,0
2096921,2096921,185718,616235,0
2096921,2096921,185708,616316,0
2096921,2096921,185622,616396,0
2096921,2096921,186077,616560,0
2096921,2096921,186029,616358,0
2096921,2096921,185805,616595,0
2096921,2096921,186217,616848,0
2096921,2096921,186155,616912,0
2096921,2096921,186154,616960,0
2096921,2096921,186405,616995,0
2096921,2096921,186054,616871,0
2096921,2096921,185936,616782,0
2096921,2096921,186283,617167,0
2096921,2096921,186370,617242,0
2096921,2096921,186315,617546,0
2096921,2096921,186462,617203,0
2096921,2096921,186188,617450,0
2096921,2096921,186487,617793,0
2096921,2096921,186552,617923,0
2096921,2096921,186371,617739,0
2096921,2096921,186295,617935,0
2096921,2096921,186404,617898,0
2096921,2096921,186384,617972,0
2096921,2096921,186631,618077,0
2096921,2096921,186444,618177,0
2096921,2096921,186299,618217,0
2096921,2096921,186623,618150,0
2096921,2096921,186564,618187,0
2096921,2096921,186724,618407,0
2096921,2096921,186548,618248,0
2096921,2096921,186644,618278,0
2096921,2096921,186518,618229,0
2096921,2096921,186531,618503,0
2096921,2096921,186710,618615,0
2096921,2096921,186504,618852,0
2096921,2096921,186824,618716,0
2096921,2096921,186886,618544,0
2096921,2096921,186932,619155,0
2096921,2096921,187023,619001,0
2096921,2096921,186678,618801,0
2096921,2096921,186699,618712,0
2096921,2096921,186529,618915,0
2096921,2096921,186897,619135,0
2096921,2096921,186959,619092,0
2096921,2096921,186723,619176,0
2096921,2096921,186896,619256,0
2096921,2096921,187275,619210,0
2096921,2096921,187244,619740,0
2096921,2096921,187098,619276,0
2096921,2096921,187298,619986,0
2096921,2096921,186954,620038,0
2096921,2096921,186860,619539,0
2096921,2096921,186997,619700,0
2096921,2096921,187082,619759,0
2096921,2096921,187244,619825,0
2096921,2096921,187244,619711,0
2096921,2096921,187309,619779,0
2096921,2096921,187249,620144,0
2096921,2096921,187426,620634,0
2096921,2096921,187378,620559,0
2096921,2096921,187275,620386,0
2096921,2096921,186964,620120,0
2096921,2096921,187339,620540,0
2096921,2096921,187318,620017,0
2096921,2096921,187155,620496,0
2096921,2096921,187342,620718,0
2096921,2096921,187427,620888,0
2096921,2096921,187798,620862,0
2096921,2096921,187393,620768,0
2096921,2096921,187292,620902,0
2096921,2096921,187410,620820,0
2096921,2096921,187332,620525,0
2096921,2096921,187592,620962,0
2096921,2096921,187661,621138,0
2096921,2096921,187269,620752,0
2096921,2096921,187367,620910,0
2096921,2096921,187593,621138,0
2096921,2096921,187728,621275,0
2096921,2096921,187610,621486,0
2096921,2096921,187645,621315,0
2096921,2096921,187404,621199,0
2096921,2096921,187452,621085,0
2096921,2096921,187404,621656,0
2096921,2096921,187735,621563,0
2096921,2096921,187794,621344,0
2096921,2096921,188007,621630,0
2096921,2096921,187651,621486,0
2096921,2096921,187521,621823,0
2096921,2096921,187738,621888,0
2096921,2096921,187610,621737,0
2096921,2096921,187704,621881,0
2096921,2096921,187685,621755,0
2096921,2096921,187479,621847,0
2096921,2096921,187712,621833,0
2096921,2096921,187827,621842,0
2096921,2096921,187503,621753,0
2096921,2096921,187912,621762,0
2096921,2096921,187742,622082,0
2096921,2096921,187803,622326,0
2096921,2096921,187921,622266,0
2096921,2096921,187712,622078,0
2096921,2096921,187692,621703,0
2096921,2096921,187759,621963,0
2096921,2096921,187933,622254,0
2096921,2096921,187640,621950,0
2096921,2096921,188017,622038,0
2096921,2096921,187867,622536,0
2096921,2096921,187725,621900,0
2096921,2096921,187982,621844,0
2096921,2096921,187819,621830,0
2096921,2096921,187676,621780,0
2096921,2096921,187366,621870,0
2096921,2096921,187209,621401,0
2096921,2096921,187323,621357,0
2096921,2096921,187509,621884,0
2096921,2096921,187849,621386,0
2096921,2096921,187816,621716,0
2096921,2096921,187358,621189,0
2096921,2096921,187425,620887,0
2096921,2096921,187193,620764,0
2096921,2096921,187019,620956,0
2096921,2096921,186962,620901,0
2096921,2096921,186566,619719,0
2096921,2096921,186806,619472,0
2096921,2096921,186940,619733,0
2096921,2096921,186829,619769,0
2096921,2096921,187025,619986,0
2096921,2096921,186466,619103,0
2096921,2096921,186550,618764,0
2096921,2096921,186504,618637,0
2096921,2096921,185984,618496,0
2096921,2096921,186012,618620,0
2096921,2096921,185410,616302,0
2096921,2096921,185551,615888,0
2096921,2096921,185165,615522,0
2096921,2096921,185274,615732,0
2096921,2096921,185427,615840,0
2096921,2096921,184194,613068,0
2096921,2096921,183767,612550,0
2096921,2096921,183690,612612,0
2096921,2096921,183741,612360,0
2096921,2096921,183845,612210,0
2096921,2096921,182699,610139,0
2096921,2096921,182901,609717,0
2096921,2096921,182855,609681,0
2096921,2096921,182785,609620,0
2096921,2096921,182941,609775,0
2096921,2096921,182230,608347,0
2096921,2096921,182494,608039,0
2096921,2096921,182357,607910,0
2096921,2096921,181995,607920,0
2096921,2096921,182008,608008,0
2096921,2096921,181385,606520,0
2096921,2096921,181316,606407,0
2096921,2096921,181355,606401,0
2096921,2096921,181588,606506,0
2096921,2096921,181627,606840,0
2096921,2096921,181304,606113,0
2096921,2096921,181191,605795,0
2096921,2096921,180954,605589,0
2096921,2096921,181290,605492,0
2096921,2096921,180933,605621,0
2096921,2096921,180839,605042,0
2096921,2096921,180753,604900,0
2096921,2096921,180779,605040,0
2096921,2096921,180889,604816,0
2096921,2096921,180840,604722,0
2096921,2096921,180548,604774,0
2096921,2096921,180628,604529,0
2096921,2096921,180630,604392,0
2096921,2096921,180694,604606,0
2096921,2096921,180668,604577,0
2096921,2096921,181044,604490,0
2096921,2096921,180617,604419,0
2096921,2096921,180590,604505,0
2096921,2096921,180579,604529,0
2096921,2096921,180672,604471,0
2096921,2096921,180660,604544,0
2096921,2096921,180541,604566,0
2096921,2096921,180744,604669,0
2096921,2096921,180931,604727,0
2096921,2096921,180732,604395,0
2096921,2096921,180811,604875,0
2096921,2096921,180574,605087,0
2096921,2096921,180984,604965,0
2096921,2096921,180805,604726,0
2096921,2096921,181085,605144,0
2096921,2096921,180719,605324,0
2096921,2096921,181033,605292,0
2096921,2096921,180990,605164,0
2096921,2096921,180970,605128,0
2096921,2096921,181172,605162,0
2096921,2096921,181005,605275,0
2096921,2096921,181001,605549,0
2096921,2096921,181183,605628,0
2096921,2096921,181254,605583,0
2096921,2096921,181165,605213,0
2096921,2096921,181263,605897,0
2096921,2096921,181269,606167,0
2096921,2096921,181167,606409,0
2096921,2096921,181252,606422,0
2096921,2096921,181177,605903,0
2096921,2096921,181437,606621,0
2096921,2096921,181436,606799,0
2096921,2096921,181701,606521,0
2096921,2096921,181668,606798,0
2096921,2096921,181634,606495,0
2096921,2096921,181636,607385,0
2096921,2096921,181997,607344,0
2096921,2096921,181706,607379,0
2096921,2096921,181940,607390,0
2096921,2096921,181730,607725,0
2096921,2096921,181951,607798,0
2096921,2096921,181860,608347,0
2096921,2096921,181910,608042,0
2096921,2096921,182052,607733,0
2096921,2096921,182050,607877,0
2096921,2096921,182458,608466,0
2096921,2096921,182270,608548,0
2096921,2096921,182187,608848,0
2096921,2096921,182018,608466,0
2096921,2096921,182236,608663,0
2096921,2096921,182489,609151,0
2096921,2096921,182682,609656,0
2096921,2096921,182427,609345,0
2096921,2096921,182375,609506,0
2096921,2096921,182523,609442,0
2096921,2096921,182771,610197,0
2096921,2096921,182524,609985,0
2096921,2096921,182813,610148,0
2096921,2096921,182733,610035,0
2096921,2096921,182879,609985,0
2096921,2096921,183012,610295,0
2096921,2096921,182939,610595,0
2096921,2096921,182995,610496,0
2096921,2096921,183138,610885,0
2096921,2096921,183266,610598,0
2096921,2096921,183359,611308,0
2096921,2096921,183353,611402,0
2096921,2096921,183255,611660,0
2096921,2096921,183198,611428,0
2096921,2096921,183231,611430,0
2096921,2096921,183353,611535,0
2096921,2096921,183612,611933,0
2096921,2096921,183765,611934,0
2096921,2096921,183600,612213,0
2096921,2096921,183873,612034,0
2096921,2096921,184077,612731,0
2096921,2096921,183892,612961,0
2096921,2096921,184072,613099,0
2096921,2096921,183838,612756,0
2096921,2096921,183774,612676,0
2096921,2096921,183990,613270,0
2096921,2096921,184158,613444,0
2096921,2096921,184295,613443,0
2096921,2096921,184426,613471,0
2096921,2096921,184345,613589,0
2096921,2096921,184489,614096,0
2096921,2096921,184407,614068,0
2096921,2096921,184135,614017,0
2096921,2096921,184255,614181,0
2096921,2096921,184112,614012,0
2096921,2096921,184587,614236,0
2096921,2096921,184446,614437,0
2096921,2096921,184277,614122,0
2096921,2096921,184414,614270,0
2096921,2096921,184443,614686,0
2096921,2096921,184707,614678,0
2096921,2096921,184673,614694,0
2096921,2096921,184968,614834,0
2096921,2096921,184447,614797,0
2096921,2096921,184348,615036,0
2096921,2096921,184549,615161,0
2096921,2096921,184704,614945,0
2096921,2096921,184668,614691,0
2096921,2096921,184789,614990,0
2096921,2096921,184874,614935,0
2096921,2096921,185042,615303,0
2096921,2096921,184689,615236,0
2096921,2096921,184959,615298,0
2096921,2096921,184646,614969,0
2096921,2096921,184684,615587,0
2096921,2096921,184678,615185,0
2096921,2096921,184715,615327,0
2096921,2096921,184681,615071,0
2096921,2096921,184933,615468,0
2096921,2096921,185088,615544,0
2096921,2096921,185000,615280,0
2096921,2096921,184801,615516,0
2096921,2096921,184816,615021,0
2096921,2096921,184817,615315,0
2096921,2096921,184735,615319,0
2096921,2096921,184870,615248,0
2096921,2096921,184663,614704,0
2096921,2096921,184722,615000,0
2096921,2096921,184801,615198,0
2096921,2096921,184889,615393,0
2096921,2096921,184977,615011,0
2096921,2096921,184903,614778,0
2096921,2096921,184642,614984,0
2096921,2096921,184951,615044,0
2096921,2096921,184631,614788,0
2096921,2096921,184600,614862,0
2096921,2096921,184851,614582,0
2096921,2096921,184841,614793,0
2096921,2096921,184728,614961,0
2096921,2096921,184663,614571,0
2096921,2096921,184528,614491,0
2096921,2096921,184652,614184,0
2096921,2096921,184712,614575,0
2096921,2096921,184433,614356,0
2096921,2096921,184265,614292,0
2096921,2096921,184483,614319,0
2096921,2096921,184168,614215,0
2096921,2096921,184339,614080,0
2096921,2096921,184467,614135,0
2096921,2096921,184453,614342,0
2096921,2096921,184627,614375,0
2096921,2096921,184382,614321,0
2096921,2096921,184601,614080,0
2096921,2096921,184442,614332,0
2096921,2096921,184314,614161,0
2096921,2096921,184451,614162,0
2096921,2096921,184129,614051,0
2096921,2096921,184673,614173,0
2096921,2096921,184451,614007,0
2096921,2096921,184318,613814,0
2096921,2096921,184416,614008,0
2096921,2096921,184603,614383,0
2096921,2096921,184502,614597,0
2096921,2096921,184464,614401,0
2096921,2096921,184416,614330,0
2096921,2096921,184404,614510,0
2096921,2096921,184277,614598,0
2096921,2096921,184601,614388,0
2096921,2096921,184559,614489,0
2096921,2096921,184468,614577,0
2096921,2096921,184804,614485,0
2096921,2096921,184808,614770,0
2096921,2096921,184429,614772,0
2096921,2096921,184543,614603,0
2096921,2096921,184383,614831,0
2096921,2096921,184856,615120,0
2096921,2096921,184634,615128,0
2096921,2096921,184797,615197,0
2096921,2096921,184650,615278,0
2096921,2096921,184731,615367,0
2096921,2096921,185201,615681,0
2096921,2096921,184952,615793,0
2096921,2096921,184966,615611,0
2096921,2096921,185066,615792,0
2096921,2096921,184877,615756,0
2096921,2096921,185048,615839,0
2096921,2096921,185043,616046,0
2096921,2096921,184974,615948,0
2096921,2096921,185259,616060,0
2096921,2096921,185078,615954,0
2096921,2096921,185557,616457,0
2096921,2096921,185228,616659,0
2096921,2096921,185281,616679,0
2096921,2096921,185221,616667,0
2096921,2096921,185149,616504,0
2096921,2096921,185299,616575,0
2096921,2096921,185377,616840,0
2096921,2096921,185418,616751,0
2096921,2096921,185496,616951,0
2096921,2096921,185745,616934,0
2096921,2096921,185844,617101,0
2096921,2096921,185533,617153,0
2096921,2096921,185477,617136,0
2096921,2096921,185665,617152,0
2096921,2096921,185391,617000,0
2096921,2096921,185483,617455,0
2096921,2096921,185820,617672,0
2096921,2096921,185816,617691,0
2096921,2096921,185978,617840,0
2096921,2096921,185569,617749,0
2096921,2096921,185858,617879,0
2096921,2096921,185643,618049,0
2096921,2096921,185527,618051,0
2096921,2096921,186033,617913,0
2096921,2096921,185944,617952,0
2096921,2096921,186209,618117,0
2096921,2096921,186087,618249,0
2096921,2096921,186218,618211,0
2096921,2096921,186376,618147,0
2096921,2096921,186126,618151,0
2096921,2096921,186224,618606,0
2096921,2096921,186124,618845,0
2096921,2096921,186239,618711,0
2096921,2096921,186209,618824,0
2096921,2096921,186392,618638,0
2096921,2096921,186392,618999,0
2096921,2096921,186697,619091,0
2096921,2096921,186529,619025,0
2096921,2096921,186469,618919,0
2096921,2096921,186550,619151,0
2096921,2096921,186507,619320,0
2096921,2096921,186683,619379,0
2096921,2096921,186686,619185,0
2096921,2096921,186617,619117,0
2096921,2096921,186666,619185,0
2096921,2096921,186493,619336,0
2096921,2096921,186587,619434,0
2096921,2096921,186658,619443,0
2096921,2096921,186855,619779,0
2096921,2096921,186667,619906,0
2096921,2096921,186764,619645,0
2096921,2096921,186966,619914,0
2096921,2096921,186687,620039,0
2096921,2096921,186520,619827,0
2096921,2096921,186700,619969,0
2096921,2096921,186584,620046,0
2096921,2096921,186684,619988,0
2096921,2096921,186807,620058,0
2096921,2096921,186828,620086,0
2096921,2096921,186813,620246,0
2096921,2096921,186760,620316,0
2096921,2096921,187032,620484,0
2096921,2096921,186890,620299,0
2096921,2096921,186879,620375,0
2096921,2096921,186931,620472,0
2096921,2096921,186705,620745,0
2096921,2096921,186876,620401,0
2096921,2096921,186975,620480,0
2096921,2096921,186925,620624,0
2096921,2096921,186941,620914,0
2096921,2096921,186802,620489,0
2096921,2096921,187041,620686,0
2096921,2096921,187199,620729,0
2096921,2096921,187080,620652,0
2096921,2096921,186959,620727,0
2096921,2096921,187031,620815,0
2096921,2096921,187124,620812,0
2096921,2096921,186989,621000,0
2096921,2096921,187101,620731,0
2096921,2096921,187081,621083,0
2096921,2096921,187086,620972,0
2096921,2096921,187302,621206,0
2096921,2096921,186987,621077,0
2096921,2096921,187278,621173,0
2096921,2096921,187264,621053,0
2096921,2096921,187297,621167,0
2096921,2096921,187562,620907,0
2096921,2096921,187507,621262,0
2096921,2096921,187356,621366,0
2096921,2096921,187511,621621,0
2096921,2096921,187285,621443,0
2096921,2096921,187369,621399,0
2096921,2096921,187268,621348,0
2096921,2096921,187244,621164,0
2096921,2096921,187460,621086,0
2096921,2096921,187595,621300,0
2096921,2096921,187446,621608,0
2096921,2096921,187412,621420,0
2096921,2096921,187398,621438,0
2096921,2096921,187409,621767,0
2096921,2096921,187473,621810,0
2096921,2096921,187541,621723,0
2096921,2096921,187582,621496,0
2096921,2096921,187609,621599,0
2096921,2096921,187386,621593,0
2096921,2096921,187270,621560,0
2096921,2096921,187658,621528,0
2096921,2096921,187691,621511,0
2096921,2096921,187536,621632,0
2096921,2096921,187505,621827,0
2096921,2096921,187260,621491,0
2096921,2096921,187707,621918,0
2096921,2096921,187649,621831,0
2096921,2096921,187542,621507,0
2096921,2096921,187728,621582,0
2096921,2096921,187502,621505,0
2096921,2096921,187271,621382,0
2096921,2096921,187431,621758,0
2096921,2096921,187369,621684,0
2096921,2096921,187778,621694,0
2096921,2096921,187552,621912,0
2096921,2096921,187706,621924,0
2096921,2096921,187473,621785,0
2096921,2096921,187440,621749,0
2096921,2096921,187341,621710,0
2096921,2096921,187412,621541,0
2096921,2096921,187679,621413,0
2096921,2096921,187836,621516,0
2096921,2096921,187676,621853,0
2096921,2096921,188013,621716,0
2096921,2096921,187605,621806,0
2096921,2096921,187577,621682,0
2096921,2096921,187547,621729,0
2096921,2096921,187478,621498,0
2096921,2096921,187647,621672,0
2096921,2096921,187439,621540,0
2096921,2096921,187615,621231,0
2096921,2096921,187467,621555,0
2096921,2096921,187608,621213,0
2096921,2096921,187612,621675,0
2096921,2096921,187659,621436,0
2096921,2096921,187608,621542,0
2096921,2096921,187763,621513,0
2096921,2096921,187450,621473,0
2096921,2096921,187474,621473,0
2096921,2096921,187560,621385,0
2096921,2096921,187558,621345,0
2096921,2096921,187525,621567,0
2096921,2096921,187255,621772,0
2096921,2096921,187683,621581,0
2096921,2096921,187677,621573,0
2096921,2096921,187415,621385,0
2096921,2096921,187397,621468,0
2096921,2096921,187427,621297,0
2096921,2096921,187574,621144,0
2096921,2096921,187500,621230,0
2096921,2096921,187436,621136,0
2096921,2096921,187305,621256,0
2096921,2096921,187511,621241,0
2096921,2096921,187451,621246,0
2096921,2096921,187355,621297,0
2096921,2096921,187313,621238,0
2096921,2096921,187551,621391,0
2096921,2096921,187412,621529,0
2096921,2096921,187265,621446,0
2096921,2096921,187458,621186,0
2096921,2096921,187207,621012,0
2096921,2096921,187295,620976,0
2096921,2096921,187373,621224,0
2096921,2096921,187254,621162,0
2096921,2096921,187453,621362,0
2096921,2096921,187358,621121,0
2096921,2096921,187397,621122,0
2096921,2096921,187150,620862,0
2096921,2096921,187073,620939,0
2096921,2096921,187267,621189,0
2096921,2096921,187451,620962,0
2096921,2096921,187521,620739,0
2096921,2096921,187422,620849,0
2096921,2096921,187263,620777,0
2096921,2096921,187352,620863,0
2096921,2096921,187202,620898,0
2096921,2096921,187388,620639,0
2096921,2096921,187105,620581,0
2096921,2096921,187137,620771,0
2096921,2096921,187236,620932,0
2096921,2096921,187421,620755,0
2096921,2096921,187508,620641,0
2096921,2096921,187537,620736,0
2096921,2096921,187374,620604,0
2096921,2096921,187491,620517,0
2096921,2096921,187340,620470,0
2096921,2096921,187286,620362,0
2096921,2096921,187364,620549,0
2096921,2096921,187135,620210,0
2096921,2096921,187151,620111,0
2096921,2096921,187227,620414,0
2096921,2096921,187109,620218,0
2096921,2096921,187446,620184,0
2096921,2096921,187417,620583,0
2096921,2096921,187143,620282,0
2096921,2096921,187029,620369,0
2096921,2096921,187127,620197,0
2096921,2096921,187308,619958,0
2096921,2096921,187079,619892,0
2096921,2096921,186985,619886,0
2096921,2096921,187239,619768,0
2096921,2096921,186930,619580,0
2096921,2096921,187226,619675,0
2096921,2096921,187336,619961,0
2096921,2096921,187172,619752,0
2096921,2096921,186694,619610,0
2096921,2096921,186832,619571,0
2096921,2096921,186911,619318,0
2096921,2096921,186979,619369,0
2096921,2096921,186834,618897,0
2096921,2096921,187001,619018,0
2096921,2096921,186812,619219,0
2096921,2096921,187170,619088,0
2096921,2096921,187206,619013,0
2096921,2096921,187230,619008,0
2096921,2096921,186880,618943,0
2096921,2096921,186917,619216,0
2096921,2096921,186446,618978,0
2096921,2096921,186738,618597,0
2096921,2096921,186769,618728,0
2096921,2096921,186775,618578,0
2096921,2096921,186983,618825,0
2096921,2096921,186937,618788,0
2096921,2096921,186971,618692,0
2096921,2096921,186431,618626,0
2096921,2096921,186441,618348,0
2096921,2096921,186671,618585,0
2096921,2096921,186621,618544,0
2096921,2096921,186642,618338,0
2096921,2096921,186583,618064,0
2096921,2096921,186503,618080,0
2096921,2096921,186607,618318,0
2096921,2096921,186265,618353,0
2096921,2096921,186648,618524,0
2096921,2096921,186399,618020,0
2096921,2096921,186539,617937,0
2096921,2096921,186642,618175,0
2096921,2096921,186459,617842,0
2096921,2096921,186330,617927,0
2096921,2096921,186293,617564,0
2096921,2096921,186411,617521,0
2096921,2096921,186291,617739,0
2096921,2096921,186575,617737,0
2096921,2096921,186551,617630,0
2096921,2096921,186148,617117,0
2096921,2096921,186080,616526,0
2096921,2096921,185761,616691,0
2096921,2096921,186135,616601,0
2096921,2096921,186229,616361,0
2096921,2096921,185812,615842,0
2096921,2096921,185721,616033,0
2096921,2096921,185942,615941,0
2096921,2096921,186088,615995,0
2096921,2096921,185619,615702,0
2096921,2096921,185499,614996,0
2096921,2096921,185396,614783,0
2096921,2096921,185652,614693,0
2096921,2096921,185223,614305,0
2096921,2096921,185111,614502,0
2096921,2096921,184771,613286,0
2096921,2096921,184731,613178,0
2096921,2096921,184698,613068,0
2096921,2096921,184694,613131,0
2096921,2096921,184766,612950,0
2096921,2096921,184270,611944,0
2096921,2096921,184324,611387,0
2096921,2096921,184223,611594,0
2096921,2096921,183955,611282,0
2096921,2096921,184168,611568,0
2096921,2096921,183044,608651,0
2096921,2096921,183255,608416,0
2096921,2096921,183034,608342,0
2096921,2096921,183212,608143,0
2096921,2096921,183026,608274,0
2096921,2096921,181717,605281,0
2096921,2096921,181369,604409,0
2096921,2096921,181588,604323,0
2096921,2096921,181490,604181,0
2096921,2096921,181482,604245,0
2096921,2096921,180721,601886,0
2096921,2096921,180644,601373,0
2096921,2096921,180270,601473,0
2096921,2096921,180180,601422,0
2096921,2096921,179812,601693,0
2096921,2096921,179413,599644,0
2096921,2096921,179494,599310,0
2096921,2096921,179319,599103,0
2096921,2096921,179038,599248,0
2096921,2096921,179339,599282,0
2096921,2096921,178786,597593,0
2096921,2096921,178699,597413,0
2096921,2096921,178714,597303,0
2096921,2096921,178853,597038,0
2096921,2096921,178598,597185,0
2096921,2096921,178266,596317,0
2096921,2096921,178184,595969,0
2096921,2096921,178081,595846,0
2096921,2096921,178000,595955,0
2096921,2096921,178059,595798,0
2096921,2096921,177797,595103,0
2096921,2096921,178000,595005,0
2096921,2096921,177881,594777,0
2096921,2096921,178059,594750,0
2096921,2096921,177764,594956,0
2096921,2096921,177529,594207,0
2096921,2096921,177362,594225,0
2096921,2096921,177464,594084,0
2096921,2096921,177235,593827,0
2096921,2096921,177389,594093,0
2096921,2096921,177401,593748,0
2096921,2096921,177375,593708,0
2096921,2096921,177177,593713,0
2096921,2096921,177413,593720,0
2096921,2096921,177340,593490,0
2096921,2096921,177375,593574,0
2096921,2096921,177275,593455,0
2096921,2096921,177204,593288,0
2096921,2096921,177386,593321,0
2096921,2096921,177144,593158,0
2096921,2096921,176962,593144,0
2096921,2096921,177221,593234,0
2096921,2096921,177543,593236,0
2096921,2096921,177562,593422,0
2096921,2096921,177000,593577,0
2096921,2096921,177201,593499,0
2096921,2096921,177122,593624,0
2096921,2096921,177008,593034,0
2096921,2096921,177272,593188,0
2096921,2096921,177103,593104,0
2096921,2096921,177302,593248,0
2096921,2096921,177268,593059,0
2096921,2096921,177122,593054,0
2096921,2096921,177208,593100,0
2096921,2096921,177089,593265,0
2096921,2096921,177237,593260,0
2096921,2096921,177033,593323,0
2096921,2096921,177264,593450,0
2096921,2096921,177280,593634,0
2096921,2096921,177505,593770,0
2096921,2096921,177472,593802,0
2096921,2096921,177562,593497,0
2096921,2096921,177459,593636,0
2096921,2096921,177479,593649,0
2096921,2096921,177533,593716,0
2096921,2096921,177624,593829,0
2096921,2096921,177661,594188,0
2096921,2096921,177594,593758,0
2096921,2096921,177462,594032,0
2096921,2096921,177580,593898,0
2096921,2096921,177802,594254,0
2096921,2096921,177475,594058,0
2096921,2096921,177735,594571,0
2096921,2096921,177925,594343,0
2096921,2096921,177856,594317,0
2096921,2096921,177910,594668,0
2096921,2096921,177754,594601,0
2096921,2096921,177980,594574,0
2096921,2096921,177831,594692,0
2096921,2096921,178108,594731,0
2096921,2096921,177915,594785,0
2096921,2096921,178099,594626,0
2096921,2096921,178105,594598,0
2096921,2096921,177986,594757,0
2096921,2096921,178243,594776,0
2096921,2096921,178154,595157,0
2096921,2096921,177959,595039,0
2096921,2096921,178380,595001,0
2096921,2096921,178099,594847,0
2096921,2096921,178028,595172,0
2096921,2096921,178317,595543,0
2096921,2096921,178066,595395,0
2096921,2096921,178266,595475,0
2096921,2096921,178361,595677,0
2096921,2096921,178462,595302,0
2096921,2096921,178662,595561,0
2096921,2096921,178632,595655,0
2096921,2096921,178616,595649,0
2096921,2096921,178411,595944,0
2096921,2096921,178448,595768,0
2096921,2096921,178534,596208,0
2096921,2096921,178611,596123,0
2096921,2096921,178655,596300,0
2096921,2096921,178544,596235,0
2096921,2096921,178737,596371,0
2096921,2096921,178812,596577,0
2096921,2096921,178593,596578,0
2096921,2096921,178793,596382,0
2096921,2096921,178735,596437,0
2096921,2096921,178766,596559,0
2096921,2096921,178969,596906,0
2096921,2096921,179020,596934,0
2096921,2096921,178887,596577,0
2096921,2096921,178811,596785,0
2096921,2096921,178975,596979,0
2096921,2096921,179116,597325,0
2096921,2096921,179202,597392,0
2096921,2096921,179280,597466,0
2096921,2096921,178921,597363,0
2096921,2096921,178857,597331,0
2096921,2096921,178877,597598,0
2096921,2096921,179208,597311,0
2096921,2096921,179247,597327,0
2096921,2096921,179152,597272,0
2096921,2096921,179404,597414,0
2096921,2096921,179327,597535,0
2096921,2096921,179568,597497,0
2096921,2096921,179089,597259,0
2096921,2096921,179158,597331,0
2096921,2096921,179090,597315,0
2096921,2096921,179137,597221,0
2096921,2096921,179150,597031,0
2096921,2096921,179233,596945,0
2096921,2096921,179059,597175,0
2096921,2096921,179135,597280,0
2096921,2096921,179203,597325,0
2096921,2096921,179447,597384,0
2096921,2096921,179406,597303,0
2096921,2096921,179184,597035,0
2096921,2096921,179112,596890,0
2096921,2096921,179154,596986,0
2096921,2096921,179048,597040,0
2096921,2096921,179015,597089,0
2096921,2096921,179183,596668,0
2096921,2096921,179312,596764,0
2096921,2096921,178943,596932,0
2096921,2096921,179146,596729,0
2096921,2096921,179176,596800,0
2096921,2096921,179070,596605,0
2096921,2096921,179301,596747,0
2096921,2096921,178719,596202,0
2096921,2096921,179042,596051,0
2096921,2096921,178850,596124,0
2096921,2096921,179043,596195,0
2096921,2096921,178890,596319,0
2096921,2096921,179065,595893,0
2096921,2096921,178835,595848,0
2096921,2096921,179034,595823,0
2096921,2096921,178781,595648,0
2096921,2096921,179031,595642,0
2096921,2096921,178577,595422,0
2096921,2096921,178662,594943,0
2096921,2096921,178712,595410,0
2096921,2096921,178599,595213,0
2096921,2096921,178770,595185,0
2096921,2096921,178774,594992,0
2096921,2096921,178372,594850,0
2096921,2096921,178708,594781,0
2096921,2096921,178424,594803,0
2096921,2096921,178343,594921,0
2096921,2096921,178193,594543,0
2096921,2096921,178259,594317,0
2096921,2096921,178295,594389,0
2096921,2096921,178072,594310,0
2096921,2096921,178275,594153,0
2096921,2096921,178309,594049,0
2096921,2096921,178610,594288,0
2096921,2096921,178153,594433,0
2096921,2096921,178050,594156,0
2096921,2096921,177831,593984,0
2096921,2096921,177845,593999,0
2096921,2096921,177990,593902,0
2096921,2096921,177898,593916,0
2096921,2096921,178273,593833,0
2096921,2096921,178315,593970,0
2096921,2096921,178090,593962,0
2096921,2096921,178123,594026,0
2096921,2096921,178225,593752,0
2096921,2096921,178109,593837,0
2096921,2096921,178025,593458,0
2096921,2096921,178041,593734,0
2096921,2096921,177968,593568,0
2096921,2096921,178147,593920,0
2096921,2096921,178086,593925,0
2096921,2096921,178052,594080,0
2096921,2096921,178331,593801,0
2096921,2096921,178219,593896,0
2096921,2096921,178023,593765,0
2096921,2096921,177958,593611,0
2096921,2096921,178061,593459,0
2096921,2096921,177971,593839,0
2096921,2096921,178095,593582,0
2096921,2096921,178598,593990,0
2096921,2096921,178192,593981,0
2096921,2096921,178375,594137,0
2096921,2096921,178367,594160,0
2096921,2096921,178633,594444,0
2096921,2096921,179014,594245,0
2096921,2096921,178223,594088,0
2096921,2096921,178317,593938,0
2096921,2096921,178346,594121,0
2096921,2096921,178301,594182,0
2096921,2096921,178426,594341,0
2096921,2096921,178226,594535,0
2096921,2096921,178565,594556,0
2096921,2096921,178517,594753,0
2096921,2096921,178954,594657,0
2096921,2096921,178693,594940,0
2096921,2096921,178527,594701,0
2096921,2096921,178497,594616,0
2096921,2096921,178743,594921,0
2096921,2096921,178534,595005,0
2096921,2096921,178934,595012,0
2096921,2096921,178921,595111,0
2096921,2096921,178801,594907,0
2096921,2096921,178577,595142,0
2096921,2096921,178692,595132,0
2096921,2096921,178474,595106,0
2096921,2096921,178590,594977,0
2096921,2096921,178582,594899,0
2096921,2096921,178823,595233,0
2096921,2096921,178872,595170,0
2096921,2096921,178769,595327,0
2096921,2096921,178690,595374,0
2096921,2096921,178864,595217,0
2096921,2096921,178854,595896,0
2096921,2096921,178960,595756,0
2096921,2096921,179085,595630,0
2096921,2096921,179048,595782,0
2096921,2096921,178783,595793,0
2096921,2096921,179012,595680,0
2096921,2096921,178993,595837,0
2096921,2096921,179105,596079,0
2096921,2096921,179232,596025,0
2096921,2096921,179152,595577,0
2096921,2096921,179192,596044,0
2096921,2096921,179056,595837,0
2096921,2096921,179255,595925,0
2096921,2096921,178917,595905,0
2096921,2096921,179093,595696,0
2096921,2096921,179152,596019,0
2096921,2096921,179290,595820,0
2096921,2096921,179443,596177,0
2096921,2096921,179382,596426,0
2096921,2096921,179395,596089,0
2096921,2096921,179424,596185,0
2096921,2096921,179153,596123,0
2096921,2096921,179176,596304,0
2096921,2096921,179246,596455,0
2096921,2096921,179406,596495,0
2096921,2096921,179571,596251,0
2096921,2096921,179442,596522,0
2096921,2096921,179459,596362,0
2096921,2096921,179311,596476,0
2096921,2096921,179451,596564,0
2096921,2096921,179639,596658,0
2096921,2096921,179602,596453,0
2096921,2096921,179601,596588,0
2096921,2096921,179231,596472,0
2096921,2096921,179250,596305,0
2096921,2096921,179273,596581,0
2096921,2096921,179543,596736,0
2096921,2096921,179578,596897,0
2096921,2096921,179469,596952,0
2096921,2096921,179640,596936,0
2096921,2096921,179560,597073,0
2096921,2096921,179346,597117,0
2096921,2096921,179579,596957,0
2096921,2096921,179777,597078,0
2096921,2096921,179544,596980,0
2096921,2096921,179399,597278,0
2096921,2096921,179800,597234,0
2096921,2096921,179666,596960,0
2096921,2096921,179838,597187,0
2096921,2096921,179834,597245,0
2096921,2096921,179768,597370,0
2096921,2096921,179807,597283,0
2096921,2096921,179601,597263,0
2096921,2096921,179860,597211,0
2096921,2096921,179541,597243,0
2096921,2096921,179834,597095,0
2096921,2096921,179876,597351,0
2096921,2096921,179827,597236,0
2096921,2096921,180109,597521,0
2096921,2096921,179995,597424,0
2096921,2096921,180241,597491,0
2096921,2096921,179900,597641,0
2096921,2096921,180081,597628,0
2096921,2096921,179689,597435,0
2096921,2096921,179903,597489,0
2096921,2096921,179841,597748,0
2096921,2096921,179868,597648,0
2096921,2096921,179922,597700,0
2096921,2096921,180100,597636,0
2096921,2096921,180026,597738,0
2096921,2096921,180003,598234,0
2096921,2096921,180058,597865,0
2096921,2096921,180198,597712,0
2096921,2096921,179960,597928,0
2096921,2096921,179936,597657,0
2096921,2096921,180376,598186,0
2096921,2096921,179932,598206,0
2096921,2096921,179926,597969,0
2096921,2096921,179980,598097,0
2096921,2096921,180089,598064,0
2096921,2096921,179978,598162,0
2096921,2096921,180051,598156,0
2096921,2096921,180339,598149,0
2096921,2096921,180045,598388,0
2096921,2096921,180049,597968,0
2096921,2096921,180175,598270,0
2096921,2096921,180094,598135,0
2096921,2096921,180424,598377,0
2096921,2096921,180231,598429,0
2096921,2096921,180397,598485,0
2096921,2096921,180205,598595,0
2096921,2096921,180114,598811,0
2096921,2096921,180227,598569,0
2096921,2096921,180108,598462,0
2096921,2096921,180160,598492,0
2096921,2096921,180555,598586,0
2096921,2096921,180352,598747,0
2096921,2096921,180339,598797,0
2096921,2096921,180228,598624,0
2096921,2096921,180524,598963,0
2096921,2096921,180534,598894,0
2096921,2096921,180374,598627,0
2096921,2096921,180524,598850,0
2096921,2096921,180347,598812,0
2096921,2096921,180589,598440,0
2096921,2096921,180233,598789,0
2096921,2096921,180437,598556,0
2096921,2096921,180490,598663,0
2096921,2096921,180441,598901,0
2096921,2096921,180477,598763,0
2096921,2096921,180351,598982,0
2096921,2096921,180236,598523,0
2096921,2096921,180318,598849,0
2096921,2096921,180384,598708,0
2096921,2096921,180367,598697,0
2096921,2096921,180708,599025,0
2096921,2096921,180384,599140,0
2096921,2096921,180613,598977,0
2096921,2096921,180292,598983,0
2096921,2096921,180534,598979,0
2096921,2096921,180646,599428,0
2096921,2096921,180712,598952,0
2096921,2096921,180421,599231,0
2096921,2096921,180431,599344,0
2096921,2096921,180390,599023,0
2096921,2096921,180480,599246,0
2096921,2096921,180095,599432,0
2096921,2096921,180648,598922,0
2096921,2096921,180868,599366,0
2096921,2096921,180561,599363,0
2096921,2096921,180680,599659,0
2096921,2096921,180769,599691,0
2096921,2096921,180496,599458,0
2096921,2096921,180624,599491,0
2096921,2096921,180445,599205,0
2096921,2096921,180648,599650,0
2096921,2096921,180499,599557,0
2096921,2096921,180540,599081,0
2096921,2096921,180634,599773,0
2096921,2096921,180936,599401,0
2096921,2096921,180723,599533,0
2096921,2096921,180873,599405,0
2096921,2096921,180814,599453,0
2096921,2096921,180443,599599,0
2096921,2096921,180679,599536,0
2096921,2096921,180708,599163,0
2096921,2096921,180393,599637,0
2096921,2096921,180842,599713,0
2096921,2096921,180962,599662,0
2096921,2096921,180521,599744,0
2096921,2096921,180834,600033,0
2096921,2096921,181005,599934,0
2096921,2096921,180794,599940,0
2096921,2096921,181018,599701,0
2096921,2096921,180964,599808,0
2096921,2096921,180942,599851,0
2096921,2096921,181141,600012,0
2096921,2096921,180732,600054,0
2096921,2096921,180877,600221,0
2096921,2096921,180952,600088,0
2096921,2096921,181419,600146,0
2096921,2096921,181068,600215,0
2096921,2096921,180683,600169,0
2096921,2096921,180607,600321,0
2096921,2096921,180702,599871,0
2096921,2096921,180832,599850,0
2096921,2096921,181133,599964,0
2096921,2096921,180897,599949,0
2096921,2096921,181022,599991,0
2096921,2096921,181043,600126,0
2096921,2096921,181089,600491,0
2096921,2096921,181090,600321,0
2096921,2096921,180989,600298,0
2096921,2096921,181123,600162,0
2096921,2096921,180942,600110,0
2096921,2096921,180889,600356,0
2096921,2096921,180901,600628,0
2096921,2096921,181116,600158,0
2096921,2096921,181056,600174,0
2096921,2096921,181232,600447,0
2096921,2096921,181199,600222,0
2096921,2096921,181279,600352,0
2096921,2096921,180851,600186,0
2096921,2096921,180981,600270,0
2096921,2096921,181006,600159,0
2096921,2096921,181077,600433,0
2096921,2096921,180666,600350,0
2096921,2096921,180849,600225,0
2096921,2096921,181101,600322,0
2096921,2096921,181228,600520,0
2096921,2096921,180909,600352,0
2096921,2096921,181048,600205,0
2096921,2096921,181090,600352,0
2096921,2096921,180789,600285,0
2096921,2096921,180818,600474,0
2096921,2096921,180743,600543,0
2096921,2096921,180897,600295,0
2096921,2096921,180867,600448,0
2096921,2096921,181123,600679,0
2096921,2096921,181159,600489,0
2096921,2096921,181058,600205,0
2096921,2096921,181175,600367,0
2096921,2096921,180953,600518,0
2096921,2096921,180794,600452,0
2096921,2096921,180699,600273,0
2096921,2096921,180880,600342,0
2096921,2096921,180852,600161,0
2096921,2096921,181039,600401,0
2096921,2096921,181053,600127,0
2096921,2096921,181040,600159,0
2096921,2096921,181115,600335,0
2096921,2096921,181073,600388,0
2096921,2096921,181150,600239,0
2096921,2096921,181197,600015,0
2096921,2096921,181044,600624,0
2096921,2096921,180972,600656,0
2096921,2096921,181142,600451,0
2096921,2096921,181039,600575,0
2096921,2096921,181133,600269,0
2096921,2096921,181211,600695,0
2096921,2096921,181135,600571,0
2096921,2096921,180809,600439,0
2096921,2096921,180972,600356,0
2096921,2096921,180987,600263,0
2096921,2096921,181160,600088,0
2096921,2096921,180927,600478,0
2096921,2096921,181228,600416,0
2096921,2096921,181018,600903,0
2096921,2096921,181318,600388,0
2096921,2096921,181104,600413,0
2096921,2096921,180823,599912,0
2096921,2096921,180914,599985,0
2096921,2096921,180855,599800,0
2096921,2096921,180563,599790,0
2096921,2096921,180586,599696,0
2096921,2096921,180614,599366,0
2096921,2096921,180530,599420,0
2096921,2096921,180674,599274,0
2096921,2096921,180638,598986,0
2096921,2096921,180397,599160,0
2096921,2096921,180158,598479,0
2096921,2096921,180261,598224,0
2096921,2096921,180195,598249,0
2096921,2096921,180513,598151,0
2096921,2096921,180336,598061,0
2096921,2096921,179989,597353,0
2096921,2096921,179777,597291,0
2096921,2096921,179758,597201,0
2096921,2096921,179818,597009,0
2096921,2096921,179901,597259,0
2096921,2096921,179265,596261,0
2096921,2096921,179380,595955,0
2096921,2096921,179290,596016,0
2096921,2096921,179423,596058,0
2096921,2096921,179232,595785,0
2096921,2096921,178206,593523,0
2096921,2096921,177992,593077,0
2096921,2096921,178258,592854,0
2096921,2096921,178209,593233,0
2096921,2096921,178385,592828,0
2096921,2096921,177217,590072,0
2096921,2096921,176839,589596,0
2096921,2096921,176328,589574,0
2096921,2096921,176728,589484,0
2096921,2096921,176625,589439,0
2096921,2096921,175881,587557,0
2096921,2096921,175805,587100,0
2096921,2096921,175830,587147,0
2096921,2096921,175551,587071,0
2096921,2096921,175791,587287,0
2096921,2096921,175381,585619,0
2096921,2096921,175118,585465,0
2096921,2096921,175087,585578,0
2096921,2096921,175002,585007,0
2096921,2096921,174826,585297,0
2096921,2096921,174635,584194,0
2096921,2096921,174456,583793,0
2096921,2096921,174389,583477,0
2096921,2096921,174656,583600,0
2096921,2096921,174550,584043,0
2096921,2096921,174108,583098,0
2096921,2096921,174180,582715,0
2096921,2096921,173906,582762,0
2096921,2096921,174165,582505,0
2096921,2096921,173902,582556,0
2096921,2096921,173745,581917,0
2096921,2096921,174142,581809,0
2096921,2096921,173800,581827,0
2096921,2096921,173977,581841,0
2096921,2096921,173910,581793,0
2096921,2096921,173611,581627,0
2096921,2096921,173545,581533,0
2096921,2096921,173540,581338,0
2096921,2096921,173632,581532,0
2096921,2096921,173387,581511,0
2096921,2096921,173314,581424,0
2096921,2096921,173213,581355,0
2096921,2096921,173501,581261,0
2096921,2096921,173818,581348,0
2096921,2096921,173727,581346,0
2096921,2096921,173716,581402,0
2096921,2096921,173578,581696,0
2096921,2096921,173793,581481,0
2096921,2096921,173514,581657,0
2096921,2096921,173674,581590,0
2096921,2096921,173822,581857,0
2096921,2096921,173677,581502,0
2096921,2096921,173396,581703,0
2096921,2096921,173568,581975,0
2096921,2096921,173855,581862,0
2096921,2096921,173954,582025,0
2096921,2096921,173782,582233,0
2096921,2096921,174068,582150,0
2096921,2096921,173726,582282,0
2096921,2096921,173647,581980,0
2096921,2096921,173896,582513,0
2096921,2096921,174018,582535,0
2096921,2096921,174098,582493,0
2096921,2096921,174084,582311,0
2096921,2096921,174043,582524,0
2096921,2096921,174431,583267,0
2096921,2096921,174005,583089,0
2096921,2096921,174128,583055,0
2096921,2096921,173867,582995,0
2096921,2096921,173877,582952,0
2096921,2096921,174279,583433,0
2096921,2096921,174388,583815,0
2096921,2096921,174610,583915,0
2096921,2096921,174347,583865,0
2096921,2096921,174390,583838,0
2096921,2096921,174617,584163,0
2096921,2096921,174694,584488,0
2096921,2096921,174730,584749,0
2096921,2096921,174619,584907,0
2096921,2096921,174694,584434,0
2096921,2096921,175028,585153,0
2096921,2096921,175002,585049,0
2096921,2096921,174981,585415,0
2096921,2096921,175165,585342,0
2096921,2096921,175266,585239,0
2096921,2096921,175208,586115,0
2096921,2096921,175270,586145,0
2096921,2096921,175329,586066,0
2096921,2096921,175335,586378,0
2096921,2096921,175490,586230,0
2096921,2096921,175582,586668,0
2096921,2096921,175679,586637,0
2096921,2096921,175489,586788,0
2096921,2096921,175273,586782,0
2096921,2096921,175352,586978,0
2096921,2096921,175824,587318,0
2096921,2096921,175767,587425,0
2096921,2096921,175841,587542,0
2096921,2096921,175535,587411,0
2096921,2096921,175728,587378,0
2096921,2096921,176158,588119,0
2096921,2096921,175898,588366,0
2096921,2096921,176292,588333,0
2096921,2096921,176208,588456,0
2096921,2096921,176375,588304,0
2096921,2096921,176243,588598,0
2096921,2096921,176445,588790,0
2096921,2096921,176869,589108,0
2096921,2096921,176579,589190,0
2096921,2096921,176269,589023,0
2096921,2096921,176537,589836,0
2096921,2096921,176384,589750,0
2096921,2096921,176773,589972,0
2096921,2096921,176492,589908,0
2096921,2096921,176777,590140,0
2096921,2096921,177133,590568,0
2096921,2096921,177199,590636,0
2096921,2096921,177066,590791,0
2096921,2096921,177086,590823,0
2096921,2096921,177121,590489,0
2096921,2096921,177108,591360,0
2096921,2096921,177059,591361,0
2096921,2096921,177480,591425,0
2096921,2096921,177460,591751,0
2096921,2096921,177506,591621,0
2096921,2096921,177560,592154,0
2096921,2096921,177559,591893,0
2096921,2096921,177620,592287,0
2096921,2096921,177651,591963,0
2096921,2096921,177655,591781,0
2096921,2096921,177825,592542,0
2096921,2096921,177630,592687,0
2096921,2096921,177727,592932,0
2096921,2096921,177661,592721,0
2096921,2096921,177933,593020,0
2096921,2096921,177979,593311,0
2096921,2096921,178359,593286,0
2096921,2096921,178075,593427,0
2096921,2096921,178126,593302,0
2096921,2096921,177922,593357,0
2096921,2096921,178062,593585,0
2096921,2096921,178105,593807,0
2096921,2096921,178274,593645,0
2096921,2096921,178255,593890,0
2096921,2096921,178130,593602,0
2096921,2096921,178239,593946,0
2096921,2096921,178595,594250,0
2096921,2096921,178277,594442,0
2096921,2096921,178211,594218,0
2096921,2096921,178284,594537,0
2096921,2096921,178316,594525,0
2096921,2096921,178503,594437,0
2096921,2096921,178433,594434,0
2096921,2096921,178303,594637,0
2096921,2096921,178235,594623,0
2096921,2096921,178491,594919,0
2096921,2096921,178397,594795,0
2096921,2096921,178300,594796,0
2096921,2096921,178286,594384,0
2096921,2096921,178446,594526,0
2096921,2096921,178428,594514,0
2096921,2096921,178627,594853,0
2096921,2096921,178571,594987,0
2096921,2096921,178483,594800,0
2096921,2096921,178450,595004,0
2096921,2096921,178432,594927,0
2096921,2096921,178442,594979,0
2096921,2096921,178526,594677,0
2096921,2096921,178096,594443,0
2096921,2096921,178408,594777,0
2096921,2096921,178255,594559,0
2096921,2096921,178342,594774,0
2096921,2096921,178440,595097,0
2096921,2096921,178365,595040,0
2096921,2096921,178767,594947,0
2096921,2096921,178503,595112,0
2096921,2096921,178156,595007,0
2096921,2096921,178076,594840,0
2096921,2096921,178204,594564,0
2096921,2096921,178398,595055,0
2096921,2096921,178263,594622,0
2096921,2096921,178490,594828,0
2096921,2096921,178453,595166,0
2096921,2096921,178269,594789,0
2096921,2096921,178400,595061,0
2096921,2096921,178585,595191,0
2096921,2096921,178803,595158,0
2096921,2096921,178611,595209,0
2096921,2096921,178437,594754,0
2096921,2096921,178341,595337,0
2096921,2096921,178543,595298,0
2096921,2096921,178620,595356,0
2096921,2096921,178662,595408,0
2096921,2096921,178782,595600,0
2096921,2096921,178839,595525,0
2096921,2096921,178713,595653,0
2096921,2096921,178543,595814,0
2096921,2096921,178700,596010,0
2096921,2096921,178783,595948,0
2096921,2096921,178877,595515,0
2096921,2096921,178759,595961,0
2096921,2096921,179051,596526,0
2096921,2096921,178619,596098,0
2096921,2096921,178905,596187,0
2096921,2096921,178843,596191,0
2096921,2096921,179167,596562,0
2096921,2096921,179110,596633,0
2096921,2096921,178974,596608,0
2096921,2096921,178750,596532,0
2096921,2096921,178910,596356,0
2096921,2096921,179275,597098,0
2096921,2096921,179388,597507,0
2096921,2096921,179288,597463,0
2096921,2096921,179376,597378,0
2096921,2096921,179221,597542,0
2096921,2096921,179532,598119,0
2096921,2096921,179604,598112,0
2096921,2096921,179507,598253,0
2096921,2096921,179789,598179,0
2096921,2096921,179639,598254,0
2096921,2096921,179670,598919,0
2096921,2096921,179693,598931,0
2096921,2096921,179848,598830,0
2096921,2096921,179721,598699,0
2096921,2096921,179813,598643,0
2096921,2096921,180052,599520,0
2096921,2096921,179970,599853,0
2096921,2096921,180295,599585,0
2096921,2096921,180030,599288,0
2096921,2096921,180149,599283,0
2096921,2096921,180193,599958,0
2096921,2096921,180377,600235,0
2096921,2096921,180226,600375,0
2096921,2096921,180612,600045,0
2096921,2096921,180608,600594,0
2096921,2096921,180796,600848,0
2096921,2096921,180540,600905,0
2096921,2096921,180539,600793,0
2096921,2096921,180328,600497,0
2096921,2096921,180638,600509,0
2096921,2096921,180975,601160,0
2096921,2096921,180631,601338,0
2096921,2096921,180744,601354,0
2096921,2096921,180668,601468,0
2096921,2096921,180693,601440,0
2096921,2096921,180679,602088,0
2096921,2096921,181137,602396,0
2096921,2096921,181089,602389,0
2096921,2096921,181265,602192,0
2096921,2096921,180969,602383,0
2096921,2096921,180869,602565,0
2096921,2096921,181467,602877,0
2096921,2096921,181257,602662,0
2096921,2096921,181345,602743,0
2096921,2096921,181483,602801,0
2096921,2096921,181628,603402,0
2096921,2096921,181845,603441,0
2096921,2096921,181503,603548,0
2096921,2096921,181657,603538,0
2096921,2096921,181399,603707,0
2096921,2096921,181698,604237,0
2096921,2096921,182003,604135,0
2096921,2096921,181967,603945,0
2096921,2096921,182216,603837,0
2096921,2096921,181933,604245,0
2096921,2096921,182118,604687,0
2096921,2096921,182127,605163,0
2096921,2096921,181914,604983,0
2096921,2096921,181960,604876,0
2096921,2096921,181969,604610,0
2096921,2096921,182112,605191,0
2096921,2096921,182171,605522,0
2096921,2096921,182222,605506,0
2096921,2096921,182197,605492,0
2096921,2096921,182443,605640,0
2096921,2096921,182534,606185,0
2096921,2096921,182510,605828,0
2096921,2096921,182305,605856,0
2096921,2096921,182119,606187,0
2096921,2096921,182184,606165,0
2096921,2096921,182438,606427,0
2096921,2096921,182652,606478,0
2096921,2096921,182403,606677,0
2096921,2096921,182370,606732,0
2096921,2096921,182664,606750,0
2096921,2096921,182577,607364,0
2096921,2096921,182970,607360,0
2096921,2096921,182808,607358,0
2096921,2096921,182825,607244,0
2096921,2096921,182692,607390,0
2096921,2096921,182911,607937,0
2096921,2096921,183179,607796,0
2096921,2096921,183445,607655,0
2096921,2096921,183153,608019,0
2096921,2096921,183592,608105,0
2096921,2096921,183350,608384,0
2096921,2096921,183502,608204,0
2096921,2096921,183054,608588,0
2096921,2096921,182982,608275,0
2096921,2096921,182937,608577,0
2096921,2096921,183054,608807,0
2096921,2096921,183237,609045,0
2096921,2096921,183424,608830,0
2096921,2096921,183333,609081,0
2096921,2096921,183358,608783,0
2096921,2096921,183599,609577,0
2096921,2096921,183614,609479,0
2096921,2096921,183803,609478,0
2096921,2096921,183418,609253,0
2096921,2096921,183485,609387,0
2096921,2096921,183861,610001,0
2096921,2096921,183732,610255,0
2096921,2096921,184030,610145,0
2096921,2096921,183902,609918,0
2096921,2096921,184039,610162,0
2096921,2096921,184065,610446,0
2096921,2096921,184046,610657,0
2096921,2096921,184118,610681,0
2096921,2096921,184054,610704,0
2096921,2096921,184223,610702,0
2096921,2096921,184152,610906,0
2096921,2096921,184515,611100,0
2096921,2096921,184319,611386,0
2096921,2096921,184355,611180,0
2096921,2096921,184050,611281,0
2096921,2096921,184573,611451,0
2096921,2096921,184255,611771,0
2096921,2096921,184405,611551,0
2096921,2096921,184115,611337,0
2096921,2096921,184360,611495,0
2096921,2096921,184511,611941,0
2096921,2096921,184570,612173,0
2096921,2096921,184898,612266,0
2096921,2096921,184750,612598,0
2096921,2096921,184591,612526,0
2096921,2096921,184830,612736,0
2096921,2096921,184779,613090,0
2096921,2096921,184783,612760,0
2096921,2096921,184426,612619,0
2096921,2096921,184754,612748,0
2096921,2096921,184698,613036,0
2096921,2096921,184872,612924,0
2096921,2096921,184787,613554,0
2096921,2096921,184658,613082,0
2096921,2096921,184678,613312,0
2096921,2096921,185099,613492,0
2096921,2096921,185050,613698,0
2096921,2096921,184997,613569,0
2096921,2096921,184931,613648,0
2096921,2096921,185172,613586,0
2096921,2096921,184929,614012,0
2096921,2096921,185186,614155,0
2096921,2096921,185261,614310,0
2096921,2096921,185050,614131,0
2096921,2096921,185189,614568,0
2096921,2096921,185284,614525,0
2096921,2096921,184954,614551,0
2096921,2096921,185087,614598,0
2096921,2096921,185113,614638,0
2096921,2096921,185316,614891,0
2096921,2096921,185441,614917,0
2096921,2096921,185427,614729,0
2096921,2096921,185751,615381,0
2096921,2096921,185671,614919,0
2096921,2096921,185866,614883,0
2096921,2096921,185835,615520,0
2096921,2096921,185527,615608,0
2096921,2096921,185642,615806,0
2096921,2096921,185643,615711,0
2096921,2096921,185457,615411,0
2096921,2096921,185689,615633,0
2096921,2096921,185804,615482,0
2096921,2096921,185918,615814,0
2096921,2096921,186204,615965,0
2096921,2096921,186061,616124,0
2096921,2096921,185960,616393,0
2096921,2096921,185909,616078,0
2096921,2096921,185873,616000,0
2096921,2096921,185738,616338,0
2096921,2096921,185992,616020,0
2096921,2096921,186087,616509,0
2096921,2096921,185750,616601,0
2096921,2096921,186025,616599,0
2096921,2096921,186396,616743,0
2096921,2096921,185890,616664,0
2096921,2096921,186125,617136,0
2096921,2096921,186238,617168,0
2096921,2096921,186198,617143,0
2096921,2096921,186438,617345,0
2096921,2096921,185949,617142,0
2096921,2096921,186143,617398,0
2096921,2096921,186429,617873,0
2096921,2096921,186561,617511,0
2096921,2096921,186433,617550,0
2096921,2096921,186222,617577,0
2096921,2096921,186320,617772,0
2096921,2096921,186452,617711,0
2096921,2096921,186132,617772,0
2096921,2096921,186165,617963,0
2096921,2096921,186346,618029,0
2096921,2096921,186456,618205,0
2096921,2096921,186393,618285,0
2096921,2096921,187018,618334,0
2096921,2096921,186749,618543,0
2096921,2096921,186966,618451,0
2096921,2096921,186783,618313,0
2096921,2096921,186928,618662,0
2096921,2096921,187001,618475,0
2096921,2096921,186882,618520,0
2096921,2096921,186581,618609,0
2096921,2096921,186673,618938,0
2096921,2096921,186812,618998,0
2096921,2096921,186993,618526,0
2096921,2096921,186716,618964,0
2096921,2096921,186989,618955,0
2096921,2096921,186996,619070,0
2096921,2096921,187202,619340,0
2096921,2096921,186857,619313,0
2096921,2096921,186925,619151,0
2096921,2096921,186916,619171,0
2096921,2096921,186898,619497,0
2096921,2096921,187080,619677,0
2096921,2096921,187020,619655,0
2096921,2096921,186967,619939,0
2096921,2096921,186817,620046,0
2096921,2096921,186956,620438,0
2096921,2096921,187162,620009,0
2096921,2096921,187023,620377,0
2096921,2096921,187407,620059,0
2096921,2096921,186984,620312,0
2096921,2096921,187262,620124,0
2096921,2096921,187213,620430,0
2096921,2096921,187061,620554,0
2096921,2096921,187137,620168,0
2096921,2096921,187355,620163,0
2096921,2096921,187376,620413,0
2096921,2096921,187349,620612,0
2096921,2096921,187456,620725,0
2096921,2096921,187406,620312,0
2096921,2096921,187407,620786,0
2096921,2096921,187358,620805,0
2096921,2096921,187359,620538,0
2096921,2096921,187530,620924,0
2096921,2096921,187441,620943,0
2096921,2096921,187322,620915,0
2096921,2096921,187496,621138,0
2096921,2096921,187312,620792,0
2096921,2096921,187786,621002,0
2096921,2096921,187666,620808,0
2096921,2096921,187432,620884,0
2096921,2096921,187339,621132,0
2096921,2096921,187485,621158,0
2096921,2096921,187950,621402,0
2096921,2096921,187561,621479,0
2096921,2096921,187442,621378,0
2096921,2096921,187825,621572,0
2096921,2096921,187826,621265,0
2096921,2096921,187945,621249,0
2096921,2096921,187696,621467,0
2096921,2096921,187653,621280,0
2096921,2096921,187555,621650,0
2096921,2096921,187630,621734,0
2096921,2096921,187548,621890,0
2096921,2096921,187769,621945,0
2096921,2096921,187821,621404,0
2096921,2096921,188073,621939,0
2096921,2096921,187828,622139,0
2096921,2096921,187672,621983,0
2096921,2096921,187725,621856,0
2096921,2096921,187708,621806,0
2096921,2096921,187572,622064,0
2096921,2096921,187497,622181,0
2096921,2096921,187803,622099,0
2096921,2096921,187963,622315,0
2096921,2096921,187779,622276,0
2096921,2096921,187691,621884,0
2096921,2096921,187797,622052,0
2096921,2096921,187867,621826,0
2096921,2096921,187632,621860,0
2096921,2096921,187744,622117,0
2096921,2096921,187670,621715,0
2096921,2096921,187623,621557,0
2096921,2096921,187623,621430,0
2096921,2096921,187846,621726,0
2096921,2096921,187665,621428,0
2096921,2096921,187409,620834,0
2096921,2096921,187100,620873,0
2096921,2096921,187170,620566,0
2096921,2096921,187350,620639,0
2096921,2096921,187060,620802,0
2096921,2096921,186820,619900,0
2096921,2096921,186808,619525,0
2096921,2096921,187120,619610,0
2096921,2096921,187082,619858,0
2096921,2096921,186898,620102,0
2096921,2096921,186419,618842,0
2096921,2096921,186441,618545,0
2096921,2096921,186280,618392,0
2096921,2096921,186466,618633,0
2096921,2096921,186430,618519,0
2096921,2096921,185746,615983,0
2096921,2096921,185339,615889,0
2096921,2096921,185200,615600,0
2096921,2096921,185233,616037,0
2096921,2096921,185062,615950,0
2096921,2096921,183995,613094,0
2096921,2096921,184071,612498,0
2096921,2096921,183786,612350,0
