2096921,2096921,177999,597670,0
2096921,2096921,178197,597556,0
2096921,2096921,178060,597897,0
2096921,2096921,178006,597634,0
2096921,2096921,177799,597659,0
2096921,2096921,177412,597748,0
2096921,2096921,177645,597891,0
2096921,2096921,177843,597949,0
2096921,2096921,177965,597916,0
2096921,2096921,178039,597861,0
2096921,2096921,178125,597946,0
2096921,2096921,178248,598179,0
2096921,2096921,178415,598340,0
2096921,2096921,178073,598313,0
2096921,2096921,178328,598113,0
2096921,2096921,178179,598146,0
2096921,2096921,178234,598134,0
2096921,2096921,177983,598119,0
2096921,2096921,178104,598241,0
2096921,2096921,178191,598190,0
2096921,2096921,178132,598242,0
2096921,2096921,178212,598338,0
2096921,2096921,178301,598316,0
2096921,2096921,178163,598243,0
2096921,2096921,178236,598406,0
2096921,2096921,178166,598257,0
2096921,2096921,178381,598488,0
2096921,2096921,178260,598611,0
2096921,2096921,178284,598718,0
2096921,2096921,178320,598634,0
2096921,2096921,178426,598300,0
2096921,2096921,178218,598754,0
2096921,2096921,178551,598959,0
2096921,2096921,178287,598973,0
2096921,2096921,178228,598816,0
2096921,2096921,178225,598791,0
2096921,2096921,178287,599320,0
2096921,2096921,178210,599280,0
2096921,2096921,178313,599206,0
2096921,2096921,178594,599090,0
2096921,2096921,178278,598940,0
2096921,2096921,178095,598548,0
2096921,2096921,178176,598426,0
2096921,2096921,178341,598537,0
2096921,2096921,178258,598251,0
2096921,2096921,178152,598548,0
2096921,2096921,178071,598000,0
2096921,2096921,177861,598404,0
2096921,2096921,177936,597964,0
2096921,2096921,177939,598076,0
2096921,2096921,177901,597860,0
2096921,2096921,178007,596901,0
2096921,2096921,178061,596682,0
2096921,2096921,177643,596669,0
2096921,2096921,177818,596378,0
2096921,2096921,177352,596448,0
2096921,2096921,176967,595185,0
2096921,2096921,177372,594974,0
2096921,2096921,177038,594742,0
2096921,2096921,177180,594998,0
2096921,2096921,177081,594850,0
2096921,2096921,176927,593894,0
2096921,2096921,176842,593424,0
2096921,2096921,176350,593538,0
2096921,2096921,176625,593461,0
2096921,2096921,176097,593427,0
2096921,2096921,175323,590214,0
2096921,2096921,175189,589475,0
2096921,2096921,175231,589261,0
2096921,2096921,175395,589204,0
2096921,2096921,174826,589349,0
2096921,2096921,173952,585309,0
2096921,2096921,173752,584083,0
2096921,2096921,173740,584046,0
2096921,2096921,173654,584217,0
2096921,2096921,173414,584160,0
2096921,2096921,172597,581146,0
2096921,2096921,172509,580451,0
2096921,2096921,172491,580220,0
2096921,2096921,172301,580117,0
2096921,2096921,172145,580412,0
2096921,2096921,171774,578152,0
2096921,2096921,171904,577554,0
2096921,2096921,171862,577559,0
2096921,2096921,171565,577214,0
2096921,2096921,171168,577171,0
2096921,2096921,171013,575750,0
2096921,2096921,170804,575548,0
2096921,2096921,170949,575314,0
2096921,2096921,171195,575536,0
2096921,2096921,171144,575525,0
2096921,2096921,170579,574216,0
2096921,2096921,170816,574102,0
2096921,2096921,170638,574128,0
2096921,2096921,170358,574215,0
2096921,2096921,170674,574166,0
2096921,2096921,170028,573284,0
2096921,2096921,169976,573356,0
2096921,2096921,170175,573219,0
2096921,2096921,170356,573068,0
2096921,2096921,170249,573363,0
2096921,2096921,170250,572688,0
2096921,2096921,170200,572791,0
2096921,2096921,170021,572729,0
2096921,2096921,170108,572702,0
2096921,2096921,169964,572853,0
2096921,2096921,170134,572712,0
2096921,2096921,170018,572724,0
2096921,2096921,170042,572797,0
2096921,2096921,170273,572674,0
2096921,2096921,170230,572921,0
2096921,2096921,170141,573072,0
2096921,2096921,170156,573081,0
2096921,2096921,170238,573024,0
2096921,2096921,170062,572926,0
2096921,2096921,170024,572873,0
2096921,2096921,170273,573766,0
2096921,2096921,170390,573771,0
2096921,2096921,170594,573927,0
2096921,2096921,170472,573933,0
2096921,2096921,170627,573955,0
2096921,2096921,170750,574393,0
2096921,2096921,170748,574205,0
2096921,2096921,170602,574536,0
2096921,2096921,170672,574495,0
2096921,2096921,170856,574488,0
2096921,2096921,170588,575243,0
2096921,2096921,170693,575133,0
2096921,2096921,171075,575042,0
2096921,2096921,170927,574962,0
2096921,2096921,171035,575461,0
2096921,2096921,171363,576227,0
2096921,2096921,171205,576242,0
2096921,2096921,170940,576056,0
2096921,2096921,171168,576368,0
2096921,2096921,170996,576127,0
2096921,2096921,171483,577209,0
2096921,2096921,171484,577326,0
2096921,2096921,171507,577318,0
2096921,2096921,171571,577301,0
2096921,2096921,171921,577675,0
2096921,2096921,171885,578299,0
2096921,2096921,172111,578661,0
2096921,2096921,172089,578695,0
2096921,2096921,172083,578746,0
2096921,2096921,172005,578614,0
2096921,2096921,172298,579853,0
2096921,2096921,172353,579916,0
2096921,2096921,172601,580152,0
2096921,2096921,172343,580101,0
2096921,2096921,172450,580302,0
2096921,2096921,172969,581287,0
2096921,2096921,172899,581681,0
2096921,2096921,172881,581385,0
2096921,2096921,172530,581562,0
2096921,2096921,173016,581326,0
2096921,2096921,173359,582253,0
2096921,2096921,173275,582789,0
2096921,2096921,173328,582699,0
2096921,2096921,173260,582737,0
2096921,2096921,173361,582594,0
2096921,2096921,173369,583509,0
2096921,2096921,173766,583727,0
2096921,2096921,173373,583942,0
2096921,2096921,173555,583833,0
2096921,2096921,173656,583948,0
2096921,2096921,173714,584569,0
2096921,2096921,174214,585235,0
2096921,2096921,174488,585165,0
2096921,2096921,173993,585341,0
2096921,2096921,174080,585305,0
2096921,2096921,174498,586326,0
2096921,2096921,174268,586313,0
2096921,2096921,174197,586449,0
2096921,2096921,174546,586620,0
2096921,2096921,174333,586431,0
2096921,2096921,174831,587618,0
2096921,2096921,174447,587933,0
2096921,2096921,174814,587850,0
2096921,2096921,174763,588030,0
2096921,2096921,174960,588225,0
2096921,2096921,175103,589034,0
2096921,2096921,175147,589361,0
2096921,2096921,175284,589217,0
2096921,2096921,175381,589149,0
2096921,2096921,175338,589143,0
2096921,2096921,175463,590606,0
2096921,2096921,175764,590433,0
2096921,2096921,175848,590575,0
2096921,2096921,175951,590723,0
2096921,2096921,176252,590955,0
2096921,2096921,176352,591707,0
2096921,2096921,176249,591835,0
2096921,2096921,175978,591974,0
2096921,2096921,175990,591801,0
2096921,2096921,176145,591985,0
2096921,2096921,176473,592430,0
2096921,2096921,176316,592671,0
2096921,2096921,176309,592824,0
2096921,2096921,176445,592909,0
2096921,2096921,176655,592844,0
2096921,2096921,176807,593805,0
2096921,2096921,176648,593768,0
2096921,2096921,176568,593942,0
2096921,2096921,176485,594060,0
2096921,2096921,176869,594066,0
2096921,2096921,176844,594385,0
2096921,2096921,176926,594643,0
2096921,2096921,177145,594493,0
2096921,2096921,177353,594679,0
2096921,2096921,177383,594505,0
2096921,2096921,177209,595362,0
2096921,2096921,177313,595381,0
2096921,2096921,177155,595418,0
2096921,2096921,177188,595222,0
2096921,2096921,177276,595270,0
2096921,2096921,177262,595561,0
2096921,2096921,176975,595903,0
2096921,2096921,177100,595662,0
2096921,2096921,177477,595827,0
2096921,2096921,177460,595696,0
2096921,2096921,177291,595936,0
2096921,2096921,177589,595917,0
2096921,2096921,177695,596271,0
2096921,2096921,177456,595883,0
2096921,2096921,177406,596243,0
2096921,2096921,177531,596224,0
2096921,2096921,177405,596098,0
2096921,2096921,177275,596251,0
2096921,2096921,177303,596175,0
2096921,2096921,177289,596461,0
2096921,2096921,177869,596417,0
2096921,2096921,177515,596068,0
2096921,2096921,177765,596495,0
2096921,2096921,177454,596440,0
2096921,2096921,177446,596354,0
2096921,2096921,177419,596360,0
2096921,2096921,177327,596364,0
2096921,2096921,177364,596393,0
2096921,2096921,177716,596240,0
2096921,2096921,177606,596133,0
2096921,2096921,177528,596223,0
2096921,2096921,177478,596523,0
2096921,2096921,177589,596233,0
2096921,2096921,177304,596101,0
2096921,2096921,177468,596127,0
2096921,2096921,177326,595963,0
2096921,2096921,177718,595977,0
2096921,2096921,177579,596441,0
2096921,2096921,177776,596581,0
2096921,2096921,177679,596594,0
2096921,2096921,177839,596637,0
2096921,2096921,177662,596765,0
2096921,2096921,177680,596976,0
2096921,2096921,177627,596824,0
2096921,2096921,178084,596431,0
2096921,2096921,177966,596997,0
2096921,2096921,177853,597006,0
2096921,2096921,177486,597071,0
2096921,2096921,177846,596952,0
2096921,2096921,177853,597018,0
2096921,2096921,178091,597563,0
2096921,2096921,178218,597602,0
2096921,2096921,178025,597472,0
2096921,2096921,177804,597436,0
2096921,2096921,178357,597634,0
2096921,2096921,177920,597935,0
2096921,2096921,178138,598209,0
2096921,2096921,178096,598130,0
2096921,2096921,178215,598178,0
2096921,2096921,178369,598289,0
2096921,2096921,178709,598813,0
2096921,2096921,178582,599140,0
2096921,2096921,178142,598949,0
2096921,2096921,178242,599032,0
2096921,2096921,178474,598725,0
2096921,2096921,178483,599661,0
2096921,2096921,178552,600166,0
2096921,2096921,178815,600323,0
2096921,2096921,178875,599974,0
2096921,2096921,178756,600060,0
2096921,2096921,179102,600975,0
2096921,2096921,179045,601251,0
2096921,2096921,179059,601175,0
2096921,2096921,178734,601378,0
2096921,2096921,179058,601340,0
2096921,2096921,179207,601875,0
2096921,2096921,179421,602196,0
2096921,2096921,179485,602477,0
2096921,2096921,179517,602184,0
2096921,2096921,179469,602408,0
2096921,2096921,179674,602947,0
2096921,2096921,179731,603190,0
2096921,2096921,179512,603130,0
2096921,2096921,179603,603228,0
2096921,2096921,179595,603028,0
2096921,2096921,179781,603986,0
2096921,2096921,179767,604125,0
2096921,2096921,180034,604145,0
2096921,2096921,180105,604185,0
2096921,2096921,179990,604363,0
2096921,2096921,180197,604919,0
2096921,2096921,180201,604884,0
2096921,2096921,180147,605005,0
2096921,2096921,179945,605256,0
2096921,2096921,180233,605075,0
2096921,2096921,180280,605592,0
2096921,2096921,180525,605618,0
2096921,2096921,180585,605925,0
2096921,2096921,180874,605911,0
2096921,2096921,180504,605919,0
2096921,2096921,180862,606702,0
2096921,2096921,180883,606939,0
2096921,2096921,180684,606910,0
2096921,2096921,180764,607015,0
2096921,2096921,180850,606874,0
2096921,2096921,181148,607767,0
2096921,2096921,181068,607807,0
2096921,2096921,181203,607757,0
2096921,2096921,181094,607681,0
2096921,2096921,181326,607941,0
2096921,2096921,181575,608700,0
2096921,2096921,181662,608936,0
2096921,2096921,181137,608668,0
2096921,2096921,181528,608854,0
2096921,2096921,181617,608889,0
2096921,2096921,181751,609196,0
2096921,2096921,181756,609486,0
2096921,2096921,181769,609400,0
2096921,2096921,181719,609730,0
2096921,2096921,181821,609641,0
2096921,2096921,181858,610305,0
2096921,2096921,182119,610742,0
2096921,2096921,182044,610496,0
2096921,2096921,182098,610418,0
2096921,2096921,181976,610490,0
2096921,2096921,182340,611146,0
2096921,2096921,182088,611284,0
2096921,2096921,182336,611347,0
2096921,2096921,182227,611113,0
2096921,2096921,182254,611407,0
2096921,2096921,182398,612050,0
2096921,2096921,182344,612271,0
2096921,2096921,182320,612163,0
2096921,2096921,182662,612214,0
2096921,2096921,182663,611935,0
2096921,2096921,182674,612817,0
2096921,2096921,182413,612960,0
2096921,2096921,182616,613115,0
2096921,2096921,182882,613085,0
2096921,2096921,182672,612947,0
2096921,2096921,183055,613838,0
2096921,2096921,183058,613742,0
2096921,2096921,183054,613766,0
2096921,2096921,182962,613879,0
2096921,2096921,182745,613786,0
2096921,2096921,182972,614339,0
2096921,2096921,183013,614574,0
2096921,2096921,183226,614330,0
2096921,2096921,183162,614902,0
2096921,2096921,183358,614738,0
2096921,2096921,183410,615552,0
2096921,2096921,183109,615655,0
2096921,2096921,183485,615447,0
2096921,2096921,183426,615263,0
2096921,2096921,183562,615414,0
2096921,2096921,183552,615999,0
2096921,2096921,183518,615845,0
2096921,2096921,183363,616016,0
2096921,2096921,183722,616163,0
2096921,2096921,183638,616101,0
2096921,2096921,183811,616618,0
2096921,2096921,183630,616732,0
2096921,2096921,183943,616738,0
2096921,2096921,183858,616703,0
2096921,2096921,184007,616934,0
2096921,2096921,184223,617174,0
2096921,2096921,184146,617551,0
2096921,2096921,183887,617533,0
2096921,2096921,183959,617724,0
2096921,2096921,184244,617417,0
2096921,2096921,184408,618037,0
2096921,2096921,184208,618104,0
2096921,2096921,184403,618228,0
2096921,2096921,184159,618228,0
2096921,2096921,184186,618465,0
2096921,2096921,184334,618555,0
2096921,2096921,184255,618540,0
2096921,2096921,184555,618700,0
2096921,2096921,184630,618735,0
2096921,2096921,184746,619028,0
2096921,2096921,184763,619542,0
2096921,2096921,184566,619513,0
2096921,2096921,184658,619211,0
2096921,2096921,184551,619344,0
2096921,2096921,184926,619425,0
2096921,2096921,184937,619648,0
2096921,2096921,185004,619956,0
2096921,2096921,184801,620021,0
2096921,2096921,185173,619922,0
2096921,2096921,185022,619968,0
2096921,2096921,184934,620589,0
2096921,2096921,184931,620699,0
2096921,2096921,185217,620516,0
2096921,2096921,185072,620610,0
2096921,2096921,185356,620577,0
2096921,2096921,185148,620843,0
2096921,2096921,185231,620839,0
2096921,2096921,185268,621136,0
2096921,2096921,185507,621129,0
2096921,2096921,184911,620951,0
2096921,2096921,185405,621489,0
2096921,2096921,185343,621610,0
2096921,2096921,185323,621538,0
2096921,2096921,185493,621598,0
2096921,2096921,185501,621300,0
2096921,2096921,185465,621783,0
2096921,2096921,185504,622136,0
2096921,2096921,185495,622333,0
2096921,2096921,185789,622152,0
2096921,2096921,185710,622060,0
2096921,2096921,185855,622544,0
2096921,2096921,185804,622443,0
2096921,2096921,185797,622657,0
2096921,2096921,185790,622325,0
2096921,2096921,185857,622445,0
2096921,2096921,185984,622788,0
2096921,2096921,185932,622727,0
2096921,2096921,185890,622838,0
2096921,2096921,185851,622771,0
2096921,2096921,185902,622776,0
2096921,2096921,186019,623128,0
2096921,2096921,186042,623195,0
2096921,2096921,186110,623317,0
2096921,2096921,185955,623534,0
2096921,2096921,186125,623253,0
2096921,2096921,186051,623471,0
2096921,2096921,186059,623485,0
2096921,2096921,185750,623603,0
2096921,2096921,186066,623600,0
2096921,2096921,186042,623678,0
2096921,2096921,185917,623874,0
2096921,2096921,186165,623892,0
2096921,2096921,186192,623802,0
2096921,2096921,186486,624312,0
2096921,2096921,186585,624267,0
2096921,2096921,186328,624399,0
2096921,2096921,186447,624419,0
2096921,2096921,186266,624542,0
2096921,2096921,186113,624526,0
2096921,2096921,186410,624748,0
2096921,2096921,186548,624828,0
2096921,2096921,186403,624707,0
2096921,2096921,186449,624813,0
2096921,2096921,186257,624939,0
2096921,2096921,186494,624876,0
2096921,2096921,186506,625061,0
2096921,2096921,186356,625012,0
2096921,2096921,186373,625042,0
2096921,2096921,186263,624938,0
2096921,2096921,186593,625211,0
2096921,2096921,186612,625690,0
2096921,2096921,186796,625830,0
2096921,2096921,186653,625654,0
2096921,2096921,186558,625605,0
2096921,2096921,186602,625563,0
2096921,2096921,186609,625840,0
2096921,2096921,186944,625587,0
2096921,2096921,186631,625625,0
2096921,2096921,186671,625688,0
2096921,2096921,186921,625888,0
2096921,2096921,186915,626287,0
2096921,2096921,186847,626210,0
2096921,2096921,186648,626244,0
2096921,2096921,186826,626337,0
2096921,2096921,186813,626264,0
2096921,2096921,186891,626420,0
2096921,2096921,186854,626379,0
2096921,2096921,186931,626538,0
2096921,2096921,186907,626287,0
2096921,2096921,186989,626586,0
2096921,2096921,186984,626838,0
2096921,2096921,186938,626579,0
2096921,2096921,186962,626611,0
2096921,2096921,186860,626565,0
2096921,2096921,186862,626372,0
2096921,2096921,187009,626796,0
2096921,2096921,186719,626661,0
2096921,2096921,187001,626669,0
2096921,2096921,186753,626881,0
2096921,2096921,187182,626887,0
2096921,2096921,187156,627276,0
2096921,2096921,187178,627290,0
2096921,2096921,186894,627291,0
2096921,2096921,186841,627191,0
2096921,2096921,186942,627117,0
2096921,2096921,186975,627327,0
2096921,2096921,186818,627167,0
2096921,2096921,186875,627150,0
2096921,2096921,187145,627211,0
2096921,2096921,187297,627299,0
2096921,2096921,187052,627145,0
2096921,2096921,186955,627213,0
2096921,2096921,187014,627207,0
2096921,2096921,187222,627134,0
2096921,2096921,187077,627145,0
2096921,2096921,187219,627543,0
2096921,2096921,187329,627276,0
2096921,2096921,187239,627259,0
2096921,2096921,187148,627427,0
2096921,2096921,187117,627197,0
2096921,2096921,187130,627424,0
2096921,2096921,187051,627221,0
2096921,2096921,186989,627431,0
2096921,2096921,187088,627382,0
2096921,2096921,187118,627145,0
2096921,2096921,187131,627175,0
2096921,2096921,187145,627386,0
2096921,2096921,186999,627104,0
2096921,2096921,187309,627474,0
2096921,2096921,187253,627291,0
2096921,2096921,187107,627445,0
2096921,2096921,187353,627792,0
2096921,2096921,187207,627647,0
2096921,2096921,186996,627428,0
2096921,2096921,187005,627531,0
2096921,2096921,187249,627408,0
2096921,2096921,187373,627515,0
2096921,2096921,187400,627287,0
2096921,2096921,187136,627531,0
2096921,2096921,187149,627531,0
2096921,2096921,187407,627481,0
2096921,2096921,187041,627448,0
2096921,2096921,187064,627878,0
2096921,2096921,187233,627452,0
2096921,2096921,187090,627671,0
2096921,2096921,187159,627416,0
2096921,2096921,187070,627688,0
2096921,2096921,187061,627752,0
2096921,2096921,187255,627778,0
2096921,2096921,187029,627805,0
2096921,2096921,187202,626776,0
2096921,2096921,186835,626345,0
2096921,2096921,186827,626513,0
2096921,2096921,186813,626422,0
2096921,2096921,186580,626667,0
2096921,2096921,186707,626101,0
2096921,2096921,186871,625925,0
2096921,2096921,186745,625565,0
2096921,2096921,186574,625782,0
2096921,2096921,186689,626002,0
2096921,2096921,186358,624504,0
2096921,2096921,186201,624191,0
2096921,2096921,186118,624215,0
2096921,2096921,186315,624380,0
2096921,2096921,186161,624248,0
2096921,2096921,185659,622857,0
2096921,2096921,185653,622223,0
2096921,2096921,185589,622420,0
2096921,2096921,185731,622356,0
2096921,2096921,185133,622287,0
2096921,2096921,185221,620756,0
2096921,2096921,184917,620244,0
2096921,2096921,185238,620158,0
2096921,2096921,184781,620226,0
2096921,2096921,184096,620040,0
2096921,2096921,183422,616353,0
2096921,2096921,183436,615658,0
2096921,2096921,183097,615297,0
2096921,2096921,183285,615700,0
2096921,2096921,182436,615480,0
2096921,2096921,181856,611097,0
2096921,2096921,181889,609879,0
2096921,2096921,181920,609717,0
2096921,2096921,181539,609911,0
2096921,2096921,181098,610094,0
2096921,2096921,180302,606563,0
2096921,2096921,180207,605727,0
2096921,2096921,180324,605840,0
2096921,2096921,180441,605634,0
2096921,2096921,179960,605703,0
2096921,2096921,179670,603336,0
2096921,2096921,179444,602587,0
2096921,2096921,179156,602610,0
2096921,2096921,179237,602346,0
2096921,2096921,178981,602176,0
2096921,2096921,178532,600527,0
2096921,2096921,178384,600092,0
2096921,2096921,178591,600078,0
2096921,2096921,178513,600005,0
2096921,2096921,178154,600123,0
2096921,2096921,178042,598810,0
2096921,2096921,178050,598467,0
2096921,2096921,178034,598447,0
2096921,2096921,178047,598417,0
2096921,2096921,177787,598527,0
2096921,2096921,177681,597347,0
2096921,2096921,177537,597126,0
2096921,2096921,177778,597494,0
2096921,2096921,177763,597364,0
2096921,2096921,177661,596935,0
2096921,2096921,177656,596455,0
2096921,2096921,177286,596644,0
2096921,2096921,177475,596576,0
2096921,2096921,177246,596312,0
2096921,2096921,177399,596171,0
2096921,2096921,177191,595817,0
2096921,2096921,177177,595924,0
2096921,2096921,177299,596074,0
2096921,2096921,177613,596133,0
2096921,2096921,177444,596275,0
2096921,2096921,177486,596207,0
2096921,2096921,177436,596133,0
2096921,2096921,177283,596154,0
2096921,2096921,177216,596150,0
2096921,2096921,177391,596278,0
2096921,2096921,177524,596467,0
2096921,2096921,177361,596464,0
2096921,2096921,177563,596670,0
2096921,2096921,177416,596615,0
2096921,2096921,177640,596519,0
2096921,2096921,177616,596875,0
2096921,2096921,177681,597059,0
2096921,2096921,177684,597024,0
2096921,2096921,177506,596765,0
2096921,2096921,177557,596956,0
2096921,2096921,177851,596897,0
2096921,2096921,177770,597072,0
2096921,2096921,177750,597175,0
2096921,2096921,177768,597316,0
2096921,2096921,178066,597363,0
2096921,2096921,178186,597936,0
2096921,2096921,177968,598066,0
2096921,2096921,177966,598076,0
2096921,2096921,177904,598077,0
2096921,2096921,178069,598205,0
2096921,2096921,178314,598737,0
2096921,2096921,178203,599054,0
2096921,2096921,178161,599145,0
2096921,2096921,178395,599242,0
2096921,2096921,178669,599222,0
2096921,2096921,178931,599771,0
2096921,2096921,178579,600185,0
2096921,2096921,178394,600256,0
2096921,2096921,178811,599948,0
2096921,2096921,178627,600287,0
2096921,2096921,178871,600867,0
2096921,2096921,178684,600908,0
2096921,2096921,178486,600895,0
2096921,2096921,178834,601288,0
2096921,2096921,179132,601070,0
2096921,2096921,179022,601894,0
2096921,2096921,179235,601972,0
2096921,2096921,179184,602043,0
2096921,2096921,179436,602290,0
2096921,2096921,179207,602043,0
2096921,2096921,179258,602746,0
2096921,2096921,179614,602745,0
2096921,2096921,179737,603138,0
2096921,2096921,179723,603160,0
2096921,2096921,179912,602933,0
2096921,2096921,179982,603858,0
2096921,2096921,179753,603860,0
2096921,2096921,179822,604095,0
2096921,2096921,179616,603836,0
2096921,2096921,179876,603925,0
2096921,2096921,179771,604685,0
2096921,2096921,179835,604742,0
2096921,2096921,180030,604892,0
2096921,2096921,180246,604997,0
2096921,2096921,180134,604805,0
2096921,2096921,180556,605827,0
2096921,2096921,180561,605975,0
2096921,2096921,180604,605929,0
2096921,2096921,180447,605923,0
2096921,2096921,180362,605900,0
2096921,2096921,180791,606672,0
2096921,2096921,180828,607027,0
2096921,2096921,180686,607057,0
2096921,2096921,180871,607158,0
2096921,2096921,181057,606948,0
2096921,2096921,181277,607849,0
2096921,2096921,181140,607883,0
2096921,2096921,181224,607944,0
2096921,2096921,181122,607989,0
2096921,2096921,181221,607857,0
2096921,2096921,181061,608626,0
2096921,2096921,181272,608786,0
2096921,2096921,181276,608742,0
2096921,2096921,181572,608855,0
2096921,2096921,181500,608893,0
2096921,2096921,181557,609521,0
2096921,2096921,181533,609085,0
2096921,2096921,181672,609684,0
2096921,2096921,181630,609593,0
2096921,2096921,181848,609700,0
2096921,2096921,182037,610491,0
2096921,2096921,182063,610601,0
2096921,2096921,181779,610812,0
2096921,2096921,181643,610583,0
2096921,2096921,181705,610349,0
2096921,2096921,182119,610978,0
2096921,2096921,181916,610912,0
2096921,2096921,181993,611032,0
2096921,2096921,181886,610776,0
2096921,2096921,182054,610761,0
2096921,2096921,182014,611101,0
2096921,2096921,182352,611142,0
2096921,2096921,182109,611207,0
2096921,2096921,182381,611099,0
2096921,2096921,182214,611206,0
2096921,2096921,182576,611278,0
2096921,2096921,182492,611591,0
2096921,2096921,182382,611797,0
2096921,2096921,182218,611525,0
2096921,2096921,182379,611342,0
2096921,2096921,182315,611400,0
2096921,2096921,182271,611216,0
2096921,2096921,182032,611324,0
2096921,2096921,182118,611319,0
2096921,2096921,182110,611338,0
2096921,2096921,182028,611096,0
2096921,2096921,182200,611178,0
2096921,2096921,182060,611408,0
2096921,2096921,182142,611157,0
2096921,2096921,182272,611236,0
2096921,2096921,181813,610913,0
2096921,2096921,182081,610796,0
2096921,2096921,182044,610918,0
2096921,2096921,182222,610862,0
2096921,2096921,182093,610793,0
2096921,2096921,181780,610832,0
2096921,2096921,182061,610582,0
2096921,2096921,182058,610812,0
2096921,2096921,182025,610537,0
2096921,2096921,181671,610770,0
2096921,2096921,181625,610229,0
2096921,2096921,181867,609996,0
2096921,2096921,181777,609934,0
2096921,2096921,181819,610135,0
2096921,2096921,181660,609996,0
2096921,2096921,181554,609688,0
2096921,2096921,181614,609674,0
2096921,2096921,181681,609400,0
2096921,2096921,181790,609571,0
2096921,2096921,181606,609764,0
2096921,2096921,181472,609465,0
2096921,2096921,181519,609380,0
2096921,2096921,181498,609030,0
2096921,2096921,181302,609037,0
2096921,2096921,181427,609180,0
2096921,2096921,181464,609258,0
2096921,2096921,181353,609094,0
2096921,2096921,181508,609078,0
2096921,2096921,181525,609184,0
2096921,2096921,181452,608998,0
2096921,2096921,181321,608732,0
2096921,2096921,181178,608730,0
2096921,2096921,181693,608895,0
2096921,2096921,181533,608905,0
2096921,2096921,181397,609073,0
2096921,2096921,181459,609016,0
2096921,2096921,181591,609129,0
2096921,2096921,181554,609119,0
2096921,2096921,181182,608909,0
2096921,2096921,181467,609052,0
2096921,2096921,181222,608750,0
2096921,2096921,181399,608803,0
2096921,2096921,181488,608964,0
2096921,2096921,181323,608864,0
2096921,2096921,181584,609168,0
2096921,2096921,181517,608915,0
2096921,2096921,181563,609034,0
2096921,2096921,181676,609033,0
2096921,2096921,181613,608936,0
2096921,2096921,181627,609008,0
2096921,2096921,181687,609447,0
2096921,2096921,181685,609660,0
2096921,2096921,181343,609620,0
2096921,2096921,181614,609415,0
2096921,2096921,181737,609464,0
2096921,2096921,181889,610005,0
2096921,2096921,181897,610263,0
2096921,2096921,181750,610142,0
2096921,2096921,181766,610061,0
2096921,2096921,181554,610181,0
2096921,2096921,181796,610445,0
2096921,2096921,181837,610574,0
2096921,2096921,181787,610379,0
2096921,2096921,182080,610456,0
2096921,2096921,181979,610674,0
2096921,2096921,181850,610966,0
2096921,2096921,181841,610817,0
2096921,2096921,181833,611193,0
2096921,2096921,182193,611173,0
2096921,2096921,182250,611120,0
2096921,2096921,182182,611339,0
2096921,2096921,182062,611438,0
2096921,2096921,182487,611372,0
2096921,2096921,182225,611748,0
2096921,2096921,182246,611454,0
2096921,2096921,182371,611585,0
2096921,2096921,182609,611725,0
2096921,2096921,182221,611612,0
2096921,2096921,182247,611509,0
2096921,2096921,182036,611773,0
2096921,2096921,182193,612041,0
2096921,2096921,182560,612100,0
2096921,2096921,182405,612053,0
2096921,2096921,182322,612092,0
2096921,2096921,182225,612172,0
2096921,2096921,182394,612216,0
2096921,2096921,182374,612168,0
2096921,2096921,182409,612770,0
2096921,2096921,182663,612438,0
2096921,2096921,182555,612520,0
2096921,2096921,182405,612299,0
2096921,2096921,182748,612757,0
2096921,2096921,182679,612600,0
2096921,2096921,182683,612699,0
2096921,2096921,182715,612670,0
2096921,2096921,182573,613117,0
2096921,2096921,182591,613441,0
2096921,2096921,182643,613107,0
2096921,2096921,182660,612932,0
2096921,2096921,182544,613244,0
2096921,2096921,182921,613066,0
2096921,2096921,182849,613526,0
2096921,2096921,182658,613367,0
2096921,2096921,182675,613474,0
2096921,2096921,182808,613220,0
2096921,2096921,182920,613962,0
2096921,2096921,182728,613850,0
2096921,2096921,182906,613925,0
2096921,2096921,182979,613493,0
2096921,2096921,183059,613701,0
2096921,2096921,182918,613974,0
2096921,2096921,182898,614103,0
2096921,2096921,183110,613694,0
2096921,2096921,183052,614097,0
2096921,2096921,183078,613988,0
2096921,2096921,182932,613996,0
2096921,2096921,183491,614033,0
2096921,2096921,183102,613984,0
2096921,2096921,183204,614084,0
2096921,2096921,182995,613965,0
2096921,2096921,183288,614065,0
2096921,2096921,183307,614284,0
2096921,2096921,183210,614340,0
2096921,2096921,183291,614512,0
2096921,2096921,183282,614186,0
2096921,2096921,183347,614708,0
2096921,2096921,183156,614698,0
2096921,2096921,183336,614769,0
2096921,2096921,183131,614481,0
2096921,2096921,183012,614458,0
2096921,2096921,182931,614536,0
2096921,2096921,183257,614644,0
2096921,2096921,182990,614589,0
2096921,2096921,183191,614546,0
2096921,2096921,183380,614566,0
2096921,2096921,183408,614646,0
2096921,2096921,183128,614813,0
2096921,2096921,183037,614680,0
2096921,2096921,183443,614875,0
2096921,2096921,183537,614727,0
2096921,2096921,183485,614751,0
2096921,2096921,183217,614917,0
2096921,2096921,183170,614781,0
2096921,2096921,183030,614773,0
2096921,2096921,183120,614830,0
2096921,2096921,183594,614966,0
2096921,2096921,183154,615224,0
2096921,2096921,183285,614788,0
2096921,2096921,183344,614813,0
2096921,2096921,183251,614739,0
2096921,2096921,183172,614652,0
2096921,2096921,183099,614701,0
2096921,2096921,183259,614774,0
2096921,2096921,183302,614956,0
2096921,2096921,183190,614852,0
2096921,2096921,183262,614854,0
2096921,2096921,183327,614927,0
2096921,2096921,183378,614916,0
2096921,2096921,183527,615188,0
2096921,2096921,183320,615097,0
2096921,2096921,183500,615055,0
2096921,2096921,183324,614970,0
2096921,2096921,183184,614980,0
2096921,2096921,183334,615047,0
2096921,2096921,183636,615376,0
2096921,2096921,183589,615277,0
2096921,2096921,183441,615095,0
2096921,2096921,183519,615144,0
2096921,2096921,183291,615060,0
2096921,2096921,183408,615074,0
2096921,2096921,183090,614758,0
2096921,2096921,183171,614729,0
2096921,2096921,183425,614968,0
2096921,2096921,183127,614817,0
2096921,2096921,183210,615014,0
2096921,2096921,183327,614790,0
2096921,2096921,183563,614886,0
2096921,2096921,183246,614919,0
2096921,2096921,183445,614903,0
2096921,2096921,183291,615099,0
2096921,2096921,183290,614769,0
2096921,2096921,183103,614898,0
2096921,2096921,182958,614611,0
2096921,2096921,183221,614676,0
2096921,2096921,183272,614804,0
2096921,2096921,183245,614904,0
2096921,2096921,182935,614697,0
2096921,2096921,183142,614722,0
2096921,2096921,183501,614689,0
2096921,2096921,183001,614669,0
2096921,2096921,182849,614699,0
2096921,2096921,182955,614430,0
2096921,2096921,183346,614710,0
2096921,2096921,183324,614696,0
2096921,2096921,183305,614841,0
2096921,2096921,182947,614357,0
2096921,2096921,183414,614550,0
2096921,2096921,183377,614755,0
2096921,2096921,183271,614460,0
2096921,2096921,183025,614257,0
2096921,2096921,183197,614049,0
2096921,2096921,182944,614151,0
2096921,2096921,183193,614009,0
2096921,2096921,182985,614069,0
2096921,2096921,183193,614119,0
2096921,2096921,183115,614012,0
2096921,2096921,183099,613850,0
2096921,2096921,183430,613997,0
2096921,2096921,183414,614148,0
2096921,2096921,183047,613911,0
2096921,2096921,182978,613861,0
2096921,2096921,182616,613979,0
2096921,2096921,182876,613940,0
2096921,2096921,183142,613968,0
2096921,2096921,183149,613824,0
2096921,2096921,183001,613892,0
2096921,2096921,183095,613385,0
2096921,2096921,182865,613474,0
2096921,2096921,182893,613311,0
2096921,2096921,183052,613648,0
2096921,2096921,183002,613075,0
2096921,2096921,182724,613282,0
2096921,2096921,183077,613158,0
2096921,2096921,182787,613580,0
2096921,2096921,183058,613488,0
2096921,2096921,182748,613057,0
2096921,2096921,183105,612983,0
2096921,2096921,183055,613354,0
2096921,2096921,183034,613171,0
2096921,2096921,182853,613150,0
2096921,2096921,182632,612835,0
2096921,2096921,182708,613055,0
2096921,2096921,182805,612663,0
2096921,2096921,182760,613125,0
2096921,2096921,182672,613065,0
2096921,2096921,182817,612977,0
2096921,2096921,182765,613018,0
2096921,2096921,182520,612965,0
2096921,2096921,182617,612893,0
2096921,2096921,182692,612989,0
2096921,2096921,182527,612330,0
2096921,2096921,182520,612601,0
2096921,2096921,182780,612625,0
2096921,2096921,182421,612656,0
2096921,2096921,182664,612616,0
2096921,2096921,182351,612298,0
2096921,2096921,182488,612321,0
2096921,2096921,182577,612371,0
2096921,2096921,182409,612205,0
2096921,2096921,182619,612386,0
2096921,2096921,182578,612166,0
2096921,2096921,182325,612261,0
2096921,2096921,182420,611854,0
2096921,2096921,182745,612216,0
2096921,2096921,182391,612323,0
2096921,2096921,182515,612045,0
2096921,2096921,182467,611943,0
2096921,2096921,182361,612224,0
2096921,2096921,182316,611984,0
2096921,2096921,182275,611847,0
2096921,2096921,182576,611539,0
2096921,2096921,182159,611554,0
2096921,2096921,182083,611462,0
2096921,2096921,182190,611830,0
2096921,2096921,182204,611634,0
2096921,2096921,182406,611428,0
2096921,2096921,182280,611429,0
2096921,2096921,182438,611342,0
2096921,2096921,182163,611272,0
2096921,2096921,182103,611132,0
2096921,2096921,182161,611002,0
2096921,2096921,182059,610916,0
2096921,2096921,181774,610783,0
2096921,2096921,182161,611030,0
2096921,2096921,182022,611052,0
2096921,2096921,182232,610697,0
2096921,2096921,182246,610459,0
2096921,2096921,182157,610657,0
2096921,2096921,181934,610490,0
2096921,2096921,182068,610602,0
2096921,2096921,181995,610354,0
2096921,2096921,181653,610177,0
2096921,2096921,181770,610080,0
2096921,2096921,181891,610254,0
2096921,2096921,181866,610283,0
2096921,2096921,181702,609973,0
2096921,2096921,181652,609548,0
2096921,2096921,181875,609759,0
2096921,2096921,181916,609668,0
2096921,2096921,181647,609601,0
2096921,2096921,181345,609262,0
2096921,2096921,181453,609482,0
2096921,2096921,181495,609314,0
2096921,2096921,181767,609408,0
2096921,2096921,181678,609324,0
2096921,2096921,181739,609165,0
2096921,2096921,181480,609093,0
2096921,2096921,181669,609157,0
2096921,2096921,181414,608841,0
2096921,2096921,181385,609052,0
2096921,2096921,181063,608561,0
2096921,2096921,181255,608578,0
2096921,2096921,181273,608610,0
2096921,2096921,181093,608650,0
2096921,2096921,181126,608731,0
2096921,2096921,181177,608333,0
2096921,2096921,181068,608348,0
2096921,2096921,181292,608446,0
2096921,2096921,181125,608209,0
2096921,2096921,181182,608182,0
2096921,2096921,181313,607754,0
2096921,2096921,181156,608081,0
2096921,2096921,181179,607617,0
2096921,2096921,181113,607768,0
2096921,2096921,181119,607876,0
2096921,2096921,180769,607021,0
2096921,2096921,180627,606552,0
2096921,2096921,180440,606447,0
2096921,2096921,180711,606560,0
2096921,2096921,180636,606538,0
2096921,2096921,180442,605289,0
2096921,2096921,180352,605354,0
2096921,2096921,180428,605041,0
2096921,2096921,180532,605334,0
2096921,2096921,180353,605244,0
2096921,2096921,180135,603934,0
2096921,2096921,179847,603531,0
2096921,2096921,180115,603366,0
2096921,2096921,179813,603578,0
2096921,2096921,179438,603449,0
2096921,2096921,179191,601846,0
2096921,2096921,179183,601266,0
2096921,2096921,179233,601348,0
2096921,2096921,179520,601580,0
2096921,2096921,179112,601413,0
2096921,2096921,178431,599461,0
2096921,2096921,178323,599136,0
2096921,2096921,178430,599155,0
2096921,2096921,178766,599176,0
2096921,2096921,177715,599138,0
2096921,2096921,176790,594981,0
2096921,2096921,176457,594225,0
2096921,2096921,176828,594134,0
2096921,2096921,176498,594324,0
2096921,2096921,176068,594146,0
2096921,2096921,175243,589524,0
2096921,2096921,175044,588573,0
2096921,2096921,175462,588477,0
2096921,2096921,175110,588469,0
2096921,2096921,174200,588121,0
2096921,2096921,173523,584746,0
2096921,2096921,173505,584093,0
2096921,2096921,173669,583987,0
2096921,2096921,173525,583964,0
2096921,2096921,172957,583887,0
2096921,2096921,172774,581355,0
2096921,2096921,172738,580558,0
2096921,2096921,172622,580501,0
2096921,2096921,172717,580188,0
2096921,2096921,172059,580203,0
2096921,2096921,171815,578456,0
2096921,2096921,171556,577754,0
2096921,2096921,171872,577641,0
2096921,2096921,171800,577813,0
2096921,2096921,171513,577634,0
2096921,2096921,170953,576139,0
2096921,2096921,170937,575893,0
2096921,2096921,170953,575819,0
2096921,2096921,171263,575590,0
2096921,2096921,170756,575850,0
2096921,2096921,170514,574195,0
2096921,2096921,170479,574159,0
2096921,2096921,170515,574587,0
2096921,2096921,170803,574097,0
2096921,2096921,170393,574282,0
2096921,2096921,170274,573672,0
2096921,2096921,170433,573421,0
2096921,2096921,170466,573278,0
2096921,2096921,170235,573488,0
2096921,2096921,170034,573461,0
2096921,2096921,170028,572959,0
2096921,2096921,170108,572990,0
2096921,2096921,170038,572918,0
2096921,2096921,170289,572695,0
2096921,2096921,170423,572900,0
2096921,2096921,169959,572481,0
2096921,2096921,170019,572551,0
2096921,2096921,169994,572698,0
2096921,2096921,169906,572500,0
2096921,2096921,170173,572566,0
2096921,2096921,170034,572523,0
2096921,2096921,170056,572629,0
2096921,2096921,169963,572448,0
2096921,2096921,170001,572623,0
2096921,2096921,170240,572892,0
2096921,2096921,169902,572619,0
2096921,2096921,170188,572218,0
2096921,2096921,170208,572315,0
2096921,2096921,170052,572461,0
2096921,2096921,170371,572373,0
2096921,2096921,170055,572301,0
2096921,2096921,169895,572636,0
2096921,2096921,169759,572612,0
2096921,2096921,170069,572562,0
2096921,2096921,170390,572430,0
2096921,2096921,170279,573269,0
2096921,2096921,170432,572973,0
2096921,2096921,170369,573351,0
2096921,2096921,170260,573191,0
2096921,2096921,170354,573186,0
2096921,2096921,170340,573564,0
2096921,2096921,170269,573689,0
2096921,2096921,170452,573707,0
2096921,2096921,170372,573897,0
2096921,2096921,170670,573870,0
2096921,2096921,170666,574413,0
2096921,2096921,170522,574162,0
2096921,2096921,171006,574573,0
2096921,2096921,170721,574422,0
2096921,2096921,171047,574505,0
2096921,2096921,171017,575007,0
2096921,2096921,170964,575247,0
2096921,2096921,170963,575332,0
2096921,2096921,171159,575097,0
2096921,2096921,171319,575344,0
2096921,2096921,171119,575779,0
2096921,2096921,171296,575837,0
2096921,2096921,171389,575701,0
2096921,2096921,171348,575900,0
2096921,2096921,171345,575958,0
2096921,2096921,171624,576399,0
2096921,2096921,171516,576264,0
2096921,2096921,171311,576437,0
2096921,2096921,171332,576364,0
2096921,2096921,171473,576517,0
2096921,2096921,171704,577089,0
2096921,2096921,171661,577312,0
2096921,2096921,171580,577241,0
2096921,2096921,171452,577164,0
2096921,2096921,171601,577149,0
2096921,2096921,171606,577582,0
2096921,2096921,171674,577707,0
2096921,2096921,171791,577770,0
2096921,2096921,171893,577542,0
2096921,2096921,171961,577619,0
2096921,2096921,172136,578471,0
2096921,2096921,172160,578771,0
2096921,2096921,172105,578748,0
2096921,2096921,172212,578705,0
2096921,2096921,172175,578616,0
2096921,2096921,172234,579248,0
2096921,2096921,172239,579175,0
2096921,2096921,172141,579563,0
2096921,2096921,171996,579558,0
2096921,2096921,172485,579447,0
2096921,2096921,172475,579968,0
2096921,2096921,172577,580067,0
2096921,2096921,172095,579941,0
2096921,2096921,172179,580161,0
2096921,2096921,172460,580149,0
2096921,2096921,172502,580736,0
2096921,2096921,172580,580967,0
2096921,2096921,172677,581067,0
2096921,2096921,172625,581044,0
2096921,2096921,172729,580844,0
2096921,2096921,173071,581615,0
2096921,2096921,173230,581769,0
2096921,2096921,172956,581624,0
2096921,2096921,173202,581327,0
2096921,2096921,173088,581443,0
2096921,2096921,173178,582166,0
2096921,2096921,173025,581974,0
2096921,2096921,173153,582192,0
2096921,2096921,173400,582090,0
2096921,2096921,173393,582259,0
2096921,2096921,173145,582178,0
2096921,2096921,173103,582413,0
2096921,2096921,173083,582470,0
2096921,2096921,173018,582558,0
2096921,2096921,173191,582310,0
2096921,2096921,173394,582442,0
2096921,2096921,173175,582445,0
2096921,2096921,173300,582894,0
2096921,2096921,173362,582687,0
2096921,2096921,173347,582530,0
2096921,2096921,173329,582673,0
2096921,2096921,173373,583106,0
2096921,2096921,173235,582907,0
2096921,2096921,173368,582916,0
2096921,2096921,173608,582696,0
2096921,2096921,173307,582501,0
2096921,2096921,173437,582708,0
2096921,2096921,173426,582965,0
2096921,2096921,173261,582749,0
2096921,2096921,173357,582550,0
2096921,2096921,173449,582608,0
2096921,2096921,173539,582782,0
2096921,2096921,173057,582590,0
2096921,2096921,173360,582522,0
2096921,2096921,173020,582240,0
2096921,2096921,172754,582315,0
2096921,2096921,172905,582184,0
2096921,2096921,173112,582133,0
2096921,2096921,173224,582189,0
2096921,2096921,173312,582108,0
2096921,2096921,172984,581620,0
2096921,2096921,173111,581702,0
2096921,2096921,172894,581766,0
2096921,2096921,172865,581838,0
2096921,2096921,173017,581526,0
2096921,2096921,172784,581273,0
2096921,2096921,172659,580895,0
2096921,2096921,172812,581083,0
2096921,2096921,172539,581189,0
2096921,2096921,172677,581220,0
2096921,2096921,172758,580881,0
2096921,2096921,172775,580885,0
2096921,2096921,172723,580971,0
2096921,2096921,172849,580870,0
2096921,2096921,172396,580858,0
2096921,2096921,172708,580831,0
2096921,2096921,172615,580613,0
2096921,2096921,172704,580228,0
2096921,2096921,172733,580065,0
2096921,2096921,172536,580667,0
2096921,2096921,172405,580403,0
2096921,2096921,172181,580558,0
2096921,2096921,172506,580426,0
2096921,2096921,172523,580458,0
2096921,2096921,172270,580073,0
2096921,2096921,172520,580296,0
2096921,2096921,172576,580286,0
2096921,2096921,172707,580107,0
2096921,2096921,172527,580270,0
2096921,2096921,172629,580415,0
2096921,2096921,172546,580312,0
2096921,2096921,172498,580360,0
2096921,2096921,172565,580651,0
2096921,2096921,172478,580372,0
2096921,2096921,172632,580164,0
2096921,2096921,172565,580261,0
2096921,2096921,172435,580157,0
2096921,2096921,172295,580519,0
2096921,2096921,172442,580451,0
2096921,2096921,172497,580551,0
2096921,2096921,172651,580793,0
2096921,2096921,172559,580662,0
2096921,2096921,172794,580754,0
2096921,2096921,172800,580745,0
2096921,2096921,172663,580561,0
2096921,2096921,172792,581245,0
2096921,2096921,172575,581362,0
2096921,2096921,172631,581207,0
2096921,2096921,172771,581383,0
2096921,2096921,172804,581169,0
2096921,2096921,172929,581793,0
2096921,2096921,173227,581891,0
2096921,2096921,173062,581812,0
2096921,2096921,172764,581981,0
2096921,2096921,173124,581961,0
2096921,2096921,172962,582607,0
2096921,2096921,173049,582614,0
2096921,2096921,173271,582420,0
2096921,2096921,173377,582772,0
2096921,2096921,173329,582578,0
2096921,2096921,173540,583186,0
2096921,2096921,173485,583066,0
2096921,2096921,173597,583355,0
2096921,2096921,173806,583187,0
2096921,2096921,173593,583282,0
2096921,2096921,173603,583658,0
2096921,2096921,173738,583897,0
2096921,2096921,173748,584051,0
2096921,2096921,173190,583959,0
2096921,2096921,173531,583974,0
2096921,2096921,174037,584385,0
2096921,2096921,173935,584368,0
2096921,2096921,173870,584619,0
2096921,2096921,173707,584450,0
2096921,2096921,173864,584176,0
2096921,2096921,173894,584729,0
2096921,2096921,173861,584573,0
2096921,2096921,173783,584720,0
2096921,2096921,174108,584792,0
2096921,2096921,174400,584883,0
2096921,2096921,174315,585273,0
2096921,2096921,173891,585332,0
2096921,2096921,174433,585280,0
2096921,2096921,174392,585432,0
2096921,2096921,174288,585496,0
2096921,2096921,174544,586362,0
2096921,2096921,174495,586121,0
2096921,2096921,174367,586296,0
2096921,2096921,174416,586238,0
2096921,2096921,174492,586132,0
2096921,2096921,174814,586579,0
2096921,2096921,174551,586667,0
2096921,2096921,174722,586834,0
2096921,2096921,174602,586819,0
2096921,2096921,174715,586460,0
2096921,2096921,174651,586585,0
2096921,2096921,174750,586580,0
2096921,2096921,174675,587086,0
2096921,2096921,174626,587181,0
2096921,2096921,174750,586934,0
2096921,2096921,174843,587457,0
2096921,2096921,174746,587399,0
2096921,2096921,174839,587893,0
2096921,2096921,174779,587814,0
2096921,2096921,174624,587518,0
2096921,2096921,174793,588049,0
2096921,2096921,174873,587783,0
2096921,2096921,174798,588230,0
2096921,2096921,174954,587934,0
2096921,2096921,175122,588017,0
2096921,2096921,175256,588368,0
2096921,2096921,174988,588705,0
2096921,2096921,174860,588749,0
2096921,2096921,175149,588693,0
2096921,2096921,175310,588350,0
2096921,2096921,175280,588989,0
2096921,2096921,175215,589031,0
2096921,2096921,175168,589089,0
2096921,2096921,175141,588990,0
2096921,2096921,175423,589157,0
2096921,2096921,175397,589319,0
2096921,2096921,175441,589659,0
2096921,2096921,175611,589426,0
2096921,2096921,175501,589742,0
2096921,2096921,175397,589379,0
2096921,2096921,175517,590069,0
2096921,2096921,175414,589967,0
2096921,2096921,175514,590243,0
2096921,2096921,175553,589984,0
2096921,2096921,175409,590521,0
2096921,2096921,175792,590246,0
2096921,2096921,175501,590424,0
2096921,2096921,175577,590075,0
2096921,2096921,175260,590211,0
2096921,2096921,175642,590263,0
2096921,2096921,175730,590713,0
2096921,2096921,176067,590520,0
2096921,2096921,175900,590519,0
2096921,2096921,175974,590718,0
2096921,2096921,175991,590900,0
2096921,2096921,176255,591065,0
2096921,2096921,176123,591212,0
2096921,2096921,176296,591119,0
2096921,2096921,176056,590955,0
2096921,2096921,176103,591142,0
2096921,2096921,175836,591537,0
2096921,2096921,175917,591485,0
2096921,2096921,175855,591462,0
2096921,2096921,175910,591438,0
2096921,2096921,176067,591491,0
2096921,2096921,176150,591645,0
2096921,2096921,176369,591924,0
2096921,2096921,176490,591763,0
2096921,2096921,176171,592075,0
2096921,2096921,176131,591792,0
2096921,2096921,176277,592060,0
2096921,2096921,176129,592209,0
2096921,2096921,176281,592422,0
2096921,2096921,176491,592380,0
2096921,2096921,176473,592445,0
2096921,2096921,176489,592487,0
2096921,2096921,176278,592787,0
2096921,2096921,176398,592678,0
2096921,2096921,176592,592735,0
2096921,2096921,176652,592615,0
2096921,2096921,176345,592865,0
2096921,2096921,176441,592795,0
2096921,2096921,176731,592666,0
2096921,2096921,176456,592741,0
2096921,2096921,176575,592677,0
2096921,2096921,176461,593196,0
2096921,2096921,176688,593100,0
2096921,2096921,176701,593195,0
2096921,2096921,176956,593175,0
2096921,2096921,176507,593101,0
2096921,2096921,176705,593428,0
2096921,2096921,176524,593385,0
2096921,2096921,176771,593423,0
2096921,2096921,176492,593314,0
2096921,2096921,176818,593568,0
2096921,2096921,176788,593656,0
2096921,2096921,176727,593952,0
2096921,2096921,176651,593714,0
2096921,2096921,176642,593448,0
2096921,2096921,176866,593573,0
2096921,2096921,176648,593607,0
2096921,2096921,176507,593721,0
2096921,2096921,176543,593837,0
2096921,2096921,176719,593924,0
2096921,2096921,176675,593933,0
2096921,2096921,176773,593898,0
2096921,2096921,176731,594120,0
2096921,2096921,177062,594342,0
2096921,2096921,176706,594307,0
2096921,2096921,176974,594280,0
2096921,2096921,177021,594108,0
2096921,2096921,177178,593958,0
2096921,2096921,177119,593906,0
2096921,2096921,176956,594233,0
2096921,2096921,176965,594194,0
2096921,2096921,177183,594392,0
2096921,2096921,176896,594474,0
2096921,2096921,176932,594667,0
2096921,2096921,176842,594544,0
2096921,2096921,176805,594349,0
2096921,2096921,176861,594259,0
2096921,2096921,177112,594377,0
2096921,2096921,177074,594701,0
2096921,2096921,177077,594564,0
2096921,2096921,177036,594432,0
2096921,2096921,177187,594914,0
2096921,2096921,177274,594768,0
2096921,2096921,177289,595015,0
2096921,2096921,177054,594685,0
2096921,2096921,176916,594829,0
2096921,2096921,177221,595061,0
2096921,2096921,176992,595177,0
2096921,2096921,177019,595037,0
2096921,2096921,176970,595235,0
2096921,2096921,177120,595340,0
2096921,2096921,177330,595403,0
2096921,2096921,176877,595352,0
2096921,2096921,177154,595392,0
2096921,2096921,177207,595397,0
2096921,2096921,177652,595221,0
2096921,2096921,177495,595604,0
2096921,2096921,177601,595658,0
2096921,2096921,177614,595842,0
2096921,2096921,177590,595666,0
2096921,2096921,177506,595829,0
2096921,2096921,177590,595903,0
2096921,2096921,177513,595768,0
2096921,2096921,177520,595851,0
2096921,2096921,177510,595818,0
2096921,2096921,177344,595643,0
2096921,2096921,177717,595850,0
2096921,2096921,177654,595797,0
2096921,2096921,177279,595879,0
2096921,2096921,177764,596054,0
2096921,2096921,177479,596144,0
2096921,2096921,177536,596318,0
2096921,2096921,177789,596322,0
2096921,2096921,177964,596348,0
2096921,2096921,177746,596067,0
2096921,2096921,177776,596243,0
2096921,2096921,177521,596645,0
2096921,2096921,177703,596319,0
2096921,2096921,177676,596554,0
2096921,2096921,177321,596505,0
2096921,2096921,177410,596330,0
2096921,2096921,177663,596746,0
2096921,2096921,177693,596797,0
2096921,2096921,177533,596650,0
2096921,2096921,177612,596702,0
2096921,2096921,177979,596801,0
2096921,2096921,177451,596790,0
2096921,2096921,177854,596766,0
2096921,2096921,177836,597112,0
2096921,2096921,178058,596868,0
2096921,2096921,178008,597130,0
2096921,2096921,177800,597164,0
2096921,2096921,177786,597039,0
2096921,2096921,177889,597194,0
2096921,2096921,177669,597112,0
2096921,2096921,177772,597506,0
2096921,2096921,177796,597537,0
2096921,2096921,177644,597251,0
2096921,2096921,177831,597417,0
2096921,2096921,177703,597433,0
2096921,2096921,177806,597270,0
2096921,2096921,178084,597406,0
2096921,2096921,177964,597536,0
2096921,2096921,177623,597386,0
2096921,2096921,177897,597328,0
2096921,2096921,178023,597238,0
2096921,2096921,177918,597438,0
2096921,2096921,177906,597532,0
2096921,2096921,177796,597362,0
2096921,2096921,177885,597542,0
2096921,2096921,178178,597535,0
2096921,2096921,178171,597642,0
2096921,2096921,178092,597746,0
2096921,2096921,178024,597670,0
2096921,2096921,178085,597682,0
2096921,2096921,177998,597795,0
2096921,2096921,177986,598027,0
2096921,2096921,178195,597615,0
2096921,2096921,178141,597780,0
2096921,2096921,178168,597891,0
2096921,2096921,178382,597860,0
2096921,2096921,178409,597895,0
2096921,2096921,178468,598075,0
2096921,2096921,178331,597972,0
2096921,2096921,178074,598133,0
2096921,2096921,178045,597959,0
2096921,2096921,178142,598267,0
2096921,2096921,178244,598192,0
2096921,2096921,178115,598230,0
2096921,2096921,178371,598213,0
2096921,2096921,178451,598259,0
2096921,2096921,178291,598323,0
2096921,2096921,178333,598682,0
2096921,2096921,177997,598505,0
2096921,2096921,178137,598469,0
2096921,2096921,178330,598262,0
2096921,2096921,178424,598567,0
2096921,2096921,178536,598675,0
2096921,2096921,178499,598831,0
2096921,2096921,178426,598559,0
2096921,2096921,178345,598910,0
2096921,2096921,178521,598074,0
2096921,2096921,178270,598293,0
2096921,2096921,178036,597978,0
2096921,2096921,177836,597785,0
2096921,2096921,177579,597824,0
2096921,2096921,177758,597361,0
2096921,2096921,177770,597247,0
2096921,2096921,178051,597151,0
2096921,2096921,177785,597353,0
2096921,2096921,177836,597414,0
2096921,2096921,177758,596515,0
2096921,2096921,177494,596053,0
2096921,2096921,177522,596151,0
2096921,2096921,177577,596120,0
2096921,2096921,177075,595925,0
2096921,2096921,177265,594755,0
2096921,2096921,177152,594965,0
2096921,2096921,177228,594665,0
2096921,2096921,177063,594509,0
2096921,2096921,176757,594663,0
2096921,2096921,176577,593320,0
2096921,2096921,176534,593153,0
2096921,2096921,176507,593143,0
2096921,2096921,176693,592739,0
2096921,2096921,175578,593015,0
2096921,2096921,175131,589609,0
2096921,2096921,174805,588964,0
2096921,2096921,175133,588829,0
2096921,2096921,175014,588676,0
2096921,2096921,174210,588304,0
2096921,2096921,173452,584600,0
2096921,2096921,173339,583708,0
2096921,2096921,173471,583695,0
2096921,2096921,173309,583756,0
2096921,2096921,172804,583656,0
2096921,2096921,172238,580722,0
2096921,2096921,172284,580041,0
2096921,2096921,172131,579719,0
2096921,2096921,172216,579959,0
2096921,2096921,171711,579619,0
2096921,2096921,171519,577518,0
2096921,2096921,171602,577119,0
2096921,2096921,171496,577049,0
2096921,2096921,171314,577044,0
2096921,2096921,170963,576603,0
2096921,2096921,170911,575051,0
2096921,2096921,170439,574975,0
2096921,2096921,170661,574691,0
2096921,2096921,170702,574741,0
2096921,2096921,170304,574816,0
2096921,2096921,170047,573544,0
2096921,2096921,169943,573501,0
2096921,2096921,170305,573372,0
2096921,2096921,170289,573242,0
2096921,2096921,170049,573255,0
2096921,2096921,170105,572561,0
2096921,2096921,170122,572468,0
2096921,2096921,170093,572332,0
2096921,2096921,170076,572607,0
2096921,2096921,170072,572593,0
2096921,2096921,170184,572086,0
2096921,2096921,170071,572014,0
2096921,2096921,170099,572171,0
2096921,2096921,169923,572144,0
2096921,2096921,170003,572305,0
2096921,2096921,170176,572225,0
2096921,2096921,170302,572285,0
2096921,2096921,170170,572375,0
2096921,2096921,170107,572159,0
2096921,2096921,169956,572010,0
2096921,2096921,170046,572355,0
2096921,2096921,170131,572635,0
2096921,2096921,170277,572399,0
2096921,2096921,169977,572191,0
2096921,2096921,170068,572424,0
2096921,2096921,170079,573067,0
2096921,2096921,170052,573014,0
2096921,2096921,170116,573198,0
2096921,2096921,170134,573058,0
2096921,2096921,170157,573064,0
2096921,2096921,170290,573794,0
2096921,2096921,170435,573809,0
2096921,2096921,170587,573747,0
2096921,2096921,170400,573635,0
2096921,2096921,170731,573885,0
2096921,2096921,170560,574320,0
2096921,2096921,170657,574480,0
2096921,2096921,170712,574214,0
2096921,2096921,170730,574283,0
2096921,2096921,170946,574231,0
2096921,2096921,170697,575298,0
2096921,2096921,170956,575582,0
2096921,2096921,170831,575549,0
2096921,2096921,171126,575744,0
2096921,2096921,171359,575680,0
2096921,2096921,171337,576704,0
2096921,2096921,171559,576794,0
2096921,2096921,171317,576583,0
2096921,2096921,171341,576650,0
2096921,2096921,171417,576294,0
2096921,2096921,171812,577664,0
2096921,2096921,171972,578292,0
2096921,2096921,171679,578442,0
2096921,2096921,171734,578211,0
2096921,2096921,171890,578204,0
2096921,2096921,172219,579165,0
2096921,2096921,172407,579456,0
2096921,2096921,172427,579541,0
2096921,2096921,172242,579294,0
2096921,2096921,172742,579740,0
2096921,2096921,172626,580735,0
2096921,2096921,172595,581099,0
2096921,2096921,172628,580913,0
2096921,2096921,172689,580763,0
2096921,2096921,172956,580801,0
2096921,2096921,173162,581712,0
2096921,2096921,172920,581979,0
2096921,2096921,172853,581922,0
2096921,2096921,173175,581862,0
2096921,2096921,173315,582010,0
2096921,2096921,173325,582928,0
2096921,2096921,173374,583151,0
2096921,2096921,173380,583239,0
2096921,2096921,173494,583079,0
2096921,2096921,173624,583326,0
2096921,2096921,173717,584130,0
2096921,2096921,174084,584319,0
2096921,2096921,174011,584303,0
2096921,2096921,173853,584478,0
2096921,2096921,174160,584566,0
2096921,2096921,174191,585467,0
2096921,2096921,174381,585869,0
2096921,2096921,174471,585830,0
2096921,2096921,174123,585843,0
2096921,2096921,174378,585846,0
2096921,2096921,174901,586835,0
2096921,2096921,174983,587057,0
2096921,2096921,174564,587255,0
2096921,2096921,174219,587366,0
2096921,2096921,175091,586886,0
2096921,2096921,175104,588311,0
2096921,2096921,175371,588443,0
2096921,2096921,175293,588511,0
2096921,2096921,175132,588351,0
2096921,2096921,175241,588727,0
2096921,2096921,175495,589655,0
2096921,2096921,175479,590064,0
2096921,2096921,175741,589923,0
2096921,2096921,175878,590076,0
2096921,2096921,175705,590323,0
2096921,2096921,176047,590749,0
2096921,2096921,176256,591094,0
2096921,2096921,176016,591119,0
2096921,2096921,176156,590775,0
2096921,2096921,176003,590845,0
2096921,2096921,176113,592003,0
2096921,2096921,176029,592267,0
2096921,2096921,176211,592207,0
2096921,2096921,176063,592376,0
2096921,2096921,176418,592498,0
2096921,2096921,176537,593031,0
2096921,2096921,176387,592917,0
2096921,2096921,176426,593205,0
2096921,2096921,176671,592960,0
2096921,2096921,176481,592971,0
2096921,2096921,176707,593418,0
2096921,2096921,176428,593782,0
2096921,2096921,176829,593795,0
2096921,2096921,176858,593743,0
2096921,2096921,176806,593644,0
2096921,2096921,177027,594442,0
2096921,2096921,177130,594862,0
2096921,2096921,177223,594903,0
2096921,2096921,177004,594616,0
2096921,2096921,176906,594608,0
2096921,2096921,177170,594774,0
2096921,2096921,176740,595105,0
2096921,2096921,176844,594504,0
2096921,2096921,177086,594820,0
2096921,2096921,177254,595028,0
2096921,2096921,177087,595472,0
2096921,2096921,177152,595168,0
2096921,2096921,177196,595380,0
2096921,2096921,177148,595504,0
2096921,2096921,177161,595400,0
2096921,2096921,176943,595415,0
2096921,2096921,177059,595219,0
2096921,2096921,177313,595317,0
2096921,2096921,177291,595354,0
2096921,2096921,176952,595354,0
2096921,2096921,177182,595794,0
2096921,2096921,177208,595762,0
2096921,2096921,177028,595749,0
2096921,2096921,177557,595728,0
2096921,2096921,177249,595570,0
2096921,2096921,177021,595462,0
2096921,2096921,177153,595657,0
2096921,2096921,177314,595661,0
2096921,2096921,177102,595828,0
2096921,2096921,177259,595306,0
2096921,2096921,177421,595627,0
2096921,2096921,177549,595433,0
2096921,2096921,177143,595661,0
2096921,2096921,177305,595792,0
2096921,2096921,177462,595558,0
2096921,2096921,177433,595580,0
2096921,2096921,177492,595693,0
2096921,2096921,177142,595578,0
2096921,2096921,177256,595768,0
2096921,2096921,177374,595515,0
2096921,2096921,177586,595847,0
2096921,2096921,177774,596084,0
2096921,2096921,177406,596051,0
2096921,2096921,177360,596007,0
2096921,2096921,177273,596065,0
2096921,2096921,177529,596307,0
2096921,2096921,177516,596050,0
2096921,2096921,177525,596444,0
2096921,2096921,177699,596197,0
2096921,2096921,177306,596518,0
2096921,2096921,177623,597001,0
2096921,2096921,177837,597041,0
2096921,2096921,177573,597068,0
2096921,2096921,177982,596987,0
2096921,2096921,178084,597143,0
2096921,2096921,177701,597671,0
2096921,2096921,177621,597517,0
2096921,2096921,178087,597585,0
2096921,2096921,178031,597490,0
2096921,2096921,178026,597746,0
2096921,2096921,178076,598006,0
2096921,2096921,178003,598203,0
2096921,2096921,178211,598237,0
2096921,2096921,178120,598358,0
2096921,2096921,178389,598409,0
2096921,2096921,178440,599096,0
2096921,2096921,178563,599221,0
2096921,2096921,178286,599351,0
2096921,2096921,178147,599297,0
2096921,2096921,178637,599578,0
2096921,2096921,178918,600742,0
2096921,2096921,178830,600690,0
2096921,2096921,178976,600804,0
2096921,2096921,178794,600620,0
2096921,2096921,178953,600725,0
2096921,2096921,178918,601053,0
2096921,2096921,179078,601371,0
2096921,2096921,178998,601428,0
2096921,2096921,179199,601718,0
2096921,2096921,179326,601658,0
2096921,2096921,179051,602079,0
2096921,2096921,179722,602518,0
2096921,2096921,179527,602317,0
2096921,2096921,179277,602708,0
2096921,2096921,179688,602553,0
2096921,2096921,179796,603278,0
2096921,2096921,179533,603675,0
2096921,2096921,179698,603648,0
2096921,2096921,179636,603496,0
2096921,2096921,179972,603282,0
2096921,2096921,179951,604068,0
2096921,2096921,180116,604191,0
2096921,2096921,180371,604330,0
2096921,2096921,179947,604666,0
2096921,2096921,179881,604517,0
2096921,2096921,179993,604979,0
2096921,2096921,180133,605126,0
2096921,2096921,180348,605234,0
2096921,2096921,180243,605210,0
2096921,2096921,180364,605543,0
2096921,2096921,180601,605850,0
2096921,2096921,180860,605963,0
2096921,2096921,180698,605960,0
2096921,2096921,180439,606170,0
2096921,2096921,180731,605983,0
2096921,2096921,181053,607247,0
2096921,2096921,180923,607153,0
2096921,2096921,180916,607433,0
2096921,2096921,181019,607444,0
2096921,2096921,181037,607336,0
2096921,2096921,181128,607813,0
2096921,2096921,181262,608297,0
2096921,2096921,181052,608107,0
2096921,2096921,181090,608325,0
2096921,2096921,181250,608202,0
2096921,2096921,181145,608872,0
2096921,2096921,181478,608917,0
2096921,2096921,181531,609056,0
2096921,2096921,181284,608856,0
2096921,2096921,181730,608907,0
2096921,2096921,181632,609397,0
2096921,2096921,181850,609930,0
2096921,2096921,181741,610021,0
2096921,2096921,181626,609999,0
2096921,2096921,181828,609580,0
2096921,2096921,182023,610456,0
2096921,2096921,182199,610754,0
2096921,2096921,182324,610515,0
2096921,2096921,182085,610642,0
2096921,2096921,182198,610507,0
2096921,2096921,182511,611550,0
2096921,2096921,182353,611585,0
2096921,2096921,182242,611422,0
2096921,2096921,182470,611456,0
2096921,2096921,182492,611765,0
2096921,2096921,182632,612486,0
2096921,2096921,182391,612721,0
2096921,2096921,182629,612557,0
2096921,2096921,182754,612502,0
2096921,2096921,182771,612570,0
2096921,2096921,182892,613046,0
2096921,2096921,183117,613354,0
2096921,2096921,182880,613518,0
2096921,2096921,182802,613413,0
2096921,2096921,182866,613155,0
2096921,2096921,182877,613778,0
2096921,2096921,183023,613947,0
2096921,2096921,182889,614159,0
2096921,2096921,182841,614005,0
2096921,2096921,183427,613969,0
2096921,2096921,183384,614552,0
2096921,2096921,183226,614881,0
2096921,2096921,183111,614987,0
2096921,2096921,183399,614808,0
2096921,2096921,183438,614723,0
2096921,2096921,183493,615396,0
2096921,2096921,183453,615786,0
2096921,2096921,183776,615473,0
2096921,2096921,183342,615510,0
2096921,2096921,183280,615506,0
2096921,2096921,183685,616175,0
2096921,2096921,183756,616136,0
2096921,2096921,183430,616273,0
2096921,2096921,183247,616165,0
2096921,2096921,183740,616431,0
2096921,2096921,184038,616692,0
2096921,2096921,183848,616764,0
2096921,2096921,184003,616684,0
2096921,2096921,183926,617028,0
2096921,2096921,184151,616802,0
2096921,2096921,183876,617307,0
2096921,2096921,184185,617369,0
2096921,2096921,183994,617455,0
2096921,2096921,184127,617626,0
2096921,2096921,184169,617527,0
2096921,2096921,184314,618044,0
2096921,2096921,184389,618306,0
2096921,2096921,184665,618213,0
2096921,2096921,184348,618259,0
2096921,2096921,184455,618123,0
2096921,2096921,184431,618788,0
2096921,2096921,184395,619103,0
2096921,2096921,184533,618837,0
2096921,2096921,184577,618814,0
2096921,2096921,184633,618856,0
2096921,2096921,184826,619169,0
2096921,2096921,184732,619193,0
2096921,2096921,184817,619290,0
2096921,2096921,184548,619320,0
2096921,2096921,184800,619349,0
2096921,2096921,184928,619771,0
2096921,2096921,184965,619966,0
2096921,2096921,185124,620317,0
2096921,2096921,185063,620094,0
2096921,2096921,184978,619882,0
2096921,2096921,185063,620165,0
2096921,2096921,185055,620792,0
2096921,2096921,185043,620354,0
2096921,2096921,185284,620602,0
2096921,2096921,184803,620697,0
2096921,2096921,185013,620873,0
2096921,2096921,185183,620867,0
2096921,2096921,185303,621065,0
2096921,2096921,185294,621229,0
2096921,2096921,185322,620957,0
2096921,2096921,185654,621540,0
2096921,2096921,185407,621767,0
2096921,2096921,185341,621674,0
2096921,2096921,185499,621687,0
2096921,2096921,185648,621633,0
2096921,2096921,185795,621734,0
2096921,2096921,185448,622119,0
2096921,2096921,185575,622324,0
2096921,2096921,185254,622036,0
2096921,2096921,185571,621939,0
2096921,2096921,185610,622135,0
2096921,2096921,185678,622193,0
2096921,2096921,185680,622485,0
2096921,2096921,185675,622369,0
2096921,2096921,185812,622208,0
2096921,2096921,185916,622653,0
2096921,2096921,185964,622928,0
2096921,2096921,185882,623107,0
2096921,2096921,185913,623110,0
2096921,2096921,185931,622994,0
2096921,2096921,185921,623154,0
2096921,2096921,185719,623252,0
2096921,2096921,186113,623252,0
2096921,2096921,185864,623293,0
2096921,2096921,185981,623136,0
2096921,2096921,186247,623504,0
2096921,2096921,185977,623688,0
2096921,2096921,186034,623847,0
2096921,2096921,185762,623703,0
2096921,2096921,185851,623467,0
2096921,2096921,186224,624219,0
2096921,2096921,186353,624084,0
2096921,2096921,186441,624356,0
2096921,2096921,186421,623800,0
2096921,2096921,186352,624159,0
2096921,2096921,186501,624312,0
2096921,2096921,186473,624736,0
2096921,2096921,186148,624580,0
2096921,2096921,186282,624673,0
2096921,2096921,186216,624519,0
2096921,2096921,186446,624823,0
2096921,2096921,186076,624496,0
2096921,2096921,186141,624731,0
2096921,2096921,186619,624353,0
2096921,2096921,186718,624980,0
2096921,2096921,186569,625214,0
2096921,2096921,186805,625113,0
2096921,2096921,186479,625228,0
2096921,2096921,186554,625413,0
2096921,2096921,186605,625345,0
2096921,2096921,186704,625362,0
2096921,2096921,186633,625690,0
2096921,2096921,186676,625495,0
2096921,2096921,186769,625110,0
2096921,2096921,186803,625668,0
2096921,2096921,186974,625809,0
2096921,2096921,186956,626154,0
2096921,2096921,186520,625781,0
2096921,2096921,186601,625564,0
2096921,2096921,186719,625383,0
2096921,2096921,186692,625810,0
2096921,2096921,186767,626123,0
2096921,2096921,186823,626357,0
2096921,2096921,186859,626365,0
2096921,2096921,186715,626052,0
2096921,2096921,186774,626280,0
2096921,2096921,186933,626428,0
2096921,2096921,186856,626223,0
2096921,2096921,186892,626362,0
2096921,2096921,186993,626396,0
2096921,2096921,186848,626556,0
2096921,2096921,186737,626497,0
2096921,2096921,186936,626749,0
2096921,2096921,186983,626590,0
2096921,2096921,187102,626867,0
2096921,2096921,186877,627023,0
2096921,2096921,187100,626941,0
2096921,2096921,186931,626906,0
2096921,2096921,187069,626999,0
2096921,2096921,186877,627012,0
2096921,2096921,187169,626929,0
2096921,2096921,186924,627166,0
2096921,2096921,187051,626756,0
2096921,2096921,186995,626999,0
2096921,2096921,187045,627025,0
2096921,2096921,187182,627073,0
2096921,2096921,187236,627248,0
2096921,2096921,186892,627063,0
2096921,2096921,187099,627230,0
2096921,2096921,186941,627116,0
2096921,2096921,187369,627021,0
2096921,2096921,187006,627041,0
2096921,2096921,187112,627201,0
2096921,2096921,186998,627088,0
2096921,2096921,187076,627264,0
2096921,2096921,187012,627241,0
2096921,2096921,187250,627334,0
2096921,2096921,187067,627186,0
2096921,2096921,187120,627064,0
2096921,2096921,187085,627510,0
2096921,2096921,187199,627342,0
2096921,2096921,187234,627186,0
2096921,2096921,187327,627405,0
2096921,2096921,187411,627431,0
2096921,2096921,187341,627594,0
2096921,2096921,187257,627890,0
2096921,2096921,187229,627622,0
2096921,2096921,187057,627593,0
2096921,2096921,186998,627242,0
2096921,2096921,186900,627194,0
2096921,2096921,187022,627549,0
2096921,2096921,187214,627342,0
2096921,2096921,187152,626954,0
2096921,2096921,187002,627214,0
2096921,2096921,187175,627348,0
2096921,2096921,187308,627661,0
2096921,2096921,187258,627720,0
2096921,2096921,187079,627516,0
2096921,2096921,187067,627658,0
2096921,2096921,186920,627581,0
2096921,2096921,187135,627586,0
2096921,2096921,187337,627577,0
2096921,2096921,186957,627268,0
2096921,2096921,187352,627357,0
2096921,2096921,187204,627354,0
2096921,2096921,187214,626618,0
2096921,2096921,186970,626386,0
2096921,2096921,187229,626472,0
2096921,2096921,186689,626552,0
2096921,2096921,186428,626667,0
2096921,2096921,186688,626063,0
2096921,2096921,186529,625884,0
2096921,2096921,186616,625744,0
2096921,2096921,186756,625703,0
2096921,2096921,186374,625571,0
2096921,2096921,186413,624772,0
2096921,2096921,186439,624309,0
2096921,2096921,186418,624255,0
2096921,2096921,186316,624497,0
2096921,2096921,186102,624159,0
2096921,2096921,185993,622827,0
2096921,2096921,185871,622382,0
2096921,2096921,185581,622126,0
2096921,2096921,185729,622323,0
2096921,2096921,185162,622499,0
2096921,2096921,185183,620738,0
2096921,2096921,185003,620346,0
2096921,2096921,184995,620075,0
2096921,2096921,184669,620315,0
2096921,2096921,184174,620537,0
2096921,2096921,183449,616754,0
2096921,2096921,183689,615876,0
2096921,2096921,183580,615849,0
2096921,2096921,183526,615606,0
2096921,2096921,182549,615911,0
2096921,2096921,182024,611153,0
2096921,2096921,181920,610270,0
2096921,2096921,181615,610079,0
2096921,2096921,181512,610100,0
2096921,2096921,181005,610299,0
2096921,2096921,180674,606955,0
2096921,2096921,180459,606031,0
2096921,2096921,180263,605763,0
2096921,2096921,180429,605782,0
2096921,2096921,179794,605696,0
2096921,2096921,179414,603340,0
2096921,2096921,179676,602986,0
2096921,2096921,178915,602427,0
2096921,2096921,179218,602449,0
2096921,2096921,178970,602377,0
2096921,2096921,178546,600537,0
2096921,2096921,178737,600380,0
2096921,2096921,178923,600252,0
2096921,2096921,178704,600148,0
2096921,2096921,178240,600314,0
2096921,2096921,178240,598969,0
2096921,2096921,178270,598818,0
2096921,2096921,178282,598586,0
2096921,2096921,178066,598053,0
2096921,2096921,177617,597978,0
2096921,2096921,177711,597104,0
2096921,2096921,177654,597251,0
2096921,2096921,177679,597319,0
2096921,2096921,177669,597127,0
2096921,2096921,177322,597243,0
2096921,2096921,177362,596656,0
2096921,2096921,177563,596678,0
2096921,2096921,177504,596835,0
2096921,2096921,177698,596677,0
2096921,2096921,177287,596322,0
2096921,2096921,177342,596234,0
2096921,2096921,177450,596259,0
2096921,2096921,177637,596200,0
2096921,2096921,177593,596123,0
2096921,2096921,177402,596368,0
2096921,2096921,177421,596310,0
2096921,2096921,177590,596295,0
2096921,2096921,177510,595980,0
2096921,2096921,177379,596475,0
2096921,2096921,177639,596180,0
2096921,2096921,177614,596444,0
2096921,2096921,177409,596685,0
2096921,2096921,177425,596807,0
2096921,2096921,177271,596710,0
2096921,2096921,177382,596926,0
2096921,2096921,177480,596850,0
2096921,2096921,177501,597144,0
2096921,2096921,177407,597221,0
2096921,2096921,177548,597078,0
2096921,2096921,177925,596888,0
2096921,2096921,177628,597223,0
2096921,2096921,177771,597293,0
2096921,2096921,177833,597356,0
2096921,2096921,177564,597353,0
2096921,2096921,178134,597136,0
2096921,2096921,178398,598017,0
2096921,2096921,178273,598140,0
2096921,2096921,178110,598491,0
2096921,2096921,177631,598228,0
2096921,2096921,178101,598284,0
2096921,2096921,178221,598968,0
2096921,2096921,178258,598855,0
2096921,2096921,178126,599100,0
2096921,2096921,178180,599217,0
2096921,2096921,178500,599116,0
2096921,2096921,178409,599795,0
2096921,2096921,178918,600312,0
2096921,2096921,178670,600253,0
2096921,2096921,178886,600218,0
2096921,2096921,178914,600353,0
2096921,2096921,178972,601009,0
2096921,2096921,178985,600971,0
2096921,2096921,179101,601208,0
2096921,2096921,178947,600757,0
2096921,2096921,179259,601192,0
2096921,2096921,179295,602064,0
2096921,2096921,179292,602317,0
2096921,2096921,179059,602287,0
2096921,2096921,179625,602022,0
2096921,2096921,179648,602401,0
2096921,2096921,179503,602730,0
2096921,2096921,179269,603092,0
2096921,2096921,179550,602887,0
2096921,2096921,179486,602964,0
2096921,2096921,179856,602729,0
2096921,2096921,179749,603569,0
2096921,2096921,179756,604001,0
2096921,2096921,179584,604044,0
2096921,2096921,179713,604068,0
2096921,2096921,180027,603981,0
2096921,2096921,180095,604710,0
2096921,2096921,180419,605098,0
2096921,2096921,180146,605303,0
2096921,2096921,180198,604914,0
2096921,2096921,180535,605248,0
2096921,2096921,180358,606119,0
2096921,2096921,180406,606071,0
2096921,2096921,180429,606206,0
2096921,2096921,180506,606346,0
2096921,2096921,180636,606208,0
2096921,2096921,180836,606983,0
2096921,2096921,181058,607015,0
2096921,2096921,180882,606900,0
2096921,2096921,180508,606905,0
2096921,2096921,180831,607010,0
2096921,2096921,181257,607872,0
2096921,2096921,181440,608133,0
2096921,2096921,181207,608007,0
2096921,2096921,181048,607984,0
2096921,2096921,181085,608080,0
2096921,2096921,181436,608748,0
2096921,2096921,181558,608997,0
2096921,2096921,181630,609006,0
2096921,2096921,181422,609046,0
2096921,2096921,181677,609414,0
2096921,2096921,181678,609559,0
2096921,2096921,181821,609671,0
2096921,2096921,182011,609806,0
2096921,2096921,181734,609653,0
2096921,2096921,181723,609780,0
2096921,2096921,182014,610454,0
2096921,2096921,181986,610388,0
2096921,2096921,181933,610374,0
2096921,2096921,182032,610724,0
2096921,2096921,182041,610641,0
2096921,2096921,182086,611176,0
2096921,2096921,182189,610981,0
2096921,2096921,182131,610979,0
2096921,2096921,182113,611336,0
2096921,2096921,182361,611150,0
2096921,2096921,182157,611311,0
2096921,2096921,181952,611083,0
2096921,2096921,182143,611273,0
2096921,2096921,182109,611238,0
2096921,2096921,182202,611239,0
2096921,2096921,181923,611560,0
2096921,2096921,182188,611709,0
2096921,2096921,182384,611651,0
2096921,2096921,182176,611907,0
2096921,2096921,182188,611601,0
2096921,2096921,182134,611675,0
2096921,2096921,181923,611719,0
2096921,2096921,182144,611654,0
2096921,2096921,182582,611679,0
2096921,2096921,182530,611624,0
2096921,2096921,182535,611270,0
2096921,2096921,182116,611377,0
2096921,2096921,182052,611358,0
2096921,2096921,182085,611390,0
2096921,2096921,182181,611408,0
2096921,2096921,181717,611243,0
2096921,2096921,181932,611214,0
2096921,2096921,181976,611317,0
2096921,2096921,182481,610950,0
2096921,2096921,181979,611184,0
2096921,2096921,182231,610814,0
2096921,2096921,181830,610810,0
2096921,2096921,181927,611022,0
2096921,2096921,182005,610879,0
2096921,2096921,181956,611011,0
2096921,2096921,181784,610684,0
2096921,2096921,181949,610320,0
2096921,2096921,181996,610115,0
2096921,2096921,182036,610180,0
2096921,2096921,181920,610742,0
2096921,2096921,182128,610209,0
2096921,2096921,181854,609861,0
2096921,2096921,181745,610233,0
2096921,2096921,181618,609828,0
2096921,2096921,181463,609803,0
2096921,2096921,181673,609628,0
2096921,2096921,181456,609438,0
2096921,2096921,181443,609785,0
2096921,2096921,181348,609528,0
2096921,2096921,181556,609672,0
2096921,2096921,181541,609605,0
2096921,2096921,181596,609614,0
2096921,2096921,181467,609673,0
2096921,2096921,181533,609643,0
2096921,2096921,181439,609442,0
2096921,2096921,181310,609484,0
2096921,2096921,181130,609425,0
2096921,2096921,181445,609175,0
2096921,2096921,181327,609104,0
2096921,2096921,181567,609501,0
2096921,2096921,181677,609495,0
2096921,2096921,181821,609246,0
2096921,2096921,181656,609052,0
2096921,2096921,181609,609148,0
2096921,2096921,181440,609075,0
2096921,2096921,181487,609319,0
2096921,2096921,181359,609217,0
2096921,2096921,181418,609527,0
2096921,2096921,181233,609246,0
2096921,2096921,181617,609669,0
2096921,2096921,181538,609394,0
2096921,2096921,181644,609853,0
2096921,2096921,181688,609455,0
2096921,2096921,181668,609681,0
2096921,2096921,181675,609637,0
2096921,2096921,181915,609946,0
2096921,2096921,181913,609777,0
2096921,2096921,181753,610054,0
2096921,2096921,181752,610033,0
2096921,2096921,181888,610083,0
2096921,2096921,182056,610317,0
2096921,2096921,181974,610729,0
2096921,2096921,182000,610595,0
2096921,2096921,182153,610507,0
2096921,2096921,182289,610662,0
2096921,2096921,182284,610975,0
2096921,2096921,182109,610927,0
2096921,2096921,182276,611312,0
2096921,2096921,182217,611242,0
2096921,2096921,182276,611189,0
2096921,2096921,182436,611504,0
2096921,2096921,182137,611616,0
2096921,2096921,182123,611295,0
2096921,2096921,182217,611441,0
2096921,2096921,182215,611551,0
2096921,2096921,182647,612004,0
2096921,2096921,182349,611787,0
2096921,2096921,182060,612076,0
2096921,2096921,182347,612046,0
2096921,2096921,182492,611834,0
2096921,2096921,182471,611935,0
2096921,2096921,182296,612217,0
2096921,2096921,182347,612392,0
2096921,2096921,182521,612359,0
2096921,2096921,182174,612278,0
2096921,2096921,182598,612864,0
2096921,2096921,182559,612744,0
2096921,2096921,182370,612540,0
2096921,2096921,182438,612659,0
2096921,2096921,182652,612759,0
2096921,2096921,182544,612881,0
2096921,2096921,182717,613030,0
2096921,2096921,182725,612961,0
2096921,2096921,182412,613180,0
2096921,2096921,182657,613114,0
2096921,2096921,182695,613028,0
2096921,2096921,182982,613409,0
2096921,2096921,182771,613230,0
2096921,2096921,182871,613391,0
2096921,2096921,182788,613308,0
2096921,2096921,182725,613750,0
2096921,2096921,182937,614093,0
2096921,2096921,182927,613999,0
2096921,2096921,182724,613870,0
2096921,2096921,183092,613888,0
2096921,2096921,183058,614114,0
2096921,2096921,182952,614108,0
2096921,2096921,182930,613908,0
2096921,2096921,182916,613740,0
2096921,2096921,183136,613854,0
2096921,2096921,183158,614205,0
2096921,2096921,183225,614150,0
2096921,2096921,183047,614186,0
2096921,2096921,183050,614250,0
2096921,2096921,183232,614201,0
2096921,2096921,183155,614356,0
2096921,2096921,183262,614489,0
2096921,2096921,183122,614485,0
2096921,2096921,183268,614357,0
2096921,2096921,183373,614309,0
2096921,2096921,183334,614617,0
2096921,2096921,183334,614802,0
2096921,2096921,183368,614703,0
2096921,2096921,183218,614808,0
2096921,2096921,183280,614753,0
2096921,2096921,183460,615036,0
2096921,2096921,183098,614899,0
2096921,2096921,183410,614986,0
2096921,2096921,183203,614765,0
2096921,2096921,183337,614873,0
2096921,2096921,183418,614947,0
2096921,2096921,183468,615112,0
2096921,2096921,183504,615135,0
2096921,2096921,183701,615077,0
2096921,2096921,183578,614983,0
2096921,2096921,183337,615201,0
2096921,2096921,183553,615233,0
2096921,2096921,183446,615282,0
2096921,2096921,183356,615519,0
2096921,2096921,183509,615534,0
2096921,2096921,183436,615478,0
2096921,2096921,183483,615653,0
2096921,2096921,183448,615312,0
2096921,2096921,183520,615532,0
2096921,2096921,183524,615415,0
2096921,2096921,183407,615364,0
2096921,2096921,183519,615496,0
2096921,2096921,183534,615580,0
2096921,2096921,183520,615423,0
2096921,2096921,183695,615686,0
2096921,2096921,183822,615572,0
2096921,2096921,183701,615639,0
2096921,2096921,183742,615555,0
2096921,2096921,183669,615739,0
2096921,2096921,183516,615640,0
2096921,2096921,183428,615502,0
2096921,2096921,183402,615522,0
2096921,2096921,183341,615736,0
2096921,2096921,183542,615647,0
2096921,2096921,183397,615566,0
2096921,2096921,183470,615670,0
2096921,2096921,183509,615673,0
2096921,2096921,183634,615666,0
2096921,2096921,183373,615958,0
2096921,2096921,183547,615601,0
2096921,2096921,183266,615499,0
2096921,2096921,183522,615535,0
2096921,2096921,183300,615892,0
2096921,2096921,183615,615860,0
2096921,2096921,183665,615772,0
2096921,2096921,183901,616174,0
2096921,2096921,183558,616005,0
2096921,2096921,183616,615669,0
2096921,2096921,183747,616031,0
2096921,2096921,183503,615892,0
2096921,2096921,183502,615521,0
2096921,2096921,183473,615491,0
2096921,2096921,183769,615751,0
2096921,2096921,183430,615605,0
2096921,2096921,183396,615874,0
2096921,2096921,183452,615519,0
2096921,2096921,183351,615964,0
2096921,2096921,183917,615629,0
2096921,2096921,183356,615790,0
2096921,2096921,183254,615496,0
2096921,2096921,183378,615555,0
2096921,2096921,183607,615328,0
2096921,2096921,183538,615651,0
2096921,2096921,183371,615532,0
2096921,2096921,183543,615790,0
2096921,2096921,183770,615350,0
2096921,2096921,183415,615666,0
2096921,2096921,183490,615383,0
2096921,2096921,183464,615552,0
2096921,2096921,183643,615312,0
2096921,2096921,183495,615253,0
2096921,2096921,183383,615193,0
2096921,2096921,183534,615368,0
2096921,2096921,183401,615161,0
2096921,2096921,183363,615449,0
2096921,2096921,183338,615222,0
2096921,2096921,183423,615186,0
2096921,2096921,183470,615191,0
2096921,2096921,183580,615243,0
2096921,2096921,183447,615248,0
2096921,2096921,183278,615361,0
2096921,2096921,183331,615052,0
2096921,2096921,183296,615275,0
2096921,2096921,183572,614984,0
2096921,2096921,183329,615121,0
2096921,2096921,183450,614988,0
2096921,2096921,183436,614823,0
2096921,2096921,183390,614518,0
2096921,2096921,183229,614653,0
2096921,2096921,182894,614810,0
2096921,2096921,183053,614599,0
2096921,2096921,183192,614286,0
2096921,2096921,183288,614596,0
2096921,2096921,183453,614720,0
2096921,2096921,183307,614576,0
2096921,2096921,183194,614745,0
2096921,2096921,183344,614677,0
2096921,2096921,183037,614653,0
2096921,2096921,183308,614497,0
2096921,2096921,182959,614442,0
2096921,2096921,183306,614083,0
2096921,2096921,182942,614269,0
2096921,2096921,183060,614210,0
2096921,2096921,182959,614223,0
2096921,2096921,183111,614115,0
2096921,2096921,183117,614086,0
2096921,2096921,183201,614069,0
2096921,2096921,183157,614149,0
2096921,2096921,183035,614298,0
2096921,2096921,183083,614014,0
2096921,2096921,183251,613838,0
2096921,2096921,183252,613984,0
2096921,2096921,183115,613818,0
2096921,2096921,183008,613903,0
2096921,2096921,183217,613773,0
2096921,2096921,183085,613728,0
2096921,2096921,183209,613688,0
2096921,2096921,182935,613561,0
2096921,2096921,182876,613708,0
2096921,2096921,182640,613614,0
2096921,2096921,182777,613349,0
2096921,2096921,182757,613292,0
2096921,2096921,182691,613354,0
2096921,2096921,182937,613570,0
2096921,2096921,182991,613881,0
2096921,2096921,182930,613087,0
2096921,2096921,182934,613057,0
2096921,2096921,182907,613032,0
2096921,2096921,182936,613099,0
2096921,2096921,183115,613252,0
2096921,2096921,182682,612671,0
2096921,2096921,182725,612694,0
2096921,2096921,182483,612963,0
2096921,2096921,182649,613051,0
2096921,2096921,182867,613040,0
2096921,2096921,182526,612938,0
2096921,2096921,182834,612763,0
2096921,2096921,182719,612651,0
2096921,2096921,182695,612677,0
2096921,2096921,182773,612547,0
2096921,2096921,182491,612467,0
2096921,2096921,182685,612419,0
2096921,2096921,182711,612603,0
2096921,2096921,182633,612429,0
2096921,2096921,182733,612192,0
2096921,2096921,182498,612257,0
2096921,2096921,182505,611999,0
2096921,2096921,182527,612198,0
2096921,2096921,182182,612114,0
2096921,2096921,182655,612176,0
2096921,2096921,182512,612094,0
2096921,2096921,182535,611702,0
2096921,2096921,182257,611823,0
2096921,2096921,182551,611927,0
2096921,2096921,182450,611844,0
2096921,2096921,182326,611525,0
2096921,2096921,182123,611524,0
2096921,2096921,182285,611342,0
2096921,2096921,182185,611295,0
2096921,2096921,182133,611057,0
2096921,2096921,181948,610985,0
2096921,2096921,182168,611033,0
2096921,2096921,182112,610936,0
2096921,2096921,182244,610847,0
2096921,2096921,182320,610884,0
2096921,2096921,182350,610674,0
2096921,2096921,182065,610663,0
2096921,2096921,181950,610863,0
2096921,2096921,182131,610721,0
2096921,2096921,181991,610737,0
2096921,2096921,182213,610244,0
2096921,2096921,181738,610141,0
2096921,2096921,181594,610200,0
2096921,2096921,182127,609844,0
2096921,2096921,181741,610176,0
2096921,2096921,181572,610046,0
2096921,2096921,181908,609755,0
2096921,2096921,182078,609769,0
2096921,2096921,181982,609823,0
2096921,2096921,181925,609864,0
2096921,2096921,181667,609267,0
2096921,2096921,181499,609217,0
2096921,2096921,181240,609239,0
2096921,2096921,181420,609571,0
2096921,2096921,181563,609563,0
2096921,2096921,181631,609214,0
2096921,2096921,181510,609231,0
2096921,2096921,181630,609083,0
2096921,2096921,181332,609087,0
2096921,2096921,181404,608597,0
2096921,2096921,181371,608687,0
2096921,2096921,181349,608414,0
2096921,2096921,181190,608372,0
2096921,2096921,181489,608433,0
2096921,2096921,181112,608666,0
2096921,2096921,181006,607198,0
2096921,2096921,180906,607293,0
2096921,2096921,181164,607139,0
2096921,2096921,181199,607167,0
2096921,2096921,180974,607477,0
2096921,2096921,180498,606593,0
2096921,2096921,180802,606006,0
2096921,2096921,180618,606115,0
2096921,2096921,180463,606176,0
2096921,2096921,180188,606086,0
2096921,2096921,180029,604753,0
2096921,2096921,180212,604276,0
2096921,2096921,180120,604161,0
2096921,2096921,179777,604118,0
2096921,2096921,179649,604223,0
2096921,2096921,179163,602376,0
2096921,2096921,179044,602299,0
2096921,2096921,179038,601877,0
2096921,2096921,179323,601731,0
2096921,2096921,178896,601580,0
2096921,2096921,178605,599898,0
2096921,2096921,178394,599815,0
2096921,2096921,178651,599613,0
2096921,2096921,178590,599727,0
2096921,2096921,177445,599590,0
2096921,2096921,177132,596048,0
2096921,2096921,176960,594967,0
2096921,2096921,177173,594938,0
2096921,2096921,177113,594808,0
2096921,2096921,176088,595100,0
2096921,2096921,175547,590560,0
2096921,2096921,175607,589511,0
2096921,2096921,175563,588942,0
2096921,2096921,175431,589060,0
2096921,2096921,174486,588871,0
2096921,2096921,173819,585605,0
2096921,2096921,173679,584785,0
2096921,2096921,173835,584755,0
2096921,2096921,173996,584477,0
2096921,2096921,173264,584556,0
2096921,2096921,173010,581861,0
2096921,2096921,172925,581278,0
2096921,2096921,172673,581027,0
2096921,2096921,172548,581232,0
2096921,2096921,172250,580900,0
2096921,2096921,172258,579017,0
2096921,2096921,171991,578384,0
2096921,2096921,172105,578817,0
2096921,2096921,171917,578621,0
2096921,2096921,171885,578547,0
2096921,2096921,171343,576636,0
2096921,2096921,171361,576382,0
2096921,2096921,171298,576564,0
2096921,2096921,171445,576484,0
2096921,2096921,171284,576501,0
2096921,2096921,170619,575487,0
2096921,2096921,170795,575470,0
2096921,2096921,170983,575006,0
2096921,2096921,170870,575163,0
2096921,2096921,170775,574992,0
2096921,2096921,170617,574128,0
2096921,2096921,170607,573761,0
2096921,2096921,170599,573724,0
2096921,2096921,170459,574051,0
2096921,2096921,170267,574004,0
2096921,2096921,169933,573683,0
2096921,2096921,169988,573268,0
2096921,2096921,170291,573148,0
2096921,2096921,170228,573116,0
2096921,2096921,170346,573275,0
2096921,2096921,170245,572987,0
2096921,2096921,170227,573075,0
2096921,2096921,170283,573096,0
2096921,2096921,170232,573198,0
2096921,2096921,170220,572837,0
2096921,2096921,170297,573065,0
2096921,2096921,170208,573270,0
2096921,2096921,170376,573269,0
2096921,2096921,170138,573414,0
2096921,2096921,170300,573325,0
2096921,2096921,170340,573349,0
2096921,2096921,170276,573250,0
2096921,2096921,170126,573344,0
2096921,2096921,170190,573302,0
2096921,2096921,170294,573447,0
2096921,2096921,170178,573182,0
2096921,2096921,170164,573326,0
2096921,2096921,170279,572800,0
2096921,2096921,170318,573218,0
2096921,2096921,170442,573173,0
2096921,2096921,170190,573599,0
2096921,2096921,170189,573699,0
2096921,2096921,170330,573535,0
2096921,2096921,170164,573980,0
2096921,2096921,170543,573622,0
2096921,2096921,170780,574125,0
2096921,2096921,170634,574496,0
2096921,2096921,170491,574424,0
2096921,2096921,170668,574228,0
2096921,2096921,170730,574223,0
2096921,2096921,170868,574801,0
2096921,2096921,171015,574865,0
2096921,2096921,171044,575064,0
2096921,2096921,170830,574895,0
2096921,2096921,170919,575024,0
2096921,2096921,171091,575635,0
2096921,2096921,170807,575524,0
2096921,2096921,170853,575484,0
2096921,2096921,170988,575730,0
2096921,2096921,171177,575966,0
2096921,2096921,171216,576475,0
2096921,2096921,171349,576507,0
2096921,2096921,171241,576376,0
2096921,2096921,171181,576464,0
2096921,2096921,171359,576427,0
2096921,2096921,171260,576917,0
2096921,2096921,171625,576801,0
2096921,2096921,171122,577037,0
2096921,2096921,171314,577190,0
2096921,2096921,171580,576812,0
2096921,2096921,171809,577476,0
2096921,2096921,171880,577446,0
2096921,2096921,171785,577651,0
2096921,2096921,171866,577589,0
2096921,2096921,171826,577709,0
2096921,2096921,171785,578333,0
2096921,2096921,172112,578404,0
2096921,2096921,171913,578227,0
2096921,2096921,171998,578330,0
2096921,2096921,172112,578535,0
2096921,2096921,172222,578716,0
2096921,2096921,172088,579045,0
2096921,2096921,172200,579050,0
2096921,2096921,171887,579106,0
2096921,2096921,172399,578935,0
2096921,2096921,172249,579624,0
2096921,2096921,172300,579834,0
2096921,2096921,172373,579907,0
2096921,2096921,172187,579664,0
2096921,2096921,172425,579733,0
2096921,2096921,172826,580355,0
2096921,2096921,172702,580614,0
2096921,2096921,172754,580515,0
2096921,2096921,172651,580562,0
2096921,2096921,172941,580573,0
2096921,2096921,172860,581099,0
2096921,2096921,172891,581323,0
2096921,2096921,172899,581126,0
2096921,2096921,172974,581306,0
2096921,2096921,173113,581282,0
2096921,2096921,172950,581643,0
2096921,2096921,173008,581948,0
2096921,2096921,173221,581986,0
2096921,2096921,173066,582102,0
2096921,2096921,173133,581926,0
2096921,2096921,173037,581954,0
2096921,2096921,173105,582441,0
2096921,2096921,173138,582568,0
2096921,2096921,173143,582040,0
2096921,2096921,173159,582584,0
2096921,2096921,173156,582983,0
2096921,2096921,173284,582782,0
2096921,2096921,173294,582925,0
2096921,2096921,173305,582877,0
2096921,2096921,173330,582863,0
2096921,2096921,173263,582915,0
2096921,2096921,173680,582909,0
2096921,2096921,173682,582916,0
2096921,2096921,173320,582933,0
2096921,2096921,173154,582948,0
2096921,2096921,173612,583216,0
2096921,2096921,173493,583327,0
2096921,2096921,173344,583154,0
2096921,2096921,173457,582895,0
2096921,2096921,173494,582855,0
2096921,2096921,173477,583151,0
2096921,2096921,173436,583049,0
2096921,2096921,173325,583037,0
2096921,2096921,173271,582655,0
2096921,2096921,173324,582870,0
2096921,2096921,173238,583237,0
2096921,2096921,173737,582862,0
2096921,2096921,173355,582870,0
2096921,2096921,173481,582879,0
2096921,2096921,173397,582901,0
2096921,2096921,173196,582469,0
2096921,2096921,173196,582317,0
2096921,2096921,173048,582311,0
2096921,2096921,172789,582370,0
2096921,2096921,173286,582497,0
2096921,2096921,173026,581851,0
2096921,2096921,173147,581644,0
2096921,2096921,173349,581882,0
2096921,2096921,172850,581865,0
2096921,2096921,172796,581780,0
2096921,2096921,172821,581292,0
2096921,2096921,172728,581498,0
2096921,2096921,172913,581467,0
2096921,2096921,173033,581534,0
2096921,2096921,172954,581558,0
2096921,2096921,173076,581611,0
2096921,2096921,172992,581377,0
2096921,2096921,173048,581208,0
2096921,2096921,172850,581090,0
2096921,2096921,172661,581144,0
2096921,2096921,172753,580760,0
2096921,2096921,172863,580802,0
2096921,2096921,172838,580419,0
2096921,2096921,172440,580551,0
2096921,2096921,172675,580838,0
2096921,2096921,172735,580932,0
2096921,2096921,172638,580667,0
2096921,2096921,172587,580804,0
2096921,2096921,172741,580496,0
2096921,2096921,172564,580360,0
2096921,2096921,172701,580421,0
2096921,2096921,172309,580387,0
2096921,2096921,172584,580344,0
2096921,2096921,172733,580350,0
2096921,2096921,172662,580378,0
2096921,2096921,172527,580628,0
2096921,2096921,172489,580399,0
2096921,2096921,172835,580290,0
2096921,2096921,172861,580475,0
2096921,2096921,172520,580478,0
2096921,2096921,172551,580327,0
2096921,2096921,172743,580608,0
2096921,2096921,172726,580677,0
2096921,2096921,172689,580676,0
2096921,2096921,172693,580782,0
2096921,2096921,172770,580953,0
2096921,2096921,172771,580900,0
2096921,2096921,172930,580751,0
2096921,2096921,172723,580570,0
2096921,2096921,172709,580487,0
2096921,2096921,172977,581138,0
2096921,2096921,172736,581564,0
2096921,2096921,172993,581347,0
2096921,2096921,172860,581524,0
2096921,2096921,173082,581407,0
2096921,2096921,173002,582238,0
2096921,2096921,173111,582039,0
2096921,2096921,173308,582145,0
2096921,2096921,173167,582246,0
2096921,2096921,173361,582248,0
2096921,2096921,173327,582506,0
2096921,2096921,173145,582631,0
2096921,2096921,172834,582645,0
2096921,2096921,173146,582675,0
2096921,2096921,173248,582686,0
2096921,2096921,173539,583433,0
2096921,2096921,173542,583194,0
2096921,2096921,173818,583395,0
2096921,2096921,173552,583254,0
2096921,2096921,173493,583253,0
2096921,2096921,173474,583683,0
2096921,2096921,173838,584024,0
2096921,2096921,173710,583749,0
2096921,2096921,173658,583990,0
2096921,2096921,173828,583875,0
2096921,2096921,173833,584001,0
2096921,2096921,173944,584174,0
2096921,2096921,174147,584242,0
2096921,2096921,174020,584329,0
2096921,2096921,174249,584301,0
2096921,2096921,173959,584698,0
2096921,2096921,173723,585112,0
2096921,2096921,173676,584688,0
2096921,2096921,173786,585014,0
2096921,2096921,174047,584722,0
2096921,2096921,173980,585423,0
2096921,2096921,174186,585391,0
2096921,2096921,174284,585524,0
2096921,2096921,174004,585102,0
2096921,2096921,174457,585547,0
2096921,2096921,174339,585982,0
2096921,2096921,174508,586254,0
2096921,2096921,174335,586183,0
2096921,2096921,174654,586137,0
2096921,2096921,174658,586202,0
2096921,2096921,174517,586706,0
2096921,2096921,174397,586730,0
2096921,2096921,174502,586583,0
2096921,2096921,174483,586412,0
2096921,2096921,174534,586894,0
2096921,2096921,174602,587126,0
2096921,2096921,174437,586998,0
2096921,2096921,174461,586783,0
2096921,2096921,174662,587019,0
2096921,2096921,174724,586924,0
2096921,2096921,174675,587332,0
2096921,2096921,174849,587447,0
2096921,2096921,174995,587551,0
2096921,2096921,174883,587729,0
2096921,2096921,175066,587731,0
2096921,2096921,175039,588076,0
2096921,2096921,175135,588466,0
2096921,2096921,175097,588280,0
2096921,2096921,174965,587873,0
2096921,2096921,174761,588106,0
2096921,2096921,174919,588499,0
2096921,2096921,175023,588668,0
2096921,2096921,175233,588794,0
2096921,2096921,175031,588341,0
2096921,2096921,175034,588678,0
2096921,2096921,175038,588884,0
2096921,2096921,175205,588867,0
2096921,2096921,175254,588999,0
2096921,2096921,175017,589063,0
2096921,2096921,175334,589044,0
2096921,2096921,175099,589358,0
2096921,2096921,175289,589503,0
2096921,2096921,175330,589616,0
2096921,2096921,175380,589720,0
2096921,2096921,175496,589534,0
2096921,2096921,175563,589793,0
2096921,2096921,175502,589987,0
2096921,2096921,175594,589959,0
2096921,2096921,175586,590124,0
2096921,2096921,175437,590026,0
2096921,2096921,175763,590282,0
2096921,2096921,175876,590554,0
2096921,2096921,175826,590533,0
2096921,2096921,175907,590724,0
2096921,2096921,175996,590397,0
2096921,2096921,176157,590679,0
2096921,2096921,175859,590718,0
2096921,2096921,176085,590569,0
2096921,2096921,176210,590801,0
2096921,2096921,176093,590726,0
2096921,2096921,175788,590932,0
2096921,2096921,175923,590977,0
2096921,2096921,175791,591122,0
2096921,2096921,176008,591094,0
2096921,2096921,176077,591012,0
2096921,2096921,176230,591496,0
2096921,2096921,176115,591520,0
2096921,2096921,176227,591605,0
2096921,2096921,176109,591613,0
2096921,2096921,176239,591595,0
2096921,2096921,176310,592095,0
2096921,2096921,176053,592311,0
2096921,2096921,176102,591892,0
2096921,2096921,176187,592000,0
2096921,2096921,176207,592189,0
2096921,2096921,175925,592178,0
2096921,2096921,176151,592128,0
2096921,2096921,176160,592045,0
2096921,2096921,176147,592243,0
2096921,2096921,176679,592201,0
2096921,2096921,176538,592687,0
2096921,2096921,176436,592430,0
2096921,2096921,176225,592622,0
2096921,2096921,176662,592503,0
2096921,2096921,176562,592712,0
2096921,2096921,176871,592931,0
2096921,2096921,176319,593086,0
2096921,2096921,176568,592928,0
2096921,2096921,176401,592983,0
2096921,2096921,176558,593001,0
2096921,2096921,176565,593168,0
2096921,2096921,176695,593282,0
2096921,2096921,176483,593201,0
2096921,2096921,176466,593068,0
2096921,2096921,176534,593069,0
2096921,2096921,176573,593204,0
2096921,2096921,176352,593276,0
2096921,2096921,176551,593243,0
2096921,2096921,176430,593423,0
2096921,2096921,176531,593477,0
2096921,2096921,176543,593793,0
2096921,2096921,176613,593711,0
2096921,2096921,176692,593898,0
2096921,2096921,176824,593761,0
2096921,2096921,177009,593470,0
2096921,2096921,176816,593898,0
2096921,2096921,176924,593801,0
2096921,2096921,176901,594196,0
2096921,2096921,176607,594009,0
2096921,2096921,176773,593784,0
2096921,2096921,176893,593813,0
2096921,2096921,177131,594002,0
2096921,2096921,177087,594037,0
2096921,2096921,177015,594044,0
2096921,2096921,176576,594303,0
2096921,2096921,177045,594347,0
2096921,2096921,176963,594345,0
2096921,2096921,176936,594087,0
2096921,2096921,177225,594242,0
2096921,2096921,177083,594318,0
2096921,2096921,176932,594455,0
2096921,2096921,177078,594663,0
2096921,2096921,176947,594501,0
2096921,2096921,177038,594399,0
2096921,2096921,176802,594414,0
2096921,2096921,176761,594356,0
2096921,2096921,177027,594486,0
2096921,2096921,177415,594350,0
2096921,2096921,177376,594500,0
2096921,2096921,177217,594540,0
2096921,2096921,177266,594633,0
2096921,2096921,177118,594738,0
2096921,2096921,177129,594875,0
2096921,2096921,177192,594647,0
2096921,2096921,176991,594809,0
2096921,2096921,177373,595028,0
2096921,2096921,177229,594892,0
2096921,2096921,176983,595197,0
2096921,2096921,177313,595352,0
2096921,2096921,177388,594989,0
2096921,2096921,177167,595043,0
2096921,2096921,177455,595304,0
2096921,2096921,177658,595295,0
2096921,2096921,177306,595042,0
2096921,2096921,177099,595018,0
2096921,2096921,177188,595218,0
2096921,2096921,177334,595384,0
2096921,2096921,177395,595303,0
2096921,2096921,177337,595134,0
2096921,2096921,177355,595194,0
2096921,2096921,177353,595301,0
2096921,2096921,177424,595631,0
2096921,2096921,177669,595672,0
2096921,2096921,177370,595808,0
2096921,2096921,177599,595844,0
2096921,2096921,177427,595833,0
2096921,2096921,177494,596020,0
2096921,2096921,177303,595828,0
2096921,2096921,177455,595921,0
2096921,2096921,177529,595740,0
2096921,2096921,177315,595832,0
2096921,2096921,177486,596184,0
2096921,2096921,177526,596232,0
2096921,2096921,177360,596242,0
2096921,2096921,177543,596056,0
2096921,2096921,177499,596347,0
2096921,2096921,177446,596505,0
2096921,2096921,177527,596562,0
2096921,2096921,177662,596269,0
2096921,2096921,177676,596458,0
2096921,2096921,177692,596590,0
2096921,2096921,177655,596550,0
2096921,2096921,177428,596684,0
2096921,2096921,177309,596753,0
2096921,2096921,177777,596751,0
2096921,2096921,177524,596934,0
2096921,2096921,177423,596799,0
2096921,2096921,177587,596939,0
2096921,2096921,177758,596785,0
2096921,2096921,177835,597238,0
2096921,2096921,177717,597189,0
2096921,2096921,177838,597095,0
2096921,2096921,177859,597076,0
2096921,2096921,177857,597311,0
2096921,2096921,177835,597097,0
2096921,2096921,177608,597265,0
2096921,2096921,177806,597172,0
2096921,2096921,177387,597299,0
2096921,2096921,177804,597256,0
2096921,2096921,177811,597128,0
2096921,2096921,177956,597212,0
2096921,2096921,177747,597427,0
2096921,2096921,177902,597343,0
2096921,2096921,178051,597431,0
2096921,2096921,177764,597421,0
2096921,2096921,178023,597506,0
2096921,2096921,177888,597137,0
2096921,2096921,177992,597361,0
2096921,2096921,178068,597418,0
2096921,2096921,178075,597238,0
2096921,2096921,178195,597415,0
2096921,2096921,178288,597604,0
2096921,2096921,177839,597470,0
2096921,2096921,178045,597631,0
2096921,2096921,178105,597431,0
2096921,2096921,177833,597720,0
2096921,2096921,177895,597646,0
2096921,2096921,177984,597708,0
2096921,2096921,178190,597632,0
2096921,2096921,178054,597705,0
2096921,2096921,177940,597648,0
2096921,2096921,178343,597947,0
2096921,2096921,178052,597935,0
2096921,2096921,178079,598001,0
2096921,2096921,178262,597581,0
2096921,2096921,178146,598325,0
2096921,2096921,178283,598229,0
2096921,2096921,177904,598133,0
2096921,2096921,177984,598127,0
2096921,2096921,178053,598160,0
2096921,2096921,178208,598195,0
2096921,2096921,178413,598216,0
2096921,2096921,178482,598444,0
2096921,2096921,178269,598274,0
2096921,2096921,177985,598222,0
2096921,2096921,177900,598231,0
2096921,2096921,178458,598115,0
2096921,2096921,178289,598161,0
2096921,2096921,178243,598378,0
2096921,2096921,178053,598671,0
2096921,2096921,178180,597932,0
2096921,2096921,178149,597638,0
2096921,2096921,177925,597638,0
2096921,2096921,178072,597489,0
2096921,2096921,177902,597419,0
2096921,2096921,177934,597230,0
2096921,2096921,177958,597042,0
2096921,2096921,177889,597128,0
2096921,2096921,177812,597119,0
2096921,2096921,177660,597197,0
2096921,2096921,177456,596491,0
2096921,2096921,177503,596227,0
2096921,2096921,177457,596122,0
2096921,2096921,177335,595977,0
2096921,2096921,176881,596169,0
2096921,2096921,176822,595031,0
2096921,2096921,176589,594501,0
2096921,2096921,177014,594221,0
2096921,2096921,176997,594464,0
2096921,2096921,176845,594379,0
2096921,2096921,176293,593043,0
2096921,2096921,176354,592749,0
2096921,2096921,176276,592760,0
2096921,2096921,176267,593030,0
2096921,2096921,175779,592669,0
2096921,2096921,175278,589001,0
2096921,2096921,174913,588443,0
2096921,2096921,175202,588298,0
2096921,2096921,175087,588213,0
2096921,2096921,173892,588388,0
2096921,2096921,173589,584142,0
2096921,2096921,173330,583601,0
2096921,2096921,173601,583613,0
2096921,2096921,173329,583391,0
2096921,2096921,172854,583112,0
2096921,2096921,172365,579974,0
2096921,2096921,171968,579397,0
2096921,2096921,172077,579169,0
2096921,2096921,172386,579360,0
2096921,2096921,171601,579411,0
2096921,2096921,171483,577289,0
2096921,2096921,171573,576752,0
2096921,2096921,171345,576464,0
2096921,2096921,171401,576499,0
2096921,2096921,171000,576860,0
2096921,2096921,170513,574998,0
2096921,2096921,170979,574605,0
2096921,2096921,170926,575024,0
2096921,2096921,170825,574753,0
2096921,2096921,170353,574647,0
2096921,2096921,170384,573320,0
2096921,2096921,170514,573055,0
2096921,2096921,170380,573075,0
2096921,2096921,170411,572706,0
2096921,2096921,170059,572805,0
2096921,2096921,169910,572122,0
2096921,2096921,170157,572005,0
2096921,2096921,169998,571888,0
2096921,2096921,170120,571992,0
2096921,2096921,169771,571892,0
2096921,2096921,169859,571833,0
2096921,2096921,169806,571844,0
2096921,2096921,169903,571873,0
2096921,2096921,169923,571700,0
2096921,2096921,169800,571565,0
2096921,2096921,169440,571619,0
2096921,2096921,169696,571584,0
2096921,2096921,169903,571719,0
2096921,2096921,169911,571448,0
2096921,2096921,169698,571680,0
2096921,2096921,169853,571897,0
2096921,2096921,170057,571995,0
2096921,2096921,170209,571755,0
2096921,2096921,169632,571776,0
2096921,2096921,170177,571870,0
2096921,2096921,169872,572589,0
2096921,2096921,170227,572429,0
2096921,2096921,170209,572970,0
2096921,2096921,170172,572703,0
2096921,2096921,170300,572671,0
2096921,2096921,170215,572967,0
2096921,2096921,170107,572990,0
2096921,2096921,170115,573180,0
2096921,2096921,170150,573138,0
2096921,2096921,170579,573322,0
2096921,2096921,170466,573999,0
2096921,2096921,170406,573943,0
2096921,2096921,170477,573677,0
2096921,2096921,170416,573637,0
2096921,2096921,170970,573925,0
2096921,2096921,170998,574968,0
2096921,2096921,170881,574992,0
2096921,2096921,171075,575010,0
2096921,2096921,170915,575089,0
2096921,2096921,171305,575185,0
2096921,2096921,171282,575814,0
2096921,2096921,170943,576033,0
2096921,2096921,170938,576299,0
2096921,2096921,171426,576089,0
2096921,2096921,171531,575934,0
2096921,2096921,171526,577228,0
2096921,2096921,171727,577482,0
2096921,2096921,171714,577705,0
2096921,2096921,171540,577588,0
2096921,2096921,171881,577283,0
2096921,2096921,171949,578577,0
2096921,2096921,171896,578669,0
2096921,2096921,172035,578856,0
2096921,2096921,172232,578749,0
2096921,2096921,172439,578743,0
2096921,2096921,172711,579877,0
2096921,2096921,172321,580219,0
2096921,2096921,172320,580082,0
2096921,2096921,172371,580187,0
2096921,2096921,172648,579779,0
2096921,2096921,172510,580774,0
2096921,2096921,172845,581264,0
2096921,2096921,172694,581245,0
2096921,2096921,172712,581173,0
2096921,2096921,173142,581139,0
2096921,2096921,173256,581955,0
2096921,2096921,173249,582643,0
2096921,2096921,173205,582348,0
2096921,2096921,173314,582623,0
2096921,2096921,173648,582040,0
2096921,2096921,173640,583521,0
2096921,2096921,173783,583811,0
2096921,2096921,173582,583818,0
2096921,2096921,173483,583537,0
2096921,2096921,173624,583947,0
2096921,2096921,174062,584928,0
2096921,2096921,174164,585254,0
2096921,2096921,174215,584917,0
2096921,2096921,174378,585075,0
2096921,2096921,174388,585283,0
2096921,2096921,174429,586429,0
2096921,2096921,174398,586583,0
2096921,2096921,174606,586698,0
2096921,2096921,174672,586501,0
2096921,2096921,174739,586725,0
2096921,2096921,174915,587628,0
2096921,2096921,175034,587929,0
2096921,2096921,174812,587587,0
2096921,2096921,174636,587625,0
2096921,2096921,175190,587945,0
2096921,2096921,175369,588961,0
2096921,2096921,175225,589009,0
2096921,2096921,175089,589124,0
2096921,2096921,175234,589068,0
2096921,2096921,175525,589250,0
2096921,2096921,175621,590262,0
2096921,2096921,175552,590179,0
2096921,2096921,175780,590041,0
2096921,2096921,175953,590347,0
2096921,2096921,175615,590273,0
2096921,2096921,175749,591255,0
2096921,2096921,175954,591440,0
2096921,2096921,175909,591634,0
2096921,2096921,176183,591756,0
2096921,2096921,176446,591652,0
2096921,2096921,176041,592320,0
2096921,2096921,176312,592369,0
2096921,2096921,176006,592493,0
2096921,2096921,176031,592534,0
2096921,2096921,175886,592431,0
2096921,2096921,176389,592677,0
2096921,2096921,176315,592789,0
2096921,2096921,176355,593073,0
2096921,2096921,176427,592973,0
2096921,2096921,176714,593221,0
2096921,2096921,176724,593751,0
2096921,2096921,176917,593881,0
2096921,2096921,176684,593973,0
2096921,2096921,176917,594079,0
2096921,2096921,176626,593965,0
2096921,2096921,176782,594312,0
2096921,2096921,177027,594035,0
2096921,2096921,177015,594005,0
2096921,2096921,176649,594275,0
2096921,2096921,176565,594107,0
2096921,2096921,176708,594628,0
2096921,2096921,176806,594487,0
2096921,2096921,176761,594536,0
2096921,2096921,177100,594715,0
2096921,2096921,176912,594606,0
2096921,2096921,176927,594391,0
2096921,2096921,176898,594616,0
2096921,2096921,176844,594752,0
2096921,2096921,176950,594932,0
2096921,2096921,177089,594738,0
2096921,2096921,177049,594781,0
2096921,2096921,176999,594902,0
2096921,2096921,177205,595157,0
2096921,2096921,177012,595084,0
2096921,2096921,177140,595044,0
2096921,2096921,177026,595017,0
2096921,2096921,177046,594937,0
2096921,2096921,177166,594760,0
2096921,2096921,177067,594722,0
2096921,2096921,177134,594798,0
2096921,2096921,176697,595043,0
2096921,2096921,176992,594804,0
2096921,2096921,177116,595003,0
2096921,2096921,176974,595016,0
2096921,2096921,177203,594991,0
2096921,2096921,176969,594909,0
2096921,2096921,177171,595142,0
2096921,2096921,177105,595008,0
2096921,2096921,177201,594849,0
2096921,2096921,177298,594895,0
2096921,2096921,177247,595272,0
2096921,2096921,177231,595186,0
2096921,2096921,177196,595262,0
2096921,2096921,177294,595489,0
2096921,2096921,177218,595450,0
2096921,2096921,177382,595373,0
2096921,2096921,177155,595662,0
2096921,2096921,177304,595635,0
2096921,2096921,177259,595550,0
2096921,2096921,177297,595558,0
2096921,2096921,177512,596049,0
2096921,2096921,177327,596324,0
2096921,2096921,177854,596575,0
2096921,2096921,177737,596058,0
2096921,2096921,177735,596512,0
2096921,2096921,177763,596454,0
2096921,2096921,177613,596677,0
2096921,2096921,177577,596867,0
2096921,2096921,177762,596992,0
2096921,2096921,177905,596958,0
2096921,2096921,177955,597501,0
2096921,2096921,177820,597591,0
2096921,2096921,178204,597662,0
2096921,2096921,177964,597512,0
2096921,2096921,177955,597414,0
2096921,2096921,177962,598445,0
2096921,2096921,178159,598383,0
2096921,2096921,178166,598530,0
2096921,2096921,178491,598768,0
2096921,2096921,178190,598616,0
2096921,2096921,178642,599279,0
2096921,2096921,178578,599461,0
2096921,2096921,178672,599585,0
2096921,2096921,178622,599634,0
2096921,2096921,178798,599692,0
2096921,2096921,178554,600353,0
2096921,2096921,178580,600873,0
2096921,2096921,178789,600520,0
2096921,2096921,178798,600961,0
2096921,2096921,178788,600590,0
2096921,2096921,179097,601822,0
2096921,2096921,179154,601717,0
2096921,2096921,179407,601779,0
2096921,2096921,179049,601599,0
2096921,2096921,179166,601828,0
2096921,2096921,179321,602594,0
2096921,2096921,179331,602607,0
2096921,2096921,179707,602779,0
2096921,2096921,179561,603020,0
2096921,2096921,179570,602838,0
2096921,2096921,180035,603661,0
2096921,2096921,180095,603696,0
2096921,2096921,180045,603692,0
2096921,2096921,179890,603639,0
2096921,2096921,179913,603480,0
2096921,2096921,179709,604157,0
2096921,2096921,179882,604310,0
2096921,2096921,180033,604498,0
2096921,2096921,180039,604500,0
2096921,2096921,180290,604361,0
2096921,2096921,180397,605249,0
2096921,2096921,180620,605549,0
2096921,2096921,180508,605502,0
2096921,2096921,180530,605678,0
2096921,2096921,180517,605578,0
2096921,2096921,180650,606298,0
2096921,2096921,180784,606646,0
2096921,2096921,180852,606678,0
2096921,2096921,180851,606528,0
2096921,2096921,180854,606640,0
2096921,2096921,180916,607209,0
2096921,2096921,180959,607112,0
2096921,2096921,180985,607282,0
2096921,2096921,180964,607184,0
2096921,2096921,181264,607046,0
2096921,2096921,180820,607924,0
2096921,2096921,181122,608308,0
2096921,2096921,181303,608391,0
2096921,2096921,181250,608414,0
2096921,2096921,181506,608378,0
2096921,2096921,181592,609087,0
2096921,2096921,181901,609043,0
2096921,2096921,181778,609017,0
2096921,2096921,181701,609339,0
2096921,2096921,181812,609444,0
2096921,2096921,181891,609870,0
2096921,2096921,181611,609787,0
2096921,2096921,181651,609901,0
2096921,2096921,181661,610033,0
2096921,2096921,181850,609853,0
2096921,2096921,181906,610679,0
2096921,2096921,182116,610820,0
2096921,2096921,182009,610893,0
2096921,2096921,182232,610952,0
2096921,2096921,182123,610959,0
2096921,2096921,182318,611401,0
2096921,2096921,182322,611750,0
2096921,2096921,182412,611347,0
2096921,2096921,182395,611522,0
2096921,2096921,182623,611823,0
2096921,2096921,182511,612404,0
2096921,2096921,182700,612591,0
2096921,2096921,182812,612698,0
2096921,2096921,182539,612871,0
2096921,2096921,182674,612673,0
2096921,2096921,182844,613251,0
2096921,2096921,182798,613441,0
2096921,2096921,182799,613334,0
2096921,2096921,182761,613480,0
2096921,2096921,182788,613321,0
2096921,2096921,182984,613759,0
2096921,2096921,182897,613825,0
2096921,2096921,183070,614199,0
2096921,2096921,183088,614144,0
2096921,2096921,183033,613896,0
2096921,2096921,183161,614224,0
2096921,2096921,183059,615077,0
2096921,2096921,183528,615304,0
2096921,2096921,183289,615024,0
2096921,2096921,183515,614763,0
2096921,2096921,183690,615558,0
2096921,2096921,183559,615438,0
2096921,2096921,183705,615268,0
2096921,2096921,183505,615618,0
2096921,2096921,183273,615455,0
2096921,2096921,183542,615973,0
2096921,2096921,183725,616325,0
2096921,2096921,183746,616295,0
2096921,2096921,183742,616582,0
2096921,2096921,183871,616277,0
2096921,2096921,183719,617036,0
2096921,2096921,183838,616981,0
2096921,2096921,183935,617010,0
2096921,2096921,183994,617148,0
2096921,2096921,184275,617156,0
2096921,2096921,184271,617536,0
2096921,2096921,184442,617992,0
2096921,2096921,184152,617819,0
2096921,2096921,184432,617943,0
2096921,2096921,184170,617818,0
2096921,2096921,184251,618325,0
2096921,2096921,184395,618434,0
2096921,2096921,184556,618298,0
2096921,2096921,184500,618175,0
2096921,2096921,184379,618334,0
2096921,2096921,184625,618744,0
2096921,2096921,184907,619005,0
2096921,2096921,184334,618735,0
2096921,2096921,184685,618982,0
2096921,2096921,184622,618618,0
2096921,2096921,184756,619486,0
2096921,2096921,184868,619196,0
2096921,2096921,184738,619532,0
2096921,2096921,184928,619417,0
2096921,2096921,184852,619906,0
2096921,2096921,184670,619841,0
2096921,2096921,184750,620136,0
2096921,2096921,184760,620006,0
2096921,2096921,184638,619934,0
2096921,2096921,184917,619620,0
2096921,2096921,185175,620436,0
2096921,2096921,185396,620669,0
2096921,2096921,185252,620607,0
2096921,2096921,184967,620433,0
2096921,2096921,185317,620419,0
2096921,2096921,185504,620865,0
2096921,2096921,185325,621472,0
2096921,2096921,185011,620847,0
2096921,2096921,185296,621376,0
2096921,2096921,185362,620956,0
2096921,2096921,185524,621630,0
2096921,2096921,185317,621498,0
2096921,2096921,185393,621556,0
2096921,2096921,185162,621407,0
2096921,2096921,185490,621570,0
2096921,2096921,185327,621711,0
2096921,2096921,185308,621987,0
2096921,2096921,185634,621642,0
2096921,2096921,185835,622019,0
2096921,2096921,185575,622056,0
2096921,2096921,185943,622644,0
2096921,2096921,185897,622450,0
2096921,2096921,185913,622436,0
2096921,2096921,185606,622425,0
2096921,2096921,185842,622459,0
2096921,2096921,185825,622731,0
2096921,2096921,185892,622859,0
2096921,2096921,185759,622690,0
2096921,2096921,185585,622781,0
2096921,2096921,185780,622846,0
2096921,2096921,186092,623149,0
2096921,2096921,185965,623300,0
2096921,2096921,185953,623410,0
2096921,2096921,185979,623381,0
2096921,2096921,186286,623227,0
2096921,2096921,185835,623587,0
2096921,2096921,186135,623658,0
2096921,2096921,186030,623533,0
2096921,2096921,185970,623665,0
2096921,2096921,186221,623823,0
2096921,2096921,186194,624170,0
2096921,2096921,186084,623999,0
2096921,2096921,186249,624032,0
2096921,2096921,186352,624149,0
2096921,2096921,186100,624130,0
2096921,2096921,185992,624578,0
2096921,2096921,186067,624484,0
2096921,2096921,186143,624495,0
2096921,2096921,186085,624335,0
2096921,2096921,186172,624715,0
2096921,2096921,186318,624712,0
2096921,2096921,186532,624823,0
2096921,2096921,186399,624863,0
2096921,2096921,186394,624932,0
2096921,2096921,186471,624807,0
2096921,2096921,186459,625144,0
2096921,2096921,186415,625173,0
2096921,2096921,186848,625261,0
2096921,2096921,186530,625019,0
2096921,2096921,186366,625115,0
2096921,2096921,186395,625475,0
2096921,2096921,186573,625613,0
2096921,2096921,186507,625721,0
2096921,2096921,186496,625494,0
2096921,2096921,186164,625589,0
2096921,2096921,186588,625771,0
2096921,2096921,186721,625758,0
2096921,2096921,186626,625778,0
2096921,2096921,186587,625849,0
2096921,2096921,186736,626015,0
2096921,2096921,187196,626053,0
2096921,2096921,187065,626212,0
2096921,2096921,186676,626258,0
2096921,2096921,186904,626193,0
2096921,2096921,186665,626087,0
2096921,2096921,186790,626313,0
2096921,2096921,186958,626302,0
2096921,2096921,186976,626307,0
2096921,2096921,186864,626571,0
2096921,2096921,187113,626272,0
2096921,2096921,186991,626656,0
2096921,2096921,187135,626496,0
2096921,2096921,187025,626733,0
2096921,2096921,187093,626438,0
2096921,2096921,186894,626522,0
2096921,2096921,186923,626671,0
2096921,2096921,186988,626701,0
2096921,2096921,187181,626297,0
2096921,2096921,187091,626817,0
2096921,2096921,187182,626688,0
2096921,2096921,187012,626838,0
2096921,2096921,187228,627027,0
2096921,2096921,186916,627101,0
2096921,2096921,187171,626963,0
2096921,2096921,187036,626820,0
2096921,2096921,187134,626710,0
2096921,2096921,186913,626857,0
2096921,2096921,187211,626622,0
2096921,2096921,187000,626882,0
2096921,2096921,187205,626948,0
2096921,2096921,187080,627181,0
2096921,2096921,187307,627236,0
2096921,2096921,187048,627060,0
2096921,2096921,187061,627123,0
2096921,2096921,187124,627004,0
2096921,2096921,187187,627050,0
2096921,2096921,187058,627290,0
2096921,2096921,187047,626935,0
2096921,2096921,187360,627348,0
2096921,2096921,187551,626968,0
2096921,2096921,187265,626950,0
2096921,2096921,187535,627048,0
2096921,2096921,187448,627155,0
2096921,2096921,187419,627160,0
2096921,2096921,187278,627330,0
2096921,2096921,187297,627215,0
2096921,2096921,187114,627306,0
2096921,2096921,187124,627202,0
2096921,2096921,187341,627583,0
2096921,2096921,187245,627286,0
2096921,2096921,187044,627275,0
2096921,2096921,187193,627198,0
2096921,2096921,187289,627516,0
2096921,2096921,187321,627181,0
2096921,2096921,187237,627317,0
2096921,2096921,187078,627666,0
2096921,2096921,187213,627543,0
2096921,2096921,187087,627343,0
2096921,2096921,187247,627468,0
2096921,2096921,187203,627487,0
2096921,2096921,186962,626622,0
2096921,2096921,186955,626679,0
2096921,2096921,186960,626749,0
2096921,2096921,186879,626509,0
2096921,2096921,186616,626484,0
2096921,2096921,186477,625860,0
2096921,2096921,186545,625887,0
2096921,2096921,186808,625681,0
2096921,2096921,186784,625746,0
2096921,2096921,186413,625882,0
2096921,2096921,186405,624917,0
2096921,2096921,186463,624454,0
2096921,2096921,186240,624447,0
2096921,2096921,186104,624113,0
2096921,2096921,185455,624403,0
2096921,2096921,185599,622743,0
2096921,2096921,185806,622583,0
2096921,2096921,185675,622440,0
2096921,2096921,185600,622455,0
2096921,2096921,185053,622371,0
2096921,2096921,184952,620735,0
2096921,2096921,184924,620375,0
2096921,2096921,185091,620518,0
2096921,2096921,184988,620247,0
2096921,2096921,183845,620174,0
2096921,2096921,183665,616511,0
2096921,2096921,183410,615693,0
2096921,2096921,183343,615586,0
2096921,2096921,183750,615777,0
2096921,2096921,182407,615705,0
2096921,2096921,181827,611254,0
2096921,2096921,181915,610345,0
2096921,2096921,182154,610237,0
2096921,2096921,181609,610120,0
2096921,2096921,180830,609762,0
2096921,2096921,180218,606565,0
2096921,2096921,180256,606021,0
2096921,2096921,180286,605744,0
2096921,2096921,180249,606022,0
2096921,2096921,179703,605621,0
2096921,2096921,179680,602939,0
2096921,2096921,179710,602758,0
2096921,2096921,179572,602736,0
2096921,2096921,179489,602380,0
2096921,2096921,178939,602142,0
2096921,2096921,178699,600446,0
2096921,2096921,178693,599923,0
2096921,2096921,178583,599994,0
2096921,2096921,178571,600076,0
2096921,2096921,178260,599993,0
2096921,2096921,178168,598887,0
2096921,2096921,178155,598459,0
2096921,2096921,178027,598702,0
2096921,2096921,178239,598523,0
2096921,2096921,177608,598357,0
2096921,2096921,177837,597199,0
2096921,2096921,177819,597193,0
2096921,2096921,177768,597211,0
2096921,2096921,177681,597387,0
2096921,2096921,177518,597091,0
2096921,2096921,177460,596516,0
2096921,2096921,177702,596506,0
2096921,2096921,177675,596447,0
2096921,2096921,177470,596563,0
2096921,2096921,177527,596404,0
2096921,2096921,177235,596180,0
2096921,2096921,177357,596229,0
2096921,2096921,177394,596285,0
2096921,2096921,177398,596280,0
2096921,2096921,177640,596306,0
2096921,2096921,177443,595989,0
2096921,2096921,177228,596364,0
2096921,2096921,177311,596165,0
2096921,2096921,177350,596241,0
2096921,2096921,177537,596081,0
2096921,2096921,177296,596456,0
2096921,2096921,177484,596530,0
2096921,2096921,177371,596668,0
2096921,2096921,177394,596644,0
2096921,2096921,177614,596899,0
2096921,2096921,177609,596834,0
2096921,2096921,177527,596986,0
2096921,2096921,177641,596899,0
2096921,2096921,177586,596955,0
2096921,2096921,177812,596976,0
2096921,2096921,177815,597243,0
2096921,2096921,177946,597471,0
2096921,2096921,177901,597433,0
2096921,2096921,177818,597285,0
2096921,2096921,178154,597079,0
2096921,2096921,177945,598028,0
2096921,2096921,178143,598334,0
2096921,2096921,178321,598368,0
2096921,2096921,178174,598347,0
2096921,2096921,178237,598303,0
2096921,2096921,178293,598825,0
2096921,2096921,177978,598924,0
2096921,2096921,178207,598788,0
2096921,2096921,178215,598854,0
2096921,2096921,178601,598999,0
2096921,2096921,178360,599785,0
2096921,2096921,178652,600366,0
2096921,2096921,178450,600395,0
2096921,2096921,178570,600063,0
2096921,2096921,178952,600056,0
2096921,2096921,179008,600959,0
2096921,2096921,178656,600856,0
2096921,2096921,178777,601134,0
2096921,2096921,178896,601081,0
2096921,2096921,179179,601427,0
2096921,2096921,179369,601955,0
2096921,2096921,179597,602162,0
2096921,2096921,179181,602209,0
2096921,2096921,179350,602200,0
2096921,2096921,179302,602444,0
2096921,2096921,179482,602575,0
2096921,2096921,179190,602838,0
2096921,2096921,179260,602835,0
2096921,2096921,179370,602802,0
2096921,2096921,179661,602874,0
2096921,2096921,179815,603825,0
2096921,2096921,180156,603780,0
2096921,2096921,179916,604214,0
2096921,2096921,180049,603895,0
2096921,2096921,180158,603538,0
2096921,2096921,180239,604621,0
2096921,2096921,180034,605043,0
2096921,2096921,180242,604925,0
2096921,2096921,180320,604870,0
2096921,2096921,180547,604935,0
2096921,2096921,180530,605528,0
2096921,2096921,180487,605947,0
2096921,2096921,180384,605819,0
2096921,2096921,180483,605915,0
2096921,2096921,180730,606050,0
2096921,2096921,180867,606796,0
2096921,2096921,180602,606806,0
2096921,2096921,180559,606751,0
2096921,2096921,180795,606971,0
2096921,2096921,180738,606677,0
2096921,2096921,181025,607703,0
2096921,2096921,181326,607950,0
2096921,2096921,181331,608163,0
2096921,2096921,180989,608258,0
2096921,2096921,181391,608159,0
2096921,2096921,181484,608736,0
2096921,2096921,181658,608962,0
2096921,2096921,181541,609094,0
2096921,2096921,181706,609102,0
2096921,2096921,181481,608779,0
2096921,2096921,181542,609716,0
2096921,2096921,181557,609878,0
2096921,2096921,181707,609871,0
2096921,2096921,181630,609775,0
2096921,2096921,181795,609769,0
2096921,2096921,181485,610418,0
2096921,2096921,181615,610541,0
2096921,2096921,181940,610602,0
2096921,2096921,181924,610329,0
2096921,2096921,182132,610490,0
2096921,2096921,182228,611283,0
2096921,2096921,182145,611097,0
2096921,2096921,181949,611431,0
2096921,2096921,181864,611305,0
2096921,2096921,182338,611154,0
2096921,2096921,182302,611551,0
2096921,2096921,182002,611541,0
2096921,2096921,181990,611414,0
2096921,2096921,181974,611242,0
2096921,2096921,182057,611542,0
2096921,2096921,182150,611494,0
2096921,2096921,182439,611572,0
2096921,2096921,182212,611762,0
2096921,2096921,182388,611592,0
2096921,2096921,182295,611632,0
2096921,2096921,182157,611699,0
2096921,2096921,182086,611730,0
2096921,2096921,182219,611633,0
2096921,2096921,182075,611622,0
2096921,2096921,182420,611646,0
2096921,2096921,182358,611631,0
2096921,2096921,182120,611705,0
2096921,2096921,182178,611993,0
2096921,2096921,181808,611738,0
2096921,2096921,181865,611496,0
2096921,2096921,182010,611289,0
2096921,2096921,182022,611496,0
2096921,2096921,182054,611137,0
2096921,2096921,182061,611387,0
2096921,2096921,182033,611426,0
2096921,2096921,181998,610845,0
2096921,2096921,181845,610705,0
2096921,2096921,182262,610826,0
2096921,2096921,182046,611053,0
2096921,2096921,182036,611230,0
2096921,2096921,181867,610638,0
2096921,2096921,181866,610555,0
2096921,2096921,181713,610696,0
2096921,2096921,181742,610437,0
2096921,2096921,182095,610659,0
2096921,2096921,181942,610008,0
2096921,2096921,181614,609831,0
2096921,2096921,181551,610176,0
2096921,2096921,181599,609987,0
2096921,2096921,181540,609926,0
2096921,2096921,181611,609595,0
2096921,2096921,181661,609555,0
2096921,2096921,181508,609842,0
2096921,2096921,181791,609794,0
