2096921,2096921,153736,646733,0
2096921,2096921,153671,647011,0
2096921,2096921,153794,647006,0
2096921,2096921,153830,647116,0
2096921,2096921,153996,646916,0
2096921,2096921,153914,647118,0
2096921,2096921,154021,647480,0
2096921,2096921,153826,647313,0
2096921,2096921,153875,647194,0
2096921,2096921,153618,647381,0
2096921,2096921,153841,647069,0
2096921,2096921,153921,647397,0
2096921,2096921,153926,647351,0
2096921,2096921,153960,647498,0
2096921,2096921,153921,647522,0
2096921,2096921,153949,647590,0
2096921,2096921,153795,647417,0
2096921,2096921,154256,647802,0
2096921,2096921,153935,647768,0
2096921,2096921,153923,647837,0
2096921,2096921,154113,648112,0
2096921,2096921,154080,648000,0
2096921,2096921,154018,648389,0
2096921,2096921,154188,648318,0
2096921,2096921,154302,648319,0
2096921,2096921,154527,648115,0
2096921,2096921,154598,648607,0
2096921,2096921,154428,648557,0
2096921,2096921,154473,648917,0
2096921,2096921,154600,648930,0
2096921,2096921,154256,648911,0
2096921,2096921,154555,648982,0
2096921,2096921,154566,649472,0
2096921,2096921,154668,649486,0
2096921,2096921,154604,649526,0
2096921,2096921,154540,649376,0
2096921,2096921,154727,649650,0
2096921,2096921,154709,649948,0
2096921,2096921,154794,650136,0
2096921,2096921,154901,649846,0
2096921,2096921,154890,649833,0
2096921,2096921,154683,650016,0
2096921,2096921,154782,650542,0
2096921,2096921,154680,650548,0
2096921,2096921,154793,650269,0
2096921,2096921,155004,650234,0
2096921,2096921,155132,650595,0
2096921,2096921,154970,650929,0
2096921,2096921,154887,650637,0
2096921,2096921,155244,651237,0
2096921,2096921,155113,651093,0
2096921,2096921,155231,651351,0
2096921,2096921,155398,651711,0
2096921,2096921,155442,651651,0
2096921,2096921,155077,651643,0
2096921,2096921,155228,651801,0
2096921,2096921,155229,652002,0
2096921,2096921,155425,652071,0
2096921,2096921,155390,652090,0
2096921,2096921,155436,652043,0
2096921,2096921,155315,652145,0
2096921,2096921,155614,652136,0
2096921,2096921,155405,652753,0
2096921,2096921,155749,652777,0
2096921,2096921,155541,652783,0
2096921,2096921,155736,652787,0
2096921,2096921,155862,653351,0
2096921,2096921,155601,653341,0
2096921,2096921,155679,653505,0
2096921,2096921,155861,653211,0
2096921,2096921,155637,653565,0
2096921,2096921,155832,653633,0
2096921,2096921,156020,653956,0
2096921,2096921,155966,653978,0
2096921,2096921,156157,653964,0
2096921,2096921,156011,653946,0
2096921,2096921,156129,654014,0
2096921,2096921,155946,654338,0
2096921,2096921,156456,654297,0
2096921,2096921,156104,654433,0
2096921,2096921,156177,654300,0
2096921,2096921,156397,654812,0
2096921,2096921,156216,654876,0
2096921,2096921,156074,654817,0
2096921,2096921,156303,654980,0
2096921,2096921,156161,654988,0
2096921,2096921,156323,655191,0
2096921,2096921,156372,655355,0
2096921,2096921,156222,655211,0
2096921,2096921,156249,655223,0
2096921,2096921,156432,655303,0
2096921,2096921,156740,655482,0
2096921,2096921,156476,655399,0
2096921,2096921,156629,655620,0
2096921,2096921,156276,655417,0
2096921,2096921,156648,655680,0
2096921,2096921,156607,655680,0
2096921,2096921,156421,655496,0
2096921,2096921,156298,655657,0
2096921,2096921,156488,655887,0
2096921,2096921,156347,655917,0
2096921,2096921,156385,655931,0
2096921,2096921,156343,656107,0
2096921,2096921,156514,655818,0
2096921,2096921,156643,655822,0
2096921,2096921,156692,656160,0
2096921,2096921,156638,655984,0
2096921,2096921,156827,656153,0
2096921,2096921,156480,656169,0
2096921,2096921,156583,656247,0
2096921,2096921,156762,656347,0
2096921,2096921,156529,656065,0
2096921,2096921,156502,656166,0
2096921,2096921,156450,656051,0
2096921,2096921,156541,656254,0
2096921,2096921,156591,656482,0
2096921,2096921,156486,656170,0
2096921,2096921,156364,656096,0
2096921,2096921,156362,655985,0
2096921,2096921,156533,656071,0
2096921,2096921,156341,656001,0
2096921,2096921,156426,656048,0
2096921,2096921,156346,656022,0
2096921,2096921,156751,656142,0
2096921,2096921,156724,656183,0
2096921,2096921,156576,656049,0
2096921,2096921,156446,656123,0
2096921,2096921,156623,655592,0
2096921,2096921,156377,655790,0
2096921,2096921,156456,655822,0
2096921,2096921,156665,655818,0
2096921,2096921,156693,655578,0
2096921,2096921,156640,655735,0
2096921,2096921,156384,656237,0
2096921,2096921,156439,655954,0
2096921,2096921,156482,656038,0
2096921,2096921,156478,655833,0
2096921,2096921,156436,656095,0
2096921,2096921,156450,656282,0
2096921,2096921,156477,656115,0
2096921,2096921,156574,656293,0
2096921,2096921,156637,656122,0
2096921,2096921,156577,656084,0
2096921,2096921,156477,656345,0
2096921,2096921,156899,656445,0
2096921,2096921,156830,656587,0
2096921,2096921,156556,656474,0
2096921,2096921,156302,656738,0
2096921,2096921,156399,656633,0
2096921,2096921,156385,656757,0
2096921,2096921,156535,656609,0
2096921,2096921,156699,656832,0
2096921,2096921,156603,656692,0
2096921,2096921,156705,656850,0
2096921,2096921,156578,656745,0
2096921,2096921,156618,656921,0
2096921,2096921,156724,656856,0
2096921,2096921,156798,657284,0
2096921,2096921,156802,656953,0
2096921,2096921,156906,657101,0
2096921,2096921,156747,656965,0
2096921,2096921,157020,657275,0
2096921,2096921,157038,657440,0
2096921,2096921,157261,657593,0
2096921,2096921,157216,657845,0
2096921,2096921,157123,657552,0
2096921,2096921,157012,657876,0
2096921,2096921,157111,658097,0
2096921,2096921,157303,658035,0
2096921,2096921,157155,658398,0
2096921,2096921,157200,658524,0
2096921,2096921,157344,658303,0
2096921,2096921,157361,658691,0
2096921,2096921,157497,658900,0
2096921,2096921,157136,658984,0
2096921,2096921,157623,658836,0
2096921,2096921,157381,658958,0
2096921,2096921,157439,659065,0
2096921,2096921,157573,659236,0
2096921,2096921,157362,659305,0
2096921,2096921,157629,659274,0
2096921,2096921,157412,659462,0
2096921,2096921,157749,659736,0
2096921,2096921,157458,659689,0
2096921,2096921,157635,659816,0
2096921,2096921,157713,660037,0
2096921,2096921,157822,660022,0
2096921,2096921,157716,660154,0
2096921,2096921,157757,659890,0
2096921,2096921,157928,660384,0
2096921,2096921,157533,660152,0
2096921,2096921,157819,660400,0
2096921,2096921,157813,660574,0
2096921,2096921,158003,660459,0
2096921,2096921,157660,660887,0
2096921,2096921,157940,660905,0
2096921,2096921,157948,660956,0
2096921,2096921,158222,661112,0
2096921,2096921,158027,661286,0
2096921,2096921,158252,661359,0
2096921,2096921,157899,661128,0
2096921,2096921,158144,661353,0
2096921,2096921,158071,661470,0
2096921,2096921,158342,661659,0
2096921,2096921,158412,661821,0
2096921,2096921,158464,661813,0
2096921,2096921,158326,662077,0
2096921,2096921,158305,662320,0
2096921,2096921,158245,662165,0
2096921,2096921,158233,662155,0
2096921,2096921,158169,662324,0
2096921,2096921,158388,662461,0
2096921,2096921,158364,662853,0
2096921,2096921,158768,662466,0
2096921,2096921,158423,662659,0
2096921,2096921,158440,662603,0
2096921,2096921,158376,663101,0
2096921,2096921,158579,663587,0
2096921,2096921,158736,663421,0
2096921,2096921,158784,663313,0
2096921,2096921,158982,663468,0
2096921,2096921,158603,663308,0
2096921,2096921,158873,663833,0
2096921,2096921,158775,663884,0
2096921,2096921,158900,663705,0
2096921,2096921,158751,663666,0
2096921,2096921,158949,663863,0
2096921,2096921,158757,664120,0
2096921,2096921,158807,664086,0
2096921,2096921,158701,664358,0
2096921,2096921,158778,664304,0
2096921,2096921,158893,664706,0
2096921,2096921,159173,664640,0
2096921,2096921,159003,664974,0
2096921,2096921,159161,664688,0
2096921,2096921,159032,664940,0
2096921,2096921,159133,665049,0
2096921,2096921,159264,665247,0
2096921,2096921,159000,665222,0
2096921,2096921,159304,665100,0
2096921,2096921,159180,665456,0
2096921,2096921,159179,665440,0
2096921,2096921,159446,665830,0
2096921,2096921,159272,665767,0
2096921,2096921,159109,665829,0
2096921,2096921,159304,665757,0
2096921,2096921,159491,665662,0
2096921,2096921,159437,666124,0
2096921,2096921,159237,666130,0
2096921,2096921,159489,666012,0
2096921,2096921,159460,666126,0
2096921,2096921,159495,666759,0
2096921,2096921,159455,666923,0
2096921,2096921,159695,666964,0
2096921,2096921,159610,666797,0
2096921,2096921,159730,666834,0
2096921,2096921,159593,666840,0
2096921,2096921,159572,667172,0
2096921,2096921,159850,667077,0
2096921,2096921,159791,666916,0
2096921,2096921,159745,667441,0
2096921,2096921,159719,667495,0
2096921,2096921,159593,667409,0
2096921,2096921,159997,667646,0
2096921,2096921,160241,667430,0
2096921,2096921,159997,667962,0
2096921,2096921,159956,667663,0
2096921,2096921,159870,667730,0
2096921,2096921,159813,667887,0
2096921,2096921,159737,667955,0
2096921,2096921,159888,667917,0
2096921,2096921,159981,668270,0
2096921,2096921,160047,668232,0
2096921,2096921,159980,668577,0
2096921,2096921,160008,668664,0
2096921,2096921,159985,668749,0
2096921,2096921,160020,668652,0
2096921,2096921,160390,669035,0
2096921,2096921,160035,668869,0
2096921,2096921,160162,669081,0
2096921,2096921,160391,668748,0
2096921,2096921,160474,669237,0
2096921,2096921,160533,669473,0
2096921,2096921,160187,669321,0
2096921,2096921,160264,669110,0
2096921,2096921,160317,668941,0
2096921,2096921,160410,669447,0
2096921,2096921,160409,669746,0
2096921,2096921,160363,669837,0
2096921,2096921,160658,669768,0
2096921,2096921,160553,669648,0
2096921,2096921,160541,669851,0
2096921,2096921,160469,670125,0
2096921,2096921,160649,670356,0
2096921,2096921,160749,670120,0
2096921,2096921,160663,670331,0
2096921,2096921,160661,670262,0
2096921,2096921,160736,670792,0
2096921,2096921,160556,670719,0
2096921,2096921,160664,670221,0
2096921,2096921,160852,670769,0
2096921,2096921,160876,671090,0
2096921,2096921,160944,670757,0
2096921,2096921,160811,671075,0
2096921,2096921,160666,670824,0
2096921,2096921,160596,670956,0
2096921,2096921,160935,671063,0
2096921,2096921,161113,671109,0
2096921,2096921,160833,671319,0
2096921,2096921,160836,670924,0
2096921,2096921,160754,671218,0
2096921,2096921,160970,671263,0
2096921,2096921,160941,671563,0
2096921,2096921,160995,671401,0
2096921,2096921,161224,671694,0
2096921,2096921,160971,671703,0
2096921,2096921,161064,671780,0
2096921,2096921,161128,671617,0
2096921,2096921,161365,672166,0
2096921,2096921,161091,671793,0
2096921,2096921,161429,671948,0
2096921,2096921,161197,671906,0
2096921,2096921,160984,672059,0
2096921,2096921,160986,672269,0
2096921,2096921,161186,672451,0
2096921,2096921,161052,672495,0
2096921,2096921,161059,672554,0
2096921,2096921,161093,672808,0
2096921,2096921,161430,672901,0
2096921,2096921,161242,672887,0
2096921,2096921,161240,672735,0
2096921,2096921,161270,672815,0
2096921,2096921,161599,672934,0
2096921,2096921,161219,673109,0
2096921,2096921,161199,672801,0
2096921,2096921,161268,673020,0
2096921,2096921,161758,673102,0
2096921,2096921,161455,673553,0
2096921,2096921,161452,673538,0
2096921,2096921,161479,673193,0
2096921,2096921,161157,673360,0
2096921,2096921,161652,673511,0
2096921,2096921,161560,673669,0
2096921,2096921,161501,673818,0
2096921,2096921,161566,673776,0
2096921,2096921,161647,673757,0
2096921,2096921,161698,673983,0
2096921,2096921,161490,674135,0
2096921,2096921,161349,673938,0
2096921,2096921,161582,673854,0
2096921,2096921,161743,673992,0
2096921,2096921,161782,674351,0
2096921,2096921,161861,674261,0
2096921,2096921,161858,674398,0
2096921,2096921,161876,674514,0
2096921,2096921,161737,674405,0
2096921,2096921,161723,674743,0
2096921,2096921,161776,674404,0
2096921,2096921,161746,674644,0
2096921,2096921,161696,674724,0
2096921,2096921,162264,674539,0
2096921,2096921,161834,674682,0
2096921,2096921,161791,674918,0
2096921,2096921,161826,674935,0
2096921,2096921,161906,675052,0
2096921,2096921,162057,675309,0
2096921,2096921,161797,675242,0
2096921,2096921,161934,675290,0
2096921,2096921,161895,675290,0
2096921,2096921,162081,675471,0
2096921,2096921,161979,675153,0
2096921,2096921,162036,675350,0
2096921,2096921,161981,675766,0
2096921,2096921,162159,675714,0
2096921,2096921,162032,675512,0
2096921,2096921,161964,675843,0
2096921,2096921,162107,675710,0
2096921,2096921,161959,675787,0
2096921,2096921,161877,676025,0
2096921,2096921,162238,676101,0
2096921,2096921,162033,676008,0
2096921,2096921,162054,676007,0
2096921,2096921,162203,676278,0
2096921,2096921,162590,676259,0
2096921,2096921,162097,676263,0
2096921,2096921,162464,676189,0
2096921,2096921,162223,676093,0
2096921,2096921,162299,676414,0
2096921,2096921,162220,676253,0
2096921,2096921,162564,676327,0
2096921,2096921,162270,676350,0
2096921,2096921,162471,676450,0
2096921,2096921,162363,676471,0
2096921,2096921,162636,676781,0
2096921,2096921,162498,676845,0
2096921,2096921,162615,676785,0
2096921,2096921,162611,676799,0
2096921,2096921,161860,676856,0
2096921,2096921,162408,676315,0
2096921,2096921,162277,676542,0
2096921,2096921,162405,676998,0
2096921,2096921,162323,676754,0
2096921,2096921,162456,677028,0
2096921,2096921,162230,677095,0
2096921,2096921,162532,676838,0
2096921,2096921,162418,676793,0
2096921,2096921,162363,677014,0
2096921,2096921,162441,677127,0
2096921,2096921,162341,677271,0
2096921,2096921,162384,677224,0
2096921,2096921,162270,677177,0
2096921,2096921,162337,677262,0
2096921,2096921,162471,677618,0
2096921,2096921,162648,677318,0
2096921,2096921,162549,677429,0
2096921,2096921,162555,677575,0
2096921,2096921,162524,677384,0
2096921,2096921,162406,677240,0
2096921,2096921,162504,677474,0
2096921,2096921,162436,677743,0
2096921,2096921,162359,677672,0
2096921,2096921,162680,677766,0
2096921,2096921,162301,677941,0
2096921,2096921,162564,677700,0
2096921,2096921,162666,678056,0
2096921,2096921,162373,677778,0
2096921,2096921,162526,677517,0
2096921,2096921,162324,677711,0
2096921,2096921,162221,677871,0
2096921,2096921,162426,677403,0
2096921,2096921,162800,677827,0
2096921,2096921,162484,677509,0
2096921,2096921,162756,677440,0
2096921,2096921,162777,677633,0
2096921,2096921,162708,677600,0
2096921,2096921,162612,677669,0
2096921,2096921,162359,677347,0
2096921,2096921,162203,676764,0
2096921,2096921,162173,676874,0
2096921,2096921,162367,677130,0
2096921,2096921,162027,677037,0
2096921,2096921,161910,676635,0
2096921,2096921,161844,676256,0
2096921,2096921,161945,676121,0
2096921,2096921,162004,676214,0
2096921,2096921,162033,676173,0
2096921,2096921,161595,675606,0
2096921,2096921,161791,675586,0
2096921,2096921,161855,675174,0
2096921,2096921,161656,675354,0
2096921,2096921,161764,675276,0
2096921,2096921,161310,674145,0
2096921,2096921,161177,673360,0
2096921,2096921,161263,673286,0
2096921,2096921,160931,672922,0
2096921,2096921,161102,672842,0
2096921,2096921,160274,671807,0
2096921,2096921,160227,670697,0
2096921,2096921,160192,670050,0
2096921,2096921,160118,670257,0
2096921,2096921,160101,670398,0
2096921,2096921,159733,669329,0
2096921,2096921,159246,668813,0
2096921,2096921,159510,668338,0
2096921,2096921,159353,668416,0
2096921,2096921,159445,668325,0
2096921,2096921,159219,667725,0
2096921,2096921,159027,667044,0
2096921,2096921,158869,667022,0
2096921,2096921,158754,666639,0
2096921,2096921,158706,666772,0
2096921,2096921,158557,666150,0
2096921,2096921,158597,665963,0
2096921,2096921,158842,665532,0
2096921,2096921,158811,665541,0
2096921,2096921,158398,665815,0
2096921,2096921,158456,665307,0
2096921,2096921,158163,664883,0
2096921,2096921,158610,664962,0
2096921,2096921,158184,665056,0
2096921,2096921,158384,665098,0
2096921,2096921,158194,664952,0
2096921,2096921,158130,664486,0
2096921,2096921,158170,664710,0
2096921,2096921,158272,664350,0
2096921,2096921,158115,664093,0
2096921,2096921,157935,664694,0
2096921,2096921,158023,664400,0
2096921,2096921,158123,664187,0
2096921,2096921,158062,664490,0
2096921,2096921,158190,664235,0
2096921,2096921,158059,664268,0
2096921,2096921,158060,664368,0
2096921,2096921,158148,664317,0
2096921,2096921,158275,664356,0
2096921,2096921,158548,664537,0
2096921,2096921,158283,664461,0
2096921,2096921,158561,664292,0
2096921,2096921,158228,664425,0
2096921,2096921,158401,664516,0
2096921,2096921,158047,664578,0
2096921,2096921,158354,664734,0
2096921,2096921,158212,664946,0
2096921,2096921,158401,665096,0
2096921,2096921,158764,665030,0
2096921,2096921,158384,664766,0
2096921,2096921,158281,665076,0
2096921,2096921,158382,665364,0
2096921,2096921,158303,665270,0
2096921,2096921,158343,665263,0
2096921,2096921,158367,665187,0
2096921,2096921,158532,665230,0
2096921,2096921,158467,665606,0
2096921,2096921,158375,665733,0
2096921,2096921,158576,665795,0
2096921,2096921,158325,665353,0
2096921,2096921,158906,665793,0
2096921,2096921,158880,665947,0
2096921,2096921,158708,666355,0
2096921,2096921,158788,666291,0
2096921,2096921,158790,666230,0
2096921,2096921,158711,666438,0
2096921,2096921,158942,666437,0
2096921,2096921,158872,666711,0
2096921,2096921,158657,666573,0
2096921,2096921,158775,666853,0
2096921,2096921,159079,667064,0
2096921,2096921,158839,667431,0
2096921,2096921,159079,667212,0
2096921,2096921,159280,667208,0
2096921,2096921,159112,667599,0
2096921,2096921,159319,667777,0
2096921,2096921,159174,667904,0
2096921,2096921,159386,668211,0
2096921,2096921,159091,668293,0
2096921,2096921,159138,668384,0
2096921,2096921,159314,668732,0
2096921,2096921,159308,668684,0
2096921,2096921,159563,668711,0
2096921,2096921,159326,668620,0
2096921,2096921,159317,668772,0
2096921,2096921,159350,668731,0
2096921,2096921,159612,669456,0
2096921,2096921,159503,669621,0
2096921,2096921,159671,669316,0
2096921,2096921,159645,669402,0
2096921,2096921,160264,669709,0
2096921,2096921,159778,669811,0
2096921,2096921,159610,670149,0
2096921,2096921,159595,669885,0
2096921,2096921,159758,669857,0
2096921,2096921,159913,670099,0
2096921,2096921,159958,670804,0
2096921,2096921,159876,670478,0
2096921,2096921,159970,670531,0
2096921,2096921,159907,670829,0
2096921,2096921,160036,670583,0
2096921,2096921,160026,671056,0
2096921,2096921,160126,671206,0
2096921,2096921,159904,671309,0
2096921,2096921,160145,671328,0
2096921,2096921,160393,671507,0
2096921,2096921,160297,671718,0
2096921,2096921,160457,671754,0
2096921,2096921,160294,671804,0
2096921,2096921,160436,672169,0
2096921,2096921,160722,672461,0
2096921,2096921,160479,672861,0
2096921,2096921,160589,672503,0
2096921,2096921,160688,672503,0
2096921,2096921,160742,672609,0
2096921,2096921,160772,672575,0
2096921,2096921,160822,673036,0
2096921,2096921,160859,673090,0
2096921,2096921,160959,673122,0
2096921,2096921,160840,672896,0
2096921,2096921,160868,673433,0
2096921,2096921,161019,673400,0
2096921,2096921,161210,673460,0
2096921,2096921,160791,673441,0
2096921,2096921,161081,673737,0
2096921,2096921,161018,674039,0
2096921,2096921,161071,674250,0
2096921,2096921,161172,674322,0
2096921,2096921,161265,674044,0
2096921,2096921,161140,674010,0
2096921,2096921,161321,674541,0
2096921,2096921,161182,674661,0
2096921,2096921,161402,674671,0
2096921,2096921,161133,674278,0
2096921,2096921,161146,674132,0
2096921,2096921,161041,674483,0
2096921,2096921,161267,674686,0
2096921,2096921,161247,674755,0
2096921,2096921,161210,674573,0
2096921,2096921,161230,674702,0
2096921,2096921,161421,674792,0
2096921,2096921,161709,674834,0
2096921,2096921,161452,674898,0
2096921,2096921,161474,675000,0
2096921,2096921,161213,675019,0
2096921,2096921,161173,675030,0
2096921,2096921,161389,674935,0
2096921,2096921,161096,675018,0
2096921,2096921,161263,674836,0
2096921,2096921,161524,674979,0
2096921,2096921,161400,675075,0
2096921,2096921,161419,674912,0
2096921,2096921,161316,674967,0
2096921,2096921,161261,674832,0
2096921,2096921,161156,674930,0
2096921,2096921,161328,675215,0
2096921,2096921,161605,675282,0
2096921,2096921,161549,674947,0
2096921,2096921,161330,674925,0
2096921,2096921,161349,674977,0
2096921,2096921,161500,674817,0
2096921,2096921,161481,674716,0
2096921,2096921,161388,674435,0
2096921,2096921,161246,674832,0
2096921,2096921,161240,674887,0
2096921,2096921,161465,674506,0
2096921,2096921,161394,674747,0
2096921,2096921,161211,674924,0
2096921,2096921,161152,674674,0
2096921,2096921,161316,674697,0
2096921,2096921,161229,674600,0
2096921,2096921,161155,674567,0
2096921,2096921,160912,674376,0
2096921,2096921,161057,674635,0
2096921,2096921,160967,674298,0
2096921,2096921,161032,674382,0
2096921,2096921,161166,674262,0
2096921,2096921,160914,674551,0
2096921,2096921,161076,674509,0
2096921,2096921,161114,674654,0
2096921,2096921,161334,674211,0
2096921,2096921,161027,674430,0
2096921,2096921,161082,674166,0
2096921,2096921,161110,674241,0
2096921,2096921,161183,674226,0
2096921,2096921,161097,674585,0
2096921,2096921,160860,674423,0
2096921,2096921,161036,674379,0
2096921,2096921,161067,674398,0
2096921,2096921,161033,674214,0
2096921,2096921,160781,674416,0
2096921,2096921,160900,674264,0
2096921,2096921,161157,674408,0
2096921,2096921,161165,674238,0
2096921,2096921,161056,674212,0
2096921,2096921,161010,674278,0
2096921,2096921,161029,674442,0
2096921,2096921,161150,674367,0
2096921,2096921,161184,674606,0
2096921,2096921,161135,674577,0
2096921,2096921,161170,674705,0
2096921,2096921,161238,674485,0
2096921,2096921,161117,674648,0
2096921,2096921,161013,674396,0
2096921,2096921,161504,674809,0
2096921,2096921,161268,674963,0
2096921,2096921,161166,675075,0
2096921,2096921,161314,675190,0
2096921,2096921,161336,675066,0
2096921,2096921,161266,675246,0
2096921,2096921,161510,675322,0
2096921,2096921,161364,675457,0
2096921,2096921,161415,675314,0
2096921,2096921,161515,675466,0
2096921,2096921,161759,675546,0
2096921,2096921,161436,675364,0
2096921,2096921,161380,675501,0
2096921,2096921,161945,675572,0
2096921,2096921,161587,675766,0
2096921,2096921,161697,675872,0
2096921,2096921,161799,676182,0
2096921,2096921,161522,676160,0
2096921,2096921,161390,676011,0
2096921,2096921,161418,676381,0
2096921,2096921,161576,676297,0
2096921,2096921,161592,676292,0
2096921,2096921,161848,676279,0
2096921,2096921,161760,676501,0
2096921,2096921,161883,676343,0
2096921,2096921,161970,676355,0
2096921,2096921,162132,676470,0
2096921,2096921,161593,676643,0
2096921,2096921,162039,676903,0
2096921,2096921,161997,676976,0
2096921,2096921,161803,676556,0
2096921,2096921,161900,676756,0
2096921,2096921,162083,676736,0
2096921,2096921,161942,676942,0
2096921,2096921,161900,677047,0
2096921,2096921,161967,677016,0
2096921,2096921,161899,677253,0
2096921,2096921,162029,677437,0
2096921,2096921,161777,677351,0
2096921,2096921,161873,677510,0
2096921,2096921,161738,677615,0
2096921,2096921,162232,677930,0
2096921,2096921,162013,677691,0
2096921,2096921,161889,677571,0
2096921,2096921,162054,677849,0
2096921,2096921,161954,678030,0
2096921,2096921,162054,677884,0
2096921,2096921,162106,677966,0
2096921,2096921,162330,677815,0
2096921,2096921,162208,677699,0
2096921,2096921,162085,678115,0
2096921,2096921,162347,678008,0
2096921,2096921,162403,677693,0
2096921,2096921,162456,678050,0
2096921,2096921,162307,678235,0
2096921,2096921,162531,678175,0
2096921,2096921,162709,678632,0
2096921,2096921,162671,678604,0
2096921,2096921,162414,678614,0
2096921,2096921,162512,678514,0
2096921,2096921,162592,678399,0
2096921,2096921,162435,678389,0
2096921,2096921,162597,678641,0
2096921,2096921,162534,678668,0
2096921,2096921,162344,678647,0
2096921,2096921,162436,678650,0
2096921,2096921,162439,678758,0
2096921,2096921,162470,678985,0
2096921,2096921,162498,678923,0
2096921,2096921,162691,679256,0
2096921,2096921,162436,679043,0
2096921,2096921,162761,679196,0
2096921,2096921,162796,679483,0
2096921,2096921,162880,679408,0
2096921,2096921,162893,679361,0
2096921,2096921,162788,679626,0
2096921,2096921,162804,679550,0
2096921,2096921,162734,679965,0
2096921,2096921,162834,679522,0
2096921,2096921,162846,679773,0
2096921,2096921,162907,679486,0
2096921,2096921,162660,679782,0
2096921,2096921,162807,679833,0
2096921,2096921,162989,679863,0
2096921,2096921,162742,679819,0
2096921,2096921,162852,679843,0
2096921,2096921,162649,680142,0
2096921,2096921,163087,679722,0
2096921,2096921,162991,679909,0
2096921,2096921,162891,679696,0
2096921,2096921,163033,680273,0
2096921,2096921,162925,680320,0
2096921,2096921,163104,680200,0
2096921,2096921,163171,680149,0
2096921,2096921,163143,680445,0
2096921,2096921,163169,680169,0
2096921,2096921,163168,680542,0
2096921,2096921,162923,680264,0
2096921,2096921,163064,680294,0
2096921,2096921,163054,680188,0
2096921,2096921,162752,680569,0
2096921,2096921,163029,680361,0
2096921,2096921,163180,680377,0
2096921,2096921,163101,680607,0
2096921,2096921,163330,680568,0
2096921,2096921,163223,680706,0
2096921,2096921,163441,680892,0
2096921,2096921,163397,680804,0
2096921,2096921,163280,680817,0
2096921,2096921,163148,681024,0
2096921,2096921,163555,681007,0
2096921,2096921,163142,681058,0
2096921,2096921,163280,680948,0
2096921,2096921,163373,680937,0
2096921,2096921,163568,680989,0
2096921,2096921,163351,681052,0
2096921,2096921,163332,681436,0
2096921,2096921,163214,681339,0
2096921,2096921,163195,681508,0
2096921,2096921,163366,680968,0
2096921,2096921,163301,681246,0
2096921,2096921,163335,681362,0
2096921,2096921,163275,681473,0
2096921,2096921,163303,681434,0
2096921,2096921,163425,681386,0
2096921,2096921,163695,681311,0
2096921,2096921,163281,681468,0
2096921,2096921,163340,681978,0
2096921,2096921,163166,681785,0
2096921,2096921,163364,681542,0
2096921,2096921,163255,681717,0
2096921,2096921,163305,681519,0
2096921,2096921,163399,681622,0
2096921,2096921,163281,681803,0
2096921,2096921,163561,681540,0
2096921,2096921,163454,681474,0
2096921,2096921,163660,681931,0
2096921,2096921,163361,681881,0
2096921,2096921,163429,681866,0
2096921,2096921,163488,681571,0
2096921,2096921,163279,681772,0
2096921,2096921,163345,682034,0
2096921,2096921,163583,681618,0
2096921,2096921,163403,682138,0
2096921,2096921,163539,681848,0
2096921,2096921,163566,681690,0
2096921,2096921,163607,681838,0
2096921,2096921,163618,681992,0
2096921,2096921,163580,681887,0
2096921,2096921,163373,681925,0
2096921,2096921,163532,681670,0
2096921,2096921,163334,682254,0
2096921,2096921,163751,681776,0
2096921,2096921,163510,682101,0
2096921,2096921,163405,682023,0
2096921,2096921,163814,682077,0
2096921,2096921,163426,682009,0
2096921,2096921,163923,681863,0
2096921,2096921,163453,681620,0
2096921,2096921,163666,681873,0
2096921,2096921,163554,681803,0
2096921,2096921,163361,681841,0
2096921,2096921,163469,681791,0
2096921,2096921,163670,682097,0
2096921,2096921,163454,681734,0
2096921,2096921,163682,681917,0
2096921,2096921,163615,682015,0
2096921,2096921,163592,681893,0
2096921,2096921,163773,681946,0
2096921,2096921,163853,682071,0
2096921,2096921,163718,682012,0
2096921,2096921,163614,681665,0
2096921,2096921,163396,681950,0
2096921,2096921,163494,681899,0
2096921,2096921,163552,681847,0
2096921,2096921,163399,681979,0
2096921,2096921,163461,682171,0
2096921,2096921,163697,681895,0
2096921,2096921,163263,682027,0
2096921,2096921,163459,682005,0
2096921,2096921,163564,681894,0
2096921,2096921,163575,681881,0
2096921,2096921,163561,681919,0
2096921,2096921,163527,682010,0
2096921,2096921,163463,681854,0
2096921,2096921,163478,681985,0
2096921,2096921,163639,681873,0
2096921,2096921,163538,682058,0
2096921,2096921,163761,682219,0
2096921,2096921,163527,682145,0
2096921,2096921,163808,682070,0
2096921,2096921,163866,682216,0
2096921,2096921,163648,682067,0
2096921,2096921,163855,682079,0
2096921,2096921,163792,682043,0
2096921,2096921,163514,682186,0
2096921,2096921,163553,682001,0
2096921,2096921,163810,681985,0
2096921,2096921,163552,681922,0
2096921,2096921,163416,681981,0
2096921,2096921,163632,682026,0
2096921,2096921,163760,681896,0
2096921,2096921,163407,682069,0
2096921,2096921,163669,681984,0
2096921,2096921,163623,682006,0
2096921,2096921,163415,682084,0
2096921,2096921,163757,682118,0
2096921,2096921,163657,681759,0
2096921,2096921,163641,682012,0
2096921,2096921,163604,682031,0
2096921,2096921,163964,681909,0
2096921,2096921,163622,681717,0
2096921,2096921,163678,681792,0
2096921,2096921,163438,681963,0
2096921,2096921,163535,681868,0
2096921,2096921,163537,681843,0
2096921,2096921,163565,681827,0
2096921,2096921,163728,681789,0
2096921,2096921,163563,681846,0
2096921,2096921,163658,681763,0
2096921,2096921,163517,681382,0
2096921,2096921,163500,681600,0
2096921,2096921,163381,681498,0
2096921,2096921,163642,681591,0
2096921,2096921,163571,681409,0
2096921,2096921,163262,681641,0
2096921,2096921,163370,681720,0
2096921,2096921,163392,681584,0
2096921,2096921,163347,681507,0
2096921,2096921,163653,681371,0
2096921,2096921,163191,681580,0
2096921,2096921,163632,681379,0
2096921,2096921,163581,681213,0
2096921,2096921,163298,681129,0
2096921,2096921,163412,681410,0
2096921,2096921,163485,681125,0
2096921,2096921,163395,681204,0
2096921,2096921,163701,681171,0
2096921,2096921,163453,681098,0
2096921,2096921,163585,680987,0
2096921,2096921,163212,681059,0
2096921,2096921,163334,681049,0
2096921,2096921,163010,681077,0
2096921,2096921,163452,681000,0
2096921,2096921,163487,681094,0
2096921,2096921,163362,680956,0
2096921,2096921,163445,681049,0
2096921,2096921,163295,680813,0
2096921,2096921,163337,680867,0
2096921,2096921,163572,680760,0
2096921,2096921,163352,680604,0
2096921,2096921,163055,680640,0
2096921,2096921,163497,680507,0
2096921,2096921,163412,680494,0
2096921,2096921,163436,680503,0
2096921,2096921,163373,680562,0
2096921,2096921,163196,680478,0
2096921,2096921,163408,680355,0
2096921,2096921,163259,680407,0
2096921,2096921,163152,680702,0
2096921,2096921,163143,680279,0
2096921,2096921,163229,680370,0
2096921,2096921,163210,680384,0
2096921,2096921,163540,680225,0
2096921,2096921,163216,680320,0
2096921,2096921,163040,680100,0
2096921,2096921,162868,679920,0
2096921,2096921,162835,679507,0
2096921,2096921,163010,679563,0
2096921,2096921,163166,679706,0
2096921,2096921,163025,679014,0
2096921,2096921,162717,679186,0
2096921,2096921,163030,678703,0
2096921,2096921,162869,679147,0
2096921,2096921,162515,679038,0
2096921,2096921,162731,678767,0
2096921,2096921,162532,678614,0
2096921,2096921,162517,677751,0
2096921,2096921,162250,677745,0
2096921,2096921,162353,677623,0
2096921,2096921,162200,677728,0
2096921,2096921,162145,677181,0
2096921,2096921,162232,677046,0
2096921,2096921,162032,676640,0
2096921,2096921,162129,676674,0
2096921,2096921,162027,676755,0
2096921,2096921,161902,676442,0
2096921,2096921,161605,675474,0
2096921,2096921,161844,674917,0
2096921,2096921,161730,675136,0
2096921,2096921,161908,675200,0
2096921,2096921,160951,674334,0
2096921,2096921,160689,673326,0
2096921,2096921,161004,672998,0
2096921,2096921,160705,672810,0
2096921,2096921,161015,672793,0
2096921,2096921,160248,671178,0
2096921,2096921,160010,669983,0
2096921,2096921,160037,669467,0
2096921,2096921,160067,669671,0
2096921,2096921,159992,669424,0
2096921,2096921,159365,668506,0
2096921,2096921,159258,667295,0
2096921,2096921,159401,667216,0
2096921,2096921,158922,667385,0
2096921,2096921,159319,667003,0
2096921,2096921,158803,666151,0
2096921,2096921,158841,665359,0
2096921,2096921,158469,664993,0
2096921,2096921,158979,665637,0
2096921,2096921,158658,665405,0
2096921,2096921,158179,664589,0
2096921,2096921,157967,663904,0
2096921,2096921,158256,663763,0
2096921,2096921,158058,663860,0
2096921,2096921,158248,663990,0
2096921,2096921,157941,663335,0
2096921,2096921,157615,662829,0
2096921,2096921,158023,663073,0
2096921,2096921,157981,662845,0
2096921,2096921,157983,662792,0
2096921,2096921,157603,662420,0
2096921,2096921,157706,662094,0
2096921,2096921,157544,661674,0
2096921,2096921,157835,662220,0
2096921,2096921,157649,662125,0
2096921,2096921,157799,661778,0
2096921,2096921,157331,661389,0
2096921,2096921,157241,661231,0
2096921,2096921,157054,661203,0
2096921,2096921,157394,660999,0
2096921,2096921,157409,660962,0
2096921,2096921,157151,660743,0
2096921,2096921,157222,660903,0
2096921,2096921,157618,660535,0
2096921,2096921,156858,660662,0
2096921,2096921,157361,660593,0
2096921,2096921,157478,660692,0
2096921,2096921,157319,660504,0
2096921,2096921,157544,660396,0
2096921,2096921,157295,660642,0
2096921,2096921,157313,660754,0
2096921,2096921,157238,660559,0
2096921,2096921,157297,660694,0
2096921,2096921,157237,660824,0
2096921,2096921,157226,660679,0
2096921,2096921,157014,660584,0
2096921,2096921,157095,660376,0
2096921,2096921,157070,660404,0
2096921,2096921,157018,660747,0
2096921,2096921,157308,660447,0
2096921,2096921,157206,660427,0
2096921,2096921,157139,660438,0
2096921,2096921,157372,660525,0
2096921,2096921,157260,660661,0
2096921,2096921,157241,660537,0
2096921,2096921,157471,660713,0
2096921,2096921,157320,660728,0
2096921,2096921,157425,660738,0
2096921,2096921,157262,660775,0
2096921,2096921,157472,660808,0
2096921,2096921,157409,660986,0
2096921,2096921,157619,660974,0
2096921,2096921,157367,660894,0
2096921,2096921,157531,660995,0
2096921,2096921,157242,661005,0
2096921,2096921,157469,661410,0
2096921,2096921,157699,661600,0
2096921,2096921,157680,661345,0
2096921,2096921,157354,661562,0
2096921,2096921,157552,661297,0
2096921,2096921,157818,661464,0
2096921,2096921,157736,661338,0
2096921,2096921,157920,661464,0
2096921,2096921,157784,661505,0
2096921,2096921,157742,661758,0
2096921,2096921,158001,662005,0
2096921,2096921,157876,662086,0
2096921,2096921,157663,662234,0
2096921,2096921,157620,661810,0
2096921,2096921,157672,661877,0
2096921,2096921,157870,661695,0
2096921,2096921,157766,661910,0
2096921,2096921,157629,662044,0
2096921,2096921,157665,661867,0
2096921,2096921,157877,661810,0
2096921,2096921,157568,662086,0
2096921,2096921,157693,662284,0
2096921,2096921,157812,662081,0
2096921,2096921,157765,662099,0
2096921,2096921,158034,662318,0
2096921,2096921,157872,662337,0
2096921,2096921,158004,662738,0
2096921,2096921,158158,662527,0
2096921,2096921,157998,662694,0
2096921,2096921,157782,662628,0
2096921,2096921,158040,662737,0
2096921,2096921,157856,662637,0
2096921,2096921,157831,662663,0
2096921,2096921,157956,662762,0
2096921,2096921,157916,662895,0
2096921,2096921,158050,663672,0
2096921,2096921,158166,662934,0
2096921,2096921,158147,663162,0
2096921,2096921,158332,663008,0
2096921,2096921,158228,663040,0
2096921,2096921,158435,663181,0
2096921,2096921,158267,663340,0
2096921,2096921,158208,663585,0
2096921,2096921,158240,663362,0
2096921,2096921,157985,663433,0
2096921,2096921,158396,663448,0
2096921,2096921,158445,663618,0
2096921,2096921,158499,663719,0
2096921,2096921,158290,663613,0
2096921,2096921,158556,663634,0
2096921,2096921,158238,664164,0
2096921,2096921,158313,663879,0
2096921,2096921,158389,663933,0
2096921,2096921,158481,663743,0
2096921,2096921,158317,664116,0
2096921,2096921,158372,663998,0
2096921,2096921,158477,663926,0
2096921,2096921,158676,663840,0
2096921,2096921,158604,664331,0
2096921,2096921,158418,663983,0
2096921,2096921,158628,664034,0
2096921,2096921,158559,664157,0
2096921,2096921,158727,664245,0
2096921,2096921,158625,663981,0
2096921,2096921,158737,664073,0
2096921,2096921,158593,663842,0
2096921,2096921,158901,663856,0
2096921,2096921,158376,663972,0
2096921,2096921,158533,664269,0
2096921,2096921,158314,664084,0
2096921,2096921,158692,663959,0
2096921,2096921,158322,663990,0
2096921,2096921,158534,663862,0
2096921,2096921,158613,663702,0
2096921,2096921,158836,663697,0
2096921,2096921,158263,664106,0
2096921,2096921,158386,663807,0
2096921,2096921,158487,663693,0
2096921,2096921,158730,663316,0
2096921,2096921,158442,663749,0
2096921,2096921,158563,663580,0
2096921,2096921,158451,663481,0
2096921,2096921,158158,663410,0
2096921,2096921,158434,663306,0
2096921,2096921,158395,663228,0
2096921,2096921,158589,663436,0
2096921,2096921,158447,663080,0
2096921,2096921,158687,663074,0
2096921,2096921,158476,663381,0
2096921,2096921,158535,663089,0
2096921,2096921,158302,663097,0
2096921,2096921,158361,662502,0
2096921,2096921,158267,662551,0
2096921,2096921,158002,662264,0
2096921,2096921,158052,662590,0
2096921,2096921,157887,662173,0
2096921,2096921,158315,661933,0
2096921,2096921,158094,662266,0
2096921,2096921,157903,662235,0
2096921,2096921,158006,662087,0
2096921,2096921,158044,661954,0
2096921,2096921,157987,661709,0
2096921,2096921,157977,661826,0
2096921,2096921,157903,661715,0
2096921,2096921,157882,661603,0
2096921,2096921,157688,661510,0
2096921,2096921,157923,661345,0
2096921,2096921,157711,661670,0
2096921,2096921,157642,661513,0
2096921,2096921,157901,661504,0
2096921,2096921,157795,661266,0
2096921,2096921,158068,661216,0
2096921,2096921,158039,660786,0
2096921,2096921,157804,660964,0
2096921,2096921,157712,660837,0
2096921,2096921,157722,660999,0
2096921,2096921,157669,660925,0
2096921,2096921,157581,660740,0
2096921,2096921,157692,660843,0
2096921,2096921,157818,660598,0
2096921,2096921,157902,660854,0
2096921,2096921,158050,660990,0
2096921,2096921,157728,660817,0
2096921,2096921,157569,660614,0
2096921,2096921,157512,660414,0
2096921,2096921,157592,660479,0
2096921,2096921,157609,660543,0
2096921,2096921,157812,660632,0
2096921,2096921,157616,660712,0
2096921,2096921,157572,660629,0
2096921,2096921,157706,660781,0
2096921,2096921,157627,660381,0
2096921,2096921,157689,660591,0
2096921,2096921,157754,660231,0
2096921,2096921,157681,660445,0
2096921,2096921,157746,660560,0
2096921,2096921,157975,660294,0
2096921,2096921,157797,660605,0
2096921,2096921,157783,661125,0
2096921,2096921,157867,660804,0
2096921,2096921,157764,660802,0
2096921,2096921,158032,660857,0
2096921,2096921,157729,660398,0
2096921,2096921,157903,660364,0
2096921,2096921,157718,660627,0
2096921,2096921,157883,660895,0
2096921,2096921,157586,660839,0
2096921,2096921,157846,660847,0
2096921,2096921,157734,660841,0
2096921,2096921,157652,660767,0
2096921,2096921,158036,660904,0
2096921,2096921,157800,661218,0
2096921,2096921,157719,661221,0
2096921,2096921,157700,661004,0
2096921,2096921,157780,661080,0
2096921,2096921,157964,661249,0
2096921,2096921,157869,661111,0
2096921,2096921,157697,660930,0
2096921,2096921,157910,660902,0
2096921,2096921,157800,661159,0
2096921,2096921,157776,661267,0
2096921,2096921,157817,661229,0
2096921,2096921,158061,661176,0
2096921,2096921,157796,661135,0
2096921,2096921,157855,661168,0
2096921,2096921,158041,661089,0
2096921,2096921,157863,661124,0
2096921,2096921,157932,661059,0
2096921,2096921,157729,661190,0
2096921,2096921,157787,661381,0
2096921,2096921,158069,661212,0
2096921,2096921,157991,661231,0
2096921,2096921,158084,661111,0
2096921,2096921,157812,661314,0
2096921,2096921,158224,661100,0
2096921,2096921,158058,661482,0
2096921,2096921,158075,661710,0
2096921,2096921,158077,661516,0
2096921,2096921,158078,661169,0
2096921,2096921,158085,661506,0
2096921,2096921,158312,661301,0
2096921,2096921,158109,661087,0
2096921,2096921,157922,661200,0
2096921,2096921,158439,661396,0
2096921,2096921,157891,661486,0
2096921,2096921,158211,661749,0
2096921,2096921,158410,661500,0
2096921,2096921,158082,661266,0
2096921,2096921,158436,661613,0
2096921,2096921,158297,661590,0
2096921,2096921,158391,661790,0
2096921,2096921,158205,661705,0
2096921,2096921,158178,661725,0
2096921,2096921,158122,661574,0
2096921,2096921,158159,661722,0
2096921,2096921,158172,661806,0
2096921,2096921,158455,661667,0
2096921,2096921,158427,661857,0
2096921,2096921,158395,662105,0
2096921,2096921,158142,662047,0
2096921,2096921,158130,662140,0
2096921,2096921,158246,661937,0
2096921,2096921,158355,661917,0
2096921,2096921,158204,662179,0
2096921,2096921,158383,662134,0
2096921,2096921,158309,662170,0
2096921,2096921,158111,662207,0
2096921,2096921,158397,662016,0
2096921,2096921,158517,662369,0
2096921,2096921,158244,662488,0
2096921,2096921,158494,662274,0
2096921,2096921,158370,662182,0
2096921,2096921,158442,662150,0
2096921,2096921,158246,662175,0
2096921,2096921,158533,662091,0
2096921,2096921,158478,662063,0
2096921,2096921,158548,661928,0
2096921,2096921,158367,661889,0
2096921,2096921,158452,662072,0
2096921,2096921,158354,662124,0
2096921,2096921,158530,662415,0
2096921,2096921,158481,662609,0
2096921,2096921,158393,662473,0
2096921,2096921,158489,662254,0
2096921,2096921,158467,662161,0
2096921,2096921,158426,662383,0
2096921,2096921,158380,662234,0
2096921,2096921,158794,662362,0
2096921,2096921,158586,661891,0
2096921,2096921,158463,662214,0
2096921,2096921,158279,662206,0
2096921,2096921,158416,662179,0
2096921,2096921,158173,662055,0
2096921,2096921,158353,661975,0
2096921,2096921,158349,662169,0
2096921,2096921,158640,662625,0
2096921,2096921,158291,662379,0
2096921,2096921,158590,662519,0
2096921,2096921,158240,662714,0
2096921,2096921,158595,662351,0
2096921,2096921,158767,662492,0
2096921,2096921,158600,662218,0
2096921,2096921,158825,662533,0
2096921,2096921,158438,662418,0
2096921,2096921,158395,662790,0
2096921,2096921,158479,662270,0
2096921,2096921,158544,662430,0
2096921,2096921,158618,662541,0
2096921,2096921,158601,662486,0
2096921,2096921,158501,662373,0
2096921,2096921,158595,662521,0
2096921,2096921,158662,662584,0
2096921,2096921,158959,662417,0
2096921,2096921,158455,662455,0
2096921,2096921,158570,662333,0
2096921,2096921,158982,662530,0
2096921,2096921,158712,662729,0
2096921,2096921,158585,662805,0
2096921,2096921,158427,662586,0
2096921,2096921,158747,662641,0
2096921,2096921,158523,662606,0
2096921,2096921,158402,662493,0
2096921,2096921,158628,662588,0
2096921,2096921,158871,662866,0
2096921,2096921,158797,662718,0
2096921,2096921,158755,662667,0
2096921,2096921,158710,662781,0
2096921,2096921,158656,662480,0
2096921,2096921,158581,662598,0
2096921,2096921,158430,662422,0
2096921,2096921,158538,662830,0
2096921,2096921,158598,662511,0
2096921,2096921,158514,662734,0
2096921,2096921,158431,662641,0
2096921,2096921,158596,662478,0
2096921,2096921,158886,662455,0
2096921,2096921,158781,662718,0
2096921,2096921,158545,662584,0
2096921,2096921,158602,662533,0
2096921,2096921,158506,662289,0
2096921,2096921,158961,662590,0
2096921,2096921,158471,662124,0
2096921,2096921,158800,662483,0
2096921,2096921,158582,662440,0
2096921,2096921,158566,662336,0
2096921,2096921,158525,662578,0
2096921,2096921,158654,662419,0
2096921,2096921,158743,662573,0
2096921,2096921,158699,662503,0
2096921,2096921,158716,662795,0
2096921,2096921,158621,662838,0
2096921,2096921,158593,662632,0
2096921,2096921,158925,662498,0
2096921,2096921,158683,662625,0
2096921,2096921,158616,662599,0
2096921,2096921,158483,662507,0
2096921,2096921,158331,662260,0
2096921,2096921,158586,662448,0
2096921,2096921,158823,662446,0
2096921,2096921,158838,662469,0
2096921,2096921,158397,662355,0
2096921,2096921,158456,662588,0
2096921,2096921,158603,662531,0
2096921,2096921,158724,662700,0
2096921,2096921,158459,662285,0
2096921,2096921,158485,662519,0
2096921,2096921,158467,662392,0
2096921,2096921,158864,662836,0
2096921,2096921,158758,662641,0
2096921,2096921,158770,662613,0
2096921,2096921,158998,662643,0
2096921,2096921,158946,662937,0
2096921,2096921,158815,662650,0
2096921,2096921,158727,662402,0
2096921,2096921,158674,662493,0
2096921,2096921,158705,662302,0
2096921,2096921,158705,662629,0
2096921,2096921,158647,662200,0
2096921,2096921,158721,662573,0
2096921,2096921,158681,662540,0
2096921,2096921,158838,662810,0
2096921,2096921,158593,662914,0
2096921,2096921,158710,662656,0
2096921,2096921,158718,662824,0
2096921,2096921,158767,662857,0
2096921,2096921,158869,662649,0
2096921,2096921,158704,662673,0
2096921,2096921,158735,663037,0
2096921,2096921,158716,662679,0
2096921,2096921,158847,662882,0
2096921,2096921,158684,662936,0
2096921,2096921,158436,662972,0
2096921,2096921,158701,663151,0
2096921,2096921,158733,662770,0
2096921,2096921,159060,662801,0
2096921,2096921,158905,662840,0
2096921,2096921,158692,662684,0
2096921,2096921,158865,662772,0
2096921,2096921,158675,662764,0
2096921,2096921,158992,662741,0
2096921,2096921,158758,662907,0
2096921,2096921,158980,663053,0
2096921,2096921,158583,662838,0
2096921,2096921,158927,662917,0
2096921,2096921,158951,662671,0
2096921,2096921,158773,663140,0
2096921,2096921,158906,663273,0
2096921,2096921,158668,662856,0
2096921,2096921,158842,663032,0
2096921,2096921,159001,662918,0
2096921,2096921,158565,662953,0
2096921,2096921,158794,662887,0
2096921,2096921,158926,662862,0
2096921,2096921,159036,662937,0
2096921,2096921,158774,662912,0
2096921,2096921,158768,662992,0
2096921,2096921,158722,662704,0
2096921,2096921,158950,662829,0
2096921,2096921,158841,663066,0
2096921,2096921,159034,662834,0
2096921,2096921,158898,662987,0
2096921,2096921,158822,662432,0
2096921,2096921,158872,663057,0
2096921,2096921,158868,662830,0
2096921,2096921,158862,662805,0
2096921,2096921,158722,662629,0
2096921,2096921,158916,663052,0
2096921,2096921,158881,662949,0
2096921,2096921,158592,662751,0
2096921,2096921,158730,662902,0
2096921,2096921,158838,663156,0
2096921,2096921,158937,663029,0
2096921,2096921,158999,662948,0
2096921,2096921,158828,662719,0
2096921,2096921,158796,662726,0
2096921,2096921,158925,662724,0
2096921,2096921,158732,662887,0
2096921,2096921,158917,663241,0
2096921,2096921,159171,663062,0
2096921,2096921,158790,663036,0
2096921,2096921,158860,662668,0
2096921,2096921,158644,662856,0
2096921,2096921,158690,662921,0
2096921,2096921,158489,663051,0
2096921,2096921,158564,662916,0
2096921,2096921,158712,662950,0
2096921,2096921,158730,662781,0
2096921,2096921,158702,662869,0
2096921,2096921,158890,662954,0
2096921,2096921,158812,662922,0
2096921,2096921,158876,662969,0
2096921,2096921,158870,663107,0
2096921,2096921,159043,662792,0
2096921,2096921,158711,662958,0
2096921,2096921,158862,662913,0
2096921,2096921,158873,662646,0
2096921,2096921,159009,662588,0
2096921,2096921,158910,662956,0
2096921,2096921,159112,662985,0
2096921,2096921,158838,662956,0
2096921,2096921,158839,662496,0
2096921,2096921,158792,662464,0
2096921,2096921,158556,662410,0
2096921,2096921,158633,662410,0
2096921,2096921,158450,662246,0
2096921,2096921,158371,662101,0
2096921,2096921,158474,661894,0
2096921,2096921,158707,661910,0
2096921,2096921,158537,662054,0
2096921,2096921,158548,662112,0
2096921,2096921,158523,661587,0
2096921,2096921,158728,661134,0
2096921,2096921,158550,661217,0
2096921,2096921,158195,661335,0
2096921,2096921,158106,661385,0
2096921,2096921,158312,660675,0
2096921,2096921,158049,660245,0
2096921,2096921,158126,660172,0
2096921,2096921,158133,660359,0
2096921,2096921,157826,660073,0
2096921,2096921,157570,659725,0
2096921,2096921,157510,659327,0
2096921,2096921,157565,659300,0
2096921,2096921,157711,659127,0
2096921,2096921,157832,659257,0
2096921,2096921,157228,657788,0
2096921,2096921,156860,657085,0
2096921,2096921,156882,656877,0
2096921,2096921,157157,656886,0
2096921,2096921,157048,657040,0
2096921,2096921,156365,655380,0
2096921,2096921,155999,654339,0
2096921,2096921,156186,653827,0
2096921,2096921,156193,653638,0
2096921,2096921,155928,653855,0
2096921,2096921,155397,652498,0
2096921,2096921,155594,651842,0
2096921,2096921,155543,651742,0
2096921,2096921,155458,651535,0
2096921,2096921,155619,651707,0
2096921,2096921,155125,650900,0
2096921,2096921,154935,650352,0
2096921,2096921,154617,650007,0
2096921,2096921,154729,650079,0
2096921,2096921,154736,650058,0
2096921,2096921,154433,649640,0
2096921,2096921,154592,648770,0
2096921,2096921,154884,648793,0
2096921,2096921,154621,648814,0
2096921,2096921,154521,648757,0
2096921,2096921,154171,648297,0
2096921,2096921,153925,648070,0
2096921,2096921,153967,648292,0
2096921,2096921,154058,648222,0
2096921,2096921,154063,648191,0
2096921,2096921,153949,647829,0
2096921,2096921,154131,647712,0
2096921,2096921,154088,647618,0
2096921,2096921,153983,647651,0
2096921,2096921,153992,647382,0
2096921,2096921,154032,647228,0
2096921,2096921,154156,647240,0
2096921,2096921,154084,647154,0
2096921,2096921,153910,646660,0
2096921,2096921,153763,647129,0
2096921,2096921,153801,646895,0
2096921,2096921,153880,646841,0
2096921,2096921,153499,646949,0
2096921,2096921,153910,647081,0
2096921,2096921,153848,646917,0
2096921,2096921,153735,646702,0
2096921,2096921,153779,646823,0
2096921,2096921,153962,646655,0
2096921,2096921,153772,647062,0
2096921,2096921,153773,646846,0
2096921,2096921,153856,647200,0
2096921,2096921,153915,647030,0
2096921,2096921,153771,647112,0
2096921,2096921,153802,647218,0
2096921,2096921,154127,647112,0
2096921,2096921,154076,647011,0
2096921,2096921,154010,647177,0
2096921,2096921,153955,647035,0
2096921,2096921,153747,647061,0
2096921,2096921,153634,646961,0
2096921,2096921,153923,647284,0
2096921,2096921,154025,647407,0
2096921,2096921,154016,647409,0
2096921,2096921,153991,647409,0
2096921,2096921,153622,647601,0
2096921,2096921,153987,648051,0
2096921,2096921,154299,647954,0
2096921,2096921,154337,648150,0
2096921,2096921,154125,647997,0
2096921,2096921,153917,648064,0
2096921,2096921,154368,648531,0
2096921,2096921,154207,648473,0
2096921,2096921,154049,648422,0
2096921,2096921,154714,648415,0
2096921,2096921,154462,648328,0
2096921,2096921,154489,648566,0
2096921,2096921,154498,648887,0
2096921,2096921,154532,648665,0
2096921,2096921,154769,648803,0
2096921,2096921,154669,648968,0
2096921,2096921,154483,649479,0
2096921,2096921,154396,649541,0
2096921,2096921,154583,649366,0
2096921,2096921,154732,649322,0
2096921,2096921,154668,649559,0
2096921,2096921,154934,649848,0
2096921,2096921,154658,649991,0
2096921,2096921,154608,649760,0
2096921,2096921,154754,650124,0
2096921,2096921,154471,649910,0
2096921,2096921,154754,650226,0
2096921,2096921,154867,650090,0
2096921,2096921,154990,650554,0
2096921,2096921,154771,650638,0
2096921,2096921,154766,650548,0
2096921,2096921,154869,650809,0
2096921,2096921,154891,650919,0
2096921,2096921,155005,650877,0
2096921,2096921,155181,650768,0
2096921,2096921,155121,651012,0
2096921,2096921,155442,651516,0
2096921,2096921,155326,651608,0
2096921,2096921,155357,651555,0
2096921,2096921,155229,651790,0
2096921,2096921,155081,651601,0
2096921,2096921,155053,651909,0
2096921,2096921,155166,651852,0
2096921,2096921,155321,651782,0
2096921,2096921,155109,652098,0
2096921,2096921,155552,652020,0
2096921,2096921,155416,652242,0
2096921,2096921,155382,652353,0
2096921,2096921,155577,652632,0
2096921,2096921,155644,652562,0
2096921,2096921,155535,652846,0
2096921,2096921,155832,652922,0
2096921,2096921,155910,653157,0
2096921,2096921,156011,653470,0
2096921,2096921,155738,653350,0
2096921,2096921,155914,653055,0
2096921,2096921,155690,653580,0
2096921,2096921,155742,653705,0
2096921,2096921,155746,653596,0
2096921,2096921,155863,653653,0
2096921,2096921,155855,653616,0
2096921,2096921,155891,653811,0
2096921,2096921,156066,654070,0
2096921,2096921,156085,654426,0
2096921,2096921,155849,654326,0
2096921,2096921,156036,654134,0
2096921,2096921,156330,654306,0
2096921,2096921,155901,654648,0
2096921,2096921,156468,654741,0
2096921,2096921,156672,654773,0
2096921,2096921,156326,654697,0
2096921,2096921,156239,654929,0
2096921,2096921,156550,655215,0
2096921,2096921,156321,655109,0
2096921,2096921,156221,655012,0
2096921,2096921,156159,655081,0
2096921,2096921,156210,654954,0
2096921,2096921,156406,655283,0
2096921,2096921,156219,655413,0
2096921,2096921,156354,655595,0
2096921,2096921,156419,655242,0
2096921,2096921,156508,655565,0
2096921,2096921,156626,655555,0
2096921,2096921,156497,655643,0
2096921,2096921,156509,655475,0
2096921,2096921,156492,655452,0
2096921,2096921,156506,655569,0
2096921,2096921,156402,655763,0
2096921,2096921,156304,655774,0
2096921,2096921,156336,655556,0
2096921,2096921,156345,655985,0
2096921,2096921,156434,655713,0
2096921,2096921,156656,655849,0
2096921,2096921,156370,655590,0
2096921,2096921,156429,655771,0
2096921,2096921,156446,655573,0
2096921,2096921,156238,655691,0
2096921,2096921,156144,655893,0
2096921,2096921,156601,655788,0
2096921,2096921,156622,655711,0
2096921,2096921,156477,655911,0
2096921,2096921,156261,655736,0
2096921,2096921,156609,655739,0
2096921,2096921,156499,655751,0
2096921,2096921,156570,655698,0
2096921,2096921,156702,655818,0
2096921,2096921,156680,655616,0
2096921,2096921,156483,655945,0
2096921,2096921,156446,656207,0
2096921,2096921,156322,655723,0
2096921,2096921,156577,655858,0
2096921,2096921,156162,655623,0
2096921,2096921,156408,655539,0
2096921,2096921,156514,655573,0
2096921,2096921,156461,655714,0
2096921,2096921,156422,656064,0
2096921,2096921,156643,655646,0
2096921,2096921,156829,655467,0
2096921,2096921,156447,655514,0
2096921,2096921,156495,655809,0
2096921,2096921,156413,655958,0
2096921,2096921,156456,656031,0
2096921,2096921,156415,655807,0
2096921,2096921,156349,655815,0
2096921,2096921,156467,655780,0
2096921,2096921,156455,655754,0
2096921,2096921,156314,655633,0
2096921,2096921,156621,655993,0
2096921,2096921,156337,655999,0
2096921,2096921,156452,655987,0
2096921,2096921,156461,656226,0
2096921,2096921,156523,655839,0
2096921,2096921,157006,656301,0
2096921,2096921,156651,656124,0
2096921,2096921,156760,656314,0
2096921,2096921,156595,656115,0
2096921,2096921,156876,656368,0
2096921,2096921,156959,656608,0
2096921,2096921,156761,656402,0
2096921,2096921,156819,656746,0
2096921,2096921,156685,656333,0
2096921,2096921,156690,656695,0
2096921,2096921,156810,656695,0
2096921,2096921,156936,656835,0
2096921,2096921,156749,656909,0
2096921,2096921,156716,656792,0
2096921,2096921,156651,656814,0
2096921,2096921,157226,657300,0
2096921,2096921,156845,657159,0
2096921,2096921,157166,657347,0
2096921,2096921,156919,657407,0
2096921,2096921,157180,657568,0
2096921,2096921,157202,657833,0
2096921,2096921,157342,658070,0
2096921,2096921,157255,657897,0
2096921,2096921,156999,657956,0
2096921,2096921,157033,658461,0
2096921,2096921,157345,658476,0
2096921,2096921,157079,658629,0
2096921,2096921,157221,658643,0
2096921,2096921,157217,658534,0
2096921,2096921,157217,658877,0
2096921,2096921,157429,659103,0
2096921,2096921,157190,658989,0
2096921,2096921,157169,658737,0
2096921,2096921,157310,658788,0
2096921,2096921,157438,659029,0
2096921,2096921,157364,659144,0
2096921,2096921,157491,659463,0
2096921,2096921,157402,659374,0
2096921,2096921,157448,659724,0
2096921,2096921,157746,659775,0
2096921,2096921,157596,659872,0
2096921,2096921,157526,659830,0
2096921,2096921,157714,660063,0
2096921,2096921,157630,659773,0
2096921,2096921,157819,659759,0
2096921,2096921,157950,660442,0
2096921,2096921,157887,660704,0
2096921,2096921,157765,660374,0
2096921,2096921,157954,660447,0
2096921,2096921,158027,660585,0
2096921,2096921,158286,660979,0
2096921,2096921,158056,661145,0
2096921,2096921,157490,660780,0
2096921,2096921,157725,661106,0
2096921,2096921,158044,661231,0
2096921,2096921,158092,661247,0
2096921,2096921,157820,661690,0
2096921,2096921,158433,661571,0
2096921,2096921,158409,661363,0
2096921,2096921,157898,661919,0
2096921,2096921,158084,661743,0
2096921,2096921,158357,661945,0
2096921,2096921,158248,661949,0
2096921,2096921,158349,661908,0
2096921,2096921,158578,661917,0
2096921,2096921,158494,662327,0
2096921,2096921,158493,662492,0
2096921,2096921,158448,662523,0
2096921,2096921,158649,662827,0
2096921,2096921,158544,662505,0
2096921,2096921,158434,662829,0
2096921,2096921,158539,662964,0
2096921,2096921,158428,663100,0
2096921,2096921,158324,662596,0
2096921,2096921,158446,663199,0
2096921,2096921,158746,663391,0
2096921,2096921,158643,663498,0
2096921,2096921,158508,663533,0
2096921,2096921,158767,663609,0
2096921,2096921,158636,663638,0
2096921,2096921,158689,663910,0
2096921,2096921,158614,663966,0
2096921,2096921,158865,663922,0
2096921,2096921,158616,663874,0
2096921,2096921,158674,663994,0
2096921,2096921,158991,664279,0
2096921,2096921,159144,664294,0
2096921,2096921,158764,664610,0
2096921,2096921,159207,664706,0
2096921,2096921,159169,664444,0
2096921,2096921,158945,664817,0
2096921,2096921,159085,664791,0
2096921,2096921,159094,664692,0
2096921,2096921,158922,664935,0
2096921,2096921,159165,664948,0
2096921,2096921,159212,665332,0
2096921,2096921,159315,665594,0
2096921,2096921,159339,665384,0
2096921,2096921,159279,665241,0
2096921,2096921,159479,665682,0
2096921,2096921,159479,665980,0
2096921,2096921,159239,665702,0
2096921,2096921,159194,665702,0
2096921,2096921,159153,665456,0
2096921,2096921,159227,665849,0
2096921,2096921,159420,665940,0
2096921,2096921,159670,666313,0
2096921,2096921,159630,666413,0
2096921,2096921,159478,666279,0
2096921,2096921,159689,666455,0
2096921,2096921,159851,666985,0
2096921,2096921,159627,666706,0
2096921,2096921,159574,666805,0
2096921,2096921,159503,666636,0
2096921,2096921,159592,666718,0
2096921,2096921,159330,666910,0
2096921,2096921,159694,667060,0
2096921,2096921,159819,667086,0
2096921,2096921,159717,666993,0
2096921,2096921,160295,667277,0
2096921,2096921,160033,667323,0
2096921,2096921,159788,667748,0
2096921,2096921,159754,667511,0
2096921,2096921,159710,667424,0
2096921,2096921,159809,667847,0
2096921,2096921,159799,668352,0
2096921,2096921,159574,668182,0
2096921,2096921,159583,668195,0
2096921,2096921,159881,668100,0
2096921,2096921,159713,668446,0
2096921,2096921,159971,668595,0
2096921,2096921,160116,668589,0
2096921,2096921,159780,668477,0
2096921,2096921,160315,668396,0
2096921,2096921,160244,668628,0
2096921,2096921,160325,668738,0
2096921,2096921,160127,668571,0
2096921,2096921,160105,668725,0
2096921,2096921,160453,668509,0
2096921,2096921,160307,669294,0
2096921,2096921,160138,669384,0
2096921,2096921,160262,669215,0
2096921,2096921,160092,668817,0
2096921,2096921,160157,668984,0
2096921,2096921,160359,669255,0
2096921,2096921,160448,669465,0
2096921,2096921,160456,669353,0
2096921,2096921,160667,669566,0
2096921,2096921,160498,669724,0
2096921,2096921,160739,669888,0
2096921,2096921,160443,669807,0
2096921,2096921,160514,670053,0
2096921,2096921,160730,670016,0
2096921,2096921,160464,670006,0
2096921,2096921,160756,670251,0
2096921,2096921,160889,670421,0
2096921,2096921,160758,670320,0
2096921,2096921,160889,670769,0
2096921,2096921,160753,670432,0
2096921,2096921,160667,670632,0
2096921,2096921,160794,670693,0
2096921,2096921,160592,670966,0
2096921,2096921,160333,670813,0
2096921,2096921,160612,670654,0
2096921,2096921,160788,670632,0
2096921,2096921,160736,670615,0
2096921,2096921,161080,671054,0
2096921,2096921,160865,670942,0
2096921,2096921,161060,670914,0
2096921,2096921,161218,671035,0
2096921,2096921,160851,671440,0
2096921,2096921,160558,671495,0
2096921,2096921,160735,671733,0
2096921,2096921,160553,671422,0
2096921,2096921,160781,671470,0
2096921,2096921,160964,671660,0
2096921,2096921,161012,671982,0
2096921,2096921,161024,671925,0
2096921,2096921,161064,671564,0
2096921,2096921,161140,672111,0
2096921,2096921,161321,672208,0
2096921,2096921,161007,672199,0
2096921,2096921,161164,672110,0
2096921,2096921,160904,672205,0
2096921,2096921,161178,672308,0
2096921,2096921,161180,672572,0
2096921,2096921,161278,672442,0
2096921,2096921,161186,672518,0
2096921,2096921,161091,672374,0
2096921,2096921,161022,672667,0
2096921,2096921,161252,672660,0
2096921,2096921,161177,672607,0
2096921,2096921,161230,672864,0
2096921,2096921,161519,672733,0
2096921,2096921,161404,672782,0
2096921,2096921,161272,673106,0
2096921,2096921,161191,673040,0
2096921,2096921,161294,673277,0
2096921,2096921,161210,673019,0
2096921,2096921,161610,673352,0
2096921,2096921,161687,673437,0
2096921,2096921,161596,673773,0
2096921,2096921,161387,673612,0
2096921,2096921,161487,673580,0
2096921,2096921,161553,673746,0
2096921,2096921,161911,673705,0
2096921,2096921,161827,673903,0
2096921,2096921,161962,674131,0
2096921,2096921,161645,674185,0
2096921,2096921,161879,674122,0
2096921,2096921,161668,674391,0
2096921,2096921,161261,674300,0
2096921,2096921,161552,674115,0
2096921,2096921,161857,673889,0
2096921,2096921,161675,674058,0
2096921,2096921,161544,674698,0
2096921,2096921,161896,674801,0
2096921,2096921,161531,674442,0
2096921,2096921,161782,674690,0
2096921,2096921,162150,674681,0
2096921,2096921,161742,674994,0
2096921,2096921,161660,674682,0
2096921,2096921,161958,674939,0
2096921,2096921,161770,675051,0
2096921,2096921,161831,674928,0
2096921,2096921,161949,675235,0
2096921,2096921,161875,675130,0
2096921,2096921,161854,675144,0
2096921,2096921,161923,674998,0
2096921,2096921,162044,675500,0
2096921,2096921,161921,675586,0
2096921,2096921,162184,675650,0
2096921,2096921,162066,675604,0
2096921,2096921,161739,675417,0
2096921,2096921,161840,675456,0
2096921,2096921,161861,675609,0
2096921,2096921,162254,675614,0
2096921,2096921,161828,675791,0
2096921,2096921,162349,675747,0
2096921,2096921,162313,675938,0
2096921,2096921,162124,676084,0
2096921,2096921,162099,675893,0
2096921,2096921,161882,675986,0
2096921,2096921,161978,676003,0
2096921,2096921,162054,676145,0
2096921,2096921,162185,676285,0
2096921,2096921,162138,676091,0
2096921,2096921,162278,676152,0
2096921,2096921,162095,676094,0
2096921,2096921,162157,676317,0
2096921,2096921,162108,676463,0
2096921,2096921,162099,676438,0
2096921,2096921,162235,676285,0
2096921,2096921,162465,676174,0
2096921,2096921,162351,676425,0
2096921,2096921,162255,676427,0
2096921,2096921,162609,676371,0
2096921,2096921,162486,676488,0
2096921,2096921,162464,676648,0
2096921,2096921,162259,676566,0
2096921,2096921,162358,676854,0
2096921,2096921,162527,676662,0
2096921,2096921,162410,676695,0
2096921,2096921,162222,676879,0
2096921,2096921,162506,676848,0
2096921,2096921,162745,677369,0
2096921,2096921,162607,677227,0
2096921,2096921,162538,677279,0
2096921,2096921,162699,677556,0
2096921,2096921,162667,677225,0
2096921,2096921,162427,677347,0
2096921,2096921,162424,677374,0
2096921,2096921,162462,677336,0
2096921,2096921,162814,677558,0
2096921,2096921,162618,677688,0
2096921,2096921,162618,677641,0
2096921,2096921,162209,677861,0
2096921,2096921,162678,677731,0
2096921,2096921,162629,677504,0
2096921,2096921,162573,677437,0
2096921,2096921,162487,677412,0
2096921,2096921,162649,677502,0
2096921,2096921,162185,677269,0
2096921,2096921,162322,677503,0
2096921,2096921,162496,677360,0
2096921,2096921,162293,676925,0
2096921,2096921,162236,676683,0
2096921,2096921,162374,676920,0
2096921,2096921,162436,677361,0
2096921,2096921,162358,677054,0
2096921,2096921,162175,676782,0
2096921,2096921,162401,676931,0
2096921,2096921,161982,676758,0
2096921,2096921,161968,676601,0
2096921,2096921,161890,675979,0
2096921,2096921,161713,675714,0
2096921,2096921,161928,675670,0
2096921,2096921,161918,675744,0
2096921,2096921,162120,675723,0
2096921,2096921,161862,675085,0
2096921,2096921,161589,674932,0
2096921,2096921,161446,674975,0
2096921,2096921,161603,674756,0
2096921,2096921,161473,674761,0
2096921,2096921,161060,673584,0
2096921,2096921,161048,673073,0
2096921,2096921,160771,673167,0
2096921,2096921,160643,673124,0
2096921,2096921,160756,672887,0
2096921,2096921,160429,671251,0
2096921,2096921,159899,670181,0
2096921,2096921,160089,670188,0
2096921,2096921,159978,669865,0
2096921,2096921,160316,669797,0
2096921,2096921,159656,668709,0
2096921,2096921,159344,668231,0
2096921,2096921,159100,668141,0
2096921,2096921,159407,668259,0
2096921,2096921,159366,668164,0
2096921,2096921,159137,666948,0
2096921,2096921,158954,666599,0
2096921,2096921,159020,666513,0
2096921,2096921,159008,666771,0
2096921,2096921,159082,666420,0
2096921,2096921,158877,665716,0
2096921,2096921,158718,665652,0
2096921,2096921,158848,665362,0
2096921,2096921,158787,665316,0
2096921,2096921,158379,665554,0
2096921,2096921,158366,664840,0
2096921,2096921,158132,664782,0
2096921,2096921,158255,664930,0
2096921,2096921,158019,664810,0
2096921,2096921,158671,665063,0
2096921,2096921,158467,664683,0
2096921,2096921,158240,664564,0
2096921,2096921,158239,664459,0
2096921,2096921,158305,664198,0
2096921,2096921,158142,664222,0
2096921,2096921,158041,664148,0
2096921,2096921,158103,664115,0
2096921,2096921,157914,663912,0
2096921,2096921,157881,664010,0
2096921,2096921,158143,664141,0
2096921,2096921,157746,663897,0
2096921,2096921,158095,664285,0
2096921,2096921,158037,663901,0
2096921,2096921,157999,663809,0
2096921,2096921,158027,664290,0
2096921,2096921,158128,664357,0
2096921,2096921,158179,664351,0
2096921,2096921,158068,664367,0
2096921,2096921,158333,664377,0
2096921,2096921,158378,664504,0
2096921,2096921,158188,664575,0
2096921,2096921,158223,664674,0
2096921,2096921,158298,664723,0
2096921,2096921,158385,664675,0
2096921,2096921,158086,664892,0
2096921,2096921,158298,664989,0
2096921,2096921,158159,664884,0
2096921,2096921,158369,665031,0
2096921,2096921,158331,665038,0
2096921,2096921,158455,664765,0
2096921,2096921,158590,665017,0
2096921,2096921,158298,665024,0
2096921,2096921,158307,665352,0
2096921,2096921,158345,665502,0
2096921,2096921,158507,665278,0
2096921,2096921,158122,665835,0
2096921,2096921,158573,666167,0
2096921,2096921,158374,665979,0
2096921,2096921,158521,666220,0
2096921,2096921,158638,665918,0
2096921,2096921,158545,666387,0
2096921,2096921,158837,666547,0
2096921,2096921,158980,666629,0
2096921,2096921,158661,666720,0
2096921,2096921,158597,666561,0
2096921,2096921,159076,666963,0
2096921,2096921,158905,667104,0
2096921,2096921,158924,667413,0
2096921,2096921,159134,667238,0
2096921,2096921,158812,667446,0
2096921,2096921,159044,667583,0
2096921,2096921,159128,667690,0
2096921,2096921,159173,667979,0
2096921,2096921,159305,667907,0
2096921,2096921,159285,667899,0
2096921,2096921,159417,668311,0
2096921,2096921,159346,668299,0
2096921,2096921,159447,668706,0
2096921,2096921,159384,668643,0
2096921,2096921,159279,668577,0
2096921,2096921,159549,668895,0
2096921,2096921,159452,669029,0
2096921,2096921,159613,669023,0
2096921,2096921,159662,669232,0
2096921,2096921,159483,669322,0
2096921,2096921,159866,669459,0
2096921,2096921,159911,669691,0
2096921,2096921,159737,669791,0
2096921,2096921,159796,669638,0
2096921,2096921,159438,670045,0
2096921,2096921,159896,670275,0
2096921,2096921,160012,670260,0
2096921,2096921,159964,670369,0
2096921,2096921,160095,670842,0
2096921,2096921,160326,670893,0
2096921,2096921,160189,670830,0
2096921,2096921,159999,671298,0
2096921,2096921,160137,671095,0
2096921,2096921,160094,670808,0
2096921,2096921,160201,671182,0
2096921,2096921,160285,671386,0
2096921,2096921,160176,671710,0
2096921,2096921,160381,671592,0
2096921,2096921,160263,671841,0
2096921,2096921,160458,671750,0
2096921,2096921,160380,672282,0
2096921,2096921,160578,672443,0
2096921,2096921,160687,672237,0
2096921,2096921,160929,672351,0
2096921,2096921,160691,672217,0
2096921,2096921,160583,672491,0
2096921,2096921,160559,672853,0
2096921,2096921,160639,672912,0
2096921,2096921,160769,672740,0
2096921,2096921,160678,672831,0
2096921,2096921,160754,673000,0
2096921,2096921,160882,673090,0
2096921,2096921,160909,673036,0
2096921,2096921,160992,673605,0
2096921,2096921,160926,673412,0
2096921,2096921,161185,673720,0
2096921,2096921,161224,673914,0
2096921,2096921,160961,674166,0
2096921,2096921,160921,673777,0
2096921,2096921,160910,674217,0
2096921,2096921,160961,674220,0
2096921,2096921,160824,674372,0
2096921,2096921,160908,674237,0
2096921,2096921,161100,674159,0
2096921,2096921,160816,674122,0
2096921,2096921,161031,674351,0
2096921,2096921,160982,674514,0
2096921,2096921,161113,674379,0
2096921,2096921,161004,674601,0
2096921,2096921,161271,674868,0
2096921,2096921,161487,674652,0
2096921,2096921,161297,674638,0
2096921,2096921,161241,674665,0
2096921,2096921,161518,674635,0
2096921,2096921,161387,674629,0
2096921,2096921,161375,674765,0
2096921,2096921,161234,674868,0
2096921,2096921,161340,674897,0
2096921,2096921,161203,674861,0
2096921,2096921,161472,674779,0
2096921,2096921,161628,674681,0
2096921,2096921,161456,674909,0
2096921,2096921,161347,674963,0
2096921,2096921,161182,674852,0
2096921,2096921,161052,675026,0
2096921,2096921,161335,674884,0
2096921,2096921,161312,675017,0
2096921,2096921,161249,674996,0
2096921,2096921,161493,674844,0
2096921,2096921,161269,674569,0
2096921,2096921,161280,674775,0
2096921,2096921,161265,674894,0
2096921,2096921,161206,674609,0
2096921,2096921,161234,674545,0
2096921,2096921,161163,674790,0
2096921,2096921,161527,674791,0
2096921,2096921,161203,674532,0
2096921,2096921,161321,674500,0
2096921,2096921,161042,674686,0
2096921,2096921,161029,674534,0
2096921,2096921,161216,674442,0
2096921,2096921,161052,674298,0
2096921,2096921,161298,674388,0
2096921,2096921,161181,674346,0
2096921,2096921,161014,674245,0
2096921,2096921,161110,674335,0
2096921,2096921,161062,674420,0
2096921,2096921,160943,674252,0
2096921,2096921,160912,674503,0
2096921,2096921,161097,674412,0
2096921,2096921,161043,674176,0
2096921,2096921,161143,674143,0
2096921,2096921,161401,674178,0
2096921,2096921,161424,674280,0
2096921,2096921,160993,674468,0
2096921,2096921,160860,674292,0
2096921,2096921,161100,674051,0
2096921,2096921,161078,674571,0
2096921,2096921,161150,674330,0
2096921,2096921,161309,674245,0
2096921,2096921,161366,674244,0
2096921,2096921,161128,674523,0
2096921,2096921,160900,674154,0
2096921,2096921,160951,674329,0
2096921,2096921,161027,674085,0
2096921,2096921,161218,674487,0
2096921,2096921,161206,674431,0
2096921,2096921,161138,674641,0
2096921,2096921,161134,674699,0
2096921,2096921,161079,674730,0
2096921,2096921,161413,674477,0
2096921,2096921,161029,674461,0
2096921,2096921,160816,674847,0
2096921,2096921,161081,674446,0
2096921,2096921,161078,674606,0
2096921,2096921,161514,674706,0
2096921,2096921,161295,675048,0
2096921,2096921,161434,675129,0
2096921,2096921,161316,675016,0
2096921,2096921,161265,675215,0
2096921,2096921,161369,675341,0
2096921,2096921,161592,675611,0
2096921,2096921,161595,675453,0
2096921,2096921,161500,675362,0
2096921,2096921,161704,675637,0
2096921,2096921,161216,675369,0
2096921,2096921,161450,675826,0
2096921,2096921,161577,675637,0
2096921,2096921,161647,675735,0
2096921,2096921,161579,675552,0
2096921,2096921,161861,675630,0
2096921,2096921,161900,676244,0
2096921,2096921,161808,676414,0
2096921,2096921,161432,676317,0
2096921,2096921,161957,675983,0
2096921,2096921,161578,676303,0
2096921,2096921,161849,676442,0
2096921,2096921,161893,676540,0
2096921,2096921,161825,676573,0
2096921,2096921,161938,676681,0
2096921,2096921,162141,676889,0
2096921,2096921,161962,676992,0
2096921,2096921,161725,677034,0
2096921,2096921,162053,676910,0
2096921,2096921,161946,677055,0
2096921,2096921,161920,677046,0
2096921,2096921,161932,677068,0
2096921,2096921,162030,677189,0
2096921,2096921,161846,676863,0
2096921,2096921,161929,676774,0
2096921,2096921,162090,677302,0
2096921,2096921,162040,677330,0
2096921,2096921,162035,677135,0
2096921,2096921,162269,677487,0
2096921,2096921,161934,677627,0
2096921,2096921,161923,677548,0
2096921,2096921,162026,677807,0
2096921,2096921,162332,677739,0
2096921,2096921,162271,677795,0
2096921,2096921,162277,677798,0
2096921,2096921,162380,677881,0
2096921,2096921,162132,677967,0
2096921,2096921,162133,678115,0
2096921,2096921,162439,678194,0
2096921,2096921,162004,678023,0
2096921,2096921,162332,678351,0
2096921,2096921,162591,678446,0
2096921,2096921,162592,678138,0
2096921,2096921,162620,678122,0
2096921,2096921,162637,678332,0
2096921,2096921,162955,678422,0
2096921,2096921,162694,678739,0
2096921,2096921,162987,678671,0
2096921,2096921,162375,678686,0
2096921,2096921,162402,678701,0
2096921,2096921,162301,678948,0
2096921,2096921,162525,678903,0
2096921,2096921,162539,678902,0
2096921,2096921,162214,678892,0
2096921,2096921,162803,678911,0
2096921,2096921,162599,678412,0
2096921,2096921,162546,679008,0
2096921,2096921,162762,679096,0
2096921,2096921,162934,679100,0
2096921,2096921,162879,678974,0
2096921,2096921,162759,679033,0
2096921,2096921,162616,679269,0
2096921,2096921,162801,679236,0
2096921,2096921,162582,679485,0
2096921,2096921,163012,679169,0
2096921,2096921,162870,679679,0
2096921,2096921,163056,679947,0
2096921,2096921,162812,679606,0
2096921,2096921,162686,679671,0
2096921,2096921,162711,679549,0
2096921,2096921,163174,679610,0
2096921,2096921,163089,679850,0
2096921,2096921,163168,679998,0
2096921,2096921,162917,679998,0
2096921,2096921,162941,679841,0
2096921,2096921,163044,679765,0
2096921,2096921,162890,680134,0
2096921,2096921,162901,679835,0
2096921,2096921,162750,679894,0
2096921,2096921,162719,680252,0
2096921,2096921,163019,680339,0
2096921,2096921,163096,680432,0
2096921,2096921,163028,680329,0
2096921,2096921,162968,680405,0
2096921,2096921,163128,680326,0
2096921,2096921,162909,680517,0
2096921,2096921,163047,680787,0
2096921,2096921,163057,680593,0
2096921,2096921,162958,680820,0
2096921,2096921,162933,680709,0
2096921,2096921,162887,680808,0
2096921,2096921,163157,680699,0
2096921,2096921,163002,680700,0
2096921,2096921,163124,680855,0
2096921,2096921,163271,680851,0
2096921,2096921,163544,680720,0
2096921,2096921,163279,680894,0
2096921,2096921,163380,681195,0
2096921,2096921,163263,681120,0
2096921,2096921,162925,680837,0
2096921,2096921,163171,681070,0
2096921,2096921,163124,680950,0
2096921,2096921,163306,681112,0
2096921,2096921,163307,681149,0
2096921,2096921,163226,681188,0
2096921,2096921,163568,681363,0
2096921,2096921,163520,681284,0
2096921,2096921,163298,681529,0
2096921,2096921,163293,680916,0
2096921,2096921,163391,681192,0
2096921,2096921,163426,681442,0
2096921,2096921,163232,681770,0
2096921,2096921,163255,681416,0
2096921,2096921,163212,681659,0
2096921,2096921,163532,681538,0
2096921,2096921,163334,681495,0
2096921,2096921,163591,681664,0
2096921,2096921,163541,681721,0
2096921,2096921,163579,681569,0
2096921,2096921,163512,681630,0
2096921,2096921,163407,681573,0
2096921,2096921,163608,681892,0
2096921,2096921,163146,681750,0
2096921,2096921,163586,681517,0
2096921,2096921,163450,681559,0
2096921,2096921,163571,681646,0
2096921,2096921,163451,681807,0
2096921,2096921,163168,681683,0
2096921,2096921,163494,681908,0
2096921,2096921,163483,681863,0
2096921,2096921,163509,681741,0
2096921,2096921,163433,681825,0
2096921,2096921,163500,681846,0
2096921,2096921,163587,682065,0
2096921,2096921,163420,681925,0
2096921,2096921,163352,681888,0
2096921,2096921,163647,681776,0
2096921,2096921,163404,681883,0
2096921,2096921,163531,682165,0
2096921,2096921,163370,681800,0
2096921,2096921,163413,681896,0
2096921,2096921,163635,681981,0
2096921,2096921,163757,682356,0
2096921,2096921,163618,682187,0
2096921,2096921,163626,682100,0
2096921,2096921,163522,682071,0
2096921,2096921,163794,682217,0
2096921,2096921,163358,682169,0
2096921,2096921,163547,682013,0
2096921,2096921,163439,682307,0
2096921,2096921,163528,682228,0
2096921,2096921,163802,682112,0
2096921,2096921,164058,682338,0
2096921,2096921,163784,682303,0
2096921,2096921,163846,682266,0
2096921,2096921,163381,682315,0
2096921,2096921,163582,682244,0
2096921,2096921,163970,682293,0
2096921,2096921,163672,682276,0
2096921,2096921,163783,682292,0
2096921,2096921,163678,682071,0
2096921,2096921,163739,681950,0
2096921,2096921,163640,682290,0
2096921,2096921,163602,682152,0
2096921,2096921,163868,682148,0
2096921,2096921,163282,682444,0
2096921,2096921,163267,682403,0
2096921,2096921,163367,682342,0
2096921,2096921,163482,682303,0
2096921,2096921,163575,682337,0
2096921,2096921,163637,682094,0
2096921,2096921,163588,682395,0
2096921,2096921,163757,682420,0
2096921,2096921,163684,682254,0
2096921,2096921,163638,682050,0
2096921,2096921,163880,682411,0
2096921,2096921,163922,682314,0
2096921,2096921,163735,682385,0
2096921,2096921,163831,682776,0
2096921,2096921,163719,682227,0
2096921,2096921,163691,682280,0
2096921,2096921,163843,682385,0
2096921,2096921,163613,682053,0
2096921,2096921,163627,682035,0
2096921,2096921,163523,682163,0
2096921,2096921,163715,682474,0
2096921,2096921,163592,682044,0
2096921,2096921,163916,682182,0
2096921,2096921,163829,682156,0
2096921,2096921,163731,681824,0
2096921,2096921,163411,682207,0
2096921,2096921,163718,682211,0
2096921,2096921,163830,682370,0
2096921,2096921,163812,682234,0
2096921,2096921,163656,682381,0
2096921,2096921,163759,682033,0
2096921,2096921,163385,681986,0
2096921,2096921,163347,682382,0
2096921,2096921,163232,682392,0
2096921,2096921,163492,682196,0
2096921,2096921,163712,682162,0
2096921,2096921,163539,682120,0
2096921,2096921,163513,682246,0
2096921,2096921,163550,682297,0
2096921,2096921,163660,682217,0
2096921,2096921,163483,682015,0
2096921,2096921,163332,681876,0
2096921,2096921,163475,681856,0
2096921,2096921,163709,681981,0
2096921,2096921,163837,681894,0
2096921,2096921,163552,681870,0
2096921,2096921,163758,681969,0
2096921,2096921,163538,681790,0
2096921,2096921,163535,681990,0
2096921,2096921,163514,681941,0
2096921,2096921,163439,681991,0
2096921,2096921,163725,681665,0
2096921,2096921,163424,681717,0
2096921,2096921,163490,681604,0
2096921,2096921,163505,681734,0
2096921,2096921,163595,681707,0
2096921,2096921,163753,681464,0
2096921,2096921,163465,681676,0
2096921,2096921,163244,681420,0
2096921,2096921,163119,681547,0
2096921,2096921,163485,681529,0
2096921,2096921,163601,681466,0
2096921,2096921,163351,681232,0
2096921,2096921,163168,681383,0
2096921,2096921,163386,681323,0
2096921,2096921,163352,681192,0
2096921,2096921,163512,681035,0
2096921,2096921,163446,681155,0
2096921,2096921,163299,681020,0
2096921,2096921,163095,681262,0
2096921,2096921,163604,681471,0
2096921,2096921,163487,681191,0
2096921,2096921,163399,680827,0
2096921,2096921,163451,680797,0
2096921,2096921,163486,681288,0
2096921,2096921,163366,681195,0
2096921,2096921,163298,681084,0
2096921,2096921,163532,680986,0
2096921,2096921,163156,681037,0
2096921,2096921,163477,681119,0
2096921,2096921,163106,681144,0
2096921,2096921,163444,681047,0
2096921,2096921,163255,680804,0
2096921,2096921,163234,680473,0
2096921,2096921,163371,680713,0
2096921,2096921,163405,680708,0
2096921,2096921,163122,680595,0
2096921,2096921,163384,680411,0
2096921,2096921,163315,680556,0
2096921,2096921,163037,680665,0
2096921,2096921,163233,680259,0
2096921,2096921,163145,679785,0
2096921,2096921,162922,679850,0
2096921,2096921,162777,679860,0
2096921,2096921,163020,679821,0
2096921,2096921,162955,679519,0
2096921,2096921,162691,679641,0
2096921,2096921,162974,679536,0
2096921,2096921,162963,679591,0
2096921,2096921,162983,679608,0
2096921,2096921,162867,678886,0
2096921,2096921,162817,678473,0
2096921,2096921,162679,678107,0
2096921,2096921,162396,678337,0
2096921,2096921,162696,678196,0
2096921,2096921,162214,677463,0
2096921,2096921,162200,676932,0
2096921,2096921,162097,677019,0
2096921,2096921,162049,677227,0
2096921,2096921,162239,677217,0
2096921,2096921,161995,676226,0
2096921,2096921,162049,676230,0
2096921,2096921,161834,675937,0
2096921,2096921,161913,675923,0
2096921,2096921,161976,675984,0
2096921,2096921,161319,674239,0
2096921,2096921,161104,673334,0
2096921,2096921,161286,673309,0
2096921,2096921,161105,673369,0
2096921,2096921,161179,673260,0
2096921,2096921,160141,671392,0
2096921,2096921,160116,670266,0
2096921,2096921,159760,670225,0
2096921,2096921,160067,669960,0
2096921,2096921,160006,670239,0
2096921,2096921,159633,668609,0
2096921,2096921,159346,667997,0
2096921,2096921,159220,667527,0
2096921,2096921,159211,667781,0
2096921,2096921,159595,667513,0
2096921,2096921,158882,666546,0
2096921,2096921,158603,665806,0
2096921,2096921,158682,665614,0
2096921,2096921,158698,665648,0
2096921,2096921,158668,665634,0
2096921,2096921,157995,664763,0
2096921,2096921,158164,664224,0
2096921,2096921,158024,664308,0
2096921,2096921,158238,664308,0
2096921,2096921,158111,664115,0
2096921,2096921,157738,663717,0
2096921,2096921,158198,663009,0
2096921,2096921,158138,662942,0
2096921,2096921,158019,662958,0
2096921,2096921,158009,663169,0
2096921,2096921,157812,662769,0
2096921,2096921,157760,662609,0
2096921,2096921,157643,662246,0
2096921,2096921,157373,662286,0
2096921,2096921,157544,662233,0
2096921,2096921,157847,661924,0
2096921,2096921,157256,661780,0
2096921,2096921,157412,661963,0
2096921,2096921,157675,661548,0
2096921,2096921,157612,661643,0
2096921,2096921,157225,661591,0
2096921,2096921,157077,661322,0
2096921,2096921,157377,661559,0
2096921,2096921,157483,661427,0
2096921,2096921,157341,661501,0
2096921,2096921,157263,660987,0
2096921,2096921,157176,661062,0
2096921,2096921,157203,661154,0
2096921,2096921,157279,660965,0
2096921,2096921,157253,661157,0
2096921,2096921,157151,661437,0
2096921,2096921,157421,661288,0
2096921,2096921,157540,661258,0
2096921,2096921,157382,661135,0
2096921,2096921,157413,661036,0
2096921,2096921,157242,660992,0
2096921,2096921,157218,661046,0
2096921,2096921,157324,660901,0
2096921,2096921,157155,661176,0
2096921,2096921,157376,660999,0
2096921,2096921,157165,661033,0
2096921,2096921,157495,661047,0
2096921,2096921,157558,660951,0
2096921,2096921,157172,660902,0
2096921,2096921,157216,661023,0
2096921,2096921,157347,661339,0
2096921,2096921,157325,661418,0
2096921,2096921,157218,661238,0
2096921,2096921,157614,661072,0
2096921,2096921,157304,660750,0
2096921,2096921,157466,661456,0
2096921,2096921,157579,661488,0
2096921,2096921,157719,661535,0
2096921,2096921,157800,661473,0
2096921,2096921,157767,661508,0
2096921,2096921,157398,661883,0
2096921,2096921,157753,661672,0
2096921,2096921,157324,661782,0
2096921,2096921,157715,661763,0
2096921,2096921,157390,661809,0
2096921,2096921,157772,661863,0
2096921,2096921,157811,662248,0
2096921,2096921,157857,661954,0
2096921,2096921,157576,661940,0
2096921,2096921,157565,662049,0
2096921,2096921,157779,662147,0
2096921,2096921,158052,662154,0
2096921,2096921,157965,662414,0
2096921,2096921,157698,662320,0
2096921,2096921,157604,662094,0
2096921,2096921,157797,662373,0
2096921,2096921,157716,662544,0
2096921,2096921,157677,662631,0
2096921,2096921,157938,662516,0
2096921,2096921,157790,662555,0
2096921,2096921,157977,662797,0
2096921,2096921,158046,662916,0
2096921,2096921,158019,662856,0
2096921,2096921,158092,662606,0
2096921,2096921,158175,662766,0
2096921,2096921,158127,662543,0
2096921,2096921,158303,662854,0
2096921,2096921,158051,663125,0
2096921,2096921,157940,663033,0
2096921,2096921,157797,663127,0
2096921,2096921,158191,663573,0
2096921,2096921,158334,663186,0
2096921,2096921,158443,663002,0
2096921,2096921,158135,663146,0
2096921,2096921,158096,663187,0
2096921,2096921,158040,663586,0
2096921,2096921,158060,663668,0
2096921,2096921,158364,663557,0
2096921,2096921,158494,663536,0
2096921,2096921,158485,663729,0
2096921,2096921,158530,663830,0
2096921,2096921,158623,663846,0
2096921,2096921,158480,663921,0
2096921,2096921,158306,663782,0
2096921,2096921,158490,664106,0
2096921,2096921,158542,664193,0
2096921,2096921,158464,664319,0
2096921,2096921,158376,664237,0
2096921,2096921,158366,664387,0
2096921,2096921,158522,664066,0
2096921,2096921,158623,664472,0
2096921,2096921,158702,664103,0
2096921,2096921,158893,664090,0
2096921,2096921,158544,664021,0
2096921,2096921,158547,664187,0
2096921,2096921,158854,664235,0
2096921,2096921,158732,664396,0
2096921,2096921,158872,664690,0
2096921,2096921,159032,664541,0
2096921,2096921,158693,664218,0
2096921,2096921,158703,664347,0
2096921,2096921,158432,664420,0
2096921,2096921,158628,664594,0
2096921,2096921,158791,664728,0
2096921,2096921,158625,664824,0
2096921,2096921,158817,664737,0
2096921,2096921,158582,664271,0
2096921,2096921,158924,664664,0
2096921,2096921,158703,664672,0
2096921,2096921,158837,664824,0
2096921,2096921,158486,664474,0
2096921,2096921,158637,664435,0
2096921,2096921,158544,664671,0
2096921,2096921,158664,664278,0
2096921,2096921,158653,664467,0
2096921,2096921,158559,664316,0
2096921,2096921,158464,664249,0
2096921,2096921,158759,664214,0
2096921,2096921,158465,664026,0
2096921,2096921,158550,663847,0
2096921,2096921,158369,664119,0
2096921,2096921,158626,663678,0
2096921,2096921,158235,664058,0
2096921,2096921,158618,663865,0
2096921,2096921,158618,663745,0
2096921,2096921,158589,663470,0
2096921,2096921,158226,663618,0
2096921,2096921,158442,663262,0
2096921,2096921,158444,663451,0
2096921,2096921,158379,663703,0
2096921,2096921,158581,663414,0
2096921,2096921,158372,662957,0
2096921,2096921,158472,663006,0
2096921,2096921,158232,663129,0
2096921,2096921,158420,662912,0
2096921,2096921,158042,663226,0
2096921,2096921,158409,662954,0
2096921,2096921,158435,662785,0
2096921,2096921,158138,662869,0
2096921,2096921,158254,662690,0
2096921,2096921,158417,662654,0
2096921,2096921,158314,662572,0
2096921,2096921,158234,662212,0
2096921,2096921,158336,662144,0
2096921,2096921,158131,662249,0
2096921,2096921,157989,662321,0
2096921,2096921,157749,661763,0
2096921,2096921,157881,661734,0
2096921,2096921,158111,661861,0
2096921,2096921,158004,661523,0
2096921,2096921,157990,661722,0
2096921,2096921,158068,661456,0
2096921,2096921,157820,661686,0
2096921,2096921,157727,661292,0
2096921,2096921,157821,661578,0
2096921,2096921,157890,661398,0
2096921,2096921,157873,661381,0
2096921,2096921,158108,661045,0
2096921,2096921,157835,661657,0
2096921,2096921,158079,661486,0
2096921,2096921,157905,661288,0
2096921,2096921,157858,661033,0
2096921,2096921,157604,661186,0
2096921,2096921,157745,661108,0
2096921,2096921,157732,661061,0
2096921,2096921,157686,661054,0
2096921,2096921,157952,661024,0
2096921,2096921,157748,661113,0
2096921,2096921,157904,660891,0
2096921,2096921,157648,660734,0
2096921,2096921,157981,660995,0
2096921,2096921,157586,660769,0
2096921,2096921,157569,660750,0
2096921,2096921,157655,661147,0
2096921,2096921,157864,660928,0
2096921,2096921,157685,660986,0
2096921,2096921,157848,660941,0
2096921,2096921,157803,661304,0
2096921,2096921,157865,661063,0
2096921,2096921,157994,660831,0
2096921,2096921,157894,661117,0
2096921,2096921,158080,661211,0
2096921,2096921,157952,661202,0
2096921,2096921,158013,661009,0
2096921,2096921,157928,661257,0
2096921,2096921,157830,661524,0
2096921,2096921,157791,661427,0
2096921,2096921,157897,661065,0
2096921,2096921,158021,661360,0
2096921,2096921,158047,661284,0
2096921,2096921,158060,661447,0
2096921,2096921,158144,661265,0
2096921,2096921,158164,661568,0
2096921,2096921,158021,661616,0
2096921,2096921,157897,661091,0
2096921,2096921,158146,661237,0
2096921,2096921,157832,661565,0
2096921,2096921,157833,661585,0
2096921,2096921,158280,661452,0
2096921,2096921,158206,661626,0
2096921,2096921,157875,661755,0
2096921,2096921,157880,661679,0
2096921,2096921,157811,661772,0
2096921,2096921,157896,661445,0
2096921,2096921,158220,661407,0
2096921,2096921,157989,661385,0
2096921,2096921,158026,661448,0
2096921,2096921,158160,661735,0
2096921,2096921,158184,661754,0
2096921,2096921,157970,661817,0
2096921,2096921,158230,661787,0
2096921,2096921,158213,661995,0
2096921,2096921,158003,661632,0
2096921,2096921,158088,661995,0
2096921,2096921,157973,661780,0
2096921,2096921,158292,662034,0
2096921,2096921,158084,661589,0
2096921,2096921,158102,661756,0
2096921,2096921,158119,661742,0
2096921,2096921,158225,661765,0
2096921,2096921,158210,661933,0
2096921,2096921,158171,661669,0
2096921,2096921,158305,661818,0
2096921,2096921,158269,661960,0
2096921,2096921,158426,661778,0
2096921,2096921,158419,661782,0
2096921,2096921,158564,662193,0
2096921,2096921,158414,662084,0
2096921,2096921,158153,662133,0
2096921,2096921,158415,662099,0
2096921,2096921,158425,662411,0
2096921,2096921,158297,662147,0
2096921,2096921,158310,662388,0
2096921,2096921,158169,662098,0
2096921,2096921,158139,662081,0
2096921,2096921,158325,661773,0
2096921,2096921,158345,662188,0
2096921,2096921,158139,662084,0
2096921,2096921,158275,662018,0
2096921,2096921,158045,662106,0
2096921,2096921,158442,662213,0
2096921,2096921,158554,662269,0
2096921,2096921,158375,662204,0
2096921,2096921,158596,661986,0
2096921,2096921,158396,661994,0
2096921,2096921,158503,662345,0
2096921,2096921,158583,662307,0
2096921,2096921,158289,662344,0
2096921,2096921,158349,661978,0
2096921,2096921,158394,662454,0
2096921,2096921,158457,662221,0
2096921,2096921,158448,662295,0
2096921,2096921,158546,662184,0
2096921,2096921,158585,662319,0
2096921,2096921,158224,662115,0
2096921,2096921,158747,662513,0
2096921,2096921,158481,662387,0
2096921,2096921,158633,662403,0
2096921,2096921,158571,662379,0
2096921,2096921,158686,662206,0
2096921,2096921,158387,662636,0
2096921,2096921,158546,662396,0
2096921,2096921,158500,662324,0
2096921,2096921,158529,662305,0
2096921,2096921,158372,662548,0
2096921,2096921,158501,662298,0
2096921,2096921,158558,662847,0
2096921,2096921,158769,662383,0
2096921,2096921,158815,662617,0
2096921,2096921,158767,662588,0
2096921,2096921,158595,662421,0
2096921,2096921,158660,662485,0
2096921,2096921,158641,662209,0
2096921,2096921,158768,662389,0
2096921,2096921,158886,662350,0
2096921,2096921,158666,662328,0
2096921,2096921,158511,662455,0
2096921,2096921,158449,662308,0
2096921,2096921,158602,662513,0
2096921,2096921,158877,662717,0
2096921,2096921,158874,662504,0
2096921,2096921,158656,662733,0
2096921,2096921,158546,662422,0
2096921,2096921,158617,662557,0
2096921,2096921,158469,662422,0
2096921,2096921,158614,662608,0
2096921,2096921,158845,662508,0
2096921,2096921,158569,662485,0
2096921,2096921,158414,662661,0
2096921,2096921,158558,662458,0
2096921,2096921,158915,662511,0
2096921,2096921,158614,663001,0
2096921,2096921,158764,662711,0
2096921,2096921,158657,662619,0
2096921,2096921,158729,662510,0
2096921,2096921,158881,662502,0
2096921,2096921,158727,662788,0
2096921,2096921,158474,662721,0
2096921,2096921,158565,662659,0
2096921,2096921,158642,662765,0
2096921,2096921,158546,662738,0
2096921,2096921,158660,662565,0
2096921,2096921,158664,662718,0
2096921,2096921,158572,662759,0
2096921,2096921,158723,662562,0
2096921,2096921,158744,662831,0
2096921,2096921,158686,663095,0
2096921,2096921,158732,662903,0
2096921,2096921,158781,662968,0
2096921,2096921,158715,662726,0
2096921,2096921,158573,662590,0
2096921,2096921,158814,662551,0
2096921,2096921,158934,662698,0
2096921,2096921,158978,662607,0
2096921,2096921,158695,662272,0
2096921,2096921,158632,662350,0
2096921,2096921,158564,662792,0
2096921,2096921,158548,662658,0
2096921,2096921,158712,662495,0
2096921,2096921,158549,662421,0
2096921,2096921,158679,662614,0
2096921,2096921,158596,662289,0
2096921,2096921,158470,662586,0
2096921,2096921,158780,662590,0
2096921,2096921,158354,662793,0
2096921,2096921,158717,662656,0
2096921,2096921,158276,662483,0
2096921,2096921,158400,662598,0
2096921,2096921,158572,662671,0
2096921,2096921,158699,662929,0
2096921,2096921,158490,662766,0
2096921,2096921,158371,662606,0
2096921,2096921,158466,662780,0
2096921,2096921,158724,662547,0
2096921,2096921,158574,662521,0
2096921,2096921,158565,662711,0
2096921,2096921,158735,662708,0
2096921,2096921,158692,662474,0
2096921,2096921,158514,662869,0
2096921,2096921,158642,662859,0
2096921,2096921,158499,662693,0
2096921,2096921,158315,662583,0
2096921,2096921,158689,662677,0
2096921,2096921,158471,662539,0
2096921,2096921,158534,662610,0
2096921,2096921,158576,662610,0
2096921,2096921,158807,662584,0
2096921,2096921,158764,662505,0
2096921,2096921,158708,662548,0
2096921,2096921,158801,662359,0
2096921,2096921,158909,662585,0
2096921,2096921,158406,662643,0
2096921,2096921,158639,662258,0
2096921,2096921,158598,662597,0
2096921,2096921,158846,662500,0
2096921,2096921,158634,662449,0
2096921,2096921,158432,662951,0
2096921,2096921,158724,663106,0
2096921,2096921,158726,662674,0
2096921,2096921,158827,663119,0
2096921,2096921,158946,662961,0
2096921,2096921,158918,662692,0
2096921,2096921,158516,662758,0
2096921,2096921,158548,662703,0
2096921,2096921,158631,662938,0
2096921,2096921,158720,662852,0
2096921,2096921,158819,662486,0
2096921,2096921,158918,662639,0
2096921,2096921,158628,662608,0
2096921,2096921,159018,662778,0
2096921,2096921,158976,662899,0
2096921,2096921,158963,662796,0
2096921,2096921,158772,662770,0
2096921,2096921,158829,662498,0
2096921,2096921,158720,662781,0
2096921,2096921,158893,662838,0
2096921,2096921,158620,662830,0
2096921,2096921,158788,662881,0
2096921,2096921,158664,662887,0
2096921,2096921,158521,662861,0
2096921,2096921,158804,662966,0
2096921,2096921,158878,662690,0
2096921,2096921,158918,662880,0
2096921,2096921,158740,662574,0
2096921,2096921,158552,662876,0
2096921,2096921,158602,662832,0
2096921,2096921,158820,662612,0
2096921,2096921,158655,662724,0
2096921,2096921,158743,663049,0
2096921,2096921,158878,662677,0
2096921,2096921,158881,663080,0
2096921,2096921,158619,663065,0
2096921,2096921,158812,662823,0
2096921,2096921,158733,662854,0
2096921,2096921,158764,662925,0
2096921,2096921,158949,662790,0
2096921,2096921,158940,662783,0
2096921,2096921,159145,663171,0
2096921,2096921,159077,662874,0
2096921,2096921,158806,663248,0
2096921,2096921,158777,662972,0
2096921,2096921,158803,663041,0
2096921,2096921,158991,662813,0
2096921,2096921,158880,662920,0
2096921,2096921,158620,662817,0
2096921,2096921,158693,662859,0
2096921,2096921,158741,663018,0
2096921,2096921,158802,663079,0
2096921,2096921,158690,662750,0
2096921,2096921,158926,662440,0
2096921,2096921,158914,662907,0
2096921,2096921,158764,662783,0
2096921,2096921,158677,662822,0
2096921,2096921,158882,662957,0
2096921,2096921,158763,662951,0
2096921,2096921,158803,662903,0
2096921,2096921,159060,662469,0
2096921,2096921,158842,662948,0
2096921,2096921,158710,662712,0
2096921,2096921,158959,662752,0
2096921,2096921,158974,663006,0
2096921,2096921,159024,662817,0
2096921,2096921,158874,663003,0
2096921,2096921,158897,662918,0
2096921,2096921,158888,663177,0
2096921,2096921,158892,662769,0
2096921,2096921,158934,662984,0
2096921,2096921,158746,662574,0
2096921,2096921,158842,662632,0
2096921,2096921,158869,662741,0
2096921,2096921,158944,662782,0
2096921,2096921,158821,662811,0
2096921,2096921,158886,662999,0
2096921,2096921,158578,662742,0
2096921,2096921,158682,662663,0
2096921,2096921,158625,662777,0
2096921,2096921,158580,662720,0
2096921,2096921,158644,663056,0
2096921,2096921,158878,663071,0
2096921,2096921,158998,663059,0
2096921,2096921,158788,662593,0
2096921,2096921,158930,662526,0
2096921,2096921,158706,662267,0
2096921,2096921,158796,662476,0
2096921,2096921,158738,662320,0
2096921,2096921,158682,661856,0
2096921,2096921,158522,661873,0
2096921,2096921,158454,661817,0
2096921,2096921,158345,661933,0
2096921,2096921,158474,661869,0
2096921,2096921,158104,661371,0
2096921,2096921,158225,661234,0
2096921,2096921,158006,661098,0
2096921,2096921,158127,660988,0
2096921,2096921,158468,661149,0
2096921,2096921,158250,660435,0
2096921,2096921,158107,659937,0
2096921,2096921,157885,659902,0
2096921,2096921,158133,659861,0
2096921,2096921,158007,660229,0
2096921,2096921,157774,659394,0
2096921,2096921,157488,659145,0
2096921,2096921,157416,659118,0
2096921,2096921,157471,658956,0
2096921,2096921,157797,659067,0
2096921,2096921,156965,657541,0
2096921,2096921,157043,656984,0
2096921,2096921,156522,656757,0
2096921,2096921,156750,656603,0
2096921,2096921,156634,656807,0
2096921,2096921,156290,654838,0
2096921,2096921,156241,654385,0
2096921,2096921,156149,653747,0
2096921,2096921,155952,653766,0
2096921,2096921,156075,653709,0
2096921,2096921,155358,652545,0
2096921,2096921,155157,651943,0
2096921,2096921,155501,651926,0
2096921,2096921,155088,651911,0
2096921,2096921,155306,651591,0
2096921,2096921,154844,650465,0
2096921,2096921,154831,649935,0
2096921,2096921,154739,649883,0
2096921,2096921,155029,650090,0
2096921,2096921,154477,650254,0
2096921,2096921,154386,649263,0
2096921,2096921,154302,648814,0
2096921,2096921,154169,648626,0
2096921,2096921,154385,648863,0
2096921,2096921,154406,649047,0
2096921,2096921,154253,648360,0
2096921,2096921,154223,648115,0
2096921,2096921,154378,648273,0
2096921,2096921,154122,648157,0
2096921,2096921,154045,648008,0
2096921,2096921,154068,647642,0
2096921,2096921,153981,647021,0
2096921,2096921,153691,647268,0
2096921,2096921,153929,647365,0
2096921,2096921,153855,647342,0
2096921,2096921,154067,647136,0
2096921,2096921,153826,646757,0
2096921,2096921,154021,646835,0
2096921,2096921,153809,646776,0
2096921,2096921,153520,646964,0
2096921,2096921,153647,647057,0
2096921,2096921,153679,646864,0
2096921,2096921,153944,646874,0
2096921,2096921,153929,646451,0
2096921,2096921,153703,646958,0
2096921,2096921,153805,646827,0
2096921,2096921,153677,646800,0
2096921,2096921,153685,646942,0
2096921,2096921,153981,646602,0
2096921,2096921,154055,647002,0
2096921,2096921,154050,646708,0
2096921,2096921,153769,646875,0
2096921,2096921,153848,647120,0
2096921,2096921,153895,647121,0
2096921,2096921,153853,647138,0
2096921,2096921,153987,647411,0
2096921,2096921,153838,647265,0
2096921,2096921,154029,647050,0
2096921,2096921,154016,646952,0
2096921,2096921,153923,647481,0
2096921,2096921,153775,647254,0
2096921,2096921,153930,647389,0
2096921,2096921,153804,647334,0
2096921,2096921,153892,647550,0
2096921,2096921,153514,647446,0
2096921,2096921,154034,647738,0
2096921,2096921,154014,648178,0
2096921,2096921,154041,648076,0
2096921,2096921,154003,647397,0
2096921,2096921,154272,647834,0
2096921,2096921,154156,648061,0
2096921,2096921,154140,648346,0
2096921,2096921,154044,648342,0
2096921,2096921,154167,648376,0
2096921,2096921,154047,648466,0
2096921,2096921,154285,649059,0
2096921,2096921,154428,648883,0
2096921,2096921,154320,649128,0
2096921,2096921,154479,648829,0
2096921,2096921,154255,648665,0
2096921,2096921,154519,649071,0
2096921,2096921,154176,649345,0
2096921,2096921,154437,649684,0
2096921,2096921,154274,649282,0
2096921,2096921,154491,649395,0
2096921,2096921,154581,649877,0
2096921,2096921,154921,649655,0
2096921,2096921,154944,649935,0
2096921,2096921,154967,649659,0
2096921,2096921,154606,649859,0
2096921,2096921,154618,650213,0
2096921,2096921,154588,650129,0
2096921,2096921,154747,650381,0
2096921,2096921,154844,650428,0
2096921,2096921,154684,650170,0
2096921,2096921,154855,650635,0
2096921,2096921,155116,650705,0
2096921,2096921,154995,650999,0
2096921,2096921,155196,650712,0
2096921,2096921,154679,650857,0
2096921,2096921,155016,651119,0
2096921,2096921,154957,651270,0
2096921,2096921,154854,651158,0
2096921,2096921,154611,651332,0
2096921,2096921,155060,651590,0
2096921,2096921,155204,651754,0
2096921,2096921,155029,651809,0
2096921,2096921,155304,651885,0
2096921,2096921,155068,651835,0
2096921,2096921,155127,651966,0
2096921,2096921,155516,652111,0
2096921,2096921,155565,652657,0
2096921,2096921,155663,652241,0
2096921,2096921,155456,652606,0
2096921,2096921,155373,652460,0
2096921,2096921,155497,652894,0
2096921,2096921,155620,653229,0
2096921,2096921,155578,653042,0
2096921,2096921,155793,653155,0
2096921,2096921,155965,652953,0
2096921,2096921,155667,653330,0
2096921,2096921,155780,653460,0
2096921,2096921,155839,653635,0
2096921,2096921,155952,653740,0
2096921,2096921,155749,653696,0
2096921,2096921,156108,653884,0
2096921,2096921,155943,653770,0
2096921,2096921,155982,654126,0
2096921,2096921,156309,654245,0
2096921,2096921,155879,653908,0
2096921,2096921,155919,654470,0
2096921,2096921,155893,654701,0
2096921,2096921,156171,654573,0
2096921,2096921,156209,654437,0
2096921,2096921,156208,654608,0
2096921,2096921,156205,654587,0
2096921,2096921,156148,655035,0
2096921,2096921,156207,654884,0
2096921,2096921,155992,654831,0
2096921,2096921,156295,655036,0
2096921,2096921,156535,655072,0
2096921,2096921,156544,655209,0
2096921,2096921,156412,655178,0
2096921,2096921,156383,655407,0
2096921,2096921,156333,655010,0
2096921,2096921,156473,655614,0
2096921,2096921,156474,655694,0
2096921,2096921,156397,655317,0
2096921,2096921,156580,655395,0
2096921,2096921,156535,655375,0
2096921,2096921,156514,655265,0
2096921,2096921,156357,655436,0
2096921,2096921,156354,655624,0
2096921,2096921,156554,655714,0
2096921,2096921,156347,655626,0
2096921,2096921,156571,655737,0
2096921,2096921,156256,655524,0
2096921,2096921,156504,655542,0
2096921,2096921,156374,655497,0
2096921,2096921,156409,655928,0
2096921,2096921,156511,655480,0
2096921,2096921,156442,655470,0
2096921,2096921,156504,655739,0
2096921,2096921,156612,655876,0
2096921,2096921,156533,655592,0
2096921,2096921,156630,655808,0
2096921,2096921,156417,655660,0
2096921,2096921,156451,655515,0
2096921,2096921,156493,655630,0
2096921,2096921,156284,655594,0
2096921,2096921,156647,655627,0
2096921,2096921,156567,655544,0
2096921,2096921,156567,655373,0
2096921,2096921,156310,655498,0
2096921,2096921,156503,655516,0
2096921,2096921,156388,655665,0
2096921,2096921,156629,655161,0
2096921,2096921,156254,655371,0
2096921,2096921,156422,655538,0
2096921,2096921,156278,655399,0
2096921,2096921,156303,655382,0
2096921,2096921,156331,655466,0
2096921,2096921,156430,655473,0
2096921,2096921,156742,655484,0
2096921,2096921,156442,655564,0
2096921,2096921,156527,655347,0
2096921,2096921,156046,655677,0
2096921,2096921,156621,655683,0
2096921,2096921,156351,655339,0
2096921,2096921,156461,655635,0
2096921,2096921,156387,655806,0
2096921,2096921,156434,655763,0
2096921,2096921,156600,655603,0
2096921,2096921,156323,655749,0
2096921,2096921,156461,655829,0
2096921,2096921,156522,655772,0
2096921,2096921,156512,655941,0
2096921,2096921,156404,655974,0
2096921,2096921,156243,655969,0
2096921,2096921,156357,655942,0
2096921,2096921,156607,656025,0
2096921,2096921,156453,656261,0
2096921,2096921,156515,656156,0
2096921,2096921,156545,656241,0
2096921,2096921,156493,655887,0
2096921,2096921,156561,656437,0
2096921,2096921,156874,656274,0
2096921,2096921,157029,656441,0
2096921,2096921,156953,656432,0
2096921,2096921,156569,656739,0
2096921,2096921,156644,657048,0
2096921,2096921,156997,656664,0
2096921,2096921,156739,656788,0
2096921,2096921,156805,656769,0
2096921,2096921,157037,656869,0
2096921,2096921,157180,657492,0
2096921,2096921,156893,657868,0
2096921,2096921,156938,657708,0
2096921,2096921,156993,657619,0
2096921,2096921,157037,657466,0
2096921,2096921,156889,657915,0
2096921,2096921,156757,657876,0
2096921,2096921,157003,658022,0
2096921,2096921,157205,657932,0
2096921,2096921,156948,658144,0
2096921,2096921,157288,658127,0
2096921,2096921,157411,658732,0
2096921,2096921,157183,658741,0
2096921,2096921,157190,658720,0
2096921,2096921,157004,658621,0
2096921,2096921,157153,658979,0
2096921,2096921,157771,658677,0
2096921,2096921,157335,658922,0
2096921,2096921,157226,659134,0
2096921,2096921,157480,659153,0
2096921,2096921,157653,659342,0
2096921,2096921,157876,659550,0
2096921,2096921,157516,659319,0
2096921,2096921,157469,659614,0
2096921,2096921,157494,659492,0
2096921,2096921,157573,659764,0
2096921,2096921,157591,660065,0
2096921,2096921,157211,660282,0
2096921,2096921,157754,660243,0
2096921,2096921,157881,659963,0
2096921,2096921,158003,660562,0
2096921,2096921,158152,660322,0
2096921,2096921,158118,660356,0
2096921,2096921,158044,660555,0
2096921,2096921,158086,660614,0
2096921,2096921,158001,661029,0
2096921,2096921,157942,660964,0
2096921,2096921,158077,660991,0
2096921,2096921,157988,661245,0
2096921,2096921,157939,661002,0
2096921,2096921,158126,661235,0
2096921,2096921,158040,661454,0
2096921,2096921,158340,661569,0
2096921,2096921,158024,661826,0
2096921,2096921,157979,661558,0
2096921,2096921,158106,661767,0
2096921,2096921,158293,661868,0
2096921,2096921,158118,661856,0
2096921,2096921,158218,661730,0
2096921,2096921,158194,661906,0
2096921,2096921,158211,662396,0
2096921,2096921,158454,662418,0
2096921,2096921,158354,662418,0
2096921,2096921,158661,662514,0
2096921,2096921,158421,662375,0
2096921,2096921,158369,662594,0
2096921,2096921,158707,662772,0
2096921,2096921,158582,662974,0
2096921,2096921,158634,662985,0
2096921,2096921,158453,663022,0
2096921,2096921,158486,663342,0
2096921,2096921,158841,663502,0
2096921,2096921,158656,663326,0
2096921,2096921,158579,663292,0
2096921,2096921,158463,663302,0
2096921,2096921,158869,663590,0
2096921,2096921,159079,663817,0
2096921,2096921,158917,663869,0
2096921,2096921,158622,663844,0
2096921,2096921,158821,663931,0
2096921,2096921,158778,664393,0
2096921,2096921,158967,664252,0
2096921,2096921,159235,664472,0
2096921,2096921,159212,664248,0
2096921,2096921,159162,664214,0
2096921,2096921,159121,664527,0
2096921,2096921,159168,664833,0
2096921,2096921,159017,665067,0
2096921,2096921,159138,665019,0
2096921,2096921,159030,664855,0
2096921,2096921,159052,665289,0
2096921,2096921,159434,665110,0
2096921,2096921,159336,664911,0
2096921,2096921,159136,665021,0
2096921,2096921,159150,664960,0
2096921,2096921,159327,665664,0
2096921,2096921,159491,665535,0
2096921,2096921,159720,665816,0
2096921,2096921,159336,665687,0
2096921,2096921,159478,665522,0
2096921,2096921,159223,666123,0
2096921,2096921,159401,666205,0
2096921,2096921,159479,666234,0
2096921,2096921,159539,665754,0
2096921,2096921,159664,666125,0
2096921,2096921,159580,666375,0
2096921,2096921,159724,666631,0
2096921,2096921,159632,666334,0
2096921,2096921,159663,666754,0
2096921,2096921,159698,666762,0
2096921,2096921,159825,667243,0
2096921,2096921,159842,667317,0
2096921,2096921,159836,667170,0
2096921,2096921,159713,667066,0
2096921,2096921,159736,667170,0
2096921,2096921,159794,667377,0
2096921,2096921,159782,667479,0
2096921,2096921,160065,667405,0
2096921,2096921,159818,667422,0
2096921,2096921,159690,667475,0
2096921,2096921,159878,667921,0
2096921,2096921,159919,667983,0
2096921,2096921,159893,667906,0
2096921,2096921,159832,668001,0
2096921,2096921,159970,668046,0
2096921,2096921,160090,668162,0
2096921,2096921,160299,668130,0
2096921,2096921,160240,668382,0
2096921,2096921,160120,668385,0
2096921,2096921,160098,668267,0
2096921,2096921,160003,668104,0
2096921,2096921,160236,668833,0
2096921,2096921,159964,668571,0
2096921,2096921,160109,668629,0
2096921,2096921,159871,668778,0
2096921,2096921,160564,669024,0
2096921,2096921,160449,669079,0
2096921,2096921,160345,669141,0
2096921,2096921,160064,669355,0
2096921,2096921,160271,669220,0
2096921,2096921,160329,669337,0
2096921,2096921,160317,669631,0
2096921,2096921,160133,669237,0
2096921,2096921,160246,669655,0
2096921,2096921,160057,669432,0
2096921,2096921,160549,669627,0
2096921,2096921,160609,669960,0
2096921,2096921,160453,669789,0
2096921,2096921,160383,669634,0
2096921,2096921,160497,669788,0
2096921,2096921,160583,669905,0
2096921,2096921,160638,669932,0
2096921,2096921,160399,670284,0
2096921,2096921,160400,670084,0
2096921,2096921,160669,670151,0
2096921,2096921,160595,670628,0
2096921,2096921,160891,670437,0
2096921,2096921,160537,670611,0
2096921,2096921,160691,670762,0
2096921,2096921,160347,670894,0
2096921,2096921,161014,670855,0
2096921,2096921,160737,670754,0
2096921,2096921,160956,670793,0
2096921,2096921,160679,671192,0
2096921,2096921,160817,670842,0
2096921,2096921,160891,671351,0
2096921,2096921,160717,671346,0
2096921,2096921,160834,671449,0
2096921,2096921,160756,670895,0
2096921,2096921,160843,671249,0
2096921,2096921,161049,671230,0
2096921,2096921,161021,671557,0
2096921,2096921,160946,671865,0
2096921,2096921,160974,671523,0
2096921,2096921,161112,671724,0
2096921,2096921,161050,671887,0
2096921,2096921,161011,672006,0
2096921,2096921,161105,672235,0
2096921,2096921,160961,672080,0
2096921,2096921,160921,672165,0
2096921,2096921,160969,672356,0
2096921,2096921,160986,672241,0
2096921,2096921,161001,672254,0
2096921,2096921,161255,672343,0
2096921,2096921,161186,672437,0
2096921,2096921,161300,672476,0
2096921,2096921,161346,672591,0
2096921,2096921,161179,672528,0
2096921,2096921,161197,672740,0
2096921,2096921,161142,672620,0
2096921,2096921,161134,672959,0
2096921,2096921,161174,673128,0
2096921,2096921,161317,673267,0
2096921,2096921,161216,673011,0
2096921,2096921,161117,673064,0
2096921,2096921,160943,673134,0
2096921,2096921,161382,673327,0
2096921,2096921,161536,673494,0
2096921,2096921,161448,673340,0
2096921,2096921,161429,673582,0
2096921,2096921,161623,673476,0
2096921,2096921,161493,673593,0
2096921,2096921,161445,673673,0
2096921,2096921,161523,673895,0
2096921,2096921,161558,673645,0
2096921,2096921,161527,674169,0
2096921,2096921,161676,673902,0
2096921,2096921,161647,674033,0
2096921,2096921,161622,673925,0
2096921,2096921,161689,673966,0
2096921,2096921,161587,674069,0
2096921,2096921,161630,674258,0
2096921,2096921,161453,674023,0
2096921,2096921,161721,674096,0
2096921,2096921,161516,674481,0
2096921,2096921,161954,674345,0
2096921,2096921,161779,674468,0
2096921,2096921,161917,674570,0
2096921,2096921,162083,674724,0
2096921,2096921,161550,674782,0
2096921,2096921,162019,674849,0
2096921,2096921,161577,674897,0
2096921,2096921,161791,674933,0
2096921,2096921,161857,674964,0
2096921,2096921,161979,675024,0
2096921,2096921,161721,675140,0
2096921,2096921,162099,675210,0
2096921,2096921,161910,675049,0
2096921,2096921,161919,675060,0
2096921,2096921,162029,675216,0
2096921,2096921,161984,675498,0
2096921,2096921,161987,675661,0
2096921,2096921,162051,675280,0
2096921,2096921,162243,675419,0
2096921,2096921,161971,675275,0
2096921,2096921,162034,675352,0
2096921,2096921,162085,675723,0
2096921,2096921,162098,675920,0
2096921,2096921,162174,675712,0
2096921,2096921,162360,675963,0
2096921,2096921,162264,676110,0
2096921,2096921,162114,676289,0
2096921,2096921,162110,676169,0
2096921,2096921,162206,676172,0
2096921,2096921,162236,676041,0
2096921,2096921,161947,676296,0
2096921,2096921,162186,676422,0
2096921,2096921,162347,676059,0
2096921,2096921,162183,675924,0
2096921,2096921,162238,676106,0
2096921,2096921,162077,676387,0
2096921,2096921,162219,676362,0
2096921,2096921,162139,676653,0
2096921,2096921,162043,676290,0
2096921,2096921,162127,676443,0
2096921,2096921,162265,676319,0
2096921,2096921,162472,676689,0
2096921,2096921,162392,676548,0
2096921,2096921,162171,676802,0
2096921,2096921,162405,676787,0
2096921,2096921,162437,676837,0
2096921,2096921,162475,677059,0
2096921,2096921,162617,676794,0
2096921,2096921,162104,676591,0
2096921,2096921,162359,676944,0
2096921,2096921,162182,677161,0
2096921,2096921,162443,677352,0
2096921,2096921,162488,677149,0
2096921,2096921,162734,676891,0
2096921,2096921,162168,677354,0
2096921,2096921,162255,677170,0
2096921,2096921,162305,676977,0
2096921,2096921,162639,677116,0
2096921,2096921,162427,677011,0
2096921,2096921,162336,677047,0
2096921,2096921,162298,676901,0
2096921,2096921,162458,677028,0
2096921,2096921,162252,676909,0
2096921,2096921,162252,676652,0
2096921,2096921,162048,676862,0
2096921,2096921,162186,676467,0
2096921,2096921,161965,676265,0
2096921,2096921,161994,676211,0
2096921,2096921,161914,675899,0
2096921,2096921,161942,675855,0
2096921,2096921,162096,675745,0
2096921,2096921,162009,675544,0
2096921,2096921,162004,675387,0
2096921,2096921,162086,675476,0
2096921,2096921,161755,675506,0
2096921,2096921,161611,675021,0
2096921,2096921,161405,674743,0
2096921,2096921,161608,674649,0
2096921,2096921,161348,674437,0
2096921,2096921,161179,674574,0
2096921,2096921,160959,672976,0
2096921,2096921,160651,672616,0
2096921,2096921,160650,672498,0
2096921,2096921,160687,672822,0
2096921,2096921,160635,672371,0
2096921,2096921,160143,670436,0
2096921,2096921,160088,669738,0
2096921,2096921,159971,669925,0
2096921,2096921,159993,669763,0
2096921,2096921,160041,669815,0
2096921,2096921,159230,668179,0
2096921,2096921,159073,667731,0
2096921,2096921,159206,667698,0
2096921,2096921,159119,667852,0
2096921,2096921,159250,667678,0
2096921,2096921,158868,666550,0
2096921,2096921,158937,666130,0
2096921,2096921,158848,665842,0
2096921,2096921,158602,665970,0
2096921,2096921,158713,665861,0
2096921,2096921,158586,665411,0
2096921,2096921,158357,665111,0
2096921,2096921,158454,665138,0
2096921,2096921,158437,665155,0
2096921,2096921,158415,665200,0
2096921,2096921,158248,664895,0
2096921,2096921,158479,664604,0
2096921,2096921,158416,664224,0
2096921,2096921,158316,664324,0
2096921,2096921,158201,664430,0
2096921,2096921,158047,664079,0
2096921,2096921,158165,663974,0
2096921,2096921,157956,663914,0
2096921,2096921,158184,663878,0
2096921,2096921,158082,663858,0
2096921,2096921,157886,663742,0
2096921,2096921,158028,663690,0
2096921,2096921,157688,663912,0
2096921,2096921,158038,663744,0
2096921,2096921,158247,663765,0
2096921,2096921,158173,663923,0
2096921,2096921,157911,663924,0
2096921,2096921,158006,663428,0
2096921,2096921,158115,663771,0
2096921,2096921,157879,663663,0
2096921,2096921,157866,664068,0
2096921,2096921,157634,664269,0
2096921,2096921,157916,663848,0
2096921,2096921,157921,664146,0
2096921,2096921,157925,664081,0
2096921,2096921,157918,664339,0
2096921,2096921,158228,664454,0
2096921,2096921,158277,664623,0
2096921,2096921,158159,664345,0
2096921,2096921,158045,664485,0
2096921,2096921,158184,664576,0
2096921,2096921,158121,664874,0
2096921,2096921,158313,664604,0
2096921,2096921,158501,664813,0
2096921,2096921,158374,664995,0
2096921,2096921,158481,664808,0
2096921,2096921,158351,665082,0
2096921,2096921,158272,665114,0
2096921,2096921,158478,665101,0
2096921,2096921,158559,665229,0
2096921,2096921,158755,665583,0
2096921,2096921,158586,665716,0
2096921,2096921,158352,665827,0
2096921,2096921,158664,665511,0
2096921,2096921,158353,665601,0
2096921,2096921,158618,665962,0
2096921,2096921,158601,666307,0
2096921,2096921,158776,666447,0
2096921,2096921,158709,666480,0
2096921,2096921,158592,666328,0
2096921,2096921,159212,666877,0
2096921,2096921,158957,667155,0
2096921,2096921,159229,667043,0
2096921,2096921,158930,667029,0
2096921,2096921,158906,666840,0
2096921,2096921,159186,667308,0
2096921,2096921,159329,667963,0
2096921,2096921,159193,667974,0
2096921,2096921,159374,667695,0
2096921,2096921,159064,667582,0
2096921,2096921,159319,668223,0
2096921,2096921,159285,668482,0
2096921,2096921,159189,668471,0
2096921,2096921,159114,668438,0
2096921,2096921,159315,668442,0
2096921,2096921,159514,668958,0
2096921,2096921,159513,668818,0
2096921,2096921,159029,668904,0
2096921,2096921,159367,668899,0
2096921,2096921,159472,668812,0
2096921,2096921,159800,669287,0
2096921,2096921,159786,669592,0
2096921,2096921,160021,669656,0
2096921,2096921,159722,669613,0
2096921,2096921,159661,669380,0
2096921,2096921,160072,670199,0
2096921,2096921,159574,670295,0
2096921,2096921,159804,670354,0
2096921,2096921,160022,670292,0
2096921,2096921,159931,670317,0
2096921,2096921,160068,670784,0
2096921,2096921,160123,671013,0
2096921,2096921,160404,670934,0
2096921,2096921,160162,670931,0
2096921,2096921,160020,671202,0
2096921,2096921,160432,671290,0
2096921,2096921,160502,671822,0
2096921,2096921,160465,671365,0
2096921,2096921,160269,671516,0
2096921,2096921,160306,671500,0
2096921,2096921,160484,672007,0
2096921,2096921,160483,672413,0
2096921,2096921,160575,672156,0
2096921,2096921,160422,671963,0
2096921,2096921,160377,672229,0
2096921,2096921,160763,672571,0
2096921,2096921,160442,672893,0
2096921,2096921,160609,672782,0
2096921,2096921,160724,672879,0
2096921,2096921,160739,672915,0
2096921,2096921,160773,673062,0
2096921,2096921,160857,673254,0
2096921,2096921,160862,673419,0
2096921,2096921,160894,673224,0
2096921,2096921,160997,673523,0
2096921,2096921,161054,673604,0
2096921,2096921,160995,674023,0
2096921,2096921,160942,673837,0
2096921,2096921,160897,673827,0
2096921,2096921,160791,673614,0
2096921,2096921,161192,673863,0
2096921,2096921,161064,674145,0
2096921,2096921,161037,674085,0
2096921,2096921,161045,674080,0
2096921,2096921,161109,673876,0
2096921,2096921,161023,674485,0
2096921,2096921,161018,674311,0
2096921,2096921,161257,674133,0
2096921,2096921,161293,674323,0
2096921,2096921,161347,674260,0
2096921,2096921,161177,674337,0
2096921,2096921,161476,674707,0
2096921,2096921,161544,674944,0
2096921,2096921,161406,674702,0
2096921,2096921,161545,674753,0
2096921,2096921,161111,674840,0
2096921,2096921,161264,674634,0
2096921,2096921,161406,675170,0
2096921,2096921,161242,674985,0
2096921,2096921,161370,674847,0
2096921,2096921,161339,674699,0
2096921,2096921,161328,674830,0
2096921,2096921,161126,675017,0
2096921,2096921,161072,674766,0
2096921,2096921,161288,674745,0
2096921,2096921,161268,674891,0
2096921,2096921,161317,674912,0
2096921,2096921,161326,674861,0
2096921,2096921,161261,674910,0
2096921,2096921,161404,674908,0
2096921,2096921,161327,674953,0
2096921,2096921,161385,674645,0
2096921,2096921,161319,674596,0
2096921,2096921,161221,674901,0
2096921,2096921,161132,674593,0
2096921,2096921,161070,674238,0
2096921,2096921,161083,674665,0
2096921,2096921,160990,674161,0
2096921,2096921,161266,674642,0
2096921,2096921,161248,674711,0
2096921,2096921,161090,674666,0
2096921,2096921,161082,674514,0
2096921,2096921,161272,674516,0
2096921,2096921,161009,674427,0
2096921,2096921,161278,674420,0
2096921,2096921,161092,674679,0
2096921,2096921,161300,674422,0
2096921,2096921,161330,674228,0
2096921,2096921,161269,674432,0
2096921,2096921,160871,674463,0
2096921,2096921,161300,674474,0
2096921,2096921,160969,674161,0
2096921,2096921,161128,674502,0
2096921,2096921,161143,674553,0
2096921,2096921,161091,674451,0
2096921,2096921,161187,674452,0
2096921,2096921,161326,674327,0
2096921,2096921,161071,674454,0
2096921,2096921,160995,674355,0
2096921,2096921,161073,674267,0
2096921,2096921,160862,674077,0
2096921,2096921,161005,674595,0
2096921,2096921,161162,674414,0
2096921,2096921,161046,674612,0
2096921,2096921,161234,674535,0
2096921,2096921,161310,674379,0
2096921,2096921,161198,674454,0
2096921,2096921,161122,674617,0
2096921,2096921,161269,674431,0
2096921,2096921,161105,674591,0
2096921,2096921,161035,674861,0
2096921,2096921,161404,674719,0
2096921,2096921,161070,674671,0
2096921,2096921,161233,674588,0
2096921,2096921,161295,674682,0
2096921,2096921,161421,674813,0
2096921,2096921,161477,675158,0
2096921,2096921,161194,674920,0
2096921,2096921,161554,675071,0
2096921,2096921,161252,675148,0
2096921,2096921,161502,675594,0
2096921,2096921,161572,675288,0
2096921,2096921,161474,675626,0
2096921,2096921,161472,675396,0
2096921,2096921,161481,675436,0
2096921,2096921,161587,675542,0
2096921,2096921,161682,675687,0
2096921,2096921,161373,675589,0
2096921,2096921,161479,675990,0
2096921,2096921,161556,676069,0
2096921,2096921,161645,676033,0
2096921,2096921,161796,676132,0
2096921,2096921,161820,676190,0
2096921,2096921,161676,676335,0
2096921,2096921,161616,676224,0
2096921,2096921,161647,676635,0
2096921,2096921,161940,676380,0
2096921,2096921,161610,676577,0
2096921,2096921,161634,676284,0
2096921,2096921,161711,676468,0
2096921,2096921,161579,676628,0
2096921,2096921,161723,676849,0
2096921,2096921,161814,676640,0
2096921,2096921,162074,676744,0
2096921,2096921,161780,676575,0
2096921,2096921,161842,676975,0
2096921,2096921,162017,676952,0
2096921,2096921,162059,677048,0
2096921,2096921,162050,676975,0
2096921,2096921,162020,677110,0
2096921,2096921,162002,677357,0
2096921,2096921,162061,677477,0
2096921,2096921,162059,677283,0
2096921,2096921,162053,677527,0
2096921,2096921,161998,677565,0
2096921,2096921,162198,677331,0
2096921,2096921,162218,677530,0
2096921,2096921,162157,677569,0
2096921,2096921,162051,677522,0
2096921,2096921,162018,677659,0
2096921,2096921,162018,678159,0
2096921,2096921,161992,678224,0
2096921,2096921,161994,678260,0
2096921,2096921,162457,677891,0
2096921,2096921,162380,678010,0
2096921,2096921,162482,678098,0
2096921,2096921,162187,678024,0
2096921,2096921,162312,678365,0
2096921,2096921,162537,678457,0
2096921,2096921,162191,678372,0
2096921,2096921,162288,678454,0
2096921,2096921,162455,678365,0
2096921,2096921,162557,678194,0
2096921,2096921,162546,678475,0
2096921,2096921,162414,678039,0
2096921,2096921,162300,678313,0
2096921,2096921,162450,678632,0
2096921,2096921,162243,678696,0
2096921,2096921,162287,678598,0
2096921,2096921,162520,678804,0
2096921,2096921,162819,678753,0
2096921,2096921,162481,679321,0
2096921,2096921,162478,679101,0
2096921,2096921,162482,679060,0
2096921,2096921,162670,678971,0
2096921,2096921,162835,679142,0
2096921,2096921,162664,679417,0
2096921,2096921,162895,679408,0
2096921,2096921,162574,679362,0
2096921,2096921,162497,678827,0
2096921,2096921,162539,679576,0
2096921,2096921,162649,679549,0
2096921,2096921,162676,679624,0
2096921,2096921,162475,679828,0
2096921,2096921,162811,679678,0
2096921,2096921,163066,679744,0
2096921,2096921,162731,679865,0
2096921,2096921,162999,680107,0
2096921,2096921,163124,680114,0
2096921,2096921,163139,680044,0
2096921,2096921,163215,680256,0
2096921,2096921,162964,680117,0
2096921,2096921,162982,680045,0
2096921,2096921,162830,680210,0
