2096921,2096921, 168389, 678086
2096921,2096921, 168545, 678379
2096921,2096921, 168317, 677669
2096921,2096921, 168074, 677748
2096921,2096921, 167961, 677524
2096921,2096921, 167817, 677418
2096921,2096921, 167871, 677282
2096921,2096921, 167868, 676073
2096921,2096921, 167636, 675834
2096921,2096921, 167715, 675949
2096921,2096921, 167714, 676296
2096921,2096921, 167599, 676029
2096921,2096921, 167312, 674827
2096921,2096921, 166965, 674354
2096921,2096921, 167171, 674300
2096921,2096921, 167008, 674378
2096921,2096921, 167134, 674113
2096921,2096921, 166845, 672959
2096921,2096921, 166773, 672197
2096921,2096921, 166634, 672514
2096921,2096921, 166835, 672272
2096921,2096921, 166809, 672428
2096921,2096921, 165681, 669590
2096921,2096921, 165546, 668578
2096921,2096921, 165165, 668070
2096921,2096921, 165117, 668120
2096921,2096921, 165264, 668249
2096921,2096921, 163738, 664292
2096921,2096921, 163835, 662967
2096921,2096921, 163817, 662438
2096921,2096921, 163882, 662534
2096921,2096921, 163800, 662861
2096921,2096921, 162833, 660094
2096921,2096921, 162678, 659039
2096921,2096921, 162453, 658325
2096921,2096921, 162207, 658465
2096921,2096921, 162368, 658676
2096921,2096921, 161943, 656629
2096921,2096921, 161895, 655914
2096921,2096921, 161760, 655757
2096921,2096921, 161475, 655850
2096921,2096921, 161585, 655873
2096921,2096921, 160977, 654481
2096921,2096921, 160976, 653761
2096921,2096921, 160947, 653513
2096921,2096921, 161208, 653573
2096921,2096921, 161057, 653468
2096921,2096921, 160264, 652292
2096921,2096921, 160439, 652083
2096921,2096921, 160609, 652401
2096921,2096921, 160486, 652205
2096921,2096921, 160558, 651993
2096921,2096921, 160380, 651526
2096921,2096921, 160435, 651323
2096921,2096921, 160295, 650924
2096921,2096921, 160247, 650956
2096921,2096921, 160312, 650798
2096921,2096921, 159894, 650309
2096921,2096921, 160111, 650282
2096921,2096921, 159863, 650178
2096921,2096921, 159480, 650311
2096921,2096921, 159889, 650435
2096921,2096921, 160083, 650436
2096921,2096921, 159904, 650365
2096921,2096921, 160053, 650308
2096921,2096921, 159722, 650432
2096921,2096921, 159894, 649952
2096921,2096921, 159725, 650202
2096921,2096921, 159995, 650196
2096921,2096921, 160194, 650379
2096921,2096921, 159950, 650278
2096921,2096921, 160052, 650527
2096921,2096921, 160061, 651077
2096921,2096921, 160194, 650841
2096921,2096921, 160104, 650915
2096921,2096921, 160032, 650914
2096921,2096921, 159992, 650856
2096921,2096921, 160114, 651071
2096921,2096921, 160429, 650990
2096921,2096921, 160145, 651294
2096921,2096921, 160256, 651440
2096921,2096921, 160464, 651379
2096921,2096921, 160380, 651383
2096921,2096921, 160418, 651540
2096921,2096921, 160134, 651806
2096921,2096921, 160218, 651485
2096921,2096921, 160112, 651655
2096921,2096921, 160658, 652485
2096921,2096921, 160348, 652687
2096921,2096921, 160724, 652865
2096921,2096921, 160925, 652638
2096921,2096921, 160621, 652703
2096921,2096921, 161287, 653557
2096921,2096921, 160696, 653798
2096921,2096921, 160603, 653790
2096921,2096921, 160563, 653854
2096921,2096921, 161006, 653792
2096921,2096921, 161333, 654443
2096921,2096921, 161302, 654921
2096921,2096921, 161123, 654804
2096921,2096921, 161315, 654821
2096921,2096921, 161387, 654746
2096921,2096921, 161861, 655816
2096921,2096921, 161594, 656075
2096921,2096921, 161513, 656192
2096921,2096921, 161165, 655899
2096921,2096921, 161627, 656043
2096921,2096921, 161706, 656528
2096921,2096921, 161994, 657031
2096921,2096921, 161795, 657165
2096921,2096921, 161722, 657754
2096921,2096921, 161741, 657344
2096921,2096921, 162258, 658010
2096921,2096921, 161983, 658194
2096921,2096921, 162419, 657990
2096921,2096921, 162043, 658222
2096921,2096921, 162096, 657965
2096921,2096921, 162362, 658600
2096921,2096921, 162292, 658932
2096921,2096921, 162317, 659156
2096921,2096921, 162572, 659280
2096921,2096921, 162790, 659173
2096921,2096921, 162907, 660132
2096921,2096921, 162866, 660134
2096921,2096921, 162993, 660251
2096921,2096921, 162611, 660149
2096921,2096921, 162815, 660115
2096921,2096921, 163051, 660936
2096921,2096921, 163360, 661357
2096921,2096921, 163248, 661633
2096921,2096921, 163174, 661855
2096921,2096921, 163305, 661808
2096921,2096921, 163383, 662474
2096921,2096921, 163424, 662551
2096921,2096921, 163556, 662652
2096921,2096921, 163364, 662932
2096921,2096921, 163519, 662443
2096921,2096921, 163702, 663382
2096921,2096921, 163972, 663803
2096921,2096921, 163848, 663681
2096921,2096921, 164421, 663810
2096921,2096921, 163976, 663879
2096921,2096921, 164564, 664684
2096921,2096921, 164282, 665016
2096921,2096921, 164055, 665151
2096921,2096921, 164355, 665045
2096921,2096921, 164326, 664955
2096921,2096921, 164248, 665780
2096921,2096921, 164297, 666127
2096921,2096921, 164510, 666092
2096921,2096921, 164491, 666085
2096921,2096921, 164724, 666219
2096921,2096921, 164761, 666904
2096921,2096921, 164854, 667075
2096921,2096921, 164928, 666860
2096921,2096921, 164753, 666904
2096921,2096921, 164834, 666943
2096921,2096921, 164721, 667287
2096921,2096921, 164811, 667299
2096921,2096921, 165020, 667672
2096921,2096921, 165346, 667460
2096921,2096921, 165295, 667954
2096921,2096921, 165256, 668169
2096921,2096921, 165213, 668425
2096921,2096921, 165084, 668259
2096921,2096921, 165149, 668462
2096921,2096921, 165218, 668076
2096921,2096921, 165481, 668484
2096921,2096921, 165226, 668628
2096921,2096921, 165190, 668501
2096921,2096921, 165476, 668857
2096921,2096921, 165469, 669031
2096921,2096921, 165404, 669181
2096921,2096921, 165336, 669165
2096921,2096921, 165399, 669282
2096921,2096921, 165366, 669133
2096921,2096921, 165516, 668853
2096921,2096921, 165496, 668767
2096921,2096921, 165537, 669359
2096921,2096921, 165377, 669298
2096921,2096921, 165676, 669461
2096921,2096921, 165666, 669119
2096921,2096921, 165665, 669391
2096921,2096921, 165694, 669243
2096921,2096921, 165535, 669358
2096921,2096921, 165349, 669233
2096921,2096921, 165377, 669352
2096921,2096921, 165411, 669158
2096921,2096921, 165297, 669150
2096921,2096921, 165395, 669026
2096921,2096921, 165404, 669325
2096921,2096921, 165246, 669206
2096921,2096921, 165302, 669521
2096921,2096921, 165525, 669186
2096921,2096921, 165649, 669215
2096921,2096921, 165344, 668904
2096921,2096921, 165612, 669202
2096921,2096921, 165276, 668902
2096921,2096921, 165676, 668755
2096921,2096921, 165542, 669000
2096921,2096921, 165346, 669030
2096921,2096921, 165421, 669348
2096921,2096921, 165221, 669215
2096921,2096921, 165264, 669041
2096921,2096921, 165066, 668823
2096921,2096921, 164898, 668799
2096921,2096921, 164935, 669163
2096921,2096921, 165082, 668887
2096921,2096921, 165221, 668966
2096921,2096921, 165489, 669184
2096921,2096921, 165656, 669095
2096921,2096921, 165157, 669211
2096921,2096921, 165473, 669608
2096921,2096921, 165776, 669498
2096921,2096921, 165491, 669280
2096921,2096921, 165417, 669286
2096921,2096921, 165549, 669018
2096921,2096921, 165378, 669310
2096921,2096921, 165711, 670028
2096921,2096921, 165691, 669645
2096921,2096921, 165506, 669844
2096921,2096921, 165530, 670126
2096921,2096921, 166047, 670061
2096921,2096921, 165570, 670365
2096921,2096921, 165537, 670534
2096921,2096921, 165535, 670446
2096921,2096921, 165451, 670161
2096921,2096921, 165578, 670476
2096921,2096921, 165666, 670511
2096921,2096921, 166043, 670746
2096921,2096921, 166177, 670592
2096921,2096921, 165864, 670810
2096921,2096921, 166092, 671508
2096921,2096921, 166056, 671671
2096921,2096921, 166141, 671787
2096921,2096921, 165959, 671753
2096921,2096921, 165908, 671827
2096921,2096921, 165923, 672133
2096921,2096921, 166512, 672372
2096921,2096921, 166441, 672750
2096921,2096921, 166422, 673094
2096921,2096921, 166199, 672863
2096921,2096921, 166474, 673652
2096921,2096921, 166523, 673753
2096921,2096921, 166517, 673673
2096921,2096921, 166581, 673724
2096921,2096921, 166555, 673733
2096921,2096921, 166790, 674324
2096921,2096921, 166897, 674546
2096921,2096921, 166890, 674580
2096921,2096921, 166872, 674734
2096921,2096921, 166774, 674596
2096921,2096921, 167275, 675098
2096921,2096921, 167220, 675307
2096921,2096921, 167311, 675470
2096921,2096921, 167253, 675433
2096921,2096921, 167204, 675308
2096921,2096921, 166995, 675865
2096921,2096921, 166984, 676003
2096921,2096921, 167268, 676131
2096921,2096921, 167434, 676142
2096921,2096921, 167401, 676268
2096921,2096921, 167499, 676894
2096921,2096921, 167646, 677324
2096921,2096921, 167421, 677154
2096921,2096921, 167281, 676750
2096921,2096921, 167665, 677032
2096921,2096921, 167350, 677412
2096921,2096921, 167358, 677735
2096921,2096921, 167837, 677809
2096921,2096921, 168056, 677656
2096921,2096921, 167987, 677530
2096921,2096921, 168172, 678289
2096921,2096921, 168041, 678744
2096921,2096921, 168063, 678669
2096921,2096921, 168099, 678700
2096921,2096921, 168135, 678567
2096921,2096921, 168036, 679131
2096921,2096921, 168349, 679367
2096921,2096921, 168489, 679502
2096921,2096921, 168131, 679511
2096921,2096921, 168232, 679484
2096921,2096921, 168733, 680141
2096921,2096921, 168616, 680346
2096921,2096921, 168621, 680496
2096921,2096921, 168428, 680157
2096921,2096921, 168531, 680064
2096921,2096921, 168585, 680625
2096921,2096921, 168862, 680734
2096921,2096921, 168841, 681029
2096921,2096921, 168908, 681054
2096921,2096921, 168999, 680856
2096921,2096921, 169058, 681342
2096921,2096921, 169191, 681571
2096921,2096921, 168736, 681759
2096921,2096921, 168758, 681582
2096921,2096921, 169041, 681632
2096921,2096921, 168991, 682147
2096921,2096921, 169138, 682296
2096921,2096921, 169376, 682591
2096921,2096921, 169456, 682578
2096921,2096921, 169308, 682743
2096921,2096921, 169478, 683102
2096921,2096921, 169484, 683655
2096921,2096921, 169366, 683392
2096921,2096921, 169160, 683434
2096921,2096921, 169380, 683465
2096921,2096921, 169465, 683616
2096921,2096921, 169393, 683908
2096921,2096921, 169506, 684080
2096921,2096921, 169596, 683816
2096921,2096921, 169819, 683900
2096921,2096921, 169760, 685015
2096921,2096921, 169821, 684578
2096921,2096921, 169721, 684699
2096921,2096921, 169720, 684494
2096921,2096921, 169757, 684568
2096921,2096921, 170028, 685043
2096921,2096921, 170093, 685138
2096921,2096921, 169969, 685586
2096921,2096921, 170033, 685628
2096921,2096921, 170027, 685852
2096921,2096921, 170123, 685756
2096921,2096921, 170257, 686331
2096921,2096921, 170069, 685846
2096921,2096921, 170418, 685887
2096921,2096921, 170041, 685916
2096921,2096921, 170451, 686441
2096921,2096921, 170244, 686261
2096921,2096921, 170517, 686722
2096921,2096921, 170571, 687089
2096921,2096921, 170318, 686872
2096921,2096921, 170735, 687272
2096921,2096921, 170353, 687536
2096921,2096921, 170683, 687527
2096921,2096921, 170594, 687541
2096921,2096921, 170628, 687300
2096921,2096921, 170644, 687641
2096921,2096921, 170612, 687781
2096921,2096921, 170970, 688060
2096921,2096921, 170887, 687981
2096921,2096921, 170754, 688021
2096921,2096921, 170973, 688603
2096921,2096921, 171009, 688517
2096921,2096921, 170761, 688423
2096921,2096921, 170590, 688496
2096921,2096921, 170827, 688395
2096921,2096921, 171039, 688662
2096921,2096921, 170863, 688943
2096921,2096921, 170987, 689124
2096921,2096921, 171417, 689105
2096921,2096921, 171036, 689478
2096921,2096921, 171281, 689675
2096921,2096921, 171088, 690089
2096921,2096921, 171185, 689727
2096921,2096921, 171158, 689824
2096921,2096921, 170988, 689586
2096921,2096921, 171434, 690103
2096921,2096921, 171276, 690378
2096921,2096921, 171462, 690102
2096921,2096921, 171539, 690435
2096921,2096921, 171153, 690319
2096921,2096921, 171566, 690645
2096921,2096921, 171419, 690584
2096921,2096921, 171736, 690945
2096921,2096921, 171417, 690943
2096921,2096921, 171606, 690426
2096921,2096921, 171580, 691025
2096921,2096921, 171610, 691095
2096921,2096921, 171714, 691416
2096921,2096921, 171916, 690946
2096921,2096921, 171516, 691058
2096921,2096921, 171827, 691895
2096921,2096921, 171910, 691715
2096921,2096921, 171570, 691494
2096921,2096921, 171924, 691296
2096921,2096921, 171540, 691509
2096921,2096921, 171807, 691529
2096921,2096921, 171797, 692132
2096921,2096921, 171829, 692229
2096921,2096921, 172121, 692339
2096921,2096921, 171832, 692256
2096921,2096921, 172369, 692273
2096921,2096921, 172030, 692687
2096921,2096921, 171782, 692419
2096921,2096921, 171975, 692585
2096921,2096921, 171697, 692138
2096921,2096921, 172034, 692871
2096921,2096921, 172129, 692432
2096921,2096921, 172107, 692814
2096921,2096921, 172094, 692776
2096921,2096921, 172226, 693079
2096921,2096921, 172444, 693247
2096921,2096921, 172230, 693459
2096921,2096921, 172292, 693454
2096921,2096921, 172232, 693362
2096921,2096921, 172277, 693502
2096921,2096921, 172150, 693574
2096921,2096921, 172486, 693749
2096921,2096921, 172301, 693818
2096921,2096921, 172516, 694024
2096921,2096921, 172473, 694234
2096921,2096921, 172687, 693833
2096921,2096921, 172515, 694099
2096921,2096921, 172325, 694171
2096921,2096921, 172508, 693973
2096921,2096921, 172404, 694121
2096921,2096921, 172641, 694261
2096921,2096921, 172528, 694602
2096921,2096921, 172441, 694338
2096921,2096921, 172638, 694660
2096921,2096921, 172761, 694827
2096921,2096921, 172928, 694904
2096921,2096921, 172626, 695342
2096921,2096921, 172768, 695259
2096921,2096921, 172798, 694950
2096921,2096921, 172630, 694893
2096921,2096921, 172621, 695378
2096921,2096921, 172626, 695250
2096921,2096921, 172712, 695573
2096921,2096921, 172982, 695365
2096921,2096921, 173006, 695331
2096921,2096921, 172717, 695901
2096921,2096921, 173228, 696185
2096921,2096921, 172774, 696073
2096921,2096921, 172824, 695895
2096921,2096921, 173022, 696004
2096921,2096921, 173109, 695963
2096921,2096921, 173258, 696134
2096921,2096921, 172924, 696431
2096921,2096921, 172950, 696416
2096921,2096921, 173076, 696487
2096921,2096921, 173154, 696245
2096921,2096921, 173164, 696659
2096921,2096921, 173052, 696606
2096921,2096921, 172684, 696408
2096921,2096921, 172922, 696427
2096921,2096921, 173120, 696397
2096921,2096921, 173070, 696384
2096921,2096921, 173295, 696685
2096921,2096921, 173300, 696674
2096921,2096921, 173139, 696413
2096921,2096921, 173255, 696961
2096921,2096921, 172947, 696639
2096921,2096921, 173065, 696784
2096921,2096921, 173112, 696726
2096921,2096921, 173331, 696669
2096921,2096921, 173225, 696744
2096921,2096921, 173497, 696935
2096921,2096921, 173315, 697129
2096921,2096921, 173350, 697245
2096921,2096921, 173303, 697266
2096921,2096921, 173380, 697453
2096921,2096921, 173357, 697245
2096921,2096921, 173415, 697313
2096921,2096921, 173186, 697525
2096921,2096921, 173344, 697320
2096921,2096921, 173293, 697386
2096921,2096921, 173262, 697290
2096921,2096921, 173419, 697320
2096921,2096921, 173573, 697313
2096921,2096921, 173339, 697452
2096921,2096921, 173448, 697589
2096921,2096921, 173672, 697434
2096921,2096921, 173179, 697413
2096921,2096921, 173274, 697502
2096921,2096921, 173120, 697564
2096921,2096921, 173313, 697687
2096921,2096921, 173095, 697686
2096921,2096921, 173324, 697512
2096921,2096921, 173656, 697675
2096921,2096921, 173377, 697815
2096921,2096921, 173533, 697928
2096921,2096921, 173531, 698175
2096921,2096921, 173365, 698116
2096921,2096921, 173294, 698003
2096921,2096921, 173489, 697705
2096921,2096921, 173306, 697972
2096921,2096921, 173827, 697910
2096921,2096921, 173529, 698157
2096921,2096921, 173550, 697951
2096921,2096921, 173576, 698484
2096921,2096921, 173692, 698206
2096921,2096921, 173794, 698434
2096921,2096921, 173432, 698208
2096921,2096921, 173591, 698136
2096921,2096921, 173393, 697983
2096921,2096921, 173295, 698141
2096921,2096921, 173276, 698399
2096921,2096921, 173447, 698477
2096921,2096921, 173840, 698560
2096921,2096921, 173561, 698319
2096921,2096921, 173787, 698560
2096921,2096921, 173477, 698624
2096921,2096921, 173698, 698461
2096921,2096921, 173533, 698591
2096921,2096921, 173657, 698675
2096921,2096921, 173557, 697875
2096921,2096921, 173391, 698022
2096921,2096921, 173523, 697818
2096921,2096921, 173494, 698038
2096921,2096921, 173518, 697772
2096921,2096921, 173343, 697369
2096921,2096921, 173236, 697136
2096921,2096921, 173263, 697211
2096921,2096921, 173274, 697011
2096921,2096921, 173313, 696983
2096921,2096921, 172650, 696054
2096921,2096921, 172861, 695816
2096921,2096921, 172795, 695988
2096921,2096921, 172986, 696091
2096921,2096921, 172735, 695906
2096921,2096921, 172354, 694392
2096921,2096921, 172437, 694115
2096921,2096921, 172393, 694068
2096921,2096921, 172555, 693884
2096921,2096921, 172385, 693808
2096921,2096921, 171906, 692571
2096921,2096921, 171729, 691868
2096921,2096921, 171894, 691887
2096921,2096921, 171758, 692235
2096921,2096921, 171738, 691855
2096921,2096921, 170622, 688755
2096921,2096921, 170789, 687696
2096921,2096921, 170203, 687538
2096921,2096921, 169990, 687575
2096921,2096921, 170219, 687554
2096921,2096921, 168913, 683774
2096921,2096921, 169038, 682185
2096921,2096921, 168962, 682178
2096921,2096921, 168771, 682161
2096921,2096921, 168666, 682156
2096921,2096921, 167691, 679203
2096921,2096921, 167524, 678288
2096921,2096921, 167452, 678289
2096921,2096921, 167264, 677953
2096921,2096921, 167408, 678091
2096921,2096921, 166655, 675413
2096921,2096921, 166782, 675056
2096921,2096921, 166844, 674880
2096921,2096921, 166739, 674942
2096921,2096921, 166856, 675018
2096921,2096921, 166144, 673550
2096921,2096921, 165973, 672701
2096921,2096921, 165726, 672450
2096921,2096921, 166003, 672747
2096921,2096921, 165989, 672479
2096921,2096921, 165314, 671502
2096921,2096921, 164881, 671089
2096921,2096921, 165125, 671086
2096921,2096921, 165340, 671175
2096921,2096921, 165262, 671047
2096921,2096921, 165009, 670293
2096921,2096921, 165305, 670188
2096921,2096921, 165102, 669931
2096921,2096921, 165099, 669894
2096921,2096921, 165133, 669802
2096921,2096921, 165018, 669532
2096921,2096921, 164871, 669219
2096921,2096921, 164642, 669151
2096921,2096921, 165020, 669344
2096921,2096921, 164727, 669236
2096921,2096921, 165042, 669075
2096921,2096921, 164857, 669100
2096921,2096921, 164897, 669110
2096921,2096921, 164812, 668994
2096921,2096921, 164752, 668858
2096921,2096921, 164736, 669191
2096921,2096921, 164881, 669306
2096921,2096921, 164765, 669184
2096921,2096921, 164975, 669285
2096921,2096921, 164825, 669184
2096921,2096921, 165025, 669722
2096921,2096921, 165051, 669644
2096921,2096921, 164769, 669265
2096921,2096921, 164784, 669408
2096921,2096921, 164802, 669374
2096921,2096921, 164631, 669741
2096921,2096921, 164778, 669824
2096921,2096921, 165115, 669890
2096921,2096921, 165053, 670052
2096921,2096921, 164812, 669811
2096921,2096921, 164721, 670238
2096921,2096921, 165311, 670119
2096921,2096921, 165051, 670057
2096921,2096921, 164953, 670328
2096921,2096921, 165356, 670358
2096921,2096921, 165645, 671080
2096921,2096921, 165403, 670871
2096921,2096921, 165194, 671162
2096921,2096921, 165370, 670849
2096921,2096921, 165511, 671338
2096921,2096921, 165885, 671992
2096921,2096921, 165729, 672190
2096921,2096921, 165686, 672388
2096921,2096921, 165476, 671936
2096921,2096921, 165630, 671761
2096921,2096921, 165912, 672455
2096921,2096921, 166003, 672754
2096921,2096921, 165954, 672946
2096921,2096921, 166155, 673230
2096921,2096921, 166175, 672999
2096921,2096921, 166138, 673926
2096921,2096921, 166385, 674395
2096921,2096921, 166271, 673930
2096921,2096921, 166049, 673993
2096921,2096921, 166194, 674147
2096921,2096921, 166412, 674900
2096921,2096921, 166373, 674887
2096921,2096921, 166595, 674848
2096921,2096921, 166646, 674925
2096921,2096921, 166772, 675064
2096921,2096921, 166714, 675690
2096921,2096921, 166992, 676028
2096921,2096921, 166661, 676155
2096921,2096921, 166679, 675903
2096921,2096921, 166837, 676095
2096921,2096921, 167230, 676368
2096921,2096921, 166937, 676660
2096921,2096921, 166893, 676957
2096921,2096921, 166928, 676954
2096921,2096921, 166746, 677048
2096921,2096921, 167438, 678023
2096921,2096921, 167225, 677870
2096921,2096921, 167474, 677686
2096921,2096921, 167686, 678151
2096921,2096921, 167391, 677791
2096921,2096921, 167838, 678347
2096921,2096921, 167460, 678633
2096921,2096921, 167857, 678979
2096921,2096921, 167722, 679081
2096921,2096921, 168020, 679148
2096921,2096921, 167980, 679623
2096921,2096921, 167980, 679780
2096921,2096921, 168057, 679785
2096921,2096921, 167746, 679810
2096921,2096921, 168020, 679767
2096921,2096921, 168058, 680344
2096921,2096921, 168389, 680654
2096921,2096921, 168369, 680684
2096921,2096921, 168488, 680567
2096921,2096921, 168578, 680645
2096921,2096921, 168920, 681666
2096921,2096921, 168879, 682108
2096921,2096921, 168636, 681988
2096921,2096921, 168872, 681661
2096921,2096921, 168531, 682052
2096921,2096921, 168378, 682250
2096921,2096921, 168719, 682820
2096921,2096921, 169049, 682402
2096921,2096921, 169137, 682682
2096921,2096921, 168833, 682559
2096921,2096921, 169226, 683127
2096921,2096921, 169256, 683238
2096921,2096921, 169216, 683227
2096921,2096921, 169072, 683285
2096921,2096921, 169199, 682972
2096921,2096921, 168782, 683775
2096921,2096921, 169164, 684174
2096921,2096921, 169529, 683771
2096921,2096921, 169351, 683904
2096921,2096921, 169127, 683842
2096921,2096921, 169389, 684322
2096921,2096921, 169536, 684450
2096921,2096921, 169115, 684386
2096921,2096921, 169107, 684161
2096921,2096921, 168962, 684244
2096921,2096921, 168826, 683912
2096921,2096921, 169490, 684379
2096921,2096921, 169482, 684527
2096921,2096921, 169564, 684589
2096921,2096921, 169612, 684579
2096921,2096921, 169510, 684863
2096921,2096921, 169917, 684593
2096921,2096921, 169548, 684620
2096921,2096921, 169367, 684483
2096921,2096921, 169384, 684669
2096921,2096921, 169299, 684780
2096921,2096921, 169629, 684626
2096921,2096921, 169725, 684788
2096921,2096921, 169660, 684864
2096921,2096921, 169705, 684517
2096921,2096921, 169675, 684703
2096921,2096921, 169524, 684435
2096921,2096921, 169281, 684620
2096921,2096921, 169451, 684519
2096921,2096921, 169421, 684297
2096921,2096921, 169065, 683929
2096921,2096921, 169006, 683976
2096921,2096921, 169580, 683954
2096921,2096921, 169210, 684166
2096921,2096921, 169605, 684333
2096921,2096921, 169430, 683790
2096921,2096921, 169443, 683694
2096921,2096921, 169232, 683677
2096921,2096921, 169213, 683719
2096921,2096921, 169191, 683833
2096921,2096921, 168685, 683308
2096921,2096921, 168887, 683449
2096921,2096921, 169223, 683391
2096921,2096921, 169263, 683538
2096921,2096921, 168921, 683380
2096921,2096921, 169208, 683341
2096921,2096921, 168977, 683566
2096921,2096921, 168864, 683127
2096921,2096921, 168861, 682927
2096921,2096921, 168762, 682958
2096921,2096921, 169014, 682987
2096921,2096921, 168825, 682894
2096921,2096921, 169382, 683364
2096921,2096921, 168994, 683015
2096921,2096921, 169010, 683132
2096921,2096921, 168954, 683280
2096921,2096921, 168977, 682978
2096921,2096921, 168970, 683270
2096921,2096921, 168922, 683076
2096921,2096921, 168905, 682765
2096921,2096921, 168906, 683056
2096921,2096921, 168939, 683195
2096921,2096921, 168814, 683357
2096921,2096921, 168999, 683059
2096921,2096921, 169104, 683521
2096921,2096921, 169306, 683607
2096921,2096921, 169168, 683555
2096921,2096921, 169014, 683356
2096921,2096921, 169043, 683365
2096921,2096921, 169195, 683328
2096921,2096921, 168844, 683042
2096921,2096921, 169086, 683715
2096921,2096921, 169399, 683477
2096921,2096921, 169401, 683849
2096921,2096921, 168884, 683775
2096921,2096921, 169191, 684360
2096921,2096921, 169278, 684548
2096921,2096921, 169280, 684263
2096921,2096921, 169437, 684295
2096921,2096921, 169204, 684161
2096921,2096921, 169380, 685045
2096921,2096921, 169602, 685193
2096921,2096921, 169827, 685035
2096921,2096921, 169678, 685242
2096921,2096921, 169902, 685189
2096921,2096921, 169817, 685560
2096921,2096921, 169741, 685770
2096921,2096921, 169737, 686209
2096921,2096921, 169593, 685710
2096921,2096921, 169752, 685753
2096921,2096921, 169773, 686243
2096921,2096921, 169904, 686461
2096921,2096921, 170034, 686443
2096921,2096921, 170219, 686413
2096921,2096921, 169904, 686469
2096921,2096921, 170380, 687147
2096921,2096921, 170157, 687161
2096921,2096921, 169987, 686992
2096921,2096921, 170252, 686892
2096921,2096921, 170120, 687044
2096921,2096921, 170039, 687085
2096921,2096921, 170200, 687569
2096921,2096921, 170660, 687246
2096921,2096921, 170325, 687626
2096921,2096921, 170194, 687491
2096921,2096921, 170172, 687807
2096921,2096921, 170329, 688060
2096921,2096921, 170289, 688080
2096921,2096921, 170157, 687934
2096921,2096921, 170384, 687965
2096921,2096921, 170338, 688282
2096921,2096921, 170588, 688378
2096921,2096921, 170713, 688570
2096921,2096921, 170654, 688596
2096921,2096921, 170841, 688444
2096921,2096921, 170925, 688824
2096921,2096921, 170874, 689132
2096921,2096921, 170667, 689052
2096921,2096921, 170665, 689090
2096921,2096921, 170680, 689211
2096921,2096921, 170669, 689215
2096921,2096921, 170850, 689168
2096921,2096921, 170876, 689303
2096921,2096921, 171145, 689442
2096921,2096921, 170926, 689521
2096921,2096921, 170833, 689774
2096921,2096921, 171103, 690201
2096921,2096921, 171197, 690208
2096921,2096921, 171020, 689885
2096921,2096921, 170930, 689736
2096921,2096921, 171338, 690405
2096921,2096921, 171129, 690412
2096921,2096921, 171412, 690577
2096921,2096921, 171401, 690365
2096921,2096921, 171248, 690447
2096921,2096921, 171661, 690677
2096921,2096921, 171800, 690809
2096921,2096921, 171349, 691073
2096921,2096921, 171325, 690851
2096921,2096921, 171430, 690989
2096921,2096921, 171191, 691306
2096921,2096921, 171248, 691300
2096921,2096921, 171370, 691621
2096921,2096921, 171185, 691519
2096921,2096921, 171354, 691426
2096921,2096921, 171479, 691851
2096921,2096921, 171540, 691885
2096921,2096921, 171405, 691692
2096921,2096921, 171322, 691437
2096921,2096921, 171410, 691483
2096921,2096921, 171544, 691927
2096921,2096921, 171532, 691953
2096921,2096921, 171533, 692025
2096921,2096921, 171859, 692273
2096921,2096921, 171816, 692138
2096921,2096921, 171902, 692533
2096921,2096921, 172071, 692425
2096921,2096921, 171987, 692846
2096921,2096921, 171749, 692764
2096921,2096921, 171924, 692746
2096921,2096921, 172010, 692705
2096921,2096921, 171740, 692698
2096921,2096921, 171932, 692775
2096921,2096921, 171812, 692727
2096921,2096921, 171872, 693067
2096921,2096921, 171887, 692931
2096921,2096921, 171809, 693162
2096921,2096921, 171707, 693369
2096921,2096921, 172221, 692713
2096921,2096921, 172031, 692939
2096921,2096921, 172046, 692851
2096921,2096921, 171998, 692879
2096921,2096921, 171725, 693150
2096921,2096921, 171972, 693351
2096921,2096921, 171846, 693189
2096921,2096921, 172362, 693369
2096921,2096921, 172209, 693661
2096921,2096921, 172087, 693654
2096921,2096921, 172218, 693325
2096921,2096921, 172309, 693508
2096921,2096921, 171810, 693689
2096921,2096921, 172099, 693585
2096921,2096921, 172024, 693667
2096921,2096921, 172139, 693883
2096921,2096921, 172288, 693859
2096921,2096921, 172655, 694038
2096921,2096921, 172414, 693867
2096921,2096921, 172340, 693970
2096921,2096921, 171906, 694000
2096921,2096921, 172286, 693839
2096921,2096921, 172027, 693854
2096921,2096921, 172353, 694027
2096921,2096921, 172635, 694182
2096921,2096921, 172435, 694046
2096921,2096921, 172285, 694221
2096921,2096921, 172601, 694218
2096921,2096921, 172614, 694650
2096921,2096921, 172593, 694684
2096921,2096921, 172422, 694506
2096921,2096921, 172307, 694404
2096921,2096921, 172250, 694634
2096921,2096921, 172438, 694329
2096921,2096921, 172425, 694433
2096921,2096921, 172445, 694451
2096921,2096921, 172358, 694490
2096921,2096921, 172560, 694285
2096921,2096921, 172419, 694551
2096921,2096921, 172655, 694467
2096921,2096921, 172584, 694334
2096921,2096921, 172321, 694089
2096921,2096921, 172439, 694701
2096921,2096921, 172338, 694319
2096921,2096921, 172661, 694413
2096921,2096921, 172741, 694646
2096921,2096921, 172501, 694571
2096921,2096921, 172354, 694569
2096921,2096921, 172736, 694855
2096921,2096921, 172597, 694623
2096921,2096921, 172367, 694627
2096921,2096921, 172553, 694700
2096921,2096921, 172457, 694593
2096921,2096921, 172492, 694649
2096921,2096921, 172376, 694406
2096921,2096921, 172480, 694702
2096921,2096921, 172335, 694991
2096921,2096921, 172735, 694906
2096921,2096921, 172269, 694712
2096921,2096921, 172446, 694652
2096921,2096921, 172341, 694721
2096921,2096921, 172209, 694834
2096921,2096921, 172307, 694930
2096921,2096921, 172436, 694469
2096921,2096921, 172732, 694278
2096921,2096921, 172690, 694639
2096921,2096921, 172525, 694643
2096921,2096921, 172670, 694932
2096921,2096921, 172499, 695037
2096921,2096921, 172424, 695058
2096921,2096921, 172484, 694953
2096921,2096921, 172346, 694635
2096921,2096921, 172181, 694240
2096921,2096921, 172581, 694384
2096921,2096921, 172647, 694488
2096921,2096921, 172689, 694851
2096921,2096921, 172437, 694881
2096921,2096921, 172565, 694611
2096921,2096921, 172715, 694678
2096921,2096921, 172883, 694711
2096921,2096921, 172339, 694490
2096921,2096921, 172452, 694576
2096921,2096921, 172396, 694465
2096921,2096921, 172630, 694583
2096921,2096921, 172639, 694609
2096921,2096921, 172669, 694527
2096921,2096921, 172735, 694319
2096921,2096921, 172810, 694597
2096921,2096921, 172965, 694809
2096921,2096921, 172410, 694559
2096921,2096921, 172339, 694692
2096921,2096921, 172532, 694777
2096921,2096921, 172495, 694805
2096921,2096921, 172633, 694575
2096921,2096921, 172413, 694761
2096921,2096921, 172421, 694619
2096921,2096921, 172470, 694646
2096921,2096921, 172622, 694761
2096921,2096921, 172592, 694677
2096921,2096921, 172540, 694271
2096921,2096921, 172410, 694320
2096921,2096921, 172566, 694038
2096921,2096921, 172604, 694216
2096921,2096921, 172275, 694253
2096921,2096921, 172728, 694497
2096921,2096921, 172661, 694498
2096921,2096921, 172487, 694522
2096921,2096921, 172734, 694605
2096921,2096921, 172444, 694569
2096921,2096921, 172544, 694671
2096921,2096921, 172365, 694297
2096921,2096921, 172479, 694325
2096921,2096921, 172268, 694048
2096921,2096921, 172496, 693990
2096921,2096921, 172311, 694000
2096921,2096921, 172633, 694088
2096921,2096921, 172456, 694079
2096921,2096921, 172890, 694361
2096921,2096921, 172933, 693935
2096921,2096921, 172595, 693772
2096921,2096921, 172594, 693813
2096921,2096921, 172424, 693894
2096921,2096921, 172460, 693554
2096921,2096921, 172250, 694058
2096921,2096921, 172447, 693904
2096921,2096921, 172679, 693809
2096921,2096921, 172284, 693924
2096921,2096921, 172549, 694085
2096921,2096921, 172468, 693753
2096921,2096921, 172430, 693641
2096921,2096921, 172384, 693730
2096921,2096921, 172120, 693741
2096921,2096921, 172126, 693554
2096921,2096921, 172248, 693201
2096921,2096921, 172444, 693420
2096921,2096921, 172443, 693320
2096921,2096921, 172430, 693693
2096921,2096921, 172250, 693408
2096921,2096921, 172353, 693424
2096921,2096921, 171956, 693485
2096921,2096921, 172103, 693053
2096921,2096921, 172134, 692970
2096921,2096921, 172050, 692815
2096921,2096921, 172137, 693018
2096921,2096921, 172442, 692947
2096921,2096921, 172190, 693097
2096921,2096921, 172252, 693141
2096921,2096921, 172397, 692667
2096921,2096921, 172163, 692894
2096921,2096921, 172150, 692718
2096921,2096921, 171973, 692609
2096921,2096921, 172072, 692791
2096921,2096921, 172064, 692488
2096921,2096921, 171676, 692355
2096921,2096921, 171953, 692291
2096921,2096921, 171904, 692271
2096921,2096921, 172228, 692501
2096921,2096921, 172122, 692382
2096921,2096921, 172192, 692317
2096921,2096921, 171992, 692196
2096921,2096921, 171925, 691922
2096921,2096921, 171967, 692318
2096921,2096921, 171837, 692328
2096921,2096921, 171984, 692167
2096921,2096921, 171981, 692055
2096921,2096921, 172058, 691954
2096921,2096921, 171766, 692065
2096921,2096921, 171821, 691943
2096921,2096921, 171947, 691874
2096921,2096921, 171827, 691850
2096921,2096921, 171970, 691596
2096921,2096921, 171918, 691621
2096921,2096921, 171390, 690952
2096921,2096921, 171533, 690395
2096921,2096921, 171685, 690596
2096921,2096921, 171539, 690507
2096921,2096921, 171687, 690579
2096921,2096921, 171369, 689997
2096921,2096921, 171215, 689791
2096921,2096921, 171138, 689343
2096921,2096921, 171113, 689433
2096921,2096921, 171185, 689339
2096921,2096921, 170613, 688432
2096921,2096921, 170370, 687356
2096921,2096921, 170511, 687433
2096921,2096921, 170923, 687732
2096921,2096921, 170728, 687432
2096921,2096921, 170388, 686125
2096921,2096921, 170287, 685661
2096921,2096921, 170193, 685767
2096921,2096921, 169904, 685799
2096921,2096921, 169996, 685565
2096921,2096921, 169419, 684021
2096921,2096921, 169569, 683189
2096921,2096921, 169425, 683332
2096921,2096921, 169342, 683390
2096921,2096921, 169635, 683648
2096921,2096921, 168408, 680016
2096921,2096921, 167925, 678925
2096921,2096921, 167938, 678840
2096921,2096921, 167983, 678512
2096921,2096921, 167854, 678447
2096921,2096921, 166672, 674520
2096921,2096921, 166506, 672958
2096921,2096921, 166283, 672842
2096921,2096921, 166294, 672938
2096921,2096921, 166422, 672536
2096921,2096921, 165336, 669563
2096921,2096921, 165192, 668782
2096921,2096921, 165103, 668548
2096921,2096921, 164762, 668511
2096921,2096921, 164884, 668278
2096921,2096921, 164028, 665818
2096921,2096921, 164005, 664892
2096921,2096921, 164159, 665138
2096921,2096921, 163938, 665318
2096921,2096921, 164261, 665307
2096921,2096921, 163919, 663415
2096921,2096921, 163683, 662694
2096921,2096921, 163090, 662668
2096921,2096921, 163464, 662524
2096921,2096921, 163112, 662834
2096921,2096921, 162667, 661321
2096921,2096921, 162788, 660741
2096921,2096921, 162895, 660731
2096921,2096921, 162695, 660797
2096921,2096921, 162632, 660782
2096921,2096921, 162454, 659740
2096921,2096921, 162369, 659439
2096921,2096921, 162426, 659037
2096921,2096921, 162044, 659398
2096921,2096921, 162255, 659149
2096921,2096921, 162079, 658544
2096921,2096921, 162047, 658238
2096921,2096921, 162213, 658358
2096921,2096921, 162147, 658263
2096921,2096921, 162129, 658348
2096921,2096921, 162073, 658175
2096921,2096921, 162002, 657770
2096921,2096921, 161957, 657934
2096921,2096921, 161386, 657717
2096921,2096921, 161747, 657676
2096921,2096921, 161422, 657446
2096921,2096921, 161829, 657223
2096921,2096921, 162025, 657540
2096921,2096921, 161609, 657431
2096921,2096921, 162013, 657620
2096921,2096921, 161992, 657895
2096921,2096921, 161782, 657777
2096921,2096921, 161514, 658006
2096921,2096921, 162043, 657501
2096921,2096921, 161892, 657802
2096921,2096921, 161680, 657424
2096921,2096921, 161595, 657827
2096921,2096921, 162199, 657747
2096921,2096921, 162026, 657778
2096921,2096921, 161919, 657795
2096921,2096921, 161957, 657988
2096921,2096921, 161947, 658035
2096921,2096921, 161720, 657957
2096921,2096921, 161646, 657933
2096921,2096921, 161677, 657595
2096921,2096921, 161695, 658295
2096921,2096921, 162012, 658279
2096921,2096921, 162131, 658317
2096921,2096921, 162062, 658575
2096921,2096921, 162245, 658557
2096921,2096921, 162533, 659277
2096921,2096921, 162308, 659199
2096921,2096921, 162343, 659257
2096921,2096921, 162238, 658913
2096921,2096921, 162337, 658963
2096921,2096921, 162250, 659446
2096921,2096921, 162660, 659516
2096921,2096921, 162752, 659726
2096921,2096921, 162428, 659937
2096921,2096921, 162598, 659831
2096921,2096921, 163100, 660548
2096921,2096921, 163163, 660807
2096921,2096921, 162677, 660667
2096921,2096921, 162388, 660580
2096921,2096921, 162735, 660452
2096921,2096921, 162935, 661082
2096921,2096921, 162685, 661188
2096921,2096921, 162702, 661388
2096921,2096921, 163042, 661320
2096921,2096921, 163006, 661235
2096921,2096921, 163197, 661725
2096921,2096921, 163377, 661697
2096921,2096921, 163095, 661727
2096921,2096921, 163401, 661859
2096921,2096921, 163204, 662105
2096921,2096921, 163238, 662503
2096921,2096921, 163166, 662052
2096921,2096921, 163312, 662436
2096921,2096921, 163602, 662492
2096921,2096921, 163168, 662628
2096921,2096921, 163580, 662917
2096921,2096921, 163671, 663427
2096921,2096921, 163751, 663263
2096921,2096921, 163556, 663067
2096921,2096921, 163569, 663271
2096921,2096921, 163334, 663857
2096921,2096921, 164026, 663884
2096921,2096921, 163644, 664047
2096921,2096921, 163898, 664215
2096921,2096921, 163796, 664148
2096921,2096921, 164411, 664945
2096921,2096921, 164503, 665131
2096921,2096921, 164175, 664826
2096921,2096921, 164358, 664815
2096921,2096921, 163846, 664568
2096921,2096921, 164255, 665232
2096921,2096921, 164055, 665498
2096921,2096921, 164509, 665566
2096921,2096921, 164482, 665949
2096921,2096921, 164360, 665808
2096921,2096921, 164653, 666525
2096921,2096921, 164972, 666164
2096921,2096921, 164638, 666345
2096921,2096921, 164825, 666120
2096921,2096921, 164851, 666325
2096921,2096921, 164524, 666709
2096921,2096921, 164435, 666821
2096921,2096921, 164690, 666856
2096921,2096921, 164531, 666821
2096921,2096921, 164789, 667095
2096921,2096921, 164824, 667275
2096921,2096921, 164985, 667409
2096921,2096921, 164842, 667280
2096921,2096921, 164950, 667622
2096921,2096921, 164904, 667182
2096921,2096921, 164797, 667609
2096921,2096921, 165216, 667567
2096921,2096921, 165016, 667478
2096921,2096921, 164990, 667914
2096921,2096921, 165121, 667951
2096921,2096921, 165185, 668000
2096921,2096921, 165218, 667965
2096921,2096921, 165174, 668043
2096921,2096921, 165137, 668096
2096921,2096921, 164963, 667810
2096921,2096921, 165053, 668066
2096921,2096921, 164893, 667695
2096921,2096921, 165205, 667716
2096921,2096921, 164854, 667928
2096921,2096921, 165254, 667970
2096921,2096921, 165050, 668014
2096921,2096921, 164956, 668022
2096921,2096921, 165312, 667907
2096921,2096921, 165059, 667773
2096921,2096921, 164780, 667677
2096921,2096921, 164956, 667192
2096921,2096921, 165005, 667390
2096921,2096921, 165144, 667607
2096921,2096921, 164939, 667593
2096921,2096921, 164961, 667793
2096921,2096921, 164762, 667003
2096921,2096921, 164953, 667195
2096921,2096921, 164544, 667183
2096921,2096921, 164702, 666967
2096921,2096921, 164548, 666899
2096921,2096921, 164775, 666657
2096921,2096921, 164729, 666631
2096921,2096921, 164767, 666577
2096921,2096921, 164862, 666554
2096921,2096921, 164678, 666897
2096921,2096921, 164764, 666217
2096921,2096921, 164436, 666132
2096921,2096921, 164415, 665773
2096921,2096921, 164778, 665860
2096921,2096921, 164373, 665809
2096921,2096921, 164308, 665724
2096921,2096921, 164432, 665536
2096921,2096921, 164271, 665656
2096921,2096921, 164325, 665790
2096921,2096921, 164429, 665656
2096921,2096921, 164476, 665421
2096921,2096921, 164351, 665499
2096921,2096921, 164321, 665405
2096921,2096921, 164222, 665475
2096921,2096921, 164350, 665403
2096921,2096921, 164452, 665126
2096921,2096921, 164261, 664525
2096921,2096921, 164294, 664977
2096921,2096921, 164257, 665245
2096921,2096921, 164286, 665036
2096921,2096921, 164569, 664757
2096921,2096921, 164298, 664647
2096921,2096921, 164098, 664855
2096921,2096921, 164193, 664732
2096921,2096921, 164202, 664780
2096921,2096921, 164130, 664579
2096921,2096921, 164166, 664193
2096921,2096921, 164371, 664620
2096921,2096921, 164455, 664999
2096921,2096921, 164119, 664917
2096921,2096921, 164249, 665187
2096921,2096921, 163937, 664984
2096921,2096921, 164147, 665057
2096921,2096921, 164190, 664802
2096921,2096921, 163988, 664704
2096921,2096921, 164096, 664973
2096921,2096921, 164115, 664891
2096921,2096921, 164039, 664866
2096921,2096921, 164172, 665054
2096921,2096921, 164320, 665281
2096921,2096921, 164475, 664855
2096921,2096921, 164817, 665623
2096921,2096921, 164297, 665649
2096921,2096921, 164696, 665429
2096921,2096921, 164272, 665519
2096921,2096921, 164485, 665996
2096921,2096921, 164695, 666023
2096921,2096921, 164467, 666175
2096921,2096921, 164561, 666047
2096921,2096921, 164521, 666301
2096921,2096921, 164973, 666680
2096921,2096921, 164672, 666737
2096921,2096921, 164783, 666747
2096921,2096921, 164750, 666687
2096921,2096921, 164895, 666702
2096921,2096921, 164755, 667229
2096921,2096921, 164864, 667232
2096921,2096921, 164998, 666923
2096921,2096921, 165012, 667229
2096921,2096921, 165122, 667106
2096921,2096921, 165049, 667221
2096921,2096921, 165388, 667558
2096921,2096921, 165261, 667806
2096921,2096921, 165228, 667461
2096921,2096921, 165062, 667548
2096921,2096921, 165003, 667840
2096921,2096921, 165243, 668113
2096921,2096921, 164969, 667864
2096921,2096921, 165076, 667945
2096921,2096921, 165239, 668192
2096921,2096921, 165431, 668342
2096921,2096921, 165303, 668482
2096921,2096921, 165388, 668401
2096921,2096921, 165409, 668317
2096921,2096921, 165134, 668611
2096921,2096921, 165598, 668543
2096921,2096921, 165327, 668582
2096921,2096921, 165421, 668548
2096921,2096921, 165413, 668993
2096921,2096921, 165466, 668824
2096921,2096921, 165849, 669229
2096921,2096921, 165798, 669516
2096921,2096921, 165746, 669660
2096921,2096921, 165527, 669700
2096921,2096921, 165517, 669469
2096921,2096921, 165807, 669979
2096921,2096921, 165748, 669915
2096921,2096921, 165919, 669756
2096921,2096921, 165957, 669789
2096921,2096921, 166095, 669999
2096921,2096921, 165958, 670290
2096921,2096921, 166151, 670507
2096921,2096921, 165850, 670866
2096921,2096921, 165748, 670427
2096921,2096921, 165844, 670287
2096921,2096921, 166011, 670671
2096921,2096921, 165994, 670389
2096921,2096921, 166219, 670666
2096921,2096921, 166211, 670336
2096921,2096921, 165985, 670685
2096921,2096921, 166479, 670949
2096921,2096921, 166079, 671344
2096921,2096921, 166138, 670985
2096921,2096921, 166190, 671046
2096921,2096921, 166028, 671117
2096921,2096921, 166105, 671467
2096921,2096921, 166084, 671674
2096921,2096921, 166311, 671645
2096921,2096921, 166623, 671576
2096921,2096921, 166510, 671567
2096921,2096921, 166542, 672067
2096921,2096921, 166632, 672303
2096921,2096921, 166557, 672041
2096921,2096921, 166538, 671943
2096921,2096921, 166407, 671847
2096921,2096921, 166440, 672020
2096921,2096921, 166398, 672066
2096921,2096921, 166613, 672342
2096921,2096921, 166504, 672523
2096921,2096921, 166868, 672609
2096921,2096921, 166741, 672810
2096921,2096921, 166558, 672900
2096921,2096921, 166561, 672950
2096921,2096921, 166628, 673349
2096921,2096921, 167025, 672665
2096921,2096921, 166680, 673037
2096921,2096921, 166761, 672996
2096921,2096921, 166647, 673222
2096921,2096921, 166695, 673269
2096921,2096921, 166805, 673395
2096921,2096921, 166861, 673605
2096921,2096921, 166876, 673767
2096921,2096921, 166943, 673483
2096921,2096921, 166766, 673537
2096921,2096921, 166859, 673590
2096921,2096921, 167089, 673817
2096921,2096921, 166731, 673961
2096921,2096921, 166947, 673860
2096921,2096921, 166868, 673871
2096921,2096921, 167123, 673773
2096921,2096921, 167147, 674176
2096921,2096921, 167269, 674119
2096921,2096921, 167237, 674207
2096921,2096921, 166961, 674064
2096921,2096921, 167135, 674234
2096921,2096921, 167011, 674407
2096921,2096921, 167288, 674566
2096921,2096921, 167283, 674694
2096921,2096921, 167309, 674805
2096921,2096921, 167478, 674878
2096921,2096921, 167499, 674823
2096921,2096921, 167708, 674944
2096921,2096921, 167440, 675216
2096921,2096921, 167598, 674847
2096921,2096921, 167208, 674627
2096921,2096921, 167551, 675195
2096921,2096921, 167276, 675185
2096921,2096921, 167412, 675071
2096921,2096921, 167503, 675277
2096921,2096921, 167334, 675311
2096921,2096921, 167558, 675440
2096921,2096921, 167429, 675406
2096921,2096921, 167405, 675721
2096921,2096921, 167437, 675698
2096921,2096921, 167437, 675478
2096921,2096921, 167144, 675862
2096921,2096921, 167331, 675901
2096921,2096921, 167664, 675899
2096921,2096921, 167721, 676023
2096921,2096921, 167763, 675963
2096921,2096921, 167758, 675785
2096921,2096921, 167851, 676037
2096921,2096921, 168126, 676232
2096921,2096921, 167548, 675849
2096921,2096921, 167410, 675969
2096921,2096921, 167661, 676122
2096921,2096921, 167983, 676477
2096921,2096921, 167645, 676369
2096921,2096921, 167711, 676472
2096921,2096921, 167728, 676444
2096921,2096921, 168026, 676679
2096921,2096921, 167978, 676782
2096921,2096921, 167782, 676590
2096921,2096921, 167915, 676377
2096921,2096921, 167834, 676420
2096921,2096921, 167762, 676668
2096921,2096921, 167671, 676709
2096921,2096921, 167838, 676474
2096921,2096921, 167868, 676841
2096921,2096921, 168029, 676990
2096921,2096921, 167889, 677130
2096921,2096921, 167785, 676908
2096921,2096921, 168275, 677121
2096921,2096921, 167783, 676786
2096921,2096921, 168230, 676832
2096921,2096921, 167746, 676997
2096921,2096921, 167881, 677155
2096921,2096921, 168294, 677212
2096921,2096921, 168189, 677208
2096921,2096921, 168448, 677256
2096921,2096921, 168084, 677405
2096921,2096921, 168361, 677364
2096921,2096921, 168015, 677396
2096921,2096921, 168002, 677237
2096921,2096921, 167890, 677023
2096921,2096921, 167877, 677307
2096921,2096921, 168072, 677517
2096921,2096921, 167995, 677575
2096921,2096921, 168008, 677722
2096921,2096921, 168148, 677952
2096921,2096921, 168247, 677614
2096921,2096921, 168273, 677940
2096921,2096921, 168188, 677717
2096921,2096921, 168290, 677541
2096921,2096921, 167954, 677692
2096921,2096921, 168394, 677803
2096921,2096921, 168106, 677624
2096921,2096921, 168334, 677728
2096921,2096921, 168215, 677761
2096921,2096921, 168117, 678022
2096921,2096921, 168433, 678174
2096921,2096921, 168169, 678042
2096921,2096921, 168236, 678179
2096921,2096921, 168059, 678338
2096921,2096921, 168084, 678040
2096921,2096921, 168340, 678426
2096921,2096921, 168168, 678127
2096921,2096921, 168205, 678560
2096921,2096921, 168213, 678442
2096921,2096921, 168224, 678516
2096921,2096921, 168226, 678541
2096921,2096921, 168594, 678384
2096921,2096921, 168564, 678636
2096921,2096921, 168419, 678578
2096921,2096921, 168361, 678632
2096921,2096921, 168216, 678544
2096921,2096921, 168415, 678452
2096921,2096921, 168373, 678419
2096921,2096921, 168373, 678626
2096921,2096921, 168114, 678656
2096921,2096921, 168344, 678517
2096921,2096921, 168442, 678808
2096921,2096921, 168521, 678722
2096921,2096921, 168450, 678582
2096921,2096921, 168326, 678644
2096921,2096921, 168297, 678609
2096921,2096921, 168295, 678688
2096921,2096921, 168165, 678679
2096921,2096921, 168078, 678681
2096921,2096921, 168518, 678760
2096921,2096921, 168662, 679099
2096921,2096921, 168647, 679133
2096921,2096921, 168451, 679019
2096921,2096921, 168596, 678697
2096921,2096921, 168625, 678904
2096921,2096921, 168575, 678834
2096921,2096921, 168564, 678749
2096921,2096921, 168471, 678767
2096921,2096921, 168656, 678655
2096921,2096921, 168618, 679087
2096921,2096921, 168722, 679004
2096921,2096921, 168727, 678823
2096921,2096921, 168618, 678887
2096921,2096921, 168587, 679019
2096921,2096921, 168248, 679023
2096921,2096921, 168302, 678943
2096921,2096921, 168350, 678870
2096921,2096921, 168455, 678910
2096921,2096921, 168468, 679073
2096921,2096921, 168349, 679019
2096921,2096921, 168435, 679114
2096921,2096921, 168496, 678958
2096921,2096921, 168723, 679028
2096921,2096921, 168384, 678971
2096921,2096921, 168335, 678757
2096921,2096921, 168333, 678966
2096921,2096921, 168596, 678846
2096921,2096921, 168501, 679100
2096921,2096921, 168679, 679012
2096921,2096921, 168952, 679027
2096921,2096921, 168668, 679174
2096921,2096921, 168853, 679088
2096921,2096921, 168465, 679153
2096921,2096921, 168356, 678801
2096921,2096921, 168088, 679079
2096921,2096921, 168649, 678948
2096921,2096921, 168600, 678839
2096921,2096921, 168415, 678405
2096921,2096921, 168754, 678700
2096921,2096921, 168590, 678876
2096921,2096921, 168683, 679008
2096921,2096921, 168732, 679216
2096921,2096921, 168604, 679226
2096921,2096921, 168572, 679059
2096921,2096921, 168333, 678870
2096921,2096921, 168304, 678786
2096921,2096921, 168323, 678764
2096921,2096921, 168485, 678894
2096921,2096921, 168234, 679168
2096921,2096921, 168669, 678843
2096921,2096921, 168901, 678852
2096921,2096921, 168658, 678977
2096921,2096921, 168578, 678912
2096921,2096921, 168588, 679136
2096921,2096921, 168523, 678981
2096921,2096921, 168078, 678341
2096921,2096921, 168191, 678156
2096921,2096921, 168402, 678236
2096921,2096921, 168262, 677752
2096921,2096921, 168083, 678081
2096921,2096921, 168017, 677416
2096921,2096921, 168051, 677396
2096921,2096921, 167973, 677257
2096921,2096921, 167905, 677446
2096921,2096921, 167773, 676914
2096921,2096921, 167838, 676180
2096921,2096921, 167564, 676030
2096921,2096921, 167425, 675721
2096921,2096921, 167786, 676030
2096921,2096921, 167668, 676182
2096921,2096921, 167434, 674764
2096921,2096921, 166967, 674324
2096921,2096921, 167349, 674464
2096921,2096921, 166918, 674382
2096921,2096921, 167289, 674143
2096921,2096921, 166557, 672404
2096921,2096921, 166510, 672087
2096921,2096921, 166565, 672041
2096921,2096921, 166466, 671927
2096921,2096921, 166573, 671964
2096921,2096921, 165606, 668737
2096921,2096921, 165414, 668051
2096921,2096921, 165124, 667731
2096921,2096921, 165237, 667589
2096921,2096921, 165211, 667766
2096921,2096921, 163748, 663690
2096921,2096921, 163614, 662485
2096921,2096921, 163492, 662388
2096921,2096921, 163618, 662683
2096921,2096921, 163910, 662869
2096921,2096921, 162966, 659670
2096921,2096921, 162718, 658880
2096921,2096921, 162169, 658844
2096921,2096921, 162225, 658476
2096921,2096921, 162308, 658490
2096921,2096921, 161619, 656090
2096921,2096921, 161499, 655792
2096921,2096921, 161399, 655547
2096921,2096921, 161596, 655801
2096921,2096921, 161739, 655607
2096921,2096921, 161198, 653856
2096921,2096921, 160958, 653433
2096921,2096921, 161001, 653244
2096921,2096921, 160775, 653307
2096921,2096921, 160702, 653199
2096921,2096921, 160443, 652122
2096921,2096921, 160387, 651770
2096921,2096921, 160467, 651869
2096921,2096921, 160358, 651741
2096921,2096921, 160438, 651654
2096921,2096921, 160357, 650957
2096921,2096921, 160298, 650979
2096921,2096921, 160095, 650953
2096921,2096921, 160131, 650652
2096921,2096921, 159867, 650608
2096921,2096921, 159822, 650111
2096921,2096921, 159833, 649866
2096921,2096921, 159768, 649933
2096921,2096921, 159892, 650023
2096921,2096921, 159945, 649933
2096921,2096921, 160219, 650034
2096921,2096921, 160001, 650013
2096921,2096921, 160176, 650207
2096921,2096921, 159872, 650155
2096921,2096921, 159687, 649877
2096921,2096921, 159865, 650068
2096921,2096921, 159633, 650059
2096921,2096921, 160021, 650228
2096921,2096921, 159887, 650265
2096921,2096921, 159776, 650277
2096921,2096921, 159934, 650723
2096921,2096921, 160129, 650886
2096921,2096921, 160143, 650735
2096921,2096921, 160030, 650705
2096921,2096921, 159845, 650509
2096921,2096921, 160039, 650721
2096921,2096921, 160290, 650598
2096921,2096921, 160469, 651039
2096921,2096921, 160199, 650974
2096921,2096921, 160114, 650948
2096921,2096921, 160218, 651449
2096921,2096921, 160537, 651461
2096921,2096921, 160279, 651539
2096921,2096921, 160306, 651245
2096921,2096921, 160413, 651392
2096921,2096921, 160347, 652208
2096921,2096921, 160541, 652180
2096921,2096921, 160390, 652467
2096921,2096921, 160391, 652540
2096921,2096921, 160512, 652712
2096921,2096921, 160855, 653203
2096921,2096921, 160968, 653774
2096921,2096921, 160968, 653440
2096921,2096921, 160711, 653406
2096921,2096921, 160786, 653518
2096921,2096921, 161059, 654407
2096921,2096921, 161036, 654403
2096921,2096921, 161216, 654453
2096921,2096921, 161177, 654573
2096921,2096921, 161293, 654571
2096921,2096921, 161314, 655552
2096921,2096921, 161624, 655766
2096921,2096921, 161434, 655630
2096921,2096921, 161520, 655546
2096921,2096921, 161532, 655592
2096921,2096921, 161370, 656257
2096921,2096921, 161577, 656706
2096921,2096921, 161435, 656771
2096921,2096921, 161657, 656719
2096921,2096921, 162077, 656887
2096921,2096921, 162276, 657554
2096921,2096921, 162017, 657829
2096921,2096921, 162023, 657798
2096921,2096921, 162111, 657970
2096921,2096921, 161780, 657870
2096921,2096921, 162300, 658435
2096921,2096921, 162090, 658550
2096921,2096921, 162498, 658979
2096921,2096921, 162454, 658868
2096921,2096921, 162512, 659079
2096921,2096921, 163015, 659848
2096921,2096921, 162830, 659986
2096921,2096921, 163004, 660374
2096921,2096921, 162756, 660073
2096921,2096921, 162757, 659909
2096921,2096921, 163098, 661012
2096921,2096921, 163094, 661155
2096921,2096921, 162856, 661369
2096921,2096921, 162852, 661298
2096921,2096921, 163016, 661391
2096921,2096921, 163402, 662236
2096921,2096921, 163514, 662451
2096921,2096921, 163466, 662266
2096921,2096921, 163129, 662199
2096921,2096921, 163408, 662119
2096921,2096921, 163600, 663063
2096921,2096921, 163795, 663294
2096921,2096921, 163618, 663420
2096921,2096921, 163828, 663489
2096921,2096921, 163807, 663520
2096921,2096921, 163857, 664335
2096921,2096921, 164078, 664809
2096921,2096921, 164194, 664742
2096921,2096921, 163981, 664980
2096921,2096921, 164162, 664792
2096921,2096921, 164281, 665319
2096921,2096921, 164472, 665562
2096921,2096921, 164188, 665665
2096921,2096921, 164485, 665806
2096921,2096921, 164472, 665481
2096921,2096921, 164541, 666502
2096921,2096921, 165047, 666632
2096921,2096921, 164743, 666757
2096921,2096921, 164629, 666758
2096921,2096921, 164523, 666946
2096921,2096921, 164910, 667101
2096921,2096921, 164369, 667299
2096921,2096921, 164955, 667208
2096921,2096921, 164767, 667713
2096921,2096921, 165102, 667458
2096921,2096921, 165011, 667816
2096921,2096921, 165193, 667974
2096921,2096921, 165064, 667924
2096921,2096921, 164967, 667771
2096921,2096921, 164929, 667801
2096921,2096921, 165076, 668211
2096921,2096921, 165082, 668258
2096921,2096921, 165276, 668194
2096921,2096921, 165284, 668015
2096921,2096921, 165503, 668415
2096921,2096921, 165004, 668522
2096921,2096921, 165055, 668605
2096921,2096921, 165261, 668792
2096921,2096921, 165242, 668748
2096921,2096921, 165255, 668713
2096921,2096921, 165281, 668755
2096921,2096921, 165349, 668630
2096921,2096921, 165416, 668739
2096921,2096921, 165462, 668625
2096921,2096921, 165575, 668640
2096921,2096921, 165410, 668486
2096921,2096921, 165235, 668958
2096921,2096921, 165073, 668667
2096921,2096921, 165121, 668466
2096921,2096921, 165178, 668660
2096921,2096921, 165060, 668519
2096921,2096921, 165067, 668650
2096921,2096921, 165065, 668468
2096921,2096921, 165222, 668460
2096921,2096921, 165229, 668865
2096921,2096921, 165252, 668762
2096921,2096921, 165350, 668700
2096921,2096921, 165134, 668693
2096921,2096921, 165038, 668842
2096921,2096921, 165103, 668669
2096921,2096921, 165194, 668538
2096921,2096921, 165060, 668619
2096921,2096921, 165451, 668431
2096921,2096921, 165177, 668416
2096921,2096921, 165279, 668655
2096921,2096921, 165395, 668457
2096921,2096921, 165444, 668647
2096921,2096921, 165337, 668665
2096921,2096921, 165080, 668587
2096921,2096921, 165102, 668387
2096921,2096921, 164997, 668744
2096921,2096921, 165053, 668448
2096921,2096921, 165577, 668756
2096921,2096921, 165429, 668749
2096921,2096921, 165194, 669112
2096921,2096921, 165503, 669189
2096921,2096921, 165390, 668964
2096921,2096921, 165275, 669102
2096921,2096921, 165193, 669171
2096921,2096921, 165356, 669001
2096921,2096921, 165323, 668997
2096921,2096921, 165191, 669041
2096921,2096921, 165343, 668923
2096921,2096921, 165549, 669306
2096921,2096921, 165397, 669158
2096921,2096921, 165656, 669552
2096921,2096921, 165701, 669973
2096921,2096921, 165699, 669951
2096921,2096921, 165648, 669698
2096921,2096921, 165462, 669751
2096921,2096921, 165426, 669997
2096921,2096921, 165127, 669891
2096921,2096921, 165531, 670131
2096921,2096921, 165664, 670493
2096921,2096921, 165725, 670391
2096921,2096921, 165973, 671168
2096921,2096921, 166025, 671052
2096921,2096921, 166189, 671682
2096921,2096921, 165950, 671210
2096921,2096921, 165784, 671330
2096921,2096921, 165826, 671146
2096921,2096921, 166219, 671930
2096921,2096921, 166299, 672060
2096921,2096921, 166302, 672002
2096921,2096921, 166687, 672385
2096921,2096921, 166441, 672842
2096921,2096921, 167034, 673191
2096921,2096921, 166464, 673343
2096921,2096921, 166383, 673331
2096921,2096921, 166564, 673487
2096921,2096921, 166663, 673854
2096921,2096921, 166408, 674094
2096921,2096921, 166637, 673883
2096921,2096921, 166583, 674039
2096921,2096921, 166914, 674555
2096921,2096921, 167140, 674827
2096921,2096921, 166960, 675224
2096921,2096921, 167015, 674961
2096921,2096921, 167024, 675120
2096921,2096921, 166749, 674825
2096921,2096921, 167066, 675198
2096921,2096921, 167068, 675492
2096921,2096921, 166969, 675284
2096921,2096921, 167285, 675580
2096921,2096921, 167073, 675788
2096921,2096921, 167578, 676395
2096921,2096921, 167713, 676661
2096921,2096921, 167522, 676710
2096921,2096921, 167556, 676509
2096921,2096921, 167557, 676385
2096921,2096921, 167474, 677078
2096921,2096921, 167550, 677227
2096921,2096921, 167823, 677176
2096921,2096921, 167711, 677727
2096921,2096921, 167795, 677479
2096921,2096921, 167474, 678008
2096921,2096921, 167946, 678207
2096921,2096921, 167690, 678514
2096921,2096921, 167650, 678088
2096921,2096921, 167875, 678029
2096921,2096921, 167959, 678562
2096921,2096921, 168460, 678799
2096921,2096921, 168294, 678872
2096921,2096921, 168121, 679202
2096921,2096921, 168537, 679149
2096921,2096921, 168467, 679600
2096921,2096921, 168544, 679831
2096921,2096921, 168424, 679735
2096921,2096921, 168263, 679745
2096921,2096921, 168447, 679971
2096921,2096921, 168546, 680215
2096921,2096921, 168502, 680392
2096921,2096921, 168219, 680832
2096921,2096921, 168293, 680945
2096921,2096921, 168688, 680711
2096921,2096921, 168847, 681221
2096921,2096921, 168841, 681411
2096921,2096921, 168808, 681544
2096921,2096921, 168860, 681368
2096921,2096921, 168962, 681101
2096921,2096921, 169228, 681946
2096921,2096921, 169021, 681733
2096921,2096921, 169256, 682078
2096921,2096921, 169260, 681859
2096921,2096921, 169149, 681922
2096921,2096921, 169089, 682302
2096921,2096921, 169484, 682956
2096921,2096921, 169443, 682762
2096921,2096921, 169336, 682707
2096921,2096921, 168942, 682711
2096921,2096921, 169382, 683056
2096921,2096921, 169076, 683470
2096921,2096921, 169424, 683394
2096921,2096921, 169454, 683602
2096921,2096921, 169515, 683720
2096921,2096921, 169791, 684049
2096921,2096921, 169599, 684257
2096921,2096921, 169714, 684340
2096921,2096921, 169537, 684296
2096921,2096921, 169422, 684352
2096921,2096921, 169597, 684668
2096921,2096921, 169917, 684923
2096921,2096921, 170274, 684754
2096921,2096921, 170097, 684886
2096921,2096921, 170157, 685064
2096921,2096921, 170341, 685543
2096921,2096921, 170408, 685474
2096921,2096921, 170065, 685347
2096921,2096921, 170138, 685562
2096921,2096921, 169903, 685731
2096921,2096921, 170160, 686251
2096921,2096921, 170101, 686198
2096921,2096921, 170110, 686181
2096921,2096921, 170272, 686074
2096921,2096921, 170167, 686051
2096921,2096921, 170568, 686590
2096921,2096921, 170556, 687025
2096921,2096921, 170245, 687004
2096921,2096921, 170387, 686705
2096921,2096921, 170416, 686572
2096921,2096921, 170286, 687170
2096921,2096921, 170290, 687222
2096921,2096921, 170710, 687274
2096921,2096921, 170578, 687597
2096921,2096921, 170634, 687393
2096921,2096921, 170503, 688060
2096921,2096921, 170787, 688174
2096921,2096921, 170713, 688341
2096921,2096921, 170799, 688237
2096921,2096921, 170642, 688324
2096921,2096921, 170759, 688668
2096921,2096921, 170890, 688552
2096921,2096921, 170861, 688985
2096921,2096921, 171125, 688759
2096921,2096921, 171485, 688665
2096921,2096921, 171327, 688818
2096921,2096921, 171385, 689414
2096921,2096921, 170926, 689316
2096921,2096921, 171013, 689149
2096921,2096921, 171146, 689180
2096921,2096921, 171068, 689910
2096921,2096921, 171147, 689636
2096921,2096921, 170860, 689855
2096921,2096921, 171523, 689650
2096921,2096921, 171215, 689772
2096921,2096921, 171490, 689971
2096921,2096921, 171510, 690399
2096921,2096921, 171531, 690396
2096921,2096921, 171560, 690193
2096921,2096921, 171446, 690223
2096921,2096921, 171312, 690658
2096921,2096921, 171472, 690522
2096921,2096921, 171523, 690733
2096921,2096921, 171573, 690674
2096921,2096921, 171689, 690711
2096921,2096921, 171644, 690950
2096921,2096921, 171911, 690987
2096921,2096921, 171612, 691165
2096921,2096921, 171446, 691084
2096921,2096921, 171809, 691076
2096921,2096921, 171881, 691637
2096921,2096921, 171921, 691484
2096921,2096921, 171836, 691385
2096921,2096921, 172047, 691613
2096921,2096921, 172115, 691486
2096921,2096921, 171984, 691964
2096921,2096921, 172046, 692081
2096921,2096921, 171938, 692144
2096921,2096921, 171841, 691927
2096921,2096921, 171564, 692142
2096921,2096921, 171799, 692018
2096921,2096921, 171847, 692270
2096921,2096921, 171952, 692087
2096921,2096921, 172175, 692503
2096921,2096921, 172260, 692476
2096921,2096921, 172087, 693068
2096921,2096921, 172303, 693018
2096921,2096921, 172071, 692986
2096921,2096921, 172075, 693056
2096921,2096921, 172172, 692846
2096921,2096921, 172248, 693218
2096921,2096921, 172130, 693195
2096921,2096921, 172218, 693412
2096921,2096921, 172061, 693268
2096921,2096921, 172060, 693336
2096921,2096921, 172322, 693808
2096921,2096921, 172563, 694065
2096921,2096921, 172322, 693927
2096921,2096921, 172037, 693750
2096921,2096921, 172068, 693415
2096921,2096921, 172268, 693926
2096921,2096921, 172624, 693933
2096921,2096921, 172245, 694001
2096921,2096921, 172594, 694043
2096921,2096921, 172322, 694231
2096921,2096921, 172625, 694477
2096921,2096921, 172690, 694658
2096921,2096921, 172651, 694658
2096921,2096921, 172712, 694336
2096921,2096921, 172692, 694539
2096921,2096921, 172814, 694873
2096921,2096921, 172457, 694745
2096921,2096921, 172340, 694670
2096921,2096921, 172617, 694980
2096921,2096921, 172674, 694981
2096921,2096921, 172826, 695331
2096921,2096921, 172949, 695644
2096921,2096921, 172921, 695653
2096921,2096921, 172529, 695582
2096921,2096921, 172659, 695498
2096921,2096921, 172665, 695863
2096921,2096921, 172828, 695746
2096921,2096921, 172992, 695813
2096921,2096921, 172635, 695765
2096921,2096921, 173191, 695579
2096921,2096921, 172772, 696005
2096921,2096921, 172863, 696032
2096921,2096921, 172950, 695931
2096921,2096921, 173078, 696108
2096921,2096921, 173143, 695996
2096921,2096921, 172856, 696065
2096921,2096921, 173010, 696527
2096921,2096921, 173137, 696388
2096921,2096921, 173054, 696240
2096921,2096921, 173342, 696293
2096921,2096921, 173197, 696917
2096921,2096921, 173136, 697186
2096921,2096921, 173145, 696945
2096921,2096921, 173254, 696984
2096921,2096921, 173154, 696600
2096921,2096921, 173148, 697167
2096921,2096921, 173038, 696800
2096921,2096921, 173247, 697204
2096921,2096921, 173292, 697146
2096921,2096921, 173504, 696955
2096921,2096921, 173406, 697064
2096921,2096921, 173335, 697147
2096921,2096921, 173185, 697202
2096921,2096921, 173244, 696894
2096921,2096921, 173230, 697113
2096921,2096921, 173246, 697281
2096921,2096921, 173306, 697229
2096921,2096921, 173218, 697143
2096921,2096921, 173497, 697349
2096921,2096921, 173385, 697495
2096921,2096921, 173398, 697911
2096921,2096921, 173423, 697852
2096921,2096921, 173291, 697630
2096921,2096921, 173449, 697644
2096921,2096921, 173162, 697512
2096921,2096921, 173196, 697331
2096921,2096921, 173222, 697638
2096921,2096921, 173290, 697470
2096921,2096921, 173380, 697521
2096921,2096921, 173492, 697539
2096921,2096921, 173442, 697628
2096921,2096921, 173878, 697796
2096921,2096921, 173658, 697691
2096921,2096921, 173341, 697704
2096921,2096921, 173224, 697842
2096921,2096921, 173728, 697808
2096921,2096921, 173691, 698003
2096921,2096921, 173699, 697756
2096921,2096921, 173675, 698046
2096921,2096921, 173505, 698028
2096921,2096921, 173301, 697873
2096921,2096921, 173485, 698221
2096921,2096921, 173464, 698253
2096921,2096921, 173445, 698360
2096921,2096921, 173237, 697951
2096921,2096921, 173629, 698012
2096921,2096921, 173496, 698116
2096921,2096921, 173654, 698235
2096921,2096921, 173851, 698377
2096921,2096921, 173670, 698590
2096921,2096921, 173772, 698423
2096921,2096921, 173682, 698425
2096921,2096921, 173970, 698770
2096921,2096921, 173834, 698437
2096921,2096921, 173440, 698330
2096921,2096921, 173222, 697520
2096921,2096921, 173025, 697529
2096921,2096921, 173167, 697388
2096921,2096921, 173450, 697518
2096921,2096921, 173542, 697646
2096921,2096921, 173280, 697440
2096921,2096921, 173242, 697185
2096921,2096921, 173231, 697327
2096921,2096921, 173232, 696920
2096921,2096921, 173245, 697041
2096921,2096921, 172737, 696008
2096921,2096921, 172514, 695397
2096921,2096921, 172794, 695761
2096921,2096921, 172644, 695784
2096921,2096921, 172755, 695799
2096921,2096921, 172541, 694224
2096921,2096921, 172595, 693891
2096921,2096921, 172130, 693590
2096921,2096921, 172089, 693914
2096921,2096921, 172015, 693852
2096921,2096921, 171551, 692261
2096921,2096921, 171328, 691596
2096921,2096921, 171607, 691842
2096921,2096921, 171735, 692079
2096921,2096921, 171546, 692087
2096921,2096921, 170647, 689002
2096921,2096921, 170137, 687944
2096921,2096921, 170510, 687905
2096921,2096921, 170109, 687296
2096921,2096921, 170545, 687217
2096921,2096921, 168911, 683052
2096921,2096921, 168738, 681934
2096921,2096921, 168606, 681711
2096921,2096921, 168906, 682100
2096921,2096921, 169073, 682177
2096921,2096921, 167890, 679122
2096921,2096921, 167527, 677880
2096921,2096921, 167361, 678105
2096921,2096921, 167565, 677537
2096921,2096921, 167695, 677931
2096921,2096921, 166600, 675543
2096921,2096921, 166456, 674814
2096921,2096921, 166125, 674821
2096921,2096921, 166581, 674780
2096921,2096921, 166730, 675027
2096921,2096921, 166044, 673258
2096921,2096921, 165904, 672815
2096921,2096921, 165972, 672628
2096921,2096921, 166107, 672586
2096921,2096921, 165652, 672856
2096921,2096921, 165431, 671353
2096921,2096921, 165281, 671054
2096921,2096921, 165375, 670554
2096921,2096921, 165546, 670712
2096921,2096921, 165519, 670882
2096921,2096921, 165034, 670171
2096921,2096921, 165068, 669830
2096921,2096921, 165376, 669591
2096921,2096921, 165069, 669779
2096921,2096921, 164957, 669853
2096921,2096921, 164864, 669056
2096921,2096921, 164623, 668895
2096921,2096921, 164633, 669098
2096921,2096921, 164956, 669170
2096921,2096921, 165124, 669180
2096921,2096921, 164821, 669018
2096921,2096921, 164974, 669084
2096921,2096921, 164906, 668981
2096921,2096921, 164831, 669031
2096921,2096921, 164555, 668769
2096921,2096921, 164568, 668979
2096921,2096921, 164695, 668965
2096921,2096921, 164775, 669015
2096921,2096921, 164714, 669108
2096921,2096921, 164931, 669051
2096921,2096921, 165127, 669615
2096921,2096921, 165080, 669877
2096921,2096921, 164790, 670012
2096921,2096921, 165045, 669433
2096921,2096921, 165079, 669620
2096921,2096921, 164809, 669891
2096921,2096921, 165160, 669875
2096921,2096921, 165099, 669540
2096921,2096921, 165033, 669715
2096921,2096921, 165102, 669759
2096921,2096921, 165024, 670562
2096921,2096921, 165378, 670493
2096921,2096921, 165404, 670464
2096921,2096921, 165392, 670441
2096921,2096921, 165063, 670381
2096921,2096921, 165341, 670652
2096921,2096921, 165304, 670917
2096921,2096921, 165492, 671004
2096921,2096921, 165723, 671218
2096921,2096921, 165446, 671227
2096921,2096921, 165667, 671819
2096921,2096921, 165662, 671947
2096921,2096921, 165435, 672006
2096921,2096921, 165966, 672117
2096921,2096921, 165600, 671951
2096921,2096921, 165816, 672838
2096921,2096921, 165622, 672996
2096921,2096921, 165780, 673017
2096921,2096921, 165941, 673047
2096921,2096921, 165942, 673096
2096921,2096921, 166368, 673695
2096921,2096921, 166374, 673987
2096921,2096921, 166079, 673947
2096921,2096921, 166150, 673979
2096921,2096921, 166300, 673943
2096921,2096921, 166504, 674938
2096921,2096921, 166679, 674787
2096921,2096921, 166538, 674781
2096921,2096921, 166559, 674935
2096921,2096921, 166626, 675004
2096921,2096921, 166656, 675937
2096921,2096921, 166882, 676272
2096921,2096921, 166758, 676175
2096921,2096921, 166814, 676007
2096921,2096921, 166603, 676138
2096921,2096921, 167198, 676524
2096921,2096921, 166957, 676854
2096921,2096921, 167354, 676683
2096921,2096921, 167045, 676804
2096921,2096921, 167205, 676703
2096921,2096921, 167230, 677746
2096921,2096921, 167225, 677716
2096921,2096921, 167355, 678051
2096921,2096921, 167372, 677866
2096921,2096921, 167507, 677902
2096921,2096921, 167707, 678741
2096921,2096921, 167528, 678890
2096921,2096921, 167445, 678800
2096921,2096921, 167534, 678812
2096921,2096921, 167817, 678904
2096921,2096921, 167915, 679755
2096921,2096921, 168008, 679877
2096921,2096921, 168102, 679991
2096921,2096921, 168067, 680011
2096921,2096921, 167918, 679876
2096921,2096921, 168291, 680839
2096921,2096921, 168092, 680786
2096921,2096921, 168027, 680851
2096921,2096921, 168249, 680789
2096921,2096921, 168260, 681105
2096921,2096921, 168891, 681826
2096921,2096921, 168777, 681905
2096921,2096921, 168721, 681693
2096921,2096921, 168613, 681886
2096921,2096921, 168698, 681822
2096921,2096921, 168630, 682745
2096921,2096921, 168674, 682812
2096921,2096921, 168954, 682690
2096921,2096921, 169296, 683056
2096921,2096921, 168857, 682851
2096921,2096921, 169072, 683284
2096921,2096921, 169284, 683401
2096921,2096921, 169425, 683467
2096921,2096921, 169000, 683481
2096921,2096921, 169237, 683082
2096921,2096921, 169380, 683904
2096921,2096921, 168851, 684093
2096921,2096921, 168959, 684032
2096921,2096921, 169117, 683982
2096921,2096921, 169234, 684221
2096921,2096921, 169581, 684398
2096921,2096921, 169732, 684286
2096921,2096921, 169371, 684414
2096921,2096921, 169301, 684177
2096921,2096921, 169397, 684388
2096921,2096921, 169437, 684573
2096921,2096921, 169309, 684566
2096921,2096921, 169439, 684557
2096921,2096921, 169599, 684441
2096921,2096921, 169648, 684816
2096921,2096921, 169675, 684555
2096921,2096921, 169584, 684556
2096921,2096921, 169565, 684328
2096921,2096921, 169306, 684618
2096921,2096921, 169271, 684712
2096921,2096921, 169419, 684390
2096921,2096921, 169353, 684509
2096921,2096921, 169599, 684627
2096921,2096921, 169553, 684659
2096921,2096921, 169388, 684699
2096921,2096921, 169350, 684533
2096921,2096921, 169300, 684202
2096921,2096921, 169551, 684300
2096921,2096921, 169176, 684516
2096921,2096921, 169211, 684121
2096921,2096921, 169027, 684237
2096921,2096921, 169243, 683906
2096921,2096921, 168955, 684174
2096921,2096921, 169574, 684405
2096921,2096921, 169705, 684194
2096921,2096921, 169423, 683717
2096921,2096921, 169410, 683594
2096921,2096921, 169375, 683800
2096921,2096921, 169159, 683669
2096921,2096921, 168938, 683604
2096921,2096921, 168857, 683277
2096921,2096921, 168974, 683400
2096921,2096921, 169030, 683251
2096921,2096921, 168962, 683555
2096921,2096921, 168913, 683426
2096921,2096921, 169062, 683187
2096921,2096921, 169280, 683394
2096921,2096921, 169181, 683210
2096921,2096921, 169300, 683165
2096921,2096921, 168718, 683138
2096921,2096921, 168826, 682798
2096921,2096921, 168757, 683107
2096921,2096921, 168880, 682812
2096921,2096921, 168964, 683111
2096921,2096921, 169124, 682968
2096921,2096921, 169064, 683170
2096921,2096921, 168896, 683063
2096921,2096921, 169108, 683261
2096921,2096921, 168880, 682928
2096921,2096921, 168584, 682967
2096921,2096921, 168914, 683330
2096921,2096921, 168673, 683066
2096921,2096921, 168464, 683270
2096921,2096921, 168667, 683295
2096921,2096921, 168996, 683447
2096921,2096921, 168994, 683380
2096921,2096921, 169081, 683579
2096921,2096921, 169059, 683510
2096921,2096921, 169045, 683631
2096921,2096921, 168997, 683331
2096921,2096921, 169399, 683567
2096921,2096921, 169130, 683664
2096921,2096921, 169053, 683635
2096921,2096921, 169172, 683536
2096921,2096921, 169283, 683502
2096921,2096921, 169355, 684730
2096921,2096921, 169087, 684601
2096921,2096921, 169358, 684544
2096921,2096921, 169609, 684537
2096921,2096921, 169526, 684404
2096921,2096921, 169453, 684953
2096921,2096921, 169482, 684895
2096921,2096921, 169456, 685240
2096921,2096921, 169568, 685446
2096921,2096921, 169676, 685443
2096921,2096921, 169832, 685511
2096921,2096921, 169970, 685626
2096921,2096921, 169894, 686053
2096921,2096921, 169920, 685825
2096921,2096921, 169714, 685988
2096921,2096921, 170114, 686098
2096921,2096921, 169859, 686460
2096921,2096921, 169855, 686625
2096921,2096921, 170156, 686690
2096921,2096921, 170004, 686678
2096921,2096921, 170306, 687248
2096921,2096921, 170086, 687120
2096921,2096921, 170339, 687270
2096921,2096921, 170262, 687216
2096921,2096921, 170049, 687206
2096921,2096921, 170071, 687711
2096921,2096921, 169995, 687623
2096921,2096921, 170245, 687843
2096921,2096921, 170594, 687431
2096921,2096921, 170509, 687760
2096921,2096921, 170423, 687598
2096921,2096921, 170503, 687992
2096921,2096921, 170574, 688285
2096921,2096921, 170576, 688133
2096921,2096921, 170360, 687925
2096921,2096921, 170586, 688312
2096921,2096921, 170468, 688497
2096921,2096921, 170537, 688437
2096921,2096921, 170484, 688240
2096921,2096921, 170669, 688523
2096921,2096921, 170691, 688732
2096921,2096921, 170823, 689181
2096921,2096921, 171059, 689353
2096921,2096921, 170537, 689121
2096921,2096921, 170790, 689261
2096921,2096921, 170717, 689471
2096921,2096921, 171167, 689593
2096921,2096921, 171347, 689992
2096921,2096921, 171052, 689798
2096921,2096921, 170974, 689918
2096921,2096921, 171017, 690316
2096921,2096921, 171486, 690261
2096921,2096921, 171110, 690255
2096921,2096921, 171217, 690157
2096921,2096921, 171121, 690140
2096921,2096921, 171166, 690461
2096921,2096921, 171024, 690524
2096921,2096921, 171257, 690616
2096921,2096921, 171299, 690532
2096921,2096921, 171282, 690711
2096921,2096921, 171466, 690950
2096921,2096921, 171811, 691309
2096921,2096921, 171375, 691157
2096921,2096921, 171398, 691249
2096921,2096921, 171416, 690892
2096921,2096921, 171252, 691590
2096921,2096921, 171417, 691300
2096921,2096921, 171555, 691289
2096921,2096921, 171547, 691283
2096921,2096921, 171660, 691579
2096921,2096921, 171587, 691909
2096921,2096921, 171496, 692049
2096921,2096921, 171854, 692133
2096921,2096921, 171492, 692003
2096921,2096921, 171594, 691838
2096921,2096921, 171594, 691877
2096921,2096921, 171576, 692238
2096921,2096921, 171465, 692262
2096921,2096921, 171928, 692442
2096921,2096921, 171825, 692300
2096921,2096921, 172112, 692616
2096921,2096921, 172101, 692696
2096921,2096921, 171912, 692780
2096921,2096921, 171922, 692817
2096921,2096921, 171690, 692935
2096921,2096921, 172001, 692901
2096921,2096921, 171874, 692904
2096921,2096921, 171999, 692711
2096921,2096921, 171955, 692812
2096921,2096921, 171985, 692894
2096921,2096921, 172175, 693133
2096921,2096921, 172429, 693363
2096921,2096921, 172363, 693370
2096921,2096921, 172280, 693428
2096921,2096921, 171861, 693153
2096921,2096921, 172115, 693630
2096921,2096921, 171830, 693477
2096921,2096921, 171846, 693294
2096921,2096921, 172113, 693423
2096921,2096921, 172117, 693688
2096921,2096921, 172259, 693891
2096921,2096921, 172459, 693887
2096921,2096921, 172367, 694061
2096921,2096921, 171842, 693969
2096921,2096921, 172073, 693708
2096921,2096921, 172182, 693936
2096921,2096921, 172335, 693825
2096921,2096921, 171871, 693837
2096921,2096921, 172399, 694057
2096921,2096921, 172445, 694341
2096921,2096921, 172405, 694584
2096921,2096921, 172382, 694455
2096921,2096921, 172308, 694683
2096921,2096921, 172337, 694436
2096921,2096921, 172349, 694036
2096921,2096921, 172197, 694304
2096921,2096921, 172243, 694705
2096921,2096921, 172485, 694478
2096921,2096921, 172561, 694336
2096921,2096921, 172608, 694415
2096921,2096921, 172429, 694656
2096921,2096921, 172738, 694822
2096921,2096921, 172636, 694967
2096921,2096921, 172639, 694906
2096921,2096921, 172782, 694708
2096921,2096921, 172575, 694577
2096921,2096921, 172357, 694591
2096921,2096921, 172480, 694812
2096921,2096921, 172474, 694907
2096921,2096921, 172884, 695187
2096921,2096921, 172558, 695003
2096921,2096921, 172779, 694974
2096921,2096921, 172683, 695084
2096921,2096921, 172633, 694887
2096921,2096921, 172590, 694693
2096921,2096921, 172677, 694830
2096921,2096921, 172735, 694992
2096921,2096921, 172719, 694914
2096921,2096921, 172662, 695137
2096921,2096921, 172687, 695203
2096921,2096921, 172826, 695259
2096921,2096921, 172610, 695004
2096921,2096921, 172704, 695469
2096921,2096921, 172857, 695274
2096921,2096921, 172462, 695113
2096921,2096921, 172426, 695109
2096921,2096921, 172324, 695025
2096921,2096921, 172744, 695192
2096921,2096921, 172725, 694997
2096921,2096921, 172767, 695189
2096921,2096921, 172573, 695040
2096921,2096921, 172743, 694782
2096921,2096921, 172674, 695458
2096921,2096921, 172395, 695165
2096921,2096921, 172509, 695026
2096921,2096921, 172701, 695025
2096921,2096921, 172526, 694938
2096921,2096921, 172605, 695090
2096921,2096921, 172783, 694826
2096921,2096921, 172899, 695066
2096921,2096921, 172795, 695068
2096921,2096921, 173045, 695196
2096921,2096921, 172443, 695138
2096921,2096921, 172623, 695136
2096921,2096921, 172369, 695207
2096921,2096921, 172675, 695040
2096921,2096921, 172676, 695083
2096921,2096921, 172511, 694849
2096921,2096921, 173032, 695198
2096921,2096921, 172805, 695345
2096921,2096921, 173068, 695372
2096921,2096921, 172689, 694887
2096921,2096921, 172712, 695181
2096921,2096921, 172884, 695172
2096921,2096921, 172665, 694991
2096921,2096921, 172683, 695183
2096921,2096921, 172507, 695089
2096921,2096921, 172673, 695096
2096921,2096921, 172695, 695144
2096921,2096921, 172730, 695313
2096921,2096921, 172726, 695115
2096921,2096921, 172646, 695053
2096921,2096921, 172891, 695201
2096921,2096921, 172524, 695040
2096921,2096921, 173038, 695149
2096921,2096921, 172633, 694981
2096921,2096921, 172498, 694863
2096921,2096921, 172440, 694750
2096921,2096921, 172803, 695054
2096921,2096921, 172804, 695237
2096921,2096921, 172650, 695201
2096921,2096921, 172822, 695059
2096921,2096921, 172972, 695130
2096921,2096921, 172611, 695106
2096921,2096921, 172804, 695077
2096921,2096921, 172947, 694960
2096921,2096921, 172498, 694814
2096921,2096921, 172606, 694759
2096921,2096921, 172744, 695267
2096921,2096921, 172753, 695081
2096921,2096921, 172847, 695038
2096921,2096921, 172700, 694743
2096921,2096921, 172689, 694928
2096921,2096921, 172667, 694915
2096921,2096921, 172615, 694657
2096921,2096921, 172557, 694834
2096921,2096921, 172730, 694878
2096921,2096921, 172291, 694905
2096921,2096921, 172659, 694964
2096921,2096921, 172810, 695073
2096921,2096921, 172827, 694658
2096921,2096921, 173094, 694980
2096921,2096921, 172417, 694898
2096921,2096921, 172480, 694722
2096921,2096921, 172624, 694781
2096921,2096921, 172435, 694404
2096921,2096921, 172473, 694393
2096921,2096921, 172470, 694292
2096921,2096921, 172820, 694405
2096921,2096921, 172774, 694712
2096921,2096921, 172858, 694594
2096921,2096921, 172792, 694467
2096921,2096921, 173039, 694406
2096921,2096921, 172411, 694536
2096921,2096921, 172557, 694166
2096921,2096921, 172339, 694128
2096921,2096921, 172489, 693877
2096921,2096921, 172714, 694117
2096921,2096921, 172680, 694068
2096921,2096921, 172588, 694170
2096921,2096921, 172305, 694126
2096921,2096921, 172628, 694032
2096921,2096921, 172442, 694110
2096921,2096921, 172589, 693787
2096921,2096921, 172289, 694063
2096921,2096921, 172274, 693918
2096921,2096921, 172406, 693432
2096921,2096921, 172181, 693212
2096921,2096921, 172427, 693417
2096921,2096921, 172388, 693587
2096921,2096921, 172302, 693570
2096921,2096921, 172397, 693329
2096921,2096921, 172230, 693391
2096921,2096921, 172286, 693284
2096921,2096921, 171913, 693002
2096921,2096921, 172068, 692987
2096921,2096921, 171952, 693073
2096921,2096921, 172002, 692768
2096921,2096921, 172250, 693029
2096921,2096921, 172380, 693057
2096921,2096921, 172242, 692966
2096921,2096921, 172477, 693133
2096921,2096921, 172485, 692687
2096921,2096921, 172187, 692824
2096921,2096921, 172289, 692840
2096921,2096921, 172063, 692313
2096921,2096921, 171744, 692620
2096921,2096921, 171908, 692393
2096921,2096921, 171979, 692476
2096921,2096921, 172250, 692682
2096921,2096921, 171876, 692215
2096921,2096921, 172145, 692354
2096921,2096921, 172186, 692220
2096921,2096921, 171762, 692215
2096921,2096921, 171914, 692158
2096921,2096921, 171635, 691086
2096921,2096921, 171743, 691056
2096921,2096921, 171526, 690790
2096921,2096921, 171838, 690780
2096921,2096921, 171709, 691216
2096921,2096921, 171535, 690226
2096921,2096921, 171790, 689935
2096921,2096921, 171450, 690051
2096921,2096921, 171405, 689952
2096921,2096921, 171266, 690054
2096921,2096921, 171219, 688736
2096921,2096921, 170798, 688699
2096921,2096921, 170861, 688254
2096921,2096921, 170803, 688215
2096921,2096921, 170880, 688604
2096921,2096921, 170423, 686843
2096921,2096921, 170648, 686456
2096921,2096921, 170443, 686511
2096921,2096921, 170355, 686434
2096921,2096921, 170156, 686248
2096921,2096921, 169700, 684153
2096921,2096921, 169547, 684072
2096921,2096921, 169505, 684127
2096921,2096921, 169590, 683835
2096921,2096921, 169406, 683849
2096921,2096921, 168462, 680546
2096921,2096921, 168147, 679644
2096921,2096921, 168041, 679273
2096921,2096921, 168164, 679339
2096921,2096921, 168240, 679239
2096921,2096921, 166734, 674598
2096921,2096921, 166420, 673898
2096921,2096921, 166253, 673204
2096921,2096921, 166342, 673132
2096921,2096921, 166286, 673465
2096921,2096921, 165723, 670182
2096921,2096921, 165580, 669185
2096921,2096921, 165272, 669079
2096921,2096921, 165102, 669204
2096921,2096921, 165022, 668944
2096921,2096921, 164452, 666341
2096921,2096921, 164175, 666012
2096921,2096921, 164350, 665533
2096921,2096921, 164100, 665515
2096921,2096921, 164213, 665652
2096921,2096921, 163675, 663598
2096921,2096921, 163468, 663256
2096921,2096921, 163302, 663191
2096921,2096921, 163187, 663178
2096921,2096921, 163292, 663125
2096921,2096921, 163174, 661818
2096921,2096921, 162575, 661098
2096921,2096921, 162664, 661082
2096921,2096921, 162903, 661331
2096921,2096921, 162825, 661249
2096921,2096921, 162740, 660116
2096921,2096921, 162550, 659943
2096921,2096921, 162640, 660007
2096921,2096921, 162488, 659989
2096921,2096921, 162177, 659832
2096921,2096921, 162071, 658908
2096921,2096921, 161775, 658767
2096921,2096921, 161725, 658693
2096921,2096921, 161811, 658957
2096921,2096921, 162088, 658634
2096921,2096921, 162132, 658527
2096921,2096921, 162370, 658674
2096921,2096921, 161968, 658785
2096921,2096921, 161811, 658556
2096921,2096921, 162091, 658353
2096921,2096921, 161948, 658284
2096921,2096921, 162095, 657824
2096921,2096921, 161867, 658088
2096921,2096921, 162068, 657970
2096921,2096921, 161995, 658246
2096921,2096921, 161929, 658495
2096921,2096921, 161993, 658476
2096921,2096921, 162027, 658504
2096921,2096921, 162151, 658077
2096921,2096921, 162134, 658365
2096921,2096921, 162175, 658154
2096921,2096921, 161966, 658254
2096921,2096921, 161763, 658206
2096921,2096921, 162259, 658227
2096921,2096921, 161985, 658353
2096921,2096921, 161962, 658419
2096921,2096921, 162097, 658632
2096921,2096921, 162014, 658422
2096921,2096921, 161894, 658721
2096921,2096921, 161906, 658458
2096921,2096921, 162373, 658924
2096921,2096921, 162045, 659163
2096921,2096921, 162206, 659053
2096921,2096921, 162361, 659468
2096921,2096921, 162592, 659280
2096921,2096921, 162729, 659704
2096921,2096921, 162569, 659782
2096921,2096921, 162757, 659902
2096921,2096921, 162486, 659416
2096921,2096921, 162243, 659748
2096921,2096921, 162582, 660103
2096921,2096921, 162490, 660332
2096921,2096921, 162586, 660314
2096921,2096921, 162690, 659932
2096921,2096921, 163097, 660702
2096921,2096921, 163164, 660990
2096921,2096921, 163427, 661216
2096921,2096921, 163134, 661629
2096921,2096921, 163093, 661287
2096921,2096921, 162987, 661422
2096921,2096921, 162732, 661605
2096921,2096921, 162977, 661864
2096921,2096921, 163339, 661724
2096921,2096921, 163126, 661874
2096921,2096921, 163152, 661874
2096921,2096921, 163429, 662536
2096921,2096921, 163461, 662447
2096921,2096921, 163340, 662483
2096921,2096921, 163366, 662550
2096921,2096921, 163176, 662563
2096921,2096921, 163570, 662906
2096921,2096921, 163452, 663122
2096921,2096921, 163367, 662742
2096921,2096921, 163755, 662720
2096921,2096921, 163651, 663036
2096921,2096921, 163851, 663575
2096921,2096921, 163777, 663680
2096921,2096921, 164035, 664144
2096921,2096921, 163516, 663853
2096921,2096921, 163797, 663772
2096921,2096921, 163704, 664222
2096921,2096921, 163971, 664510
2096921,2096921, 164038, 664589
2096921,2096921, 163813, 664457
2096921,2096921, 163846, 664475
2096921,2096921, 164169, 665262
2096921,2096921, 164394, 665406
2096921,2096921, 164420, 665533
2096921,2096921, 164468, 665050
2096921,2096921, 164246, 665075
2096921,2096921, 164205, 665620
2096921,2096921, 164201, 665786
2096921,2096921, 164402, 665857
2096921,2096921, 164480, 666207
2096921,2096921, 164497, 666250
2096921,2096921, 164852, 667008
2096921,2096921, 164815, 666714
2096921,2096921, 164700, 667062
2096921,2096921, 164455, 667089
2096921,2096921, 164688, 666770
2096921,2096921, 164761, 667543
2096921,2096921, 164555, 667609
2096921,2096921, 164802, 667374
2096921,2096921, 164832, 667400
2096921,2096921, 164695, 667309
2096921,2096921, 165051, 667899
2096921,2096921, 165243, 668044
2096921,2096921, 165107, 667983
2096921,2096921, 165154, 667988
2096921,2096921, 165049, 668213
2096921,2096921, 164988, 668107
2096921,2096921, 165152, 667954
2096921,2096921, 165238, 667973
2096921,2096921, 165059, 668227
2096921,2096921, 165161, 668117
2096921,2096921, 165190, 668421
2096921,2096921, 165374, 668520
2096921,2096921, 165404, 668617
2096921,2096921, 165211, 668453
2096921,2096921, 164842, 668240
2096921,2096921, 165123, 668327
2096921,2096921, 165152, 668352
2096921,2096921, 165119, 668032
2096921,2096921, 165322, 668622
2096921,2096921, 165423, 668528
2096921,2096921, 165218, 668570
2096921,2096921, 165311, 668478
2096921,2096921, 165168, 668415
2096921,2096921, 165251, 668460
2096921,2096921, 165205, 668459
2096921,2096921, 164961, 667898
2096921,2096921, 165218, 668023
2096921,2096921, 165195, 667930
2096921,2096921, 165144, 667821
2096921,2096921, 165177, 668224
2096921,2096921, 165320, 667607
2096921,2096921, 165254, 667823
2096921,2096921, 165227, 667737
2096921,2096921, 165212, 667669
2096921,2096921, 164648, 667743
2096921,2096921, 164579, 667216
2096921,2096921, 164586, 667127
2096921,2096921, 164680, 667096
2096921,2096921, 164871, 667187
2096921,2096921, 165033, 667577
2096921,2096921, 164877, 667034
2096921,2096921, 164605, 666913
2096921,2096921, 164917, 666712
2096921,2096921, 164910, 666711
2096921,2096921, 164646, 666465
2096921,2096921, 164355, 666167
2096921,2096921, 164511, 666200
2096921,2096921, 164484, 665771
2096921,2096921, 164438, 666025
2096921,2096921, 164761, 666193
2096921,2096921, 164476, 665800
2096921,2096921, 164249, 665553
2096921,2096921, 164764, 665915
2096921,2096921, 164554, 665879
2096921,2096921, 164324, 665833
2096921,2096921, 164248, 665782
2096921,2096921, 164201, 665556
2096921,2096921, 163951, 665699
2096921,2096921, 164206, 665435
2096921,2096921, 164270, 665482
2096921,2096921, 164548, 665435
2096921,2096921, 164542, 665406
2096921,2096921, 164265, 665210
2096921,2096921, 164404, 665331
2096921,2096921, 164324, 665269
2096921,2096921, 164577, 665047
2096921,2096921, 164346, 664954
2096921,2096921, 164241, 665000
2096921,2096921, 164356, 665239
2096921,2096921, 164591, 665253
2096921,2096921, 164564, 665326
2096921,2096921, 164424, 665236
2096921,2096921, 164469, 665284
2096921,2096921, 164354, 665128
2096921,2096921, 164231, 664953
2096921,2096921, 164080, 665459
2096921,2096921, 164114, 665335
2096921,2096921, 164270, 665288
2096921,2096921, 164280, 665252
2096921,2096921, 164725, 665377
2096921,2096921, 164342, 665755
2096921,2096921, 164785, 665696
2096921,2096921, 164687, 666324
2096921,2096921, 164644, 665651
2096921,2096921, 164527, 665801
2096921,2096921, 164727, 666230
2096921,2096921, 164638, 666554
2096921,2096921, 165041, 666509
2096921,2096921, 164937, 666481
2096921,2096921, 164735, 666531
2096921,2096921, 165041, 666728
2096921,2096921, 165048, 666985
2096921,2096921, 165148, 667207
2096921,2096921, 164734, 667173
2096921,2096921, 164781, 667197
2096921,2096921, 165121, 667118
2096921,2096921, 164897, 667497
2096921,2096921, 165082, 667598
2096921,2096921, 165064, 667713
2096921,2096921, 164963, 667440
2096921,2096921, 165328, 668454
2096921,2096921, 165536, 668077
2096921,2096921, 165703, 668219
2096921,2096921, 165238, 668035
2096921,2096921, 165350, 667956
2096921,2096921, 165155, 668116
2096921,2096921, 165137, 668273
2096921,2096921, 165403, 668179
2096921,2096921, 165552, 667952
2096921,2096921, 165634, 668207
2096921,2096921, 165706, 668728
2096921,2096921, 165579, 668428
2096921,2096921, 165447, 668628
2096921,2096921, 165233, 668864
2096921,2096921, 165251, 668892
2096921,2096921, 165766, 668960
2096921,2096921, 165371, 668899
2096921,2096921, 165376, 668884
2096921,2096921, 165720, 669022
2096921,2096921, 165542, 669369
2096921,2096921, 165869, 669745
2096921,2096921, 165776, 669549
2096921,2096921, 165915, 669701
2096921,2096921, 165527, 669883
2096921,2096921, 165602, 669521
2096921,2096921, 165898, 670041
2096921,2096921, 165667, 670230
2096921,2096921, 165804, 669626
2096921,2096921, 165691, 669748
2096921,2096921, 165857, 670071
2096921,2096921, 165798, 670417
2096921,2096921, 166043, 670746
2096921,2096921, 165943, 670808
2096921,2096921, 165786, 670604
2096921,2096921, 166164, 670414
2096921,2096921, 165961, 670616
2096921,2096921, 166192, 670618
2096921,2096921, 166212, 670646
2096921,2096921, 166149, 670719
2096921,2096921, 166441, 670856
2096921,2096921, 166439, 671175
2096921,2096921, 166390, 671423
2096921,2096921, 166284, 671417
2096921,2096921, 166509, 671333
2096921,2096921, 166536, 671106
2096921,2096921, 166394, 671308
2096921,2096921, 166565, 671642
2096921,2096921, 166172, 671497
2096921,2096921, 166364, 671785
2096921,2096921, 166330, 671912
2096921,2096921, 166696, 672110
2096921,2096921, 166656, 672195
2096921,2096921, 166604, 672375
2096921,2096921, 166744, 672283
2096921,2096921, 166505, 672203
2096921,2096921, 166127, 672267
2096921,2096921, 166399, 672561
2096921,2096921, 166373, 672072
2096921,2096921, 166584, 672557
2096921,2096921, 166962, 672813
2096921,2096921, 166880, 672738
2096921,2096921, 166728, 673151
2096921,2096921, 166740, 672932
2096921,2096921, 166640, 672746
2096921,2096921, 166430, 672612
2096921,2096921, 166488, 673007
2096921,2096921, 167045, 672955
2096921,2096921, 166756, 673104
2096921,2096921, 166868, 673263
2096921,2096921, 166932, 673301
2096921,2096921, 167080, 673483
2096921,2096921, 167222, 673720
2096921,2096921, 167300, 673936
2096921,2096921, 167069, 673588
2096921,2096921, 166795, 673775
2096921,2096921, 166775, 673810
2096921,2096921, 166828, 673926
2096921,2096921, 167208, 673690
2096921,2096921, 167142, 674025
2096921,2096921, 166925, 674028
2096921,2096921, 167195, 674294
2096921,2096921, 166982, 674367
2096921,2096921, 167353, 674287
2096921,2096921, 167078, 674503
2096921,2096921, 167114, 674491
2096921,2096921, 167115, 674704
2096921,2096921, 166970, 674798
2096921,2096921, 167043, 674470
2096921,2096921, 167291, 674493
2096921,2096921, 167242, 674598
2096921,2096921, 167561, 674733
2096921,2096921, 167810, 674793
2096921,2096921, 167475, 675152
2096921,2096921, 167329, 675114
2096921,2096921, 167133, 675082
2096921,2096921, 167176, 675269
2096921,2096921, 167011, 675231
2096921,2096921, 167276, 675240
2096921,2096921, 167362, 675199
2096921,2096921, 167555, 675078
2096921,2096921, 167543, 675688
2096921,2096921, 167704, 675971
2096921,2096921, 167736, 675666
2096921,2096921, 167623, 675764
2096921,2096921, 167796, 675524
2096921,2096921, 167688, 675514
2096921,2096921, 167794, 675833
2096921,2096921, 167515, 675823
2096921,2096921, 167813, 675675
2096921,2096921, 167705, 675555
2096921,2096921, 167744, 675983
2096921,2096921, 167826, 676068
2096921,2096921, 167858, 676228
2096921,2096921, 167557, 676070
2096921,2096921, 167619, 676114
2096921,2096921, 167702, 676293
2096921,2096921, 167727, 676267
2096921,2096921, 167731, 676141
2096921,2096921, 167474, 676347
2096921,2096921, 167449, 676153
2096921,2096921, 167456, 676661
2096921,2096921, 167997, 676883
2096921,2096921, 167815, 676813
2096921,2096921, 167923, 676609
2096921,2096921, 167553, 676127
2096921,2096921, 167666, 676685
2096921,2096921, 167900, 676767
2096921,2096921, 167949, 676610
2096921,2096921, 167935, 676522
2096921,2096921, 167606, 676818
2096921,2096921, 167810, 677037
2096921,2096921, 167895, 676993
2096921,2096921, 168151, 676989
2096921,2096921, 167732, 677037
2096921,2096921, 168074, 676776
2096921,2096921, 168091, 676778
2096921,2096921, 168068, 677182
2096921,2096921, 167719, 677009
2096921,2096921, 168020, 677171
2096921,2096921, 168328, 676973
2096921,2096921, 168141, 677235
2096921,2096921, 167932, 677648
2096921,2096921, 168221, 677730
2096921,2096921, 168057, 677388
2096921,2096921, 168029, 677467
2096921,2096921, 168011, 677242
2096921,2096921, 168092, 677607
2096921,2096921, 168035, 677137
2096921,2096921, 168088, 677332
2096921,2096921, 168136, 677565
2096921,2096921, 167966, 677750
2096921,2096921, 167557, 677716
2096921,2096921, 168236, 678100
2096921,2096921, 168561, 677876
2096921,2096921, 168282, 677865
2096921,2096921, 168194, 677850
2096921,2096921, 168006, 677827
2096921,2096921, 167916, 677666
2096921,2096921, 168253, 677413
2096921,2096921, 168376, 677587
2096921,2096921, 168403, 678175
2096921,2096921, 168289, 678091
2096921,2096921, 168263, 677866
2096921,2096921, 167843, 678014
2096921,2096921, 168158, 678018
2096921,2096921, 168226, 677784
2096921,2096921, 168569, 678331
2096921,2096921, 168363, 678297
2096921,2096921, 168496, 678077
2096921,2096921, 168072, 678417
2096921,2096921, 168601, 678488
2096921,2096921, 168694, 678690
2096921,2096921, 168374, 678614
2096921,2096921, 168698, 678666
2096921,2096921, 168580, 678606
2096921,2096921, 168366, 678469
2096921,2096921, 168760, 678436
2096921,2096921, 168298, 678357
2096921,2096921, 168347, 678640
2096921,2096921, 168533, 678653
2096921,2096921, 168736, 678448
2096921,2096921, 168663, 678691
2096921,2096921, 168523, 678662
2096921,2096921, 168346, 678647
2096921,2096921, 168288, 678260
2096921,2096921, 168468, 678343
2096921,2096921, 168460, 678370
2096921,2096921, 168105, 678474
2096921,2096921, 168391, 678675
2096921,2096921, 168338, 678894
2096921,2096921, 168594, 679012
2096921,2096921, 168612, 678838
2096921,2096921, 168765, 679332
2096921,2096921, 168919, 678856
2096921,2096921, 168437, 679142
2096921,2096921, 168590, 679042
2096921,2096921, 168327, 679074
2096921,2096921, 168381, 679061
2096921,2096921, 168296, 678979
2096921,2096921, 168686, 678854
2096921,2096921, 168734, 678925
2096921,2096921, 168668, 679087
2096921,2096921, 168642, 679388
2096921,2096921, 168724, 679068
2096921,2096921, 168658, 678888
2096921,2096921, 168601, 679305
2096921,2096921, 168532, 679043
2096921,2096921, 168526, 678946
2096921,2096921, 168261, 679113
2096921,2096921, 168617, 679186
2096921,2096921, 168663, 679049
2096921,2096921, 168933, 679238
2096921,2096921, 168398, 679386
2096921,2096921, 168543, 679125
2096921,2096921, 168660, 678852
2096921,2096921, 168869, 679002
2096921,2096921, 168459, 679012
2096921,2096921, 168606, 679015
2096921,2096921, 168550, 678683
2096921,2096921, 168676, 678695
2096921,2096921, 168868, 679010
2096921,2096921, 168806, 679002
2096921,2096921, 168746, 679049
2096921,2096921, 168705, 679273
2096921,2096921, 168739, 678994
2096921,2096921, 168592, 679217
2096921,2096921, 168410, 679024
2096921,2096921, 168386, 679037
2096921,2096921, 168731, 678952
2096921,2096921, 168735, 679088
2096921,2096921, 168348, 679419
2096921,2096921, 168418, 679189
2096921,2096921, 168555, 679321
2096921,2096921, 168962, 679201
2096921,2096921, 168532, 679093
2096921,2096921, 168383, 678911
2096921,2096921, 168645, 679105
2096921,2096921, 168792, 678654
2096921,2096921, 168515, 679118
2096921,2096921, 168516, 678901
2096921,2096921, 168797, 679011
2096921,2096921, 168577, 678951
2096921,2096921, 168693, 678988
2096921,2096921, 168654, 679208
2096921,2096921, 168586, 678859
2096921,2096921, 168607, 677987
2096921,2096921, 168076, 678150
2096921,2096921, 168599, 678105
2096921,2096921, 168336, 677847
2096921,2096921, 168290, 678033
2096921,2096921, 168123, 677565
2096921,2096921, 168142, 677476
2096921,2096921, 167998, 677288
2096921,2096921, 168123, 677509
2096921,2096921, 168125, 677189
2096921,2096921, 167468, 676210
2096921,2096921, 167578, 675576
2096921,2096921, 167528, 675916
2096921,2096921, 167684, 675799
2096921,2096921, 167596, 676088
2096921,2096921, 167360, 674634
2096921,2096921, 167197, 674297
2096921,2096921, 167219, 674423
2096921,2096921, 167149, 674378
2096921,2096921, 167098, 674525
2096921,2096921, 166711, 672421
2096921,2096921, 166613, 672062
2096921,2096921, 166450, 671927
2096921,2096921, 166315, 672062
2096921,2096921, 166472, 672189
2096921,2096921, 165507, 669010
2096921,2096921, 165052, 668334
2096921,2096921, 165059, 668274
2096921,2096921, 165253, 667775
2096921,2096921, 165309, 667875
2096921,2096921, 163897, 663544
2096921,2096921, 163582, 662670
2096921,2096921, 163819, 662312
2096921,2096921, 163539, 662356
2096921,2096921, 163875, 662676
2096921,2096921, 162876, 659392
2096921,2096921, 162586, 658691
2096921,2096921, 162284, 658399
2096921,2096921, 162234, 658660
2096921,2096921, 162474, 658393
2096921,2096921, 161604, 655728
2096921,2096921, 161479, 655098
2096921,2096921, 161151, 655337
2096921,2096921, 161602, 655360
2096921,2096921, 161395, 655428
2096921,2096921, 161271, 653921
2096921,2096921, 160946, 653592
2096921,2096921, 160934, 653398
2096921,2096921, 160994, 653007
2096921,2096921, 161042, 653232
2096921,2096921, 160208, 651713
2096921,2096921, 160108, 651877
2096921,2096921, 160166, 651852
2096921,2096921, 160222, 651579
2096921,2096921, 160435, 651720
2096921,2096921, 160273, 650622
2096921,2096921, 160213, 650883
2096921,2096921, 160107, 650847
2096921,2096921, 159984, 650569
2096921,2096921, 160103, 650617
2096921,2096921, 159820, 649971
2096921,2096921, 159561, 650242
2096921,2096921, 159783, 649616
2096921,2096921, 159846, 649754
2096921,2096921, 160022, 650082
2096921,2096921, 160021, 650013
2096921,2096921, 159842, 649839
2096921,2096921, 160016, 650028
2096921,2096921, 159928, 650019
2096921,2096921, 159813, 650096
2096921,2096921, 159779, 649861
2096921,2096921, 159327, 649963
2096921,2096921, 159371, 650042
2096921,2096921, 159565, 650056
2096921,2096921, 159622, 649690
2096921,2096921, 160002, 650359
2096921,2096921, 159580, 650596
2096921,2096921, 160141, 650425
2096921,2096921, 159896, 650415
2096921,2096921, 159886, 650333
2096921,2096921, 159946, 650647
2096921,2096921, 159831, 650720
2096921,2096921, 160084, 650864
2096921,2096921, 159929, 650619
2096921,2096921, 159946, 650838
2096921,2096921, 160189, 651490
2096921,2096921, 160398, 651272
2096921,2096921, 160423, 651281
2096921,2096921, 160093, 651371
2096921,2096921, 160029, 651238
2096921,2096921, 160299, 651861
2096921,2096921, 160458, 651982
2096921,2096921, 160332, 652028
2096921,2096921, 160265, 651945
2096921,2096921, 160370, 652280
2096921,2096921, 160576, 652954
2096921,2096921, 160958, 652994
2096921,2096921, 160790, 653027
2096921,2096921, 160902, 653145
2096921,2096921, 160483, 653285
2096921,2096921, 160918, 653992
2096921,2096921, 160844, 654080
2096921,2096921, 160934, 654241
2096921,2096921, 160938, 654085
2096921,2096921, 161105, 654033
2096921,2096921, 161608, 655154
2096921,2096921, 161525, 655364
2096921,2096921, 161582, 655623
2096921,2096921, 161095, 655609
2096921,2096921, 161440, 655526
2096921,2096921, 161663, 656166
2096921,2096921, 161425, 656475
2096921,2096921, 161653, 656485
2096921,2096921, 161728, 656331
2096921,2096921, 161722, 656573
2096921,2096921, 162048, 657277
2096921,2096921, 162391, 657708
2096921,2096921, 162316, 657588
2096921,2096921, 162184, 657757
2096921,2096921, 162115, 657355
2096921,2096921, 162322, 658274
2096921,2096921, 162222, 658547
2096921,2096921, 162206, 658559
2096921,2096921, 162360, 658482
2096921,2096921, 162342, 658821
2096921,2096921, 162636, 659472
2096921,2096921, 162574, 659810
2096921,2096921, 162634, 660016
2096921,2096921, 162596, 659640
2096921,2096921, 162571, 659760
2096921,2096921, 162774, 660746
2096921,2096921, 163207, 660957
2096921,2096921, 162907, 660783
2096921,2096921, 162840, 660747
2096921,2096921, 163054, 660711
2096921,2096921, 163312, 661640
2096921,2096921, 163633, 662033
2096921,2096921, 163527, 661961
2096921,2096921, 163352, 661908
2096921,2096921, 163279, 662192
2096921,2096921, 163210, 662905
2096921,2096921, 163678, 662818
2096921,2096921, 163801, 662964
2096921,2096921, 163750, 663292
2096921,2096921, 163803, 663138
2096921,2096921, 163988, 664025
2096921,2096921, 164113, 664393
2096921,2096921, 164216, 664316
2096921,2096921, 164316, 664417
2096921,2096921, 164084, 664435
2096921,2096921, 164298, 664937
2096921,2096921, 164531, 665127
2096921,2096921, 164397, 665072
2096921,2096921, 164052, 665357
2096921,2096921, 164266, 665395
2096921,2096921, 164457, 665992
2096921,2096921, 164721, 666402
2096921,2096921, 164952, 666089
2096921,2096921, 164575, 666367
2096921,2096921, 164416, 666542
2096921,2096921, 164537, 666836
2096921,2096921, 164673, 666694
2096921,2096921, 164643, 666855
2096921,2096921, 164730, 666782
2096921,2096921, 164957, 666848
2096921,2096921, 165052, 667386
2096921,2096921, 165094, 667687
2096921,2096921, 165082, 667527
2096921,2096921, 165208, 667402
2096921,2096921, 165053, 667472
2096921,2096921, 165011, 667836
2096921,2096921, 164794, 667857
2096921,2096921, 164814, 667979
2096921,2096921, 165274, 667624
2096921,2096921, 165220, 667729
2096921,2096921, 165147, 668184
2096921,2096921, 165175, 668090
2096921,2096921, 165311, 668462
2096921,2096921, 165068, 668551
2096921,2096921, 165339, 668123
2096921,2096921, 165130, 668126
2096921,2096921, 165101, 668392
2096921,2096921, 165046, 668378
2096921,2096921, 165137, 668574
2096921,2096921, 165287, 668590
2096921,2096921, 165167, 668789
2096921,2096921, 165287, 668724
2096921,2096921, 165586, 668498
2096921,2096921, 165235, 668367
2096921,2096921, 165210, 668367
2096921,2096921, 165149, 668347
2096921,2096921, 165158, 668249
2096921,2096921, 164982, 668078
2096921,2096921, 164981, 668366
2096921,2096921, 165082, 668294
2096921,2096921, 165088, 668094
2096921,2096921, 165076, 667877
2096921,2096921, 165309, 668167
2096921,2096921, 165243, 668062
2096921,2096921, 164863, 668027
2096921,2096921, 164933, 667746
2096921,2096921, 165053, 668265
2096921,2096921, 165029, 668265
2096921,2096921, 164753, 667873
2096921,2096921, 165092, 667993
2096921,2096921, 165270, 668153
2096921,2096921, 165042, 668124
2096921,2096921, 165160, 668110
2096921,2096921, 165218, 668111
2096921,2096921, 165108, 667991
2096921,2096921, 165020, 668205
2096921,2096921, 165279, 668223
2096921,2096921, 164985, 668520
2096921,2096921, 165021, 668218
2096921,2096921, 165105, 668401
2096921,2096921, 165150, 668307
2096921,2096921, 165118, 668435
2096921,2096921, 165264, 668468
2096921,2096921, 164834, 668646
2096921,2096921, 165271, 668377
2096921,2096921, 165196, 668343
2096921,2096921, 165156, 668682
2096921,2096921, 165356, 668551
2096921,2096921, 165322, 668445
2096921,2096921, 165331, 668726
2096921,2096921, 165391, 669146
2096921,2096921, 165599, 669335
2096921,2096921, 165603, 669368
2096921,2096921, 165478, 669675
2096921,2096921, 165323, 669145
2096921,2096921, 165533, 669448
2096921,2096921, 165354, 669756
2096921,2096921, 165391, 669628
2096921,2096921, 165814, 669620
2096921,2096921, 165713, 669824
2096921,2096921, 165978, 670700
2096921,2096921, 166054, 670643
2096921,2096921, 166186, 671110
2096921,2096921, 166058, 671081
2096921,2096921, 166147, 670996
2096921,2096921, 166014, 671724
2096921,2096921, 165911, 671524
2096921,2096921, 165947, 671799
2096921,2096921, 166126, 671700
2096921,2096921, 166268, 671888
2096921,2096921, 166569, 672359
2096921,2096921, 166516, 672447
2096921,2096921, 166590, 672856
2096921,2096921, 166553, 672676
2096921,2096921, 166457, 672574
2096921,2096921, 166804, 673287
2096921,2096921, 166896, 673432
2096921,2096921, 166450, 673272
2096921,2096921, 166606, 673543
2096921,2096921, 166575, 673627
2096921,2096921, 167031, 673684
2096921,2096921, 166984, 674124
2096921,2096921, 167178, 674297
2096921,2096921, 167016, 674523
2096921,2096921, 166861, 674458
2096921,2096921, 167059, 674679
2096921,2096921, 167242, 674774
2096921,2096921, 167127, 674792
2096921,2096921, 167043, 675427
2096921,2096921, 167224, 675326
2096921,2096921, 167550, 675803
2096921,2096921, 167696, 675988
2096921,2096921, 167746, 676310
2096921,2096921, 167384, 676253
2096921,2096921, 167410, 676265
2096921,2096921, 167618, 676709
2096921,2096921, 167278, 676747
2096921,2096921, 167218, 676773
2096921,2096921, 167519, 676685
2096921,2096921, 167851, 676870
2096921,2096921, 167929, 677494
2096921,2096921, 168046, 677811
2096921,2096921, 167814, 677711
2096921,2096921, 167850, 677752
2096921,2096921, 167565, 677791
2096921,2096921, 167832, 678183
2096921,2096921, 168061, 678456
2096921,2096921, 167809, 678024
2096921,2096921, 168246, 678206
2096921,2096921, 168155, 678522
2096921,2096921, 168469, 679365
2096921,2096921, 168063, 679480
2096921,2096921, 168609, 679575
2096921,2096921, 168414, 679401
2096921,2096921, 168363, 679224
2096921,2096921, 168414, 679808
2096921,2096921, 168262, 679744
2096921,2096921, 168313, 679600
2096921,2096921, 168322, 679898
2096921,2096921, 168434, 680270
2096921,2096921, 168739, 680721
2096921,2096921, 168950, 680859
2096921,2096921, 168873, 681114
2096921,2096921, 168898, 681108
2096921,2096921, 168532, 681023
2096921,2096921, 168534, 681164
2096921,2096921, 168488, 681633
2096921,2096921, 168478, 681344
2096921,2096921, 168830, 681553
2096921,2096921, 169136, 681521
2096921,2096921, 169264, 681992
2096921,2096921, 169269, 682351
2096921,2096921, 169306, 682356
2096921,2096921, 169186, 682173
2096921,2096921, 169114, 682334
2096921,2096921, 169214, 682948
2096921,2096921, 169133, 683011
2096921,2096921, 169454, 683111
2096921,2096921, 169476, 683197
2096921,2096921, 169537, 683247
2096921,2096921, 169406, 683717
2096921,2096921, 169490, 683756
2096921,2096921, 169646, 683842
2096921,2096921, 169356, 683827
2096921,2096921, 169579, 683639
2096921,2096921, 169713, 683890
2096921,2096921, 169845, 684202
2096921,2096921, 169640, 684514
2096921,2096921, 169802, 684243
2096921,2096921, 169768, 684050
2096921,2096921, 169862, 684835
2096921,2096921, 169966, 685135
2096921,2096921, 170228, 685045
2096921,2096921, 170074, 685029
2096921,2096921, 169774, 684753
2096921,2096921, 169963, 685395
2096921,2096921, 170224, 685279
2096921,2096921, 169891, 685568
2096921,2096921, 170273, 685475
2096921,2096921, 170165, 685754
2096921,2096921, 170347, 686123
2096921,2096921, 170196, 686325
2096921,2096921, 170479, 686268
2096921,2096921, 170313, 686023
2096921,2096921, 170170, 686245
2096921,2096921, 170087, 686880
2096921,2096921, 170363, 686894
2096921,2096921, 170291, 686914
2096921,2096921, 170626, 687114
2096921,2096921, 170588, 686847
2096921,2096921, 170768, 687683
2096921,2096921, 170758, 687773
2096921,2096921, 170663, 687881
2096921,2096921, 170765, 687725
2096921,2096921, 170810, 687610
2096921,2096921, 170851, 688120
2096921,2096921, 170687, 688245
2096921,2096921, 170637, 688194
2096921,2096921, 170836, 688378
2096921,2096921, 170874, 688160
2096921,2096921, 170912, 688857
2096921,2096921, 170881, 688996
2096921,2096921, 171017, 689020
2096921,2096921, 170863, 689031
2096921,2096921, 170775, 689157
2096921,2096921, 171270, 689075
2096921,2096921, 170957, 689357
2096921,2096921, 171128, 689260
2096921,2096921, 171025, 689232
2096921,2096921, 171012, 689442
2096921,2096921, 171332, 690021
2096921,2096921, 171300, 690026
2096921,2096921, 171265, 690072
2096921,2096921, 171361, 689760
2096921,2096921, 171349, 689757
2096921,2096921, 171230, 690095
2096921,2096921, 171535, 690339
2096921,2096921, 171217, 690382
2096921,2096921, 171491, 690359
2096921,2096921, 171328, 690562
2096921,2096921, 171813, 690673
2096921,2096921, 171507, 690789
2096921,2096921, 171757, 691015
2096921,2096921, 171663, 690954
2096921,2096921, 171710, 690827
2096921,2096921, 171584, 690862
2096921,2096921, 171796, 691181
2096921,2096921, 171468, 691002
2096921,2096921, 171499, 691128
2096921,2096921, 171486, 691251
2096921,2096921, 171606, 691907
2096921,2096921, 171964, 691784
2096921,2096921, 171620, 691926
2096921,2096921, 171673, 691851
2096921,2096921, 171416, 691928
2096921,2096921, 171771, 691788
2096921,2096921, 171741, 692296
2096921,2096921, 171797, 691948
2096921,2096921, 171768, 692125
2096921,2096921, 171796, 691965
2096921,2096921, 171944, 692418
2096921,2096921, 172081, 692661
2096921,2096921, 172319, 692825
2096921,2096921, 172209, 692635
2096921,2096921, 171812, 692301
2096921,2096921, 171909, 692767
2096921,2096921, 172089, 692903
2096921,2096921, 172446, 692819
2096921,2096921, 172242, 693224
2096921,2096921, 172245, 693344
2096921,2096921, 172207, 693638
2096921,2096921, 172354, 693499
2096921,2096921, 172478, 693625
2096921,2096921, 172798, 693685
2096921,2096921, 172480, 693433
2096921,2096921, 172416, 693797
2096921,2096921, 172257, 693682
2096921,2096921, 172191, 693854
2096921,2096921, 172054, 693577
2096921,2096921, 172013, 693823
2096921,2096921, 172451, 693908
2096921,2096921, 172506, 694040
2096921,2096921, 172642, 693832
2096921,2096921, 172561, 694052
2096921,2096921, 172540, 694240
2096921,2096921, 172677, 694380
2096921,2096921, 172730, 694426
2096921,2096921, 172493, 694503
2096921,2096921, 172343, 694463
2096921,2096921, 172508, 694488
2096921,2096921, 172712, 694922
2096921,2096921, 172661, 695126
2096921,2096921, 172660, 695495
2096921,2096921, 172914, 694854
2096921,2096921, 172943, 695161
2096921,2096921, 172459, 695169
2096921,2096921, 172562, 695361
2096921,2096921, 172711, 695266
2096921,2096921, 172667, 695080
2096921,2096921, 172985, 695324
2096921,2096921, 173150, 695672
2096921,2096921, 173120, 695635
2096921,2096921, 172897, 695625
2096921,2096921, 172836, 695827
2096921,2096921, 172943, 695516
2096921,2096921, 173118, 695831
2096921,2096921, 173021, 696119
2096921,2096921, 172857, 696146
2096921,2096921, 172931, 696038
2096921,2096921, 173054, 696267
2096921,2096921, 173010, 696608
2096921,2096921, 173117, 696767
2096921,2096921, 173230, 696209
2096921,2096921, 173090, 696569
2096921,2096921, 172976, 696227
2096921,2096921, 173043, 696553
2096921,2096921, 172885, 696437
2096921,2096921, 172821, 696522
2096921,2096921, 173269, 696567
2096921,2096921, 172911, 696451
2096921,2096921, 173073, 696940
2096921,2096921, 173265, 696940
2096921,2096921, 173529, 697201
2096921,2096921, 173438, 696896
2096921,2096921, 173381, 696895
2096921,2096921, 173146, 697101
2096921,2096921, 173357, 696932
2096921,2096921, 173120, 696880
2096921,2096921, 173182, 697170
2096921,2096921, 173011, 697301
2096921,2096921, 173327, 697301
2096921,2096921, 173344, 697457
2096921,2096921, 173442, 697526
2096921,2096921, 173265, 697620
2096921,2096921, 173204, 697429
2096921,2096921, 173282, 697242
2096921,2096921, 173070, 697488
2096921,2096921, 173158, 697255
2096921,2096921, 173074, 697380
2096921,2096921, 173509, 697212
2096921,2096921, 173498, 697480
2096921,2096921, 173394, 697647
2096921,2096921, 173547, 697617
2096921,2096921, 173547, 697818
2096921,2096921, 173301, 697604
2096921,2096921, 173393, 697497
2096921,2096921, 173450, 697570
2096921,2096921, 173269, 697464
2096921,2096921, 173312, 697587
2096921,2096921, 173356, 697947
2096921,2096921, 173587, 697783
2096921,2096921, 173423, 697612
2096921,2096921, 173578, 697921
2096921,2096921, 173624, 697992
2096921,2096921, 173333, 697973
2096921,2096921, 173478, 697900
2096921,2096921, 173483, 698158
2096921,2096921, 173112, 697999
2096921,2096921, 173347, 698090
2096921,2096921, 173485, 698026
2096921,2096921, 173565, 697963
2096921,2096921, 173459, 697876
2096921,2096921, 173891, 698113
2096921,2096921, 173622, 698055
2096921,2096921, 173623, 698386
2096921,2096921, 173128, 697507
2096921,2096921, 173477, 697327
2096921,2096921, 172912, 697096
2096921,2096921, 173171, 697470
2096921,2096921, 173134, 697426
2096921,2096921, 173203, 697140
2096921,2096921, 172982, 697061
2096921,2096921, 173164, 696685
2096921,2096921, 172971, 696751
2096921,2096921, 172796, 696850
2096921,2096921, 172480, 695843
2096921,2096921, 172345, 695591
2096921,2096921, 172557, 695296
2096921,2096921, 172405, 695448
2096921,2096921, 172665, 695367
2096921,2096921, 172423, 694108
2096921,2096921, 172351, 693749
2096921,2096921, 172435, 693908
2096921,2096921, 172267, 693540
2096921,2096921, 172192, 693659
2096921,2096921, 171568, 692356
2096921,2096921, 171696, 691772
2096921,2096921, 171461, 691984
2096921,2096921, 171663, 691709
2096921,2096921, 171549, 692055
2096921,2096921, 170527, 688230
2096921,2096921, 170404, 687543
2096921,2096921, 170335, 687397
2096921,2096921, 170170, 687530
2096921,2096921, 170072, 687394
2096921,2096921, 168871, 683061
2096921,2096921, 168715, 682096
2096921,2096921, 168743, 681394
2096921,2096921, 168826, 681705
2096921,2096921, 168605, 681735
2096921,2096921, 167678, 678708
2096921,2096921, 167437, 677995
2096921,2096921, 167353, 677887
2096921,2096921, 167428, 677871
2096921,2096921, 167375, 677662
2096921,2096921, 166451, 675130
2096921,2096921, 166234, 674706
2096921,2096921, 166320, 674838
2096921,2096921, 166206, 674874
2096921,2096921, 166824, 674651
2096921,2096921, 165861, 673070
2096921,2096921, 165936, 672663
2096921,2096921, 165723, 672836
2096921,2096921, 165680, 672895
2096921,2096921, 165619, 672638
2096921,2096921, 165348, 671071
2096921,2096921, 165467, 670798
2096921,2096921, 165346, 670772
2096921,2096921, 165329, 670614
2096921,2096921, 165497, 670958
2096921,2096921, 165519, 670020
2096921,2096921, 165532, 669826
2096921,2096921, 165045, 669870
2096921,2096921, 165268, 669767
2096921,2096921, 165002, 669567
2096921,2096921, 164877, 669401
2096921,2096921, 164926, 669330
2096921,2096921, 164431, 669063
2096921,2096921, 164442, 668921
2096921,2096921, 164851, 669146
2096921,2096921, 164820, 669062
2096921,2096921, 164956, 668826
2096921,2096921, 164896, 669449
2096921,2096921, 164480, 669089
2096921,2096921, 164611, 669112
2096921,2096921, 164415, 668939
2096921,2096921, 164471, 668769
2096921,2096921, 164733, 668799
2096921,2096921, 164799, 668721
2096921,2096921, 164661, 668920
2096921,2096921, 164853, 669587
2096921,2096921, 164981, 669461
2096921,2096921, 165128, 669708
2096921,2096921, 165092, 669784
2096921,2096921, 164760, 669607
2096921,2096921, 164512, 669686
2096921,2096921, 164711, 669382
2096921,2096921, 164467, 669519
2096921,2096921, 165070, 669863
2096921,2096921, 165029, 670086
2096921,2096921, 165051, 670363
2096921,2096921, 165104, 670253
2096921,2096921, 165265, 670445
2096921,2096921, 165080, 670230
2096921,2096921, 165194, 670102
2096921,2096921, 165292, 670956
2096921,2096921, 165545, 670757
2096921,2096921, 165409, 670991
2096921,2096921, 165523, 671037
2096921,2096921, 165665, 671008
2096921,2096921, 165541, 671704
2096921,2096921, 165970, 672063
2096921,2096921, 165926, 671943
2096921,2096921, 165912, 672002
2096921,2096921, 165529, 672326
2096921,2096921, 165960, 672848
2096921,2096921, 165789, 673069
2096921,2096921, 165553, 672876
2096921,2096921, 165889, 673032
2096921,2096921, 165915, 672746
2096921,2096921, 166465, 673815
2096921,2096921, 166569, 673992
2096921,2096921, 166316, 674228
2096921,2096921, 166332, 674293
2096921,2096921, 166267, 674270
2096921,2096921, 166272, 674853
2096921,2096921, 166503, 674696
2096921,2096921, 166679, 675126
2096921,2096921, 166707, 674908
2096921,2096921, 166684, 675116
2096921,2096921, 166593, 675875
2096921,2096921, 166943, 676018
2096921,2096921, 166871, 676186
2096921,2096921, 167047, 675995
2096921,2096921, 166980, 676119
2096921,2096921, 166810, 676802
2096921,2096921, 167247, 676743
2096921,2096921, 167037, 676822
2096921,2096921, 166984, 676772
2096921,2096921, 167162, 676833
2096921,2096921, 167442, 677753
2096921,2096921, 167606, 678101
2096921,2096921, 167414, 677954
2096921,2096921, 167507, 677923
2096921,2096921, 167181, 677922
2096921,2096921, 167384, 678410
2096921,2096921, 167821, 678468
2096921,2096921, 167575, 678612
2096921,2096921, 167645, 678807
2096921,2096921, 167867, 678927
2096921,2096921, 168170, 679678
2096921,2096921, 168230, 679707
2096921,2096921, 168259, 680115
2096921,2096921, 168182, 680075
2096921,2096921, 168242, 679739
2096921,2096921, 168010, 680784
2096921,2096921, 168063, 680837
2096921,2096921, 168234, 680851
2096921,2096921, 168399, 681042
2096921,2096921, 168351, 681132
2096921,2096921, 168625, 681750
2096921,2096921, 168844, 682024
2096921,2096921, 168789, 681980
2096921,2096921, 168746, 681926
2096921,2096921, 168790, 681997
2096921,2096921, 168658, 682246
2096921,2096921, 168820, 682539
2096921,2096921, 168768, 682449
2096921,2096921, 168909, 682288
2096921,2096921, 168945, 682576
2096921,2096921, 169218, 683383
2096921,2096921, 169140, 683328
2096921,2096921, 169411, 683415
2096921,2096921, 169151, 683444
2096921,2096921, 169039, 683451
2096921,2096921, 169091, 683685
2096921,2096921, 169201, 683908
2096921,2096921, 169214, 683892
2096921,2096921, 169415, 684041
2096921,2096921, 169255, 683707
2096921,2096921, 169666, 684391
2096921,2096921, 169431, 684408
2096921,2096921, 169240, 684356
2096921,2096921, 169261, 684654
2096921,2096921, 169449, 684038
2096921,2096921, 169509, 684326
2096921,2096921, 169611, 684559
2096921,2096921, 169548, 684414
2096921,2096921, 169352, 684652
2096921,2096921, 169610, 684690
2096921,2096921, 169720, 684769
2096921,2096921, 169586, 684594
2096921,2096921, 169456, 684362
2096921,2096921, 169387, 684661
2096921,2096921, 169285, 684465
2096921,2096921, 169226, 684438
2096921,2096921, 169362, 684587
2096921,2096921, 169305, 684459
2096921,2096921, 169341, 684519
2096921,2096921, 169538, 684773
2096921,2096921, 169434, 684516
2096921,2096921, 169357, 684592
2096921,2096921, 169442, 684548
2096921,2096921, 169512, 684774
2096921,2096921, 169280, 684671
2096921,2096921, 169178, 684151
2096921,2096921, 169409, 684065
2096921,2096921, 169441, 684140
2096921,2096921, 169167, 684023
2096921,2096921, 169355, 684301
2096921,2096921, 169647, 684029
2096921,2096921, 169367, 683794
2096921,2096921, 169296, 683827
2096921,2096921, 169228, 683848
2096921,2096921, 169170, 683649
2096921,2096921, 169028, 683311
2096921,2096921, 168933, 683453
2096921,2096921, 168771, 683374
2096921,2096921, 168584, 683263
2096921,2096921, 168852, 683621
2096921,2096921, 169142, 683343
2096921,2096921, 168955, 683289
2096921,2096921, 169096, 683542
2096921,2096921, 169080, 683334
2096921,2096921, 168877, 683099
2096921,2096921, 168642, 682919
2096921,2096921, 168902, 683061
2096921,2096921, 168834, 683057
2096921,2096921, 168976, 682931
2096921,2096921, 169147, 683078
2096921,2096921, 169013, 683169
2096921,2096921, 169066, 683409
2096921,2096921, 168998, 683265
2096921,2096921, 169186, 683385
2096921,2096921, 169398, 683003
2096921,2096921, 169135, 682960
2096921,2096921, 169153, 683058
2096921,2096921, 168958, 683187
2096921,2096921, 168947, 683084
2096921,2096921, 169075, 683277
2096921,2096921, 169244, 683388
2096921,2096921, 169083, 683504
2096921,2096921, 169035, 683396
2096921,2096921, 169000, 683871
2096921,2096921, 169087, 683338
2096921,2096921, 169042, 683806
2096921,2096921, 169191, 683930
2096921,2096921, 169343, 684083
2096921,2096921, 169301, 683766
2096921,2096921, 169277, 683807
2096921,2096921, 169461, 684302
2096921,2096921, 169602, 684607
2096921,2096921, 169482, 685008
2096921,2096921, 169357, 684690
2096921,2096921, 169166, 684441
2096921,2096921, 169150, 685002
2096921,2096921, 169381, 685133
2096921,2096921, 169239, 685286
2096921,2096921, 169551, 685283
2096921,2096921, 169533, 685137
2096921,2096921, 169758, 685827
2096921,2096921, 169813, 685753
2096921,2096921, 169978, 686063
2096921,2096921, 170154, 686084
2096921,2096921, 169892, 685811
2096921,2096921, 169949, 686475
2096921,2096921, 170008, 686313
2096921,2096921, 169951, 686589
