2096921,2096921,162728,678800,0
2096921,2096921,162768,678702,0
2096921,2096921,162782,678628,0
2096921,2096921,162820,678599,0
2096921,2096921,162770,678748,0
2096921,2096921,162746,678750,0
2096921,2096921,162595,678889,0
2096921,2096921,162912,678918,0
2096921,2096921,162884,678867,0
2096921,2096921,163012,678923,0
2096921,2096921,163109,679026,0
2096921,2096921,162641,679080,0
2096921,2096921,162854,679102,0
2096921,2096921,162565,679017,0
2096921,2096921,162813,678832,0
2096921,2096921,162714,678893,0
2096921,2096921,162862,678471,0
2096921,2096921,162618,679096,0
2096921,2096921,163006,678737,0
2096921,2096921,162971,678921,0
2096921,2096921,162745,678903,0
2096921,2096921,162676,678852,0
2096921,2096921,162566,678863,0
2096921,2096921,162994,678644,0
2096921,2096921,162808,679030,0
2096921,2096921,162690,679030,0
2096921,2096921,162892,679036,0
2096921,2096921,162784,679058,0
2096921,2096921,162815,678719,0
2096921,2096921,162784,678957,0
2096921,2096921,162588,678959,0
2096921,2096921,162727,678929,0
2096921,2096921,162817,678778,0
2096921,2096921,162646,678927,0
2096921,2096921,162687,678912,0
2096921,2096921,162647,678945,0
2096921,2096921,162982,678734,0
2096921,2096921,162669,678852,0
2096921,2096921,162801,678538,0
2096921,2096921,162864,678748,0
2096921,2096921,162511,678814,0
2096921,2096921,162896,678928,0
2096921,2096921,162712,679073,0
2096921,2096921,162680,679002,0
2096921,2096921,162740,678944,0
2096921,2096921,162853,678859,0
2096921,2096921,162824,678787,0
2096921,2096921,162907,679072,0
2096921,2096921,162574,678911,0
2096921,2096921,162816,678717,0
2096921,2096921,162684,678828,0
2096921,2096921,162810,679087,0
2096921,2096921,162913,678913,0
2096921,2096921,162869,678867,0
2096921,2096921,162884,678878,0
2096921,2096921,162596,678868,0
2096921,2096921,162576,679234,0
2096921,2096921,162725,678611,0
2096921,2096921,162639,678324,0
2096921,2096921,162251,678534,0
2096921,2096921,162630,678262,0
2096921,2096921,162623,678090,0
2096921,2096921,162676,678440,0
2096921,2096921,162560,678025,0
2096921,2096921,162375,677664,0
2096921,2096921,162354,677832,0
2096921,2096921,162284,677855,0
2096921,2096921,162293,677669,0
2096921,2096921,162059,677005,0
2096921,2096921,162340,677068,0
2096921,2096921,162214,676753,0
2096921,2096921,162091,676846,0
2096921,2096921,162073,676640,0
2096921,2096921,161433,676105,0
2096921,2096921,161585,675902,0
2096921,2096921,161698,675637,0
2096921,2096921,161926,675750,0
2096921,2096921,161867,675767,0
2096921,2096921,161469,674843,0
2096921,2096921,161418,674331,0
2096921,2096921,161096,674358,0
2096921,2096921,160950,674538,0
2096921,2096921,161162,674415,0
2096921,2096921,160222,672372,0
2096921,2096921,160037,671964,0
2096921,2096921,160229,671792,0
2096921,2096921,160207,671859,0
2096921,2096921,160171,671556,0
2096921,2096921,159076,668867,0
2096921,2096921,158764,668237,0
2096921,2096921,158910,667810,0
2096921,2096921,158834,668366,0
2096921,2096921,158818,668291,0
2096921,2096921,158059,666173,0
2096921,2096921,158190,665928,0
2096921,2096921,158054,665891,0
2096921,2096921,157614,665909,0
2096921,2096921,157786,665410,0
2096921,2096921,157252,664046,0
2096921,2096921,157099,663865,0
2096921,2096921,157068,663877,0
2096921,2096921,157046,663718,0
2096921,2096921,157112,663818,0
2096921,2096921,156727,662647,0
2096921,2096921,156574,662330,0
2096921,2096921,156618,662359,0
2096921,2096921,156644,662149,0
2096921,2096921,156959,662237,0
2096921,2096921,156365,661616,0
2096921,2096921,156339,661069,0
2096921,2096921,156392,661131,0
2096921,2096921,156282,661573,0
2096921,2096921,156469,661211,0
2096921,2096921,156142,660679,0
2096921,2096921,156075,660599,0
2096921,2096921,155977,660456,0
2096921,2096921,156254,660535,0
2096921,2096921,155747,660637,0
2096921,2096921,155680,660129,0
2096921,2096921,155782,660094,0
2096921,2096921,155708,660064,0
2096921,2096921,155718,659932,0
2096921,2096921,155809,659954,0
2096921,2096921,155663,659725,0
2096921,2096921,155627,659691,0
2096921,2096921,155571,659798,0
2096921,2096921,155632,659483,0
2096921,2096921,155615,659867,0
2096921,2096921,155811,659607,0
2096921,2096921,155833,659495,0
2096921,2096921,155723,659439,0
2096921,2096921,155837,659807,0
2096921,2096921,155904,659503,0
2096921,2096921,155715,659879,0
2096921,2096921,155744,660054,0
2096921,2096921,155752,659913,0
2096921,2096921,155658,659969,0
2096921,2096921,155723,659809,0
2096921,2096921,156108,660182,0
2096921,2096921,155836,660073,0
2096921,2096921,155597,659884,0
2096921,2096921,155698,660090,0
2096921,2096921,155924,659944,0
2096921,2096921,155971,659781,0
2096921,2096921,155966,660022,0
2096921,2096921,155951,660092,0
2096921,2096921,155865,660371,0
2096921,2096921,155920,660350,0
2096921,2096921,155972,660873,0
2096921,2096921,156244,660441,0
2096921,2096921,156286,660404,0
2096921,2096921,156375,660594,0
2096921,2096921,156339,660747,0
2096921,2096921,156076,661098,0
2096921,2096921,156247,661194,0
2096921,2096921,156135,661587,0
2096921,2096921,156399,661137,0
2096921,2096921,156461,661132,0
2096921,2096921,156378,661621,0
2096921,2096921,156486,661640,0
2096921,2096921,156385,661480,0
2096921,2096921,156324,661517,0
2096921,2096921,156429,661657,0
2096921,2096921,156651,662196,0
2096921,2096921,156679,662042,0
2096921,2096921,156853,662274,0
2096921,2096921,156802,662243,0
2096921,2096921,156957,662282,0
2096921,2096921,156781,662799,0
2096921,2096921,157170,662760,0
2096921,2096921,157000,662878,0
2096921,2096921,156699,662700,0
2096921,2096921,156697,663100,0
2096921,2096921,157182,663122,0
2096921,2096921,157058,663308,0
2096921,2096921,157057,663366,0
2096921,2096921,157303,663244,0
2096921,2096921,157125,663524,0
2096921,2096921,157401,664019,0
2096921,2096921,157105,663893,0
2096921,2096921,157346,664126,0
2096921,2096921,157526,664012,0
2096921,2096921,157020,663922,0
2096921,2096921,157240,664265,0
2096921,2096921,157274,664255,0
2096921,2096921,157427,664513,0
2096921,2096921,157460,664239,0
2096921,2096921,157667,664356,0
2096921,2096921,157569,664786,0
2096921,2096921,157748,664897,0
2096921,2096921,157871,664948,0
2096921,2096921,157648,664899,0
2096921,2096921,157726,664749,0
2096921,2096921,157966,665119,0
2096921,2096921,157908,665377,0
2096921,2096921,157872,665613,0
2096921,2096921,157849,665635,0
2096921,2096921,157904,665333,0
2096921,2096921,158008,665935,0
2096921,2096921,157999,666013,0
2096921,2096921,158232,665934,0
2096921,2096921,158247,666037,0
2096921,2096921,158095,665879,0
2096921,2096921,158325,666567,0
2096921,2096921,158425,666574,0
2096921,2096921,158329,666445,0
2096921,2096921,158244,666535,0
2096921,2096921,158406,666552,0
2096921,2096921,158298,666925,0
2096921,2096921,158532,667214,0
2096921,2096921,158419,666982,0
2096921,2096921,158429,666859,0
2096921,2096921,158344,666975,0
2096921,2096921,158535,667130,0
2096921,2096921,158337,667071,0
2096921,2096921,158718,667476,0
2096921,2096921,158899,667317,0
2096921,2096921,158777,667458,0
2096921,2096921,158739,667592,0
2096921,2096921,159087,667509,0
2096921,2096921,158835,667680,0
2096921,2096921,158904,667533,0
2096921,2096921,158809,667645,0
2096921,2096921,158624,667604,0
2096921,2096921,158567,667753,0
2096921,2096921,158785,668082,0
2096921,2096921,158946,667951,0
2096921,2096921,158939,667549,0
2096921,2096921,159003,667453,0
2096921,2096921,158995,667629,0
2096921,2096921,158955,667592,0
2096921,2096921,158930,667870,0
2096921,2096921,158821,667974,0
2096921,2096921,158935,667608,0
2096921,2096921,158828,667590,0
2096921,2096921,158574,667568,0
2096921,2096921,158910,667666,0
2096921,2096921,159045,668126,0
2096921,2096921,158909,667852,0
2096921,2096921,159013,667534,0
2096921,2096921,158576,667508,0
2096921,2096921,159088,668001,0
2096921,2096921,158866,667580,0
2096921,2096921,158784,667669,0
2096921,2096921,158673,667561,0
2096921,2096921,158656,667577,0
2096921,2096921,159059,667528,0
2096921,2096921,159045,667904,0
2096921,2096921,158609,667537,0
2096921,2096921,158546,667163,0
2096921,2096921,158709,667465,0
2096921,2096921,158614,666998,0
2096921,2096921,158346,666936,0
2096921,2096921,158437,666807,0
2096921,2096921,158657,667022,0
2096921,2096921,158600,667105,0
2096921,2096921,158650,666953,0
2096921,2096921,158698,667075,0
2096921,2096921,158546,666805,0
2096921,2096921,158383,666710,0
2096921,2096921,158525,666991,0
2096921,2096921,158604,666728,0
2096921,2096921,158882,666488,0
2096921,2096921,158399,666541,0
2096921,2096921,158434,666514,0
2096921,2096921,158528,666400,0
2096921,2096921,158330,666585,0
2096921,2096921,158536,666811,0
2096921,2096921,158008,666501,0
2096921,2096921,158154,666404,0
2096921,2096921,158520,666175,0
2096921,2096921,158378,666475,0
2096921,2096921,158164,666285,0
2096921,2096921,158456,666213,0
2096921,2096921,158307,666356,0
2096921,2096921,158451,666467,0
2096921,2096921,158537,666574,0
2096921,2096921,158542,666282,0
2096921,2096921,158262,666343,0
2096921,2096921,158343,666198,0
2096921,2096921,158450,666351,0
2096921,2096921,158548,666248,0
2096921,2096921,158935,666610,0
2096921,2096921,158494,666314,0
2096921,2096921,158652,666254,0
2096921,2096921,158081,666488,0
2096921,2096921,158137,666213,0
2096921,2096921,158404,666407,0
2096921,2096921,158240,666463,0
2096921,2096921,158148,666376,0
2096921,2096921,158486,666026,0
2096921,2096921,158418,666454,0
2096921,2096921,158418,666368,0
2096921,2096921,158505,666864,0
2096921,2096921,158331,666807,0
2096921,2096921,158398,666752,0
2096921,2096921,158409,666779,0
2096921,2096921,158807,667141,0
2096921,2096921,158831,667153,0
2096921,2096921,158705,667251,0
2096921,2096921,158723,667044,0
2096921,2096921,158918,667007,0
2096921,2096921,158369,667205,0
2096921,2096921,158656,667429,0
2096921,2096921,158706,667392,0
2096921,2096921,158682,667384,0
2096921,2096921,159064,667422,0
2096921,2096921,158595,667420,0
2096921,2096921,159019,667759,0
2096921,2096921,158948,667715,0
2096921,2096921,159196,667650,0
2096921,2096921,159103,667621,0
2096921,2096921,159110,667520,0
2096921,2096921,159295,668072,0
2096921,2096921,159796,668089,0
2096921,2096921,159118,668275,0
2096921,2096921,159365,668298,0
2096921,2096921,159121,668210,0
2096921,2096921,159185,668133,0
2096921,2096921,159316,668590,0
2096921,2096921,159221,668301,0
2096921,2096921,158847,668461,0
2096921,2096921,159188,668330,0
2096921,2096921,159214,668611,0
2096921,2096921,159303,668664,0
2096921,2096921,159382,668460,0
2096921,2096921,159308,668909,0
2096921,2096921,159461,668495,0
2096921,2096921,159182,668886,0
2096921,2096921,159319,668740,0
2096921,2096921,159296,668898,0
2096921,2096921,159380,668834,0
2096921,2096921,159387,668634,0
2096921,2096921,159476,668873,0
2096921,2096921,159651,668755,0
2096921,2096921,159534,668816,0
2096921,2096921,159757,669054,0
2096921,2096921,159367,668944,0
2096921,2096921,159371,669312,0
2096921,2096921,159500,669184,0
2096921,2096921,159740,669440,0
2096921,2096921,159406,669680,0
2096921,2096921,159709,669515,0
2096921,2096921,159747,669709,0
2096921,2096921,159728,669606,0
2096921,2096921,159693,669539,0
2096921,2096921,159767,669374,0
2096921,2096921,159549,669922,0
2096921,2096921,159699,670107,0
2096921,2096921,159883,670351,0
2096921,2096921,160106,670180,0
2096921,2096921,159913,669999,0
2096921,2096921,159730,669931,0
2096921,2096921,159811,670274,0
2096921,2096921,159791,670189,0
2096921,2096921,159948,669990,0
2096921,2096921,159705,670138,0
2096921,2096921,159859,670177,0
2096921,2096921,159916,670467,0
2096921,2096921,160081,670379,0
2096921,2096921,159956,670307,0
2096921,2096921,159973,670379,0
2096921,2096921,159810,670219,0
2096921,2096921,160255,670502,0
2096921,2096921,160073,670704,0
2096921,2096921,160264,670577,0
2096921,2096921,160367,670741,0
2096921,2096921,160265,670783,0
2096921,2096921,160307,670789,0
2096921,2096921,160401,670736,0
2096921,2096921,160134,670894,0
2096921,2096921,160219,670940,0
2096921,2096921,160229,670769,0
2096921,2096921,160128,670916,0
2096921,2096921,160139,670857,0
2096921,2096921,160304,671198,0
2096921,2096921,160421,670915,0
2096921,2096921,160743,671058,0
2096921,2096921,160410,671167,0
2096921,2096921,160656,671193,0
2096921,2096921,160532,671078,0
2096921,2096921,160229,670831,0
2096921,2096921,160502,671082,0
2096921,2096921,160405,671455,0
2096921,2096921,160474,671360,0
2096921,2096921,160576,671158,0
2096921,2096921,160272,671500,0
2096921,2096921,160202,671480,0
2096921,2096921,160662,671605,0
2096921,2096921,160359,671356,0
2096921,2096921,160633,671213,0
2096921,2096921,160641,671079,0
2096921,2096921,160568,671321,0
2096921,2096921,160716,671652,0
2096921,2096921,160634,671595,0
2096921,2096921,160544,671410,0
2096921,2096921,160950,671585,0
2096921,2096921,160589,671691,0
2096921,2096921,160532,671505,0
2096921,2096921,160615,671804,0
2096921,2096921,160769,671855,0
2096921,2096921,160636,671575,0
2096921,2096921,160616,671633,0
2096921,2096921,160550,672051,0
2096921,2096921,160752,671940,0
2096921,2096921,161031,671738,0
2096921,2096921,160810,671731,0
2096921,2096921,160686,671538,0
2096921,2096921,160802,671842,0
2096921,2096921,160868,671912,0
2096921,2096921,160870,671825,0
2096921,2096921,160912,671915,0
2096921,2096921,160760,671806,0
2096921,2096921,160701,672361,0
2096921,2096921,160697,671992,0
2096921,2096921,160800,672096,0
2096921,2096921,160900,671868,0
2096921,2096921,160894,672037,0
2096921,2096921,161096,672027,0
2096921,2096921,160878,672187,0
2096921,2096921,160892,672199,0
2096921,2096921,160897,671952,0
2096921,2096921,160993,672053,0
2096921,2096921,160900,672146,0
2096921,2096921,161058,672348,0
2096921,2096921,160854,672399,0
2096921,2096921,160901,672197,0
2096921,2096921,160869,672345,0
2096921,2096921,161170,672407,0
2096921,2096921,161079,672467,0
2096921,2096921,160942,672328,0
2096921,2096921,161056,672371,0
2096921,2096921,160955,672182,0
2096921,2096921,160939,672395,0
2096921,2096921,161172,672333,0
2096921,2096921,161035,672608,0
2096921,2096921,160984,672472,0
2096921,2096921,160987,672831,0
2096921,2096921,160836,672865,0
2096921,2096921,160931,672418,0
2096921,2096921,161006,672673,0
2096921,2096921,161187,672601,0
2096921,2096921,160837,672375,0
2096921,2096921,161040,672413,0
2096921,2096921,161287,672367,0
2096921,2096921,161118,672478,0
2096921,2096921,161101,672559,0
2096921,2096921,161113,672472,0
2096921,2096921,161094,672439,0
2096921,2096921,161042,672388,0
2096921,2096921,160882,672598,0
2096921,2096921,160701,672478,0
2096921,2096921,160996,672490,0
2096921,2096921,160780,672532,0
2096921,2096921,161180,672489,0
2096921,2096921,161079,672523,0
2096921,2096921,161052,672375,0
2096921,2096921,160832,672853,0
2096921,2096921,160937,672768,0
2096921,2096921,161108,672485,0
2096921,2096921,161100,672490,0
2096921,2096921,161049,672477,0
2096921,2096921,161089,672574,0
2096921,2096921,161245,672516,0
2096921,2096921,161145,672886,0
2096921,2096921,161402,672657,0
2096921,2096921,161044,672412,0
2096921,2096921,161070,672386,0
2096921,2096921,160985,672730,0
2096921,2096921,161199,672564,0
2096921,2096921,161208,672866,0
2096921,2096921,161065,672810,0
2096921,2096921,161118,672639,0
2096921,2096921,161074,672463,0
2096921,2096921,161200,672758,0
2096921,2096921,160972,672476,0
2096921,2096921,161122,672741,0
2096921,2096921,160809,672699,0
2096921,2096921,161055,672735,0
2096921,2096921,161025,672720,0
2096921,2096921,161151,672663,0
2096921,2096921,160984,672747,0
2096921,2096921,161214,672868,0
2096921,2096921,161158,672711,0
2096921,2096921,161288,673045,0
2096921,2096921,161519,672838,0
2096921,2096921,161072,672369,0
2096921,2096921,161062,672890,0
2096921,2096921,161242,672574,0
2096921,2096921,161247,672741,0
2096921,2096921,161339,672446,0
2096921,2096921,161224,672530,0
2096921,2096921,161125,672574,0
2096921,2096921,160868,672762,0
2096921,2096921,161228,672658,0
2096921,2096921,161110,672886,0
2096921,2096921,160879,672754,0
2096921,2096921,161195,672856,0
2096921,2096921,161272,672954,0
2096921,2096921,161240,672623,0
2096921,2096921,161487,672922,0
2096921,2096921,161215,673032,0
2096921,2096921,161163,672970,0
2096921,2096921,161032,672731,0
2096921,2096921,161161,672966,0
2096921,2096921,161304,672818,0
2096921,2096921,161138,672678,0
2096921,2096921,161152,672564,0
2096921,2096921,161092,673104,0
2096921,2096921,161182,672939,0
2096921,2096921,161349,672787,0
2096921,2096921,161227,672712,0
2096921,2096921,161381,673215,0
2096921,2096921,161374,672982,0
2096921,2096921,161156,672590,0
2096921,2096921,161198,672762,0
2096921,2096921,161279,672895,0
2096921,2096921,161370,672912,0
2096921,2096921,161434,672852,0
2096921,2096921,161217,672833,0
2096921,2096921,161265,672715,0
2096921,2096921,161139,672912,0
2096921,2096921,161391,672696,0
2096921,2096921,161283,672691,0
2096921,2096921,161217,672940,0
2096921,2096921,161097,672648,0
2096921,2096921,161190,672646,0
2096921,2096921,161097,672781,0
2096921,2096921,161224,672959,0
2096921,2096921,161497,672507,0
2096921,2096921,161314,672456,0
2096921,2096921,161139,672640,0
2096921,2096921,161072,672651,0
2096921,2096921,161220,672592,0
2096921,2096921,161167,672485,0
2096921,2096921,161111,672672,0
2096921,2096921,161186,672622,0
2096921,2096921,161246,672512,0
2096921,2096921,161081,672735,0
2096921,2096921,161223,672465,0
2096921,2096921,161009,672486,0
2096921,2096921,161065,672710,0
2096921,2096921,161414,672338,0
2096921,2096921,160974,672533,0
2096921,2096921,161369,672493,0
2096921,2096921,161312,672621,0
2096921,2096921,161253,672324,0
2096921,2096921,161237,672313,0
2096921,2096921,160967,672552,0
2096921,2096921,160902,672313,0
2096921,2096921,161075,672151,0
2096921,2096921,161192,672298,0
2096921,2096921,160837,672214,0
2096921,2096921,161204,672373,0
2096921,2096921,161296,672364,0
2096921,2096921,161251,672594,0
2096921,2096921,161080,672616,0
2096921,2096921,161403,672486,0
2096921,2096921,161096,671983,0
2096921,2096921,161270,671775,0
2096921,2096921,160878,671816,0
2096921,2096921,160893,671748,0
2096921,2096921,161001,671564,0
2096921,2096921,160990,671238,0
2096921,2096921,160835,671226,0
2096921,2096921,160792,671166,0
2096921,2096921,160613,671557,0
2096921,2096921,160597,671137,0
2096921,2096921,160280,670509,0
2096921,2096921,160434,670242,0
2096921,2096921,160560,670547,0
2096921,2096921,160182,670529,0
2096921,2096921,160259,670249,0
2096921,2096921,160201,669536,0
2096921,2096921,159870,669206,0
2096921,2096921,160175,669291,0
2096921,2096921,160251,669248,0
2096921,2096921,160039,669334,0
2096921,2096921,159371,668618,0
2096921,2096921,159434,668332,0
2096921,2096921,159389,667923,0
2096921,2096921,159625,668024,0
2096921,2096921,159360,668328,0
2096921,2096921,158768,666078,0
2096921,2096921,158518,665291,0
2096921,2096921,158421,665219,0
2096921,2096921,158442,665035,0
2096921,2096921,158701,664710,0
2096921,2096921,157558,662612,0
2096921,2096921,157402,661885,0
2096921,2096921,157620,661830,0
2096921,2096921,157050,661792,0
2096921,2096921,157070,661757,0
2096921,2096921,156300,659932,0
2096921,2096921,156296,659542,0
2096921,2096921,156249,659346,0
2096921,2096921,156159,659137,0
2096921,2096921,156414,659198,0
2096921,2096921,155611,658066,0
2096921,2096921,155521,657330,0
2096921,2096921,155551,657427,0
2096921,2096921,155482,657396,0
2096921,2096921,155444,657254,0
2096921,2096921,155037,656392,0
2096921,2096921,155105,655775,0
2096921,2096921,155312,655623,0
2096921,2096921,154905,655836,0
2096921,2096921,155162,656179,0
2096921,2096921,154691,655223,0
2096921,2096921,154720,654769,0
2096921,2096921,154538,654964,0
2096921,2096921,154470,655070,0
2096921,2096921,154563,655015,0
2096921,2096921,154396,654318,0
2096921,2096921,154538,654359,0
2096921,2096921,154532,654298,0
2096921,2096921,154443,654138,0
2096921,2096921,154569,653948,0
2096921,2096921,154489,653485,0
2096921,2096921,154222,653944,0
2096921,2096921,154381,653628,0
2096921,2096921,154114,653822,0
2096921,2096921,154228,653402,0
2096921,2096921,154159,653415,0
2096921,2096921,154054,653261,0
2096921,2096921,154102,653493,0
2096921,2096921,154385,653609,0
2096921,2096921,154150,653797,0
2096921,2096921,154167,653751,0
2096921,2096921,154417,653607,0
2096921,2096921,154215,653496,0
2096921,2096921,154358,653467,0
2096921,2096921,154184,653501,0
2096921,2096921,154595,653548,0
2096921,2096921,154467,653913,0
2096921,2096921,154191,653891,0
2096921,2096921,154227,653627,0
2096921,2096921,154208,653903,0
2096921,2096921,154043,654008,0
2096921,2096921,154267,654006,0
2096921,2096921,154306,654267,0
2096921,2096921,154189,654031,0
2096921,2096921,154418,653990,0
2096921,2096921,154480,654096,0
2096921,2096921,154413,654230,0
2096921,2096921,154413,654166,0
2096921,2096921,154785,654162,0
2096921,2096921,154574,654130,0
2096921,2096921,154357,654961,0
2096921,2096921,154642,654886,0
2096921,2096921,154558,654707,0
2096921,2096921,154731,654546,0
2096921,2096921,154392,654722,0
2096921,2096921,155059,655118,0
2096921,2096921,154729,655059,0
2096921,2096921,154961,655340,0
2096921,2096921,155138,655431,0
2096921,2096921,154694,655377,0
2096921,2096921,155217,655917,0
2096921,2096921,154865,656081,0
2096921,2096921,154906,656111,0
2096921,2096921,154906,655793,0
2096921,2096921,155087,655878,0
2096921,2096921,155268,656431,0
2096921,2096921,155214,656348,0
2096921,2096921,155203,656285,0
2096921,2096921,155300,656373,0
2096921,2096921,155085,656267,0
2096921,2096921,155269,657302,0
2096921,2096921,155434,656799,0
2096921,2096921,155365,657188,0
2096921,2096921,155326,656879,0
2096921,2096921,155432,656873,0
2096921,2096921,155466,657207,0
2096921,2096921,155709,657551,0
2096921,2096921,155775,657822,0
2096921,2096921,155845,657907,0
2096921,2096921,155656,657672,0
2096921,2096921,155888,657805,0
2096921,2096921,155710,657906,0
2096921,2096921,155545,657995,0
2096921,2096921,155707,658053,0
2096921,2096921,155831,658172,0
2096921,2096921,156245,658425,0
2096921,2096921,155908,658875,0
2096921,2096921,155938,658739,0
2096921,2096921,156087,658616,0
2096921,2096921,156395,658461,0
2096921,2096921,156422,658928,0
2096921,2096921,156280,659070,0
2096921,2096921,156162,659177,0
2096921,2096921,156071,659184,0
2096921,2096921,156226,659229,0
2096921,2096921,156449,659692,0
2096921,2096921,156322,660034,0
2096921,2096921,156300,659952,0
2096921,2096921,156484,660056,0
2096921,2096921,156450,659830,0
2096921,2096921,157152,660677,0
2096921,2096921,156716,660389,0
2096921,2096921,156737,660529,0
2096921,2096921,156770,660552,0
2096921,2096921,156646,660587,0
2096921,2096921,156925,661009,0
2096921,2096921,157080,661050,0
2096921,2096921,156981,661144,0
2096921,2096921,156902,661067,0
2096921,2096921,156802,661241,0
2096921,2096921,156878,661572,0
2096921,2096921,157285,661274,0
2096921,2096921,156987,661454,0
2096921,2096921,156900,661726,0
2096921,2096921,157284,661661,0
2096921,2096921,157458,662016,0
2096921,2096921,157346,662101,0
2096921,2096921,157455,662137,0
2096921,2096921,157363,662097,0
2096921,2096921,157608,661835,0
2096921,2096921,157508,661772,0
2096921,2096921,157560,662336,0
2096921,2096921,157391,662209,0
2096921,2096921,157314,662266,0
2096921,2096921,157249,662344,0
2096921,2096921,157595,662287,0
2096921,2096921,157652,662390,0
2096921,2096921,157344,662432,0
2096921,2096921,157597,662503,0
2096921,2096921,157440,662496,0
2096921,2096921,157557,662630,0
2096921,2096921,157512,662656,0
2096921,2096921,157602,662900,0
2096921,2096921,157433,662788,0
2096921,2096921,157777,662883,0
2096921,2096921,157553,662746,0
2096921,2096921,157719,662721,0
2096921,2096921,157782,662999,0
2096921,2096921,157691,662730,0
2096921,2096921,157597,662643,0
2096921,2096921,157753,662816,0
2096921,2096921,157796,662482,0
2096921,2096921,157854,662576,0
2096921,2096921,157581,662553,0
2096921,2096921,157547,662641,0
2096921,2096921,157322,662338,0
2096921,2096921,157289,662575,0
2096921,2096921,157813,662547,0
2096921,2096921,157566,662480,0
2096921,2096921,157573,662334,0
2096921,2096921,157541,662473,0
2096921,2096921,157288,662545,0
2096921,2096921,157449,662345,0
2096921,2096921,157715,662207,0
2096921,2096921,157397,662415,0
2096921,2096921,157440,662054,0
2096921,2096921,157369,662567,0
2096921,2096921,157147,662176,0
2096921,2096921,157385,662398,0
2096921,2096921,157581,662380,0
2096921,2096921,157399,661995,0
2096921,2096921,157364,661895,0
2096921,2096921,157301,662066,0
2096921,2096921,157089,661821,0
2096921,2096921,157367,662125,0
2096921,2096921,157325,661961,0
2096921,2096921,157234,661757,0
2096921,2096921,157170,661927,0
2096921,2096921,156912,662099,0
2096921,2096921,157154,661855,0
2096921,2096921,157532,661655,0
2096921,2096921,157547,661624,0
2096921,2096921,157192,662033,0
2096921,2096921,157241,662119,0
2096921,2096921,157074,662079,0
2096921,2096921,157063,661753,0
2096921,2096921,156968,661775,0
2096921,2096921,157197,661847,0
2096921,2096921,157386,661876,0
2096921,2096921,157175,661729,0
2096921,2096921,157236,662184,0
2096921,2096921,157250,662244,0
2096921,2096921,157278,662205,0
2096921,2096921,156999,661967,0
2096921,2096921,157252,661930,0
2096921,2096921,157282,661896,0
2096921,2096921,157530,661997,0
2096921,2096921,157312,662179,0
2096921,2096921,157389,662341,0
2096921,2096921,157326,661950,0
2096921,2096921,157559,662087,0
2096921,2096921,157290,662207,0
2096921,2096921,157514,662494,0
2096921,2096921,157503,662308,0
2096921,2096921,157249,662026,0
2096921,2096921,157523,662512,0
2096921,2096921,157380,662811,0
2096921,2096921,157531,662803,0
2096921,2096921,157653,662599,0
2096921,2096921,157350,662680,0
2096921,2096921,157789,662850,0
2096921,2096921,157977,662881,0
2096921,2096921,157845,663072,0
2096921,2096921,157909,663038,0
2096921,2096921,157597,663097,0
2096921,2096921,158077,663373,0
2096921,2096921,158165,663665,0
2096921,2096921,158181,663706,0
2096921,2096921,157930,663403,0
2096921,2096921,158282,663534,0
2096921,2096921,158124,664077,0
2096921,2096921,157988,663885,0
2096921,2096921,158107,664074,0
2096921,2096921,158139,663973,0
2096921,2096921,158060,663853,0
2096921,2096921,158120,664379,0
2096921,2096921,158286,664352,0
2096921,2096921,158415,664240,0
2096921,2096921,158263,664358,0
2096921,2096921,158489,664090,0
2096921,2096921,158192,664432,0
2096921,2096921,158326,664636,0
2096921,2096921,158372,664673,0
2096921,2096921,158092,664972,0
2096921,2096921,158056,664425,0
2096921,2096921,158346,664828,0
2096921,2096921,158477,664646,0
2096921,2096921,158299,664877,0
2096921,2096921,158214,664831,0
2096921,2096921,158429,664807,0
2096921,2096921,158539,665292,0
2096921,2096921,158658,665018,0
2096921,2096921,158575,665390,0
2096921,2096921,158591,665423,0
2096921,2096921,158498,665289,0
2096921,2096921,158857,665775,0
2096921,2096921,158964,665831,0
2096921,2096921,158944,665661,0
2096921,2096921,158546,665848,0
2096921,2096921,158502,665844,0
2096921,2096921,158610,666209,0
2096921,2096921,158832,665910,0
2096921,2096921,158857,665973,0
2096921,2096921,158718,665840,0
2096921,2096921,158767,665903,0
2096921,2096921,158891,666554,0
2096921,2096921,158836,666639,0
2096921,2096921,158926,666520,0
2096921,2096921,158851,666380,0
2096921,2096921,158973,666504,0
2096921,2096921,158895,666330,0
2096921,2096921,158993,666501,0
2096921,2096921,159145,666753,0
2096921,2096921,159026,666684,0
2096921,2096921,158878,666812,0
2096921,2096921,159300,666746,0
2096921,2096921,159480,667102,0
2096921,2096921,159116,667141,0
2096921,2096921,159136,667064,0
2096921,2096921,159141,667167,0
2096921,2096921,159252,667686,0
2096921,2096921,159075,667464,0
2096921,2096921,159135,667467,0
2096921,2096921,159395,667349,0
2096921,2096921,159363,667653,0
2096921,2096921,159380,667653,0
2096921,2096921,159651,667755,0
2096921,2096921,159700,667718,0
2096921,2096921,159306,667689,0
2096921,2096921,159080,667926,0
2096921,2096921,159667,667930,0
2096921,2096921,159441,667918,0
2096921,2096921,159337,668275,0
2096921,2096921,159270,668336,0
2096921,2096921,159566,668299,0
2096921,2096921,159415,668526,0
2096921,2096921,159646,668737,0
2096921,2096921,159740,668440,0
2096921,2096921,159794,668616,0
2096921,2096921,159817,668821,0
2096921,2096921,159361,668782,0
2096921,2096921,159510,668928,0
2096921,2096921,159419,668658,0
2096921,2096921,159879,668847,0
2096921,2096921,159451,668786,0
2096921,2096921,159535,668836,0
2096921,2096921,159784,668994,0
2096921,2096921,159801,669187,0
2096921,2096921,159777,668976,0
2096921,2096921,159778,669295,0
2096921,2096921,159745,669619,0
2096921,2096921,159864,669319,0
2096921,2096921,159955,669635,0
2096921,2096921,159945,669380,0
2096921,2096921,160013,669247,0
2096921,2096921,160023,669574,0
2096921,2096921,160156,669432,0
2096921,2096921,159973,669628,0
2096921,2096921,160285,669592,0
2096921,2096921,160074,669545,0
2096921,2096921,160401,669768,0
2096921,2096921,159901,669921,0
2096921,2096921,160313,669834,0
2096921,2096921,160367,669914,0
2096921,2096921,160172,669991,0
2096921,2096921,160246,670134,0
2096921,2096921,160258,670014,0
2096921,2096921,160266,670074,0
2096921,2096921,160275,670045,0
2096921,2096921,160334,670233,0
2096921,2096921,160447,670441,0
2096921,2096921,160555,670446,0
2096921,2096921,160276,670489,0
2096921,2096921,160283,670597,0
2096921,2096921,160303,670378,0
2096921,2096921,160333,670432,0
2096921,2096921,160429,670413,0
2096921,2096921,160451,670710,0
2096921,2096921,160175,670882,0
2096921,2096921,160077,670642,0
2096921,2096921,160388,670805,0
2096921,2096921,160434,670638,0
2096921,2096921,160662,670818,0
2096921,2096921,160607,670787,0
2096921,2096921,160661,671001,0
2096921,2096921,160593,670943,0
2096921,2096921,160603,671287,0
2096921,2096921,160819,671108,0
2096921,2096921,160583,671130,0
2096921,2096921,160752,670931,0
2096921,2096921,160605,671368,0
2096921,2096921,160448,671199,0
2096921,2096921,160426,671217,0
2096921,2096921,160512,671349,0
2096921,2096921,160592,671131,0
2096921,2096921,160555,671329,0
2096921,2096921,160691,671420,0
2096921,2096921,160530,671473,0
2096921,2096921,160672,671236,0
2096921,2096921,160691,671487,0
2096921,2096921,160565,671640,0
2096921,2096921,160764,671919,0
2096921,2096921,160660,671668,0
2096921,2096921,160711,671761,0
2096921,2096921,160533,671640,0
2096921,2096921,160858,671989,0
2096921,2096921,160866,671652,0
2096921,2096921,160886,671674,0
2096921,2096921,160718,671868,0
2096921,2096921,160660,671881,0
2096921,2096921,160776,672368,0
2096921,2096921,160846,672105,0
2096921,2096921,160788,671973,0
2096921,2096921,160856,672034,0
2096921,2096921,160701,672080,0
2096921,2096921,160885,672237,0
2096921,2096921,160952,672249,0
2096921,2096921,160890,672297,0
2096921,2096921,161028,672371,0
2096921,2096921,161035,672392,0
2096921,2096921,161182,672514,0
2096921,2096921,160965,672598,0
2096921,2096921,161210,672286,0
2096921,2096921,161124,672617,0
2096921,2096921,161169,672556,0
2096921,2096921,161162,672412,0
2096921,2096921,161223,672581,0
2096921,2096921,161058,672465,0
2096921,2096921,161168,672543,0
2096921,2096921,161066,672548,0
2096921,2096921,161210,672731,0
2096921,2096921,161298,672727,0
2096921,2096921,161245,672664,0
2096921,2096921,160950,672658,0
2096921,2096921,161195,672817,0
2096921,2096921,161260,672982,0
2096921,2096921,161004,673190,0
2096921,2096921,161134,673115,0
2096921,2096921,161226,673169,0
2096921,2096921,161198,672856,0
2096921,2096921,161534,673484,0
2096921,2096921,161102,673514,0
2096921,2096921,161166,673245,0
2096921,2096921,161328,673220,0
2096921,2096921,161245,673171,0
2096921,2096921,161442,673501,0
2096921,2096921,161364,673591,0
2096921,2096921,161367,673731,0
2096921,2096921,161402,673339,0
2096921,2096921,161334,673061,0
2096921,2096921,161347,673452,0
2096921,2096921,161400,673420,0
2096921,2096921,160978,673457,0
2096921,2096921,161147,673312,0
2096921,2096921,161061,673560,0
2096921,2096921,161362,673496,0
2096921,2096921,161299,673753,0
2096921,2096921,161493,673718,0
2096921,2096921,161217,673789,0
2096921,2096921,161264,673786,0
2096921,2096921,161213,674069,0
2096921,2096921,160942,673743,0
2096921,2096921,161357,674120,0
2096921,2096921,161240,673760,0
2096921,2096921,161506,673769,0
2096921,2096921,161542,674039,0
2096921,2096921,161573,674217,0
2096921,2096921,161497,674147,0
2096921,2096921,161491,674221,0
2096921,2096921,161404,673962,0
2096921,2096921,161647,674063,0
2096921,2096921,161740,674029,0
2096921,2096921,161688,673970,0
2096921,2096921,161454,674264,0
2096921,2096921,161685,674186,0
2096921,2096921,161823,674334,0
2096921,2096921,161475,674128,0
2096921,2096921,161519,674097,0
2096921,2096921,161606,674298,0
2096921,2096921,161468,674306,0
2096921,2096921,161539,674371,0
2096921,2096921,161623,674285,0
2096921,2096921,161588,674129,0
2096921,2096921,161640,674306,0
2096921,2096921,161575,674261,0
2096921,2096921,161454,674483,0
2096921,2096921,161675,674301,0
2096921,2096921,161709,674505,0
2096921,2096921,161670,674527,0
2096921,2096921,161725,674398,0
2096921,2096921,161841,674414,0
2096921,2096921,161843,674431,0
2096921,2096921,161238,674407,0
2096921,2096921,161398,674288,0
2096921,2096921,161749,674373,0
2096921,2096921,161640,674453,0
2096921,2096921,161689,674467,0
2096921,2096921,161479,674508,0
2096921,2096921,161775,674587,0
2096921,2096921,161488,674580,0
2096921,2096921,161547,674247,0
2096921,2096921,161644,674457,0
2096921,2096921,161699,674514,0
2096921,2096921,161872,674401,0
2096921,2096921,161628,674455,0
2096921,2096921,161496,674773,0
2096921,2096921,161692,674625,0
2096921,2096921,161347,674721,0
2096921,2096921,161813,674459,0
2096921,2096921,161711,674738,0
2096921,2096921,161678,674431,0
2096921,2096921,161708,674729,0
2096921,2096921,161920,674824,0
2096921,2096921,161418,674185,0
2096921,2096921,161675,674385,0
2096921,2096921,161542,674714,0
2096921,2096921,161607,674657,0
2096921,2096921,161804,674747,0
2096921,2096921,161947,674776,0
2096921,2096921,161816,674797,0
2096921,2096921,161626,674760,0
2096921,2096921,161609,674227,0
2096921,2096921,161605,674133,0
2096921,2096921,161506,674193,0
2096921,2096921,161067,674369,0
2096921,2096921,161293,673760,0
2096921,2096921,161249,673976,0
2096921,2096921,161133,674075,0
2096921,2096921,161702,673839,0
2096921,2096921,161447,674042,0
2096921,2096921,160936,673279,0
2096921,2096921,161140,673224,0
2096921,2096921,160878,672940,0
2096921,2096921,161152,673174,0
2096921,2096921,160725,672931,0
2096921,2096921,160618,672194,0
2096921,2096921,160701,671962,0
2096921,2096921,160818,672233,0
2096921,2096921,160718,672146,0
2096921,2096921,160654,671837,0
2096921,2096921,160160,670951,0
2096921,2096921,160237,670915,0
2096921,2096921,160399,670937,0
2096921,2096921,160287,670978,0
2096921,2096921,159965,671266,0
2096921,2096921,159285,668765,0
2096921,2096921,159252,668297,0
2096921,2096921,159199,668116,0
2096921,2096921,159239,668069,0
2096921,2096921,159401,668100,0
2096921,2096921,158485,665488,0
2096921,2096921,158259,664984,0
2096921,2096921,158218,664717,0
2096921,2096921,157899,664853,0
2096921,2096921,157727,664946,0
2096921,2096921,157135,662980,0
2096921,2096921,157065,662765,0
2096921,2096921,157094,662477,0
2096921,2096921,156968,662273,0
2096921,2096921,157102,662267,0
2096921,2096921,156285,660923,0
2096921,2096921,156338,660722,0
2096921,2096921,156614,660506,0
2096921,2096921,156122,660591,0
2096921,2096921,156363,660511,0
2096921,2096921,156243,659380,0
2096921,2096921,156159,659108,0
2096921,2096921,156048,659197,0
2096921,2096921,155748,659235,0
2096921,2096921,155914,659269,0
2096921,2096921,155307,658808,0
2096921,2096921,155386,658554,0
2096921,2096921,155433,658251,0
2096921,2096921,155475,658724,0
2096921,2096921,155824,658592,0
2096921,2096921,155394,657779,0
2096921,2096921,155355,657703,0
2096921,2096921,155291,657688,0
2096921,2096921,155620,657723,0
2096921,2096921,155213,658078,0
2096921,2096921,155333,657613,0
2096921,2096921,154999,657441,0
2096921,2096921,155215,657368,0
2096921,2096921,155078,657533,0
2096921,2096921,155134,657392,0
2096921,2096921,155121,657535,0
2096921,2096921,155215,657538,0
2096921,2096921,155348,657545,0
2096921,2096921,155240,657422,0
2096921,2096921,155175,657389,0
2096921,2096921,155155,657497,0
2096921,2096921,155180,657387,0
2096921,2096921,155190,657388,0
2096921,2096921,155280,657552,0
2096921,2096921,155124,657361,0
2096921,2096921,155299,657450,0
2096921,2096921,155210,657816,0
2096921,2096921,155179,657872,0
2096921,2096921,155274,657850,0
2096921,2096921,155342,657892,0
2096921,2096921,155312,658096,0
2096921,2096921,155556,658183,0
2096921,2096921,155152,658033,0
2096921,2096921,155287,657994,0
2096921,2096921,155271,657857,0
2096921,2096921,155275,658210,0
2096921,2096921,155363,658326,0
2096921,2096921,155276,658244,0
2096921,2096921,155603,658197,0
2096921,2096921,155397,658193,0
2096921,2096921,155707,658640,0
2096921,2096921,155740,658801,0
2096921,2096921,155801,658773,0
2096921,2096921,155492,658751,0
2096921,2096921,155696,658787,0
2096921,2096921,156023,659361,0
2096921,2096921,155962,659373,0
2096921,2096921,156182,659572,0
2096921,2096921,156015,659708,0
2096921,2096921,155890,659627,0
2096921,2096921,156026,660149,0
2096921,2096921,156185,660243,0
2096921,2096921,156124,660314,0
2096921,2096921,156054,660459,0
2096921,2096921,156051,660602,0
2096921,2096921,155876,661090,0
2096921,2096921,156285,660733,0
2096921,2096921,156345,660736,0
2096921,2096921,156271,660877,0
2096921,2096921,156461,661006,0
2096921,2096921,156731,661562,0
2096921,2096921,156724,661511,0
2096921,2096921,156480,661596,0
2096921,2096921,156454,661433,0
2096921,2096921,156592,661516,0
2096921,2096921,156521,661912,0
2096921,2096921,156825,662005,0
2096921,2096921,156958,662035,0
2096921,2096921,156719,662193,0
2096921,2096921,156831,661983,0
2096921,2096921,157119,662427,0
2096921,2096921,156821,662742,0
2096921,2096921,157133,662944,0
2096921,2096921,157088,662964,0
2096921,2096921,156894,662603,0
2096921,2096921,157120,663609,0
2096921,2096921,157313,663300,0
2096921,2096921,157269,663454,0
2096921,2096921,157223,663352,0
2096921,2096921,157511,663334,0
2096921,2096921,157550,664236,0
2096921,2096921,157785,664268,0
2096921,2096921,157586,664195,0
2096921,2096921,157637,664389,0
2096921,2096921,157413,663954,0
2096921,2096921,157771,664810,0
2096921,2096921,157577,664649,0
2096921,2096921,157841,664779,0
2096921,2096921,158128,665092,0
2096921,2096921,157898,664723,0
2096921,2096921,158107,665660,0
2096921,2096921,158265,665434,0
2096921,2096921,157942,665259,0
2096921,2096921,158143,665352,0
2096921,2096921,158009,665544,0
2096921,2096921,158111,666077,0
2096921,2096921,158137,666025,0
2096921,2096921,158328,666059,0
2096921,2096921,158364,666270,0
2096921,2096921,158579,666095,0
2096921,2096921,158798,666598,0
2096921,2096921,158380,666971,0
2096921,2096921,158471,667027,0
2096921,2096921,158521,666843,0
2096921,2096921,158364,666616,0
2096921,2096921,158547,667096,0
2096921,2096921,158737,667196,0
2096921,2096921,158836,667475,0
2096921,2096921,158682,667344,0
2096921,2096921,158883,667380,0
2096921,2096921,158519,667621,0
2096921,2096921,158801,667425,0
2096921,2096921,159078,667675,0
2096921,2096921,158922,667564,0
2096921,2096921,158719,667699,0
2096921,2096921,158876,668010,0
2096921,2096921,158913,667971,0
2096921,2096921,159083,668069,0
2096921,2096921,158991,668179,0
2096921,2096921,158938,668158,0
2096921,2096921,159177,668312,0
2096921,2096921,159023,668041,0
2096921,2096921,158935,668266,0
2096921,2096921,158946,668447,0
2096921,2096921,159067,668196,0
2096921,2096921,159005,668262,0
2096921,2096921,159014,668414,0
2096921,2096921,158986,668608,0
2096921,2096921,159030,668204,0
2096921,2096921,158959,668398,0
2096921,2096921,159203,668224,0
2096921,2096921,159331,668277,0
2096921,2096921,159077,668688,0
2096921,2096921,159392,668525,0
2096921,2096921,159217,668401,0
2096921,2096921,159318,668333,0
2096921,2096921,159069,668369,0
2096921,2096921,159384,668549,0
2096921,2096921,158979,667974,0
2096921,2096921,159326,668326,0
2096921,2096921,158971,668307,0
2096921,2096921,158454,668055,0
2096921,2096921,158727,668297,0
2096921,2096921,158861,668196,0
2096921,2096921,159022,668481,0
2096921,2096921,158880,667797,0
2096921,2096921,158801,668240,0
2096921,2096921,158837,668071,0
2096921,2096921,158847,667988,0
2096921,2096921,158689,668104,0
2096921,2096921,158810,667834,0
2096921,2096921,158922,667974,0
2096921,2096921,158904,667830,0
2096921,2096921,158759,667831,0
2096921,2096921,159030,667768,0
2096921,2096921,158858,668059,0
2096921,2096921,158736,667752,0
2096921,2096921,158732,667579,0
2096921,2096921,158633,667517,0
2096921,2096921,158584,667591,0
2096921,2096921,158814,667685,0
2096921,2096921,159110,667843,0
2096921,2096921,158803,668199,0
2096921,2096921,158710,667866,0
2096921,2096921,158525,667621,0
2096921,2096921,158584,667768,0
2096921,2096921,158766,668066,0
2096921,2096921,159035,667635,0
2096921,2096921,158688,667634,0
2096921,2096921,158686,668124,0
2096921,2096921,158494,668026,0
2096921,2096921,158770,667838,0
2096921,2096921,158593,667923,0
2096921,2096921,158910,667985,0
2096921,2096921,158625,668058,0
2096921,2096921,158954,668057,0
2096921,2096921,158993,668277,0
2096921,2096921,158849,668066,0
2096921,2096921,158807,668267,0
2096921,2096921,158718,668165,0
2096921,2096921,158845,668409,0
2096921,2096921,159126,668676,0
2096921,2096921,158864,668328,0
2096921,2096921,158971,668384,0
2096921,2096921,158862,668304,0
2096921,2096921,159150,668571,0
2096921,2096921,159133,669044,0
2096921,2096921,159224,668950,0
2096921,2096921,159289,668822,0
2096921,2096921,159205,668996,0
2096921,2096921,159284,669475,0
2096921,2096921,159509,669242,0
2096921,2096921,159242,669344,0
2096921,2096921,159408,669373,0
2096921,2096921,159520,669334,0
2096921,2096921,159336,669499,0
2096921,2096921,159454,669879,0
2096921,2096921,159574,669639,0
2096921,2096921,159562,669929,0
2096921,2096921,159304,669931,0
2096921,2096921,159350,670258,0
2096921,2096921,159508,670192,0
2096921,2096921,159543,670203,0
2096921,2096921,159385,670199,0
2096921,2096921,159713,670132,0
2096921,2096921,159927,670450,0
2096921,2096921,159743,670793,0
2096921,2096921,159754,671002,0
2096921,2096921,159801,670946,0
2096921,2096921,159815,670716,0
2096921,2096921,160131,671267,0
2096921,2096921,160129,671194,0
2096921,2096921,159774,671059,0
2096921,2096921,159905,671257,0
2096921,2096921,160057,670904,0
2096921,2096921,159995,671350,0
2096921,2096921,159696,671449,0
2096921,2096921,160114,671652,0
2096921,2096921,160384,671380,0
2096921,2096921,160231,671585,0
2096921,2096921,160013,671866,0
2096921,2096921,160291,672024,0
2096921,2096921,160009,671649,0
2096921,2096921,160199,671546,0
2096921,2096921,160205,671812,0
2096921,2096921,160223,672184,0
2096921,2096921,160584,672530,0
2096921,2096921,160255,672487,0
2096921,2096921,160142,672212,0
2096921,2096921,160370,672257,0
2096921,2096921,160238,672506,0
2096921,2096921,160222,672376,0
2096921,2096921,160260,672540,0
2096921,2096921,160303,672610,0
2096921,2096921,160467,672265,0
2096921,2096921,160501,672850,0
2096921,2096921,160934,672434,0
2096921,2096921,160338,673019,0
2096921,2096921,160613,673001,0
2096921,2096921,160731,672910,0
2096921,2096921,160786,673247,0
2096921,2096921,160722,673186,0
2096921,2096921,160834,672985,0
2096921,2096921,160579,673373,0
2096921,2096921,160620,673190,0
2096921,2096921,160616,673701,0
2096921,2096921,160730,673538,0
2096921,2096921,160481,673770,0
2096921,2096921,160645,673786,0
2096921,2096921,160942,673508,0
2096921,2096921,161036,673594,0
2096921,2096921,160961,673768,0
2096921,2096921,160751,673891,0
2096921,2096921,161125,673813,0
2096921,2096921,160850,673806,0
2096921,2096921,161368,674173,0
2096921,2096921,160914,673996,0
2096921,2096921,161030,674144,0
2096921,2096921,161048,674344,0
2096921,2096921,161023,674190,0
2096921,2096921,161279,674825,0
2096921,2096921,161192,674461,0
2096921,2096921,161253,674617,0
2096921,2096921,160897,674573,0
2096921,2096921,161035,674623,0
2096921,2096921,161482,674664,0
2096921,2096921,161464,674699,0
2096921,2096921,161432,675106,0
2096921,2096921,161362,674740,0
2096921,2096921,161333,675021,0
2096921,2096921,161454,675172,0
2096921,2096921,161474,675043,0
2096921,2096921,161507,674987,0
2096921,2096921,161508,675370,0
2096921,2096921,161423,675040,0
2096921,2096921,161592,675132,0
2096921,2096921,161596,675379,0
2096921,2096921,161641,675238,0
2096921,2096921,161730,675422,0
2096921,2096921,161584,675246,0
2096921,2096921,161816,675526,0
2096921,2096921,162013,675800,0
2096921,2096921,161625,675620,0
2096921,2096921,161711,675615,0
2096921,2096921,161291,675980,0
2096921,2096921,161443,675649,0
2096921,2096921,161408,675880,0
2096921,2096921,161462,675927,0
2096921,2096921,161653,675854,0
2096921,2096921,162052,675866,0
2096921,2096921,161989,675897,0
2096921,2096921,161868,676016,0
2096921,2096921,161863,676031,0
2096921,2096921,161759,676122,0
2096921,2096921,161884,676267,0
2096921,2096921,161695,676301,0
2096921,2096921,161833,676206,0
2096921,2096921,161924,676551,0
2096921,2096921,162232,676267,0
2096921,2096921,162090,675970,0
2096921,2096921,161797,676327,0
2096921,2096921,161843,676428,0
2096921,2096921,161622,676362,0
2096921,2096921,161729,676073,0
2096921,2096921,161770,676387,0
2096921,2096921,161907,676805,0
2096921,2096921,161904,676778,0
2096921,2096921,161824,676556,0
2096921,2096921,162016,676892,0
2096921,2096921,162002,676844,0
2096921,2096921,161808,676689,0
2096921,2096921,162005,676867,0
2096921,2096921,162304,676687,0
2096921,2096921,161957,677007,0
2096921,2096921,161747,676854,0
2096921,2096921,162206,676968,0
2096921,2096921,161821,677015,0
2096921,2096921,161849,676773,0
2096921,2096921,162173,676917,0
2096921,2096921,162036,676975,0
2096921,2096921,162175,676887,0
2096921,2096921,161992,677303,0
2096921,2096921,162131,677139,0
2096921,2096921,161941,677037,0
2096921,2096921,162298,677506,0
2096921,2096921,162257,677115,0
2096921,2096921,162081,677233,0
2096921,2096921,162230,677301,0
2096921,2096921,162147,677501,0
2096921,2096921,162614,677293,0
2096921,2096921,162373,677458,0
2096921,2096921,162240,677638,0
2096921,2096921,162053,677479,0
2096921,2096921,162218,677229,0
2096921,2096921,162140,677488,0
2096921,2096921,162271,677530,0
2096921,2096921,162341,677303,0
2096921,2096921,162337,677531,0
2096921,2096921,162345,677634,0
2096921,2096921,162165,677046,0
2096921,2096921,162174,677416,0
2096921,2096921,162019,677615,0
2096921,2096921,162213,677495,0
2096921,2096921,162336,677688,0
2096921,2096921,162308,677395,0
2096921,2096921,162500,677797,0
2096921,2096921,162372,677611,0
2096921,2096921,162507,677744,0
2096921,2096921,162586,677898,0
2096921,2096921,162750,677771,0
2096921,2096921,162493,677882,0
2096921,2096921,162294,677874,0
2096921,2096921,162474,677945,0
2096921,2096921,162287,678060,0
2096921,2096921,162371,678169,0
2096921,2096921,162431,678061,0
2096921,2096921,162715,678195,0
2096921,2096921,162461,678128,0
2096921,2096921,162452,677888,0
2096921,2096921,162264,678030,0
2096921,2096921,162351,678159,0
2096921,2096921,162589,678256,0
2096921,2096921,162742,678058,0
2096921,2096921,162590,678033,0
2096921,2096921,162645,678226,0
2096921,2096921,162452,678302,0
2096921,2096921,162500,678420,0
2096921,2096921,162431,678135,0
2096921,2096921,162537,678145,0
2096921,2096921,162726,678254,0
2096921,2096921,162521,678499,0
2096921,2096921,162627,678256,0
2096921,2096921,162762,678460,0
2096921,2096921,162507,678518,0
2096921,2096921,162325,678602,0
2096921,2096921,162452,678535,0
2096921,2096921,162612,678384,0
2096921,2096921,162818,678650,0
2096921,2096921,162814,678572,0
2096921,2096921,162664,678565,0
2096921,2096921,162866,678537,0
2096921,2096921,163145,678644,0
2096921,2096921,162524,678280,0
2096921,2096921,162754,678560,0
2096921,2096921,162445,678376,0
2096921,2096921,162596,678641,0
2096921,2096921,162647,678467,0
2096921,2096921,162692,678502,0
2096921,2096921,162718,678723,0
2096921,2096921,162664,678622,0
2096921,2096921,162598,678856,0
2096921,2096921,162613,678636,0
2096921,2096921,162546,678474,0
2096921,2096921,162481,678414,0
2096921,2096921,162755,678665,0
2096921,2096921,162419,678635,0
2096921,2096921,162767,678539,0
2096921,2096921,162699,678875,0
2096921,2096921,162520,678740,0
2096921,2096921,162683,678616,0
2096921,2096921,162957,678806,0
2096921,2096921,162852,678600,0
2096921,2096921,162883,678723,0
2096921,2096921,162799,678998,0
2096921,2096921,162794,678579,0
2096921,2096921,162973,679061,0
2096921,2096921,162684,678742,0
2096921,2096921,162912,678764,0
2096921,2096921,162552,678891,0
2096921,2096921,162609,678655,0
2096921,2096921,162837,678719,0
2096921,2096921,162821,678671,0
2096921,2096921,162674,678809,0
2096921,2096921,162742,678861,0
2096921,2096921,162767,678977,0
2096921,2096921,162701,679099,0
2096921,2096921,162983,679057,0
2096921,2096921,162733,678982,0
2096921,2096921,162718,678942,0
2096921,2096921,162918,679054,0
2096921,2096921,162704,679037,0
2096921,2096921,162957,678683,0
2096921,2096921,163054,678797,0
2096921,2096921,162874,678906,0
2096921,2096921,162937,678863,0
2096921,2096921,162999,678872,0
2096921,2096921,162640,678896,0
2096921,2096921,162561,678738,0
2096921,2096921,162696,678879,0
2096921,2096921,162679,678827,0
2096921,2096921,162795,678836,0
2096921,2096921,162666,678884,0
2096921,2096921,162807,679060,0
2096921,2096921,162790,679046,0
2096921,2096921,162862,679108,0
2096921,2096921,162762,678887,0
2096921,2096921,162664,678954,0
2096921,2096921,162906,678998,0
2096921,2096921,162709,678941,0
2096921,2096921,162723,678892,0
2096921,2096921,162589,678670,0
2096921,2096921,162825,678718,0
2096921,2096921,162632,678771,0
2096921,2096921,162572,679122,0
2096921,2096921,162759,678941,0
2096921,2096921,162810,678618,0
2096921,2096921,162913,679096,0
2096921,2096921,162715,678782,0
2096921,2096921,162779,679031,0
2096921,2096921,162581,678955,0
2096921,2096921,162517,678117,0
2096921,2096921,162526,678093,0
2096921,2096921,162545,678091,0
2096921,2096921,162557,678029,0
2096921,2096921,162222,678231,0
2096921,2096921,162656,677910,0
2096921,2096921,162460,677825,0
2096921,2096921,162137,677989,0
2096921,2096921,161968,677657,0
2096921,2096921,162284,677781,0
2096921,2096921,162119,677000,0
2096921,2096921,162081,676721,0
2096921,2096921,162059,676768,0
2096921,2096921,161868,676944,0
2096921,2096921,161783,677138,0
2096921,2096921,161704,676206,0
2096921,2096921,161481,675884,0
2096921,2096921,161831,675797,0
2096921,2096921,162000,675565,0
2096921,2096921,161833,675548,0
2096921,2096921,161309,674565,0
2096921,2096921,161246,674572,0
2096921,2096921,161210,674049,0
2096921,2096921,161269,674180,0
2096921,2096921,161196,674399,0
2096921,2096921,160230,672173,0
2096921,2096921,159849,671961,0
2096921,2096921,160078,671615,0
2096921,2096921,160553,671790,0
2096921,2096921,160460,671346,0
2096921,2096921,159491,668870,0
2096921,2096921,158657,668483,0
2096921,2096921,158718,668472,0
2096921,2096921,158767,668518,0
2096921,2096921,158848,668168,0
2096921,2096921,158175,665954,0
2096921,2096921,157887,665621,0
2096921,2096921,158061,665664,0
2096921,2096921,158024,665588,0
2096921,2096921,158109,665757,0
2096921,2096921,157368,664126,0
2096921,2096921,157228,663887,0
2096921,2096921,157476,663456,0
2096921,2096921,157171,663718,0
2096921,2096921,157039,663528,0
2096921,2096921,156792,662315,0
2096921,2096921,156732,662225,0
2096921,2096921,156780,662046,0
2096921,2096921,156738,662207,0
2096921,2096921,156469,662470,0
2096921,2096921,156146,661438,0
2096921,2096921,155937,660875,0
2096921,2096921,156077,661138,0
2096921,2096921,156252,661035,0
2096921,2096921,156097,661032,0
2096921,2096921,155977,660294,0
2096921,2096921,156074,660500,0
2096921,2096921,156095,660820,0
2096921,2096921,156143,660515,0
2096921,2096921,156119,660483,0
2096921,2096921,155691,660270,0
2096921,2096921,155860,660185,0
2096921,2096921,155712,660173,0
2096921,2096921,155444,659954,0
2096921,2096921,155548,659712,0
2096921,2096921,155878,659818,0
2096921,2096921,155595,659802,0
2096921,2096921,155417,659744,0
2096921,2096921,155774,659770,0
2096921,2096921,155775,659726,0
2096921,2096921,155880,659775,0
2096921,2096921,155963,659947,0
2096921,2096921,155701,659685,0
2096921,2096921,155508,659752,0
2096921,2096921,155642,659927,0
2096921,2096921,156046,659759,0
2096921,2096921,155862,659887,0
2096921,2096921,155891,660109,0
2096921,2096921,156032,659911,0
2096921,2096921,155612,660081,0
2096921,2096921,155685,660025,0
2096921,2096921,155929,659868,0
2096921,2096921,155883,660278,0
2096921,2096921,155782,660172,0
2096921,2096921,155893,660160,0
2096921,2096921,155945,660114,0
2096921,2096921,155842,660364,0
2096921,2096921,155829,660353,0
2096921,2096921,156003,660241,0
2096921,2096921,155935,660160,0
2096921,2096921,156269,660209,0
2096921,2096921,156176,660648,0
2096921,2096921,156270,660587,0
2096921,2096921,156177,660818,0
2096921,2096921,156225,660820,0
2096921,2096921,156294,661368,0
2096921,2096921,156232,661433,0
2096921,2096921,156316,661420,0
2096921,2096921,156208,661350,0
2096921,2096921,156290,661178,0
2096921,2096921,156553,661468,0
2096921,2096921,156656,661756,0
2096921,2096921,156339,661582,0
2096921,2096921,156495,661927,0
2096921,2096921,156471,661862,0
2096921,2096921,156630,662208,0
2096921,2096921,156604,662500,0
2096921,2096921,156677,662423,0
2096921,2096921,156646,662500,0
2096921,2096921,156648,662246,0
2096921,2096921,156572,662659,0
2096921,2096921,157089,662824,0
2096921,2096921,156829,662918,0
2096921,2096921,156903,662651,0
2096921,2096921,156842,662563,0
2096921,2096921,157232,663049,0
2096921,2096921,157284,663323,0
2096921,2096921,156824,663481,0
2096921,2096921,157197,663399,0
2096921,2096921,157013,663278,0
2096921,2096921,157477,663954,0
2096921,2096921,157072,663761,0
2096921,2096921,157362,663938,0
2096921,2096921,157276,663897,0
2096921,2096921,157694,663870,0
2096921,2096921,157888,664304,0
2096921,2096921,157423,664580,0
2096921,2096921,157569,664614,0
2096921,2096921,157598,664529,0
2096921,2096921,157608,664581,0
2096921,2096921,157680,664874,0
2096921,2096921,157648,664863,0
2096921,2096921,157838,664827,0
2096921,2096921,157747,664582,0
2096921,2096921,157689,665258,0
2096921,2096921,157953,665511,0
2096921,2096921,157974,665401,0
2096921,2096921,157826,665613,0
2096921,2096921,157862,665575,0
2096921,2096921,157867,665398,0
2096921,2096921,157952,666112,0
2096921,2096921,157990,666020,0
2096921,2096921,158124,665769,0
2096921,2096921,157982,665933,0
2096921,2096921,158322,665990,0
2096921,2096921,158311,666522,0
2096921,2096921,158661,666414,0
2096921,2096921,158274,666580,0
2096921,2096921,158374,666650,0
2096921,2096921,158276,666723,0
2096921,2096921,158411,666904,0
2096921,2096921,158551,667105,0
2096921,2096921,158522,666846,0
2096921,2096921,158668,667242,0
2096921,2096921,158240,666953,0
2096921,2096921,158527,667317,0
2096921,2096921,158638,667411,0
2096921,2096921,158802,667628,0
2096921,2096921,158625,667457,0
2096921,2096921,158715,667810,0
2096921,2096921,158548,667694,0
2096921,2096921,158450,667691,0
2096921,2096921,158692,667647,0
2096921,2096921,158908,667720,0
2096921,2096921,158834,667772,0
2096921,2096921,158873,667862,0
2096921,2096921,158580,667851,0
2096921,2096921,159047,668104,0
2096921,2096921,159025,667846,0
2096921,2096921,158925,667610,0
2096921,2096921,158674,667901,0
2096921,2096921,158668,667684,0
2096921,2096921,158905,667929,0
2096921,2096921,158906,668022,0
2096921,2096921,159415,667835,0
2096921,2096921,159137,667781,0
2096921,2096921,158872,668018,0
2096921,2096921,159096,667873,0
2096921,2096921,159050,667697,0
2096921,2096921,158710,667941,0
2096921,2096921,158990,667820,0
2096921,2096921,159137,668011,0
2096921,2096921,158829,667559,0
2096921,2096921,158785,667812,0
2096921,2096921,158838,668038,0
2096921,2096921,158975,667939,0
2096921,2096921,158789,667800,0
2096921,2096921,158853,667537,0
2096921,2096921,158880,667731,0
2096921,2096921,158712,667616,0
2096921,2096921,158707,667164,0
2096921,2096921,158834,667523,0
2096921,2096921,158882,667355,0
2096921,2096921,158736,667403,0
2096921,2096921,158479,667249,0
2096921,2096921,158702,666865,0
2096921,2096921,159022,666929,0
2096921,2096921,158657,666834,0
2096921,2096921,158632,666984,0
2096921,2096921,158641,666844,0
2096921,2096921,158600,666734,0
2096921,2096921,158457,666486,0
2096921,2096921,158342,666709,0
2096921,2096921,158358,666857,0
2096921,2096921,158334,666362,0
2096921,2096921,158272,666508,0
2096921,2096921,158345,666387,0
2096921,2096921,158355,666359,0
2096921,2096921,158613,666536,0
2096921,2096921,158702,666401,0
2096921,2096921,158251,666512,0
2096921,2096921,158316,666332,0
2096921,2096921,158335,666198,0
2096921,2096921,158375,666388,0
2096921,2096921,158313,666274,0
2096921,2096921,158507,666122,0
2096921,2096921,158320,666222,0
2096921,2096921,158462,666503,0
2096921,2096921,158333,666263,0
2096921,2096921,158306,666172,0
2096921,2096921,158514,666247,0
2096921,2096921,158302,666335,0
2096921,2096921,158404,666090,0
2096921,2096921,158571,666040,0
2096921,2096921,158244,666042,0
2096921,2096921,158288,666249,0
2096921,2096921,158433,666271,0
2096921,2096921,158461,666638,0
2096921,2096921,158401,666383,0
2096921,2096921,158385,666422,0
2096921,2096921,158587,666636,0
2096921,2096921,158399,666498,0
2096921,2096921,158291,666476,0
2096921,2096921,158489,666476,0
2096921,2096921,158371,666713,0
2096921,2096921,158548,666923,0
2096921,2096921,158406,666766,0
2096921,2096921,158261,666662,0
2096921,2096921,158350,666710,0
2096921,2096921,158527,666763,0
2096921,2096921,158554,666957,0
2096921,2096921,158868,667008,0
2096921,2096921,158758,666974,0
2096921,2096921,158741,667263,0
2096921,2096921,158719,666949,0
2096921,2096921,158648,667495,0
2096921,2096921,158781,667710,0
2096921,2096921,158976,667545,0
2096921,2096921,158975,667497,0
2096921,2096921,159116,667574,0
2096921,2096921,158946,667828,0
2096921,2096921,158789,667855,0
2096921,2096921,158723,667727,0
2096921,2096921,158804,667916,0
2096921,2096921,158882,667781,0
2096921,2096921,158758,668182,0
2096921,2096921,158943,668079,0
2096921,2096921,159136,668069,0
2096921,2096921,159064,668190,0
2096921,2096921,159034,668199,0
2096921,2096921,158880,668226,0
2096921,2096921,158989,668338,0
2096921,2096921,158957,668205,0
2096921,2096921,159188,668282,0
2096921,2096921,159128,668483,0
2096921,2096921,159535,668542,0
2096921,2096921,159505,668590,0
2096921,2096921,159391,668890,0
2096921,2096921,159503,668560,0
2096921,2096921,159372,668307,0
2096921,2096921,159552,668779,0
2096921,2096921,159295,668767,0
2096921,2096921,159258,668503,0
2096921,2096921,159653,668745,0
2096921,2096921,159218,668699,0
2096921,2096921,159308,668882,0
2096921,2096921,159602,669119,0
2096921,2096921,159582,669144,0
2096921,2096921,159255,669181,0
2096921,2096921,159660,669242,0
2096921,2096921,159682,669400,0
2096921,2096921,159734,669206,0
2096921,2096921,159674,669489,0
2096921,2096921,159478,669204,0
2096921,2096921,159468,669164,0
2096921,2096921,159735,669553,0
2096921,2096921,160014,669675,0
2096921,2096921,160003,669580,0
2096921,2096921,160107,669564,0
2096921,2096921,160006,669642,0
2096921,2096921,160038,669816,0
2096921,2096921,160103,669749,0
2096921,2096921,160032,670000,0
2096921,2096921,159949,669909,0
2096921,2096921,159846,669701,0
2096921,2096921,160243,669761,0
2096921,2096921,159986,670140,0
2096921,2096921,160109,670247,0
2096921,2096921,160001,670157,0
2096921,2096921,159858,670305,0
2096921,2096921,160111,670225,0
2096921,2096921,160258,670044,0
2096921,2096921,160025,670503,0
2096921,2096921,160115,670409,0
2096921,2096921,160126,670682,0
2096921,2096921,160291,670526,0
2096921,2096921,160104,670571,0
2096921,2096921,160018,670850,0
2096921,2096921,160491,670668,0
2096921,2096921,160030,670703,0
2096921,2096921,160341,670693,0
2096921,2096921,160191,670780,0
2096921,2096921,160306,670765,0
2096921,2096921,160178,670861,0
2096921,2096921,160224,671094,0
2096921,2096921,160325,671210,0
2096921,2096921,160509,671309,0
2096921,2096921,160491,671264,0
2096921,2096921,160547,670754,0
2096921,2096921,160421,671016,0
2096921,2096921,160435,671151,0
2096921,2096921,160268,671089,0
2096921,2096921,160387,671185,0
2096921,2096921,160374,671041,0
2096921,2096921,160345,671295,0
2096921,2096921,160144,671392,0
2096921,2096921,160362,671461,0
2096921,2096921,160297,671380,0
2096921,2096921,160460,671232,0
2096921,2096921,160413,671394,0
2096921,2096921,160521,671437,0
2096921,2096921,160787,671469,0
2096921,2096921,160598,671463,0
2096921,2096921,160537,671490,0
2096921,2096921,160495,671449,0
2096921,2096921,160688,671577,0
2096921,2096921,160504,671589,0
2096921,2096921,160528,671730,0
2096921,2096921,160658,671633,0
2096921,2096921,160490,671617,0
2096921,2096921,160839,672190,0
2096921,2096921,160651,671662,0
2096921,2096921,160524,671495,0
2096921,2096921,160419,671535,0
2096921,2096921,160510,671736,0
2096921,2096921,160766,671763,0
2096921,2096921,160734,671908,0
2096921,2096921,160564,671870,0
2096921,2096921,160490,671798,0
2096921,2096921,160463,672045,0
2096921,2096921,160723,671993,0
2096921,2096921,160814,672315,0
2096921,2096921,160765,672374,0
2096921,2096921,160695,671992,0
2096921,2096921,160799,671890,0
2096921,2096921,160663,672251,0
2096921,2096921,160607,672246,0
2096921,2096921,160719,672164,0
2096921,2096921,160818,672192,0
2096921,2096921,160805,672181,0
2096921,2096921,160700,672121,0
2096921,2096921,160814,671952,0
2096921,2096921,160863,672274,0
2096921,2096921,160875,672255,0
2096921,2096921,161009,672139,0
2096921,2096921,160999,672029,0
2096921,2096921,160792,672173,0
2096921,2096921,160692,672417,0
2096921,2096921,160846,672335,0
2096921,2096921,160837,672461,0
2096921,2096921,160885,672509,0
2096921,2096921,160973,672453,0
2096921,2096921,161003,672051,0
2096921,2096921,161080,672533,0
2096921,2096921,160938,672444,0
2096921,2096921,160878,672409,0
2096921,2096921,160918,672327,0
2096921,2096921,161231,672395,0
2096921,2096921,160979,672492,0
2096921,2096921,160589,672740,0
2096921,2096921,160774,672254,0
2096921,2096921,161077,672579,0
2096921,2096921,160869,672433,0
2096921,2096921,160896,672446,0
2096921,2096921,160822,672515,0
2096921,2096921,161064,672240,0
2096921,2096921,161062,672662,0
2096921,2096921,161037,672566,0
2096921,2096921,161189,672778,0
2096921,2096921,161077,672784,0
2096921,2096921,160892,672644,0
2096921,2096921,160931,672292,0
2096921,2096921,161413,672515,0
2096921,2096921,160911,672566,0
2096921,2096921,161218,672674,0
2096921,2096921,161005,672934,0
2096921,2096921,161123,672710,0
2096921,2096921,161326,672610,0
2096921,2096921,160934,672595,0
2096921,2096921,160962,672496,0
2096921,2096921,160803,672565,0
2096921,2096921,160798,672560,0
2096921,2096921,161153,672494,0
2096921,2096921,161206,672623,0
2096921,2096921,161293,672765,0
2096921,2096921,161253,672711,0
2096921,2096921,160879,672942,0
2096921,2096921,161009,672613,0
2096921,2096921,160897,672719,0
2096921,2096921,161108,672847,0
2096921,2096921,160905,672604,0
2096921,2096921,161232,672729,0
2096921,2096921,161101,673127,0
2096921,2096921,160969,672715,0
2096921,2096921,160941,672712,0
2096921,2096921,160877,672646,0
2096921,2096921,161319,672936,0
2096921,2096921,161146,672856,0
2096921,2096921,161172,672801,0
2096921,2096921,161245,672702,0
2096921,2096921,161115,672725,0
2096921,2096921,161027,672862,0
2096921,2096921,161404,672976,0
2096921,2096921,161047,673106,0
2096921,2096921,161387,672894,0
2096921,2096921,161085,673113,0
2096921,2096921,160972,672933,0
2096921,2096921,161054,673019,0
2096921,2096921,161357,672872,0
2096921,2096921,161060,673059,0
2096921,2096921,161276,673055,0
2096921,2096921,161372,673024,0
2096921,2096921,161192,672775,0
2096921,2096921,161241,672796,0
2096921,2096921,161358,672914,0
2096921,2096921,161409,672572,0
2096921,2096921,161082,672717,0
2096921,2096921,161228,672833,0
2096921,2096921,161450,672797,0
2096921,2096921,161037,673294,0
2096921,2096921,161304,673326,0
2096921,2096921,161357,673077,0
2096921,2096921,161170,673087,0
2096921,2096921,161503,672862,0
2096921,2096921,161230,673134,0
2096921,2096921,161269,672808,0
2096921,2096921,161413,673117,0
2096921,2096921,161238,673191,0
2096921,2096921,161346,672867,0
2096921,2096921,161064,672881,0
2096921,2096921,161200,673215,0
2096921,2096921,161140,673086,0
2096921,2096921,161172,672853,0
2096921,2096921,161158,672996,0
2096921,2096921,161197,672912,0
2096921,2096921,161276,673007,0
2096921,2096921,161439,672942,0
2096921,2096921,161370,672913,0
2096921,2096921,161523,672682,0
2096921,2096921,161405,672960,0
2096921,2096921,161508,672876,0
2096921,2096921,161629,672609,0
2096921,2096921,161423,672655,0
2096921,2096921,161262,672685,0
2096921,2096921,161091,673037,0
2096921,2096921,161399,673057,0
2096921,2096921,161255,672732,0
2096921,2096921,161052,672660,0
2096921,2096921,161078,672920,0
2096921,2096921,161019,672538,0
2096921,2096921,161089,672441,0
2096921,2096921,161029,672334,0
2096921,2096921,160933,672914,0
2096921,2096921,161145,672518,0
2096921,2096921,161442,672622,0
2096921,2096921,161332,672606,0
2096921,2096921,161328,672616,0
2096921,2096921,161180,672799,0
2096921,2096921,161153,672378,0
2096921,2096921,161178,672621,0
2096921,2096921,161043,672492,0
2096921,2096921,161162,673117,0
2096921,2096921,161275,672720,0
2096921,2096921,161283,672656,0
2096921,2096921,161124,672516,0
2096921,2096921,160871,672717,0
2096921,2096921,161071,672530,0
2096921,2096921,161212,672543,0
2096921,2096921,161075,672481,0
2096921,2096921,161237,672277,0
2096921,2096921,161259,672153,0
2096921,2096921,160967,672691,0
2096921,2096921,161322,672545,0
2096921,2096921,160999,672770,0
2096921,2096921,160901,672338,0
2096921,2096921,161109,672290,0
2096921,2096921,161246,672651,0
2096921,2096921,161157,672441,0
2096921,2096921,161196,672576,0
2096921,2096921,160913,672642,0
2096921,2096921,160776,672046,0
2096921,2096921,160784,672053,0
2096921,2096921,160766,671534,0
2096921,2096921,160656,671524,0
2096921,2096921,160873,671839,0
2096921,2096921,160582,671417,0
2096921,2096921,160946,671134,0
2096921,2096921,160885,671219,0
2096921,2096921,160833,671421,0
2096921,2096921,160768,671403,0
2096921,2096921,160368,670615,0
2096921,2096921,160283,670736,0
2096921,2096921,160329,670181,0
2096921,2096921,160468,670279,0
2096921,2096921,160538,670406,0
2096921,2096921,160060,669420,0
2096921,2096921,160400,669445,0
2096921,2096921,160070,669518,0
2096921,2096921,159940,669379,0
2096921,2096921,159986,669134,0
2096921,2096921,159620,668147,0
2096921,2096921,159425,667749,0
2096921,2096921,159477,667787,0
2096921,2096921,159438,667914,0
2096921,2096921,159410,668212,0
2096921,2096921,158862,666032,0
2096921,2096921,158822,665429,0
2096921,2096921,158608,665332,0
2096921,2096921,158364,665249,0
2096921,2096921,158574,665389,0
2096921,2096921,157834,662445,0
2096921,2096921,157207,662038,0
2096921,2096921,157351,662072,0
2096921,2096921,157403,661862,0
2096921,2096921,157423,661722,0
2096921,2096921,156559,660065,0
2096921,2096921,156372,659681,0
2096921,2096921,156293,659431,0
2096921,2096921,156379,659495,0
2096921,2096921,156188,659480,0
2096921,2096921,155691,657786,0
2096921,2096921,155703,657506,0
2096921,2096921,155486,657506,0
2096921,2096921,155113,657406,0
2096921,2096921,155446,657313,0
2096921,2096921,155352,656233,0
2096921,2096921,155382,656183,0
2096921,2096921,155048,655921,0
2096921,2096921,155122,655917,0
2096921,2096921,154883,655738,0
2096921,2096921,154860,654972,0
2096921,2096921,154659,654821,0
2096921,2096921,154273,654949,0
2096921,2096921,154550,654675,0
2096921,2096921,154591,654873,0
2096921,2096921,154241,654180,0
2096921,2096921,154336,653965,0
2096921,2096921,154543,653861,0
2096921,2096921,154565,654395,0
2096921,2096921,154475,653951,0
2096921,2096921,154065,653734,0
2096921,2096921,154229,653725,0
2096921,2096921,154172,653886,0
2096921,2096921,154104,653703,0
2096921,2096921,154235,653501,0
2096921,2096921,154132,653470,0
2096921,2096921,154297,653667,0
2096921,2096921,154375,653784,0
2096921,2096921,154062,653611,0
2096921,2096921,153895,653476,0
2096921,2096921,153944,653701,0
2096921,2096921,154301,653684,0
2096921,2096921,154143,653530,0
2096921,2096921,153995,653428,0
2096921,2096921,154085,653484,0
2096921,2096921,154424,653666,0
2096921,2096921,154310,653774,0
2096921,2096921,154371,653570,0
2096921,2096921,154387,653843,0
2096921,2096921,154172,653753,0
2096921,2096921,154370,653909,0
2096921,2096921,154271,653937,0
2096921,2096921,154441,654014,0
2096921,2096921,154348,654117,0
2096921,2096921,154341,653768,0
2096921,2096921,154412,654017,0
2096921,2096921,154715,653946,0
2096921,2096921,154473,654200,0
2096921,2096921,154466,654460,0
2096921,2096921,154275,654102,0
2096921,2096921,154444,654596,0
2096921,2096921,154526,654621,0
2096921,2096921,154483,654467,0
2096921,2096921,154830,654575,0
2096921,2096921,154640,654821,0
2096921,2096921,154786,655509,0
2096921,2096921,154640,655224,0
2096921,2096921,155390,655177,0
2096921,2096921,154656,655247,0
2096921,2096921,154746,655507,0
2096921,2096921,154727,655933,0
2096921,2096921,155032,655886,0
2096921,2096921,154908,655887,0
2096921,2096921,154895,655788,0
2096921,2096921,154743,655803,0
2096921,2096921,155282,656459,0
2096921,2096921,155048,656593,0
2096921,2096921,155163,656463,0
2096921,2096921,155137,656467,0
2096921,2096921,155119,656367,0
2096921,2096921,155432,656698,0
2096921,2096921,155655,656844,0
2096921,2096921,155468,656904,0
2096921,2096921,155538,656892,0
2096921,2096921,155315,657117,0
2096921,2096921,155604,657662,0
2096921,2096921,156179,657589,0
2096921,2096921,155843,657618,0
2096921,2096921,155823,657671,0
2096921,2096921,155793,657704,0
2096921,2096921,155888,658141,0
2096921,2096921,155655,658240,0
2096921,2096921,155717,658198,0
2096921,2096921,155814,658274,0
2096921,2096921,156111,657861,0
2096921,2096921,156283,658619,0
2096921,2096921,155930,658672,0
2096921,2096921,156036,658243,0
2096921,2096921,156259,658400,0
2096921,2096921,156243,658665,0
2096921,2096921,156091,658932,0
2096921,2096921,156331,659347,0
2096921,2096921,156421,659104,0
2096921,2096921,156409,659129,0
2096921,2096921,156188,659048,0
2096921,2096921,156436,659627,0
2096921,2096921,156586,659785,0
2096921,2096921,156626,660058,0
2096921,2096921,156800,659932,0
2096921,2096921,156766,659836,0
2096921,2096921,156778,660225,0
2096921,2096921,156843,660295,0
2096921,2096921,157070,660547,0
2096921,2096921,156689,660308,0
2096921,2096921,156698,660407,0
2096921,2096921,156925,661150,0
2096921,2096921,156927,661030,0
2096921,2096921,157324,661100,0
2096921,2096921,157021,661282,0
2096921,2096921,157043,661254,0
2096921,2096921,157177,661436,0
2096921,2096921,157223,661704,0
2096921,2096921,156933,661454,0
2096921,2096921,156679,661328,0
2096921,2096921,157014,661452,0
2096921,2096921,157320,662017,0
2096921,2096921,157359,662493,0
2096921,2096921,157450,662016,0
2096921,2096921,157073,662084,0
2096921,2096921,157427,662096,0
2096921,2096921,157365,662222,0
2096921,2096921,157310,662088,0
2096921,2096921,157525,662172,0
2096921,2096921,157714,662421,0
2096921,2096921,157679,662472,0
2096921,2096921,157351,662393,0
2096921,2096921,157375,662494,0
2096921,2096921,157745,662802,0
2096921,2096921,157739,662539,0
2096921,2096921,157885,662685,0
2096921,2096921,157663,662645,0
2096921,2096921,157604,662764,0
2096921,2096921,157703,662803,0
2096921,2096921,157533,662832,0
2096921,2096921,157688,662627,0
2096921,2096921,157770,662883,0
2096921,2096921,157606,662547,0
2096921,2096921,157699,662914,0
2096921,2096921,157740,662889,0
2096921,2096921,157671,662890,0
2096921,2096921,157584,663042,0
2096921,2096921,157567,662871,0
2096921,2096921,157517,662896,0
2096921,2096921,157496,663040,0
2096921,2096921,157631,662824,0
2096921,2096921,157465,662793,0
2096921,2096921,157399,662474,0
2096921,2096921,157821,662575,0
2096921,2096921,157746,662762,0
2096921,2096921,157661,662633,0
2096921,2096921,157614,662676,0
2096921,2096921,157381,662562,0
2096921,2096921,157636,662557,0
2096921,2096921,157224,662584,0
2096921,2096921,157620,662241,0
2096921,2096921,157454,662240,0
2096921,2096921,157672,662013,0
2096921,2096921,157381,662081,0
2096921,2096921,157354,662009,0
2096921,2096921,157452,661943,0
2096921,2096921,157233,662049,0
2096921,2096921,157121,661834,0
2096921,2096921,157321,661831,0
2096921,2096921,157080,662090,0
2096921,2096921,157452,661879,0
2096921,2096921,157275,661946,0
2096921,2096921,157214,661912,0
2096921,2096921,157392,661930,0
2096921,2096921,157396,661871,0
2096921,2096921,157175,662001,0
2096921,2096921,157240,661931,0
2096921,2096921,157197,661899,0
2096921,2096921,156995,661662,0
2096921,2096921,157207,661970,0
2096921,2096921,157293,661722,0
2096921,2096921,157266,661881,0
2096921,2096921,157376,661960,0
2096921,2096921,157466,662042,0
2096921,2096921,157139,661876,0
2096921,2096921,157024,661795,0
2096921,2096921,157467,662028,0
2096921,2096921,157323,661998,0
2096921,2096921,157423,661778,0
2096921,2096921,157172,662161,0
2096921,2096921,157252,661990,0
2096921,2096921,157521,662089,0
2096921,2096921,157452,662294,0
2096921,2096921,157566,662259,0
2096921,2096921,157372,662172,0
2096921,2096921,157317,662050,0
2096921,2096921,157498,662222,0
2096921,2096921,157351,662259,0
2096921,2096921,157412,661861,0
2096921,2096921,157435,662134,0
2096921,2096921,157271,662009,0
2096921,2096921,157620,662497,0
2096921,2096921,157457,662803,0
2096921,2096921,157476,662699,0
2096921,2096921,157705,662752,0
2096921,2096921,157432,662633,0
2096921,2096921,157531,663041,0
2096921,2096921,157847,662853,0
2096921,2096921,157628,663250,0
2096921,2096921,157864,663238,0
2096921,2096921,157739,662738,0
2096921,2096921,157759,663229,0
2096921,2096921,158326,663655,0
2096921,2096921,158104,663853,0
2096921,2096921,157978,663392,0
2096921,2096921,157777,663535,0
2096921,2096921,158001,663658,0
2096921,2096921,157922,663756,0
2096921,2096921,158008,663937,0
2096921,2096921,157834,663912,0
2096921,2096921,157802,663775,0
2096921,2096921,158242,664152,0
2096921,2096921,158140,664294,0
2096921,2096921,158099,664233,0
2096921,2096921,158228,664228,0
2096921,2096921,158030,664502,0
2096921,2096921,158241,664452,0
2096921,2096921,158446,664740,0
2096921,2096921,158351,664802,0
2096921,2096921,158571,664724,0
2096921,2096921,158191,664982,0
2096921,2096921,158567,665015,0
2096921,2096921,158723,665002,0
2096921,2096921,158442,664979,0
2096921,2096921,158299,664918,0
2096921,2096921,158429,665149,0
2096921,2096921,158263,665386,0
2096921,2096921,158383,665068,0
2096921,2096921,158668,665207,0
2096921,2096921,158468,665126,0
2096921,2096921,158230,665304,0
2096921,2096921,158355,665441,0
2096921,2096921,158774,665520,0
2096921,2096921,158992,665953,0
2096921,2096921,158717,665879,0
2096921,2096921,158668,665586,0
2096921,2096921,158808,665936,0
2096921,2096921,158926,666145,0
2096921,2096921,159116,666326,0
2096921,2096921,158975,666014,0
2096921,2096921,158628,666240,0
2096921,2096921,158581,666441,0
2096921,2096921,158905,666518,0
2096921,2096921,158903,666717,0
2096921,2096921,159235,666473,0
2096921,2096921,159134,666761,0
2096921,2096921,159065,666959,0
2096921,2096921,159143,667060,0
2096921,2096921,159301,666804,0
2096921,2096921,159342,666672,0
2096921,2096921,159028,666684,0
2096921,2096921,159329,667022,0
2096921,2096921,159134,667166,0
2096921,2096921,158993,667370,0
2096921,2096921,159276,667163,0
2096921,2096921,159217,666931,0
2096921,2096921,159507,667300,0
2096921,2096921,159596,667403,0
2096921,2096921,159486,667416,0
2096921,2096921,158811,667421,0
2096921,2096921,159289,667640,0
2096921,2096921,159187,667698,0
2096921,2096921,159201,667720,0
2096921,2096921,159300,667772,0
2096921,2096921,159354,667867,0
2096921,2096921,159240,667865,0
2096921,2096921,159462,668039,0
2096921,2096921,159582,668046,0
2096921,2096921,159949,667883,0
2096921,2096921,159452,668385,0
2096921,2096921,159613,668258,0
2096921,2096921,159572,668327,0
2096921,2096921,159822,668282,0
2096921,2096921,160078,668519,0
2096921,2096921,159740,668713,0
2096921,2096921,159805,668479,0
2096921,2096921,159740,668801,0
2096921,2096921,159693,668995,0
2096921,2096921,159596,668809,0
2096921,2096921,159941,668790,0
2096921,2096921,159768,668836,0
2096921,2096921,160082,668841,0
2096921,2096921,159937,668834,0
2096921,2096921,160155,669110,0
2096921,2096921,159872,669250,0
2096921,2096921,159715,668719,0
2096921,2096921,159847,669267,0
2096921,2096921,160030,669494,0
2096921,2096921,160225,669423,0
2096921,2096921,160094,669344,0
2096921,2096921,160083,669311,0
2096921,2096921,159880,669307,0
2096921,2096921,160080,669264,0
2096921,2096921,160012,669615,0
2096921,2096921,159843,669776,0
2096921,2096921,160141,669786,0
2096921,2096921,160332,669488,0
2096921,2096921,159984,669513,0
2096921,2096921,160116,669488,0
2096921,2096921,160085,669621,0
2096921,2096921,160153,669690,0
2096921,2096921,160199,670127,0
2096921,2096921,160491,669957,0
2096921,2096921,160307,670225,0
2096921,2096921,160212,670215,0
2096921,2096921,160410,670209,0
2096921,2096921,160555,670477,0
2096921,2096921,160253,670481,0
2096921,2096921,160384,670527,0
2096921,2096921,160495,670373,0
2096921,2096921,160282,670233,0
2096921,2096921,160638,670712,0
2096921,2096921,160590,670822,0
2096921,2096921,160610,670681,0
2096921,2096921,160510,670817,0
2096921,2096921,160455,670673,0
2096921,2096921,160654,670475,0
2096921,2096921,160415,671008,0
2096921,2096921,160936,670711,0
2096921,2096921,160545,670809,0
2096921,2096921,160376,670717,0
2096921,2096921,160563,670702,0
2096921,2096921,160554,671412,0
2096921,2096921,160579,671164,0
2096921,2096921,160790,671287,0
2096921,2096921,160859,671085,0
2096921,2096921,160677,671384,0
2096921,2096921,160639,670940,0
2096921,2096921,160794,671224,0
2096921,2096921,160648,671221,0
2096921,2096921,160632,671283,0
2096921,2096921,160616,671599,0
2096921,2096921,160816,671443,0
2096921,2096921,160909,671507,0
2096921,2096921,160711,671500,0
2096921,2096921,160640,671643,0
2096921,2096921,160670,671665,0
2096921,2096921,161140,671509,0
2096921,2096921,160939,671717,0
2096921,2096921,160738,671580,0
2096921,2096921,160583,672008,0
2096921,2096921,160895,671721,0
2096921,2096921,160921,672049,0
2096921,2096921,160833,671768,0
2096921,2096921,160602,671950,0
2096921,2096921,160831,671770,0
2096921,2096921,160910,672070,0
2096921,2096921,160769,671942,0
2096921,2096921,160786,671921,0
2096921,2096921,160810,671962,0
2096921,2096921,160834,671654,0
2096921,2096921,160857,672066,0
2096921,2096921,161084,671953,0
2096921,2096921,160953,672343,0
2096921,2096921,161008,672230,0
2096921,2096921,161007,672025,0
2096921,2096921,160731,672186,0
2096921,2096921,160989,672228,0
2096921,2096921,161039,672196,0
2096921,2096921,160981,672276,0
2096921,2096921,161145,672376,0
2096921,2096921,161276,672586,0
2096921,2096921,161105,672468,0
2096921,2096921,161366,672435,0
2096921,2096921,160974,672451,0
2096921,2096921,161121,672727,0
2096921,2096921,161126,672828,0
2096921,2096921,160827,672493,0
2096921,2096921,160890,672776,0
2096921,2096921,161364,672521,0
2096921,2096921,161185,672860,0
2096921,2096921,161226,672803,0
2096921,2096921,161326,673176,0
2096921,2096921,161234,672938,0
2096921,2096921,161213,673072,0
2096921,2096921,160974,673164,0
2096921,2096921,161430,673013,0
2096921,2096921,161484,672871,0
2096921,2096921,161247,673025,0
2096921,2096921,161196,672885,0
2096921,2096921,161335,673076,0
2096921,2096921,161294,673151,0
2096921,2096921,161343,672920,0
2096921,2096921,161296,673094,0
2096921,2096921,161351,673218,0
2096921,2096921,161164,673364,0
2096921,2096921,161325,673329,0
2096921,2096921,161432,673188,0
2096921,2096921,161514,673409,0
2096921,2096921,161510,673405,0
2096921,2096921,161588,673501,0
2096921,2096921,161440,673646,0
2096921,2096921,161387,673456,0
2096921,2096921,161689,673783,0
2096921,2096921,161400,673585,0
2096921,2096921,161347,673681,0
2096921,2096921,161346,673619,0
2096921,2096921,161625,673634,0
2096921,2096921,161669,673748,0
2096921,2096921,161527,673476,0
2096921,2096921,161468,673710,0
2096921,2096921,161429,673810,0
2096921,2096921,161419,673884,0
2096921,2096921,161648,673860,0
2096921,2096921,161447,673946,0
2096921,2096921,161332,673921,0
2096921,2096921,161488,673805,0
2096921,2096921,161285,673799,0
2096921,2096921,161400,673859,0
2096921,2096921,161714,674000,0
2096921,2096921,161314,673975,0
2096921,2096921,161504,674092,0
2096921,2096921,161518,674231,0
2096921,2096921,161285,674093,0
2096921,2096921,161501,673990,0
2096921,2096921,161630,673874,0
2096921,2096921,161786,673954,0
2096921,2096921,161502,674378,0
2096921,2096921,161392,674446,0
2096921,2096921,161634,674174,0
2096921,2096921,161498,674675,0
2096921,2096921,161415,674158,0
2096921,2096921,161579,674288,0
2096921,2096921,161773,674099,0
2096921,2096921,161657,674179,0
2096921,2096921,161570,674373,0
2096921,2096921,161875,674316,0
2096921,2096921,161706,674300,0
2096921,2096921,161729,674594,0
2096921,2096921,161537,674387,0
2096921,2096921,161830,674545,0
2096921,2096921,161689,674674,0
2096921,2096921,161690,674398,0
2096921,2096921,161502,674671,0
2096921,2096921,161809,674215,0
2096921,2096921,161600,674323,0
2096921,2096921,161504,674481,0
2096921,2096921,161784,674454,0
2096921,2096921,161782,674354,0
2096921,2096921,161708,674470,0
2096921,2096921,161599,674592,0
2096921,2096921,161846,674739,0
2096921,2096921,161648,674746,0
2096921,2096921,161792,674777,0
2096921,2096921,161740,674627,0
2096921,2096921,161561,674679,0
2096921,2096921,161712,674376,0
2096921,2096921,161996,674602,0
2096921,2096921,161650,674836,0
2096921,2096921,162040,674504,0
2096921,2096921,161749,674523,0
2096921,2096921,161527,674398,0
2096921,2096921,161622,674731,0
2096921,2096921,161859,674927,0
2096921,2096921,161679,674687,0
2096921,2096921,161671,674900,0
2096921,2096921,161586,674664,0
2096921,2096921,161499,674491,0
2096921,2096921,161491,674086,0
2096921,2096921,161518,674432,0
2096921,2096921,161815,674298,0
2096921,2096921,161488,674158,0
2096921,2096921,161395,673691,0
2096921,2096921,161246,673816,0
2096921,2096921,161347,674011,0
2096921,2096921,161281,673972,0
2096921,2096921,160986,673566,0
2096921,2096921,160818,673157,0
2096921,2096921,161076,673042,0
2096921,2096921,161091,673313,0
2096921,2096921,161218,673079,0
2096921,2096921,160567,672240,0
2096921,2096921,160673,672290,0
2096921,2096921,160971,671902,0
2096921,2096921,160821,671980,0
2096921,2096921,160661,671827,0
2096921,2096921,160292,670903,0
2096921,2096921,160374,671119,0
2096921,2096921,160200,671263,0
2096921,2096921,160276,671113,0
2096921,2096921,160597,671175,0
2096921,2096921,159578,668881,0
2096921,2096921,159656,668381,0
2096921,2096921,159054,668100,0
2096921,2096921,159325,668280,0
2096921,2096921,159188,668061,0
2096921,2096921,158354,665597,0
2096921,2096921,158293,664952,0
2096921,2096921,158387,664854,0
2096921,2096921,158166,664539,0
2096921,2096921,158042,664710,0
2096921,2096921,157239,663168,0
2096921,2096921,156938,662800,0
2096921,2096921,157044,662849,0
2096921,2096921,157085,662785,0
2096921,2096921,156959,662794,0
2096921,2096921,156326,661180,0
2096921,2096921,156433,660771,0
2096921,2096921,156375,660626,0
2096921,2096921,156114,660636,0
2096921,2096921,156448,660517,0
2096921,2096921,155953,659428,0
2096921,2096921,155735,659045,0
2096921,2096921,155993,658858,0
2096921,2096921,155883,659465,0
2096921,2096921,155751,659026,0
2096921,2096921,155487,658693,0
2096921,2096921,155628,658209,0
2096921,2096921,155405,658357,0
2096921,2096921,155299,658282,0
2096921,2096921,155304,658447,0
2096921,2096921,155376,657820,0
2096921,2096921,155524,657863,0
2096921,2096921,155285,657657,0
2096921,2096921,155285,658067,0
2096921,2096921,155621,657825,0
2096921,2096921,155451,657403,0
2096921,2096921,155106,657239,0
2096921,2096921,154936,657257,0
2096921,2096921,155357,657593,0
2096921,2096921,155309,657454,0
2096921,2096921,155197,656963,0
2096921,2096921,155093,657112,0
2096921,2096921,155248,657641,0
2096921,2096921,155355,657389,0
2096921,2096921,154991,657204,0
2096921,2096921,155051,657494,0
2096921,2096921,155314,657626,0
2096921,2096921,155376,657829,0
2096921,2096921,155434,657470,0
2096921,2096921,155132,657403,0
2096921,2096921,155249,657805,0
2096921,2096921,155275,657767,0
2096921,2096921,155249,657768,0
2096921,2096921,155444,658138,0
2096921,2096921,155339,657760,0
2096921,2096921,155400,658137,0
2096921,2096921,155342,657733,0
2096921,2096921,155107,657960,0
2096921,2096921,155261,658119,0
2096921,2096921,155256,658190,0
2096921,2096921,155541,658316,0
2096921,2096921,155289,658028,0
2096921,2096921,155458,658223,0
2096921,2096921,155632,658418,0
2096921,2096921,155368,658481,0
2096921,2096921,155704,659116,0
2096921,2096921,155828,659280,0
2096921,2096921,155611,659000,0
2096921,2096921,155645,658942,0
2096921,2096921,155539,658858,0
2096921,2096921,155760,659482,0
2096921,2096921,155765,659382,0
2096921,2096921,155890,659756,0
2096921,2096921,155771,659465,0
2096921,2096921,155788,659280,0
2096921,2096921,155758,660031,0
2096921,2096921,156193,660018,0
2096921,2096921,156056,660131,0
2096921,2096921,155990,660417,0
2096921,2096921,155699,660360,0
2096921,2096921,156174,660711,0
2096921,2096921,156464,660651,0
2096921,2096921,156633,660921,0
2096921,2096921,156658,661038,0
2096921,2096921,156692,661134,0
2096921,2096921,156689,661732,0
2096921,2096921,156723,661585,0
2096921,2096921,156848,661863,0
2096921,2096921,156576,661638,0
2096921,2096921,156656,661795,0
2096921,2096921,156736,662137,0
2096921,2096921,156921,662282,0
2096921,2096921,156759,662067,0
2096921,2096921,157047,662117,0
2096921,2096921,156805,662220,0
2096921,2096921,156747,662533,0
2096921,2096921,157060,663007,0
2096921,2096921,157249,662736,0
2096921,2096921,157197,662848,0
2096921,2096921,157348,663004,0
2096921,2096921,157379,663455,0
2096921,2096921,157350,663447,0
2096921,2096921,157495,663408,0
2096921,2096921,157148,663522,0
2096921,2096921,157517,663383,0
2096921,2096921,157548,663981,0
2096921,2096921,157340,664091,0
2096921,2096921,157362,664177,0
2096921,2096921,157772,664346,0
2096921,2096921,157702,663989,0
2096921,2096921,157880,664722,0
2096921,2096921,157882,664816,0
2096921,2096921,157882,664658,0
2096921,2096921,157805,664961,0
2096921,2096921,157463,664773,0
2096921,2096921,158085,665204,0
2096921,2096921,158041,665509,0
2096921,2096921,157846,665493,0
2096921,2096921,158022,665617,0
2096921,2096921,158148,665629,0
2096921,2096921,158061,666201,0
2096921,2096921,158227,666388,0
2096921,2096921,158524,666154,0
2096921,2096921,158249,666245,0
2096921,2096921,158369,666568,0
2096921,2096921,158394,666591,0
2096921,2096921,158538,666735,0
2096921,2096921,158247,666623,0
2096921,2096921,158567,666713,0
2096921,2096921,158182,666732,0
2096921,2096921,158909,667563,0
2096921,2096921,158773,667318,0
2096921,2096921,158596,667237,0
2096921,2096921,158599,667289,0
2096921,2096921,158771,666951,0
2096921,2096921,158670,667482,0
2096921,2096921,158881,667604,0
2096921,2096921,158923,667713,0
2096921,2096921,158925,667388,0
2096921,2096921,159033,667601,0
2096921,2096921,159048,668093,0
2096921,2096921,159018,668065,0
2096921,2096921,159296,668086,0
2096921,2096921,159145,668164,0
2096921,2096921,158828,668165,0
2096921,2096921,159060,668297,0
2096921,2096921,159010,668498,0
2096921,2096921,158926,668386,0
2096921,2096921,158961,668048,0
2096921,2096921,158835,668241,0
2096921,2096921,159000,668239,0
2096921,2096921,159191,668249,0
2096921,2096921,159275,668355,0
2096921,2096921,159026,668297,0
2096921,2096921,158803,668236,0
2096921,2096921,158985,668329,0
2096921,2096921,158946,668202,0
2096921,2096921,158829,668202,0
2096921,2096921,159174,668248,0
2096921,2096921,158933,668240,0
2096921,2096921,159026,668349,0
2096921,2096921,159146,668355,0
2096921,2096921,158743,668154,0
2096921,2096921,158894,668292,0
2096921,2096921,158837,668048,0
2096921,2096921,158974,668072,0
2096921,2096921,158966,667806,0
2096921,2096921,158679,668136,0
2096921,2096921,158913,667966,0
2096921,2096921,158750,668123,0
2096921,2096921,158812,668182,0
2096921,2096921,158892,668139,0
2096921,2096921,158959,668002,0
2096921,2096921,158961,668206,0
2096921,2096921,158864,668034,0
2096921,2096921,159001,668212,0
2096921,2096921,158967,667792,0
2096921,2096921,158715,667813,0
2096921,2096921,158853,668106,0
2096921,2096921,158986,667792,0
2096921,2096921,158637,668034,0
2096921,2096921,158654,667450,0
2096921,2096921,158706,667564,0
2096921,2096921,158752,667698,0
2096921,2096921,158688,667844,0
2096921,2096921,158701,667816,0
2096921,2096921,158617,667770,0
2096921,2096921,158971,667834,0
2096921,2096921,158991,667892,0
2096921,2096921,158830,667661,0
2096921,2096921,158766,667385,0
2096921,2096921,158892,667740,0
2096921,2096921,158538,667979,0
2096921,2096921,158656,667790,0
2096921,2096921,159073,668027,0
2096921,2096921,158657,667885,0
2096921,2096921,158710,667681,0
2096921,2096921,158797,667970,0
2096921,2096921,158512,667794,0
2096921,2096921,158972,668026,0
2096921,2096921,158653,668177,0
2096921,2096921,158778,668296,0
2096921,2096921,158781,668139,0
2096921,2096921,158737,668001,0
2096921,2096921,158722,668014,0
2096921,2096921,159053,668384,0
2096921,2096921,158940,668351,0
2096921,2096921,158943,668133,0
2096921,2096921,159014,668279,0
2096921,2096921,158786,668193,0
2096921,2096921,159032,668600,0
2096921,2096921,158864,668670,0
2096921,2096921,159317,668953,0
2096921,2096921,159177,668861,0
2096921,2096921,159074,668794,0
2096921,2096921,159292,669116,0
2096921,2096921,159480,669457,0
2096921,2096921,159420,669496,0
2096921,2096921,159263,669272,0
2096921,2096921,159154,669630,0
2096921,2096921,159476,669583,0
2096921,2096921,159255,669875,0
2096921,2096921,159725,669749,0
2096921,2096921,159810,669841,0
2096921,2096921,159509,669738,0
2096921,2096921,159894,670275,0
2096921,2096921,159607,670476,0
2096921,2096921,159724,670018,0
2096921,2096921,159350,670211,0
2096921,2096921,159578,670330,0
2096921,2096921,159588,670379,0
2096921,2096921,159502,670545,0
2096921,2096921,159776,670683,0
2096921,2096921,159767,670644,0
2096921,2096921,159779,670858,0
2096921,2096921,159947,670939,0
2096921,2096921,159862,670890,0
2096921,2096921,159892,670853,0
2096921,2096921,159750,671087,0
2096921,2096921,159968,670793,0
2096921,2096921,159918,671219,0
2096921,2096921,159833,671307,0
2096921,2096921,160059,671197,0
2096921,2096921,159938,671282,0
2096921,2096921,160010,671513,0
2096921,2096921,160371,671483,0
2096921,2096921,160225,671803,0
2096921,2096921,160041,671691,0
2096921,2096921,160304,671935,0
2096921,2096921,160059,671932,0
2096921,2096921,160151,671843,0
2096921,2096921,160136,672151,0
2096921,2096921,160223,672095,0
2096921,2096921,160188,672314,0
2096921,2096921,160373,672201,0
2096921,2096921,160455,672491,0
2096921,2096921,160588,672496,0
2096921,2096921,160417,672618,0
2096921,2096921,160461,672502,0
2096921,2096921,160724,672423,0
2096921,2096921,160628,672738,0
2096921,2096921,160618,673077,0
2096921,2096921,160692,673210,0
2096921,2096921,160268,672730,0
2096921,2096921,160394,672959,0
2096921,2096921,160564,673384,0
2096921,2096921,160655,673261,0
2096921,2096921,160532,673163,0
2096921,2096921,160651,673323,0
2096921,2096921,160590,672997,0
2096921,2096921,160856,673474,0
2096921,2096921,160577,673291,0
2096921,2096921,160809,673602,0
2096921,2096921,160622,673332,0
2096921,2096921,161006,673308,0
2096921,2096921,160826,673655,0
2096921,2096921,160854,673712,0
2096921,2096921,160821,673890,0
2096921,2096921,160685,674048,0
2096921,2096921,160790,673742,0
2096921,2096921,161454,673983,0
2096921,2096921,161293,674557,0
2096921,2096921,161144,674415,0
2096921,2096921,160883,674493,0
2096921,2096921,160859,674108,0
2096921,2096921,161246,674295,0
2096921,2096921,161315,674417,0
2096921,2096921,160951,674510,0
2096921,2096921,161160,674476,0
2096921,2096921,161255,674605,0
2096921,2096921,161133,674890,0
2096921,2096921,161198,675068,0
2096921,2096921,161403,674827,0
2096921,2096921,161325,674806,0
2096921,2096921,161543,674961,0
2096921,2096921,161379,675386,0
2096921,2096921,161345,674937,0
2096921,2096921,161280,675178,0
2096921,2096921,161347,675207,0
2096921,2096921,161305,674770,0
2096921,2096921,161335,675423,0
2096921,2096921,161334,675194,0
2096921,2096921,161527,675338,0
2096921,2096921,161515,675136,0
2096921,2096921,161358,675050,0
2096921,2096921,161351,675465,0
2096921,2096921,161377,675462,0
2096921,2096921,161578,675465,0
2096921,2096921,161652,675706,0
2096921,2096921,161692,675733,0
2096921,2096921,161807,675933,0
2096921,2096921,161749,675710,0
2096921,2096921,161584,675640,0
2096921,2096921,161789,675543,0
2096921,2096921,161735,675795,0
2096921,2096921,161609,676072,0
2096921,2096921,161601,675920,0
2096921,2096921,161608,675910,0
2096921,2096921,161729,676040,0
2096921,2096921,161596,675908,0
2096921,2096921,161665,676203,0
2096921,2096921,161760,675701,0
2096921,2096921,161994,676431,0
2096921,2096921,161694,676489,0
2096921,2096921,161944,676304,0
2096921,2096921,161843,676242,0
2096921,2096921,161886,676705,0
2096921,2096921,161911,676591,0
2096921,2096921,162055,676433,0
2096921,2096921,161825,676870,0
2096921,2096921,162148,676547,0
2096921,2096921,161978,676484,0
2096921,2096921,162067,676571,0
2096921,2096921,161867,676773,0
2096921,2096921,161784,676594,0
2096921,2096921,162204,676900,0
2096921,2096921,162171,677017,0
2096921,2096921,161871,676682,0
2096921,2096921,161929,676518,0
2096921,2096921,162105,676690,0
2096921,2096921,161876,676489,0
2096921,2096921,162114,677037,0
2096921,2096921,162137,677069,0
2096921,2096921,162169,676797,0
2096921,2096921,162413,676899,0
2096921,2096921,162243,677025,0
2096921,2096921,162207,676839,0
2096921,2096921,162123,677240,0
2096921,2096921,162171,677075,0
2096921,2096921,162054,677114,0
2096921,2096921,162219,677554,0
2096921,2096921,162336,677406,0
2096921,2096921,162347,677393,0
2096921,2096921,162209,677350,0
2096921,2096921,162267,677548,0
2096921,2096921,162079,677492,0
2096921,2096921,162327,677422,0
2096921,2096921,162305,677463,0
2096921,2096921,161947,677302,0
2096921,2096921,162066,677509,0
2096921,2096921,162460,677150,0
2096921,2096921,162249,677587,0
2096921,2096921,162286,677484,0
2096921,2096921,162480,677445,0
2096921,2096921,162426,677232,0
2096921,2096921,162323,677615,0
2096921,2096921,162112,677719,0
2096921,2096921,162403,677924,0
2096921,2096921,162307,677906,0
2096921,2096921,162250,677536,0
2096921,2096921,162373,677661,0
2096921,2096921,162481,677944,0
2096921,2096921,162292,677956,0
2096921,2096921,162566,677863,0
2096921,2096921,162278,677971,0
2096921,2096921,162225,677594,0
2096921,2096921,162372,677970,0
2096921,2096921,162313,677719,0
2096921,2096921,162325,677834,0
2096921,2096921,162406,678112,0
2096921,2096921,162181,677742,0
2096921,2096921,162458,678134,0
2096921,2096921,162467,677966,0
2096921,2096921,162252,678358,0
2096921,2096921,162537,678099,0
2096921,2096921,162575,678142,0
2096921,2096921,162540,678297,0
2096921,2096921,162443,678276,0
2096921,2096921,162525,678091,0
2096921,2096921,162517,678365,0
2096921,2096921,162710,678311,0
2096921,2096921,162342,678255,0
2096921,2096921,162444,678215,0
2096921,2096921,162522,677993,0
2096921,2096921,162339,678179,0
2096921,2096921,162568,678156,0
2096921,2096921,162674,678461,0
2096921,2096921,162650,678281,0
2096921,2096921,162661,678411,0
2096921,2096921,162562,678029,0
2096921,2096921,162761,678287,0
2096921,2096921,162766,678514,0
2096921,2096921,162863,678843,0
2096921,2096921,162743,678895,0
2096921,2096921,162790,678590,0
2096921,2096921,162581,678635,0
2096921,2096921,162810,678897,0
2096921,2096921,162763,678661,0
2096921,2096921,162700,678554,0
2096921,2096921,162761,678767,0
2096921,2096921,162791,678454,0
2096921,2096921,162551,678788,0
2096921,2096921,162584,678635,0
2096921,2096921,162617,678567,0
2096921,2096921,162651,678627,0
2096921,2096921,162616,678703,0
2096921,2096921,162620,678732,0
2096921,2096921,162430,678820,0
2096921,2096921,162650,678651,0
2096921,2096921,162668,678773,0
2096921,2096921,162794,678652,0
2096921,2096921,162762,678746,0
2096921,2096921,162528,678458,0
2096921,2096921,162824,678656,0
2096921,2096921,163064,678655,0
2096921,2096921,162861,678683,0
2096921,2096921,162944,678724,0
2096921,2096921,162713,678959,0
2096921,2096921,162498,679135,0
2096921,2096921,162561,678759,0
2096921,2096921,162682,678944,0
2096921,2096921,162646,678852,0
2096921,2096921,162912,678990,0
2096921,2096921,162702,678879,0
2096921,2096921,162939,678959,0
2096921,2096921,162865,678891,0
2096921,2096921,162916,678789,0
2096921,2096921,162749,678717,0
2096921,2096921,162905,679041,0
2096921,2096921,162704,678914,0
2096921,2096921,162659,678960,0
2096921,2096921,162780,678905,0
2096921,2096921,162770,678605,0
2096921,2096921,162770,678855,0
2096921,2096921,162634,679163,0
2096921,2096921,162953,679123,0
2096921,2096921,162695,678771,0
2096921,2096921,162926,678631,0
2096921,2096921,162635,678865,0
2096921,2096921,162800,679042,0
2096921,2096921,163002,678788,0
2096921,2096921,163105,678644,0
2096921,2096921,162631,679057,0
2096921,2096921,162919,678798,0
2096921,2096921,162538,679014,0
2096921,2096921,162687,678769,0
2096921,2096921,162650,678860,0
2096921,2096921,162806,678868,0
2096921,2096921,162681,678743,0
2096921,2096921,162552,678824,0
2096921,2096921,162694,678998,0
2096921,2096921,162569,678962,0
2096921,2096921,162772,678934,0
2096921,2096921,162525,678645,0
2096921,2096921,162717,678718,0
2096921,2096921,162713,678803,0
2096921,2096921,162379,678944,0
2096921,2096921,162743,679145,0
2096921,2096921,162906,678973,0
2096921,2096921,162815,679109,0
2096921,2096921,162665,678890,0
2096921,2096921,162628,678983,0
2096921,2096921,162601,678942,0
2096921,2096921,163049,678983,0
2096921,2096921,162454,678825,0
2096921,2096921,162518,678265,0
2096921,2096921,162761,678220,0
2096921,2096921,162602,678175,0
2096921,2096921,162674,678198,0
2096921,2096921,162573,678508,0
2096921,2096921,162322,678259,0
2096921,2096921,162221,677878,0
2096921,2096921,162177,677733,0
2096921,2096921,162166,677759,0
2096921,2096921,162257,677918,0
2096921,2096921,161963,677036,0
2096921,2096921,162047,676899,0
2096921,2096921,162013,676886,0
2096921,2096921,162085,676682,0
2096921,2096921,162077,676631,0
2096921,2096921,161728,675892,0
2096921,2096921,161308,675624,0
2096921,2096921,161806,675705,0
2096921,2096921,161552,675646,0
2096921,2096921,161493,676115,0
2096921,2096921,160907,674694,0
2096921,2096921,161085,674583,0
2096921,2096921,160963,674481,0
2096921,2096921,160969,674620,0
2096921,2096921,160897,674386,0
2096921,2096921,160229,672208,0
2096921,2096921,159958,671802,0
2096921,2096921,160083,671616,0
2096921,2096921,160290,671791,0
2096921,2096921,160133,671973,0
2096921,2096921,159068,668827,0
2096921,2096921,158828,668219,0
2096921,2096921,158992,668189,0
2096921,2096921,158762,668151,0
2096921,2096921,159134,668186,0
2096921,2096921,158171,666283,0
2096921,2096921,158030,665970,0
2096921,2096921,157880,665932,0
2096921,2096921,157828,665784,0
2096921,2096921,157910,665697,0
2096921,2096921,157345,664274,0
2096921,2096921,157336,663766,0
2096921,2096921,157209,663663,0
2096921,2096921,156919,663825,0
2096921,2096921,157218,663848,0
2096921,2096921,156799,662751,0
2096921,2096921,156637,662261,0
2096921,2096921,156444,662547,0
2096921,2096921,156532,662376,0
2096921,2096921,156696,661945,0
2096921,2096921,156306,661425,0
2096921,2096921,156373,661514,0
2096921,2096921,156337,661246,0
2096921,2096921,156306,661242,0
2096921,2096921,156379,661229,0
2096921,2096921,156375,660634,0
2096921,2096921,156104,660689,0
2096921,2096921,155947,660455,0
2096921,2096921,155991,660490,0
2096921,2096921,156043,660655,0
2096921,2096921,155889,660193,0
2096921,2096921,156004,660185,0
2096921,2096921,155958,660070,0
2096921,2096921,155795,660035,0
2096921,2096921,156127,659847,0
2096921,2096921,155653,659940,0
2096921,2096921,155926,659898,0
2096921,2096921,156122,660003,0
2096921,2096921,156021,659928,0
2096921,2096921,155573,659899,0
2096921,2096921,155527,659841,0
2096921,2096921,155515,659913,0
2096921,2096921,155530,659735,0
2096921,2096921,155806,659726,0
2096921,2096921,155838,659795,0
2096921,2096921,156021,659847,0
2096921,2096921,156212,660171,0
2096921,2096921,155475,660020,0
2096921,2096921,155669,660067,0
2096921,2096921,155742,660233,0
2096921,2096921,155698,660377,0
2096921,2096921,155676,660237,0
2096921,2096921,155809,660316,0
2096921,2096921,155778,660159,0
2096921,2096921,155733,660362,0
2096921,2096921,155890,660483,0
2096921,2096921,156294,660448,0
2096921,2096921,156061,660258,0
2096921,2096921,156114,660187,0
2096921,2096921,156119,660103,0
2096921,2096921,156124,660995,0
2096921,2096921,155771,660926,0
2096921,2096921,156063,660675,0
2096921,2096921,156230,660704,0
2096921,2096921,156247,660870,0
2096921,2096921,156461,661127,0
2096921,2096921,156392,661369,0
2096921,2096921,156298,661327,0
2096921,2096921,156494,661523,0
2096921,2096921,156294,661370,0
2096921,2096921,156703,662118,0
2096921,2096921,156355,661818,0
2096921,2096921,156528,661723,0
2096921,2096921,156742,662051,0
2096921,2096921,156568,661903,0
2096921,2096921,156774,662340,0
2096921,2096921,156971,662566,0
2096921,2096921,156838,662396,0
2096921,2096921,156907,662390,0
2096921,2096921,156847,662670,0
2096921,2096921,156947,662974,0
2096921,2096921,156709,662871,0
2096921,2096921,156885,662999,0
2096921,2096921,156848,662748,0
2096921,2096921,157215,663138,0
2096921,2096921,157021,663375,0
2096921,2096921,157287,663463,0
2096921,2096921,157322,663357,0
2096921,2096921,156932,663467,0
2096921,2096921,157100,663738,0
2096921,2096921,157040,663680,0
2096921,2096921,157450,663974,0
2096921,2096921,157460,663867,0
2096921,2096921,157108,663962,0
2096921,2096921,157137,664119,0
2096921,2096921,157428,664468,0
2096921,2096921,157790,664603,0
2096921,2096921,157763,664345,0
2096921,2096921,157575,664420,0
2096921,2096921,157378,664471,0
2096921,2096921,157604,664982,0
2096921,2096921,157727,664930,0
2096921,2096921,157723,664891,0
2096921,2096921,157488,664875,0
2096921,2096921,157754,665152,0
2096921,2096921,157820,665766,0
2096921,2096921,158230,665938,0
2096921,2096921,157961,665594,0
2096921,2096921,157948,665682,0
2096921,2096921,157975,665678,0
2096921,2096921,158370,665946,0
2096921,2096921,158272,666322,0
2096921,2096921,158051,666258,0
2096921,2096921,158173,666195,0
2096921,2096921,158133,666197,0
2096921,2096921,158603,666853,0
2096921,2096921,158283,666751,0
2096921,2096921,158584,666829,0
2096921,2096921,158223,666817,0
2096921,2096921,158193,666824,0
2096921,2096921,158328,667171,0
2096921,2096921,158533,667329,0
2096921,2096921,158552,667035,0
2096921,2096921,158536,666943,0
2096921,2096921,158623,667439,0
2096921,2096921,158985,667250,0
2096921,2096921,158812,667413,0
2096921,2096921,158679,667454,0
2096921,2096921,158727,667596,0
2096921,2096921,158661,667583,0
2096921,2096921,158835,667843,0
2096921,2096921,158618,667892,0
2096921,2096921,158951,667862,0
2096921,2096921,158876,668094,0
2096921,2096921,158747,667870,0
2096921,2096921,158855,667851,0
2096921,2096921,158755,667991,0
2096921,2096921,158821,668040,0
2096921,2096921,158873,667839,0
2096921,2096921,158934,667942,0
2096921,2096921,158746,668151,0
2096921,2096921,158616,668195,0
2096921,2096921,159093,668343,0
2096921,2096921,158984,668079,0
2096921,2096921,159098,667972,0
2096921,2096921,158934,668054,0
2096921,2096921,158877,668219,0
2096921,2096921,159040,668018,0
2096921,2096921,158942,668026,0
2096921,2096921,159007,668199,0
2096921,2096921,158821,668118,0
2096921,2096921,158871,667640,0
2096921,2096921,159014,667840,0
2096921,2096921,158995,667999,0
2096921,2096921,158976,667670,0
2096921,2096921,158616,667566,0
2096921,2096921,158678,667675,0
2096921,2096921,159045,667614,0
2096921,2096921,158684,667682,0
2096921,2096921,158932,667622,0
2096921,2096921,158484,667853,0
2096921,2096921,158449,667734,0
2096921,2096921,158972,667312,0
2096921,2096921,158838,667584,0
2096921,2096921,158667,667374,0
2096921,2096921,158448,667542,0
2096921,2096921,159036,667507,0
2096921,2096921,158752,667376,0
2096921,2096921,158767,667254,0
2096921,2096921,158537,667195,0
2096921,2096921,158416,667048,0
2096921,2096921,158605,666607,0
2096921,2096921,158613,667077,0
2096921,2096921,158613,666839,0
2096921,2096921,158752,666751,0
2096921,2096921,158568,666710,0
2096921,2096921,158334,666680,0
2096921,2096921,158402,666686,0
2096921,2096921,158607,666623,0
2096921,2096921,158672,666896,0
2096921,2096921,158403,666983,0
2096921,2096921,158482,666768,0
2096921,2096921,158401,666745,0
2096921,2096921,158414,666735,0
2096921,2096921,158274,666771,0
2096921,2096921,158479,666827,0
2096921,2096921,158661,666348,0
2096921,2096921,158504,666293,0
2096921,2096921,158628,666445,0
2096921,2096921,158522,666159,0
2096921,2096921,158429,666260,0
2096921,2096921,158427,666462,0
2096921,2096921,158383,666721,0
2096921,2096921,158462,666274,0
2096921,2096921,158625,666249,0
2096921,2096921,158593,666343,0
2096921,2096921,158552,666335,0
2096921,2096921,158493,666317,0
2096921,2096921,158541,666479,0
2096921,2096921,158546,666683,0
2096921,2096921,158516,666763,0
2096921,2096921,158469,666533,0
2096921,2096921,158285,666650,0
2096921,2096921,158454,666614,0
2096921,2096921,158599,666738,0
2096921,2096921,158773,666996,0
2096921,2096921,158682,667109,0
2096921,2096921,158821,667221,0
2096921,2096921,158688,667072,0
2096921,2096921,158737,667130,0
2096921,2096921,158894,667259,0
2096921,2096921,158778,667259,0
2096921,2096921,158678,667595,0
2096921,2096921,158961,667595,0
2096921,2096921,158886,667332,0
2096921,2096921,159069,667593,0
2096921,2096921,158711,667710,0
2096921,2096921,158797,667878,0
2096921,2096921,158917,667676,0
2096921,2096921,158730,667938,0
2096921,2096921,158995,668158,0
2096921,2096921,158918,667785,0
2096921,2096921,159058,668116,0
2096921,2096921,158935,668059,0
2096921,2096921,159079,668026,0
2096921,2096921,158889,668400,0
2096921,2096921,158964,668578,0
2096921,2096921,159161,668324,0
2096921,2096921,158873,668389,0
2096921,2096921,158981,668229,0
2096921,2096921,159091,668279,0
2096921,2096921,159385,668526,0
2096921,2096921,159291,668603,0
2096921,2096921,159061,668758,0
2096921,2096921,159233,668731,0
2096921,2096921,159446,668694,0
2096921,2096921,159443,668579,0
2096921,2096921,159267,668859,0
2096921,2096921,158793,668618,0
2096921,2096921,159011,668762,0
2096921,2096921,159314,669283,0
2096921,2096921,159271,669007,0
2096921,2096921,159493,669154,0
2096921,2096921,159484,668931,0
2096921,2096921,159348,669021,0
2096921,2096921,159489,669279,0
2096921,2096921,159695,669176,0
2096921,2096921,159389,669162,0
2096921,2096921,159469,669099,0
2096921,2096921,159666,669251,0
2096921,2096921,159794,669576,0
2096921,2096921,159642,669536,0
2096921,2096921,159799,669569,0
2096921,2096921,159695,669677,0
2096921,2096921,159862,669553,0
2096921,2096921,159853,669581,0
2096921,2096921,159707,669899,0
2096921,2096921,159839,669966,0
2096921,2096921,159724,670079,0
2096921,2096921,159847,669921,0
2096921,2096921,159818,669950,0
2096921,2096921,159936,669982,0
2096921,2096921,159999,669825,0
2096921,2096921,159617,669900,0
2096921,2096921,159750,670057,0
2096921,2096921,159967,670356,0
2096921,2096921,159838,670273,0
2096921,2096921,160186,670216,0
2096921,2096921,159673,669986,0
2096921,2096921,160071,670277,0
2096921,2096921,160002,670525,0
2096921,2096921,159928,670354,0
2096921,2096921,160033,670428,0
2096921,2096921,159948,670457,0
2096921,2096921,159870,670584,0
2096921,2096921,159970,670610,0
2096921,2096921,160035,670768,0
2096921,2096921,160247,670847,0
2096921,2096921,160219,670937,0
2096921,2096921,159901,670734,0
2096921,2096921,160314,670836,0
2096921,2096921,160129,670765,0
2096921,2096921,160415,670897,0
2096921,2096921,160149,671165,0
2096921,2096921,160333,670954,0
2096921,2096921,160529,671229,0
2096921,2096921,160400,671316,0
2096921,2096921,160697,671228,0
2096921,2096921,160559,671134,0
2096921,2096921,160071,671241,0
2096921,2096921,160343,671168,0
2096921,2096921,160525,671414,0
2096921,2096921,160452,671519,0
2096921,2096921,160442,671362,0
2096921,2096921,160613,671529,0
2096921,2096921,160404,671238,0
2096921,2096921,160291,671247,0
2096921,2096921,160465,671550,0
2096921,2096921,160281,671531,0
2096921,2096921,160378,671564,0
2096921,2096921,160427,671746,0
2096921,2096921,160595,671531,0
2096921,2096921,160746,671759,0
2096921,2096921,160243,671499,0
2096921,2096921,160719,671492,0
2096921,2096921,160562,671573,0
2096921,2096921,160637,671675,0
2096921,2096921,160552,671893,0
2096921,2096921,160700,671550,0
2096921,2096921,160655,671712,0
2096921,2096921,160869,671843,0
2096921,2096921,160583,671771,0
2096921,2096921,160692,671737,0
2096921,2096921,160588,672036,0
2096921,2096921,160221,672171,0
2096921,2096921,160658,672276,0
2096921,2096921,161085,672184,0
2096921,2096921,160963,672478,0
2096921,2096921,160678,672014,0
2096921,2096921,160831,672130,0
2096921,2096921,160718,672200,0
2096921,2096921,160848,672464,0
2096921,2096921,160849,672454,0
2096921,2096921,160962,672240,0
2096921,2096921,160817,672410,0
2096921,2096921,160951,672281,0
2096921,2096921,160929,672355,0
2096921,2096921,161178,672424,0
2096921,2096921,160799,672499,0
2096921,2096921,160810,672286,0
2096921,2096921,160756,672528,0
2096921,2096921,160669,672441,0
2096921,2096921,160705,672390,0
2096921,2096921,160726,672277,0
2096921,2096921,160869,672375,0
2096921,2096921,160947,672556,0
2096921,2096921,160759,672395,0
2096921,2096921,161023,672224,0
2096921,2096921,160959,672463,0
2096921,2096921,160861,672396,0
2096921,2096921,160842,672460,0
2096921,2096921,161092,672499,0
2096921,2096921,160963,672498,0
2096921,2096921,161203,672402,0
2096921,2096921,160977,672545,0
2096921,2096921,160997,672440,0
2096921,2096921,160991,672390,0
2096921,2096921,160821,672431,0
2096921,2096921,160671,672803,0
2096921,2096921,160738,672731,0
2096921,2096921,161118,672956,0
2096921,2096921,161173,672594,0
2096921,2096921,161301,672531,0
2096921,2096921,160702,672480,0
2096921,2096921,161022,672624,0
2096921,2096921,161194,672609,0
2096921,2096921,161009,672745,0
2096921,2096921,161169,672950,0
2096921,2096921,160798,672723,0
2096921,2096921,161223,672567,0
2096921,2096921,160982,672839,0
2096921,2096921,161118,672640,0
2096921,2096921,161385,672706,0
2096921,2096921,161155,672644,0
2096921,2096921,161121,672911,0
2096921,2096921,161026,672742,0
2096921,2096921,161064,672669,0
2096921,2096921,161338,672823,0
2096921,2096921,160995,672508,0
2096921,2096921,161134,672901,0
2096921,2096921,160986,672735,0
2096921,2096921,161193,673098,0
2096921,2096921,161002,672907,0
2096921,2096921,161067,672630,0
2096921,2096921,161262,672831,0
2096921,2096921,161241,672891,0
2096921,2096921,161240,672656,0
2096921,2096921,160919,672607,0
2096921,2096921,160897,672856,0
2096921,2096921,160980,672775,0
2096921,2096921,160995,672761,0
2096921,2096921,161091,672524,0
2096921,2096921,161104,673067,0
2096921,2096921,161005,672827,0
2096921,2096921,160963,672782,0
2096921,2096921,161225,673050,0
2096921,2096921,161253,673049,0
2096921,2096921,161187,672865,0
2096921,2096921,161221,673144,0
2096921,2096921,161054,672755,0
2096921,2096921,161367,672917,0
2096921,2096921,160870,672901,0
2096921,2096921,161294,672881,0
2096921,2096921,161130,673041,0
2096921,2096921,161212,673002,0
2096921,2096921,161467,673083,0
2096921,2096921,161432,672975,0
2096921,2096921,161484,673111,0
2096921,2096921,161417,673082,0
2096921,2096921,161045,673146,0
2096921,2096921,161101,672784,0
2096921,2096921,161292,672930,0
2096921,2096921,160934,673122,0
2096921,2096921,161348,673017,0
2096921,2096921,161599,672778,0
2096921,2096921,161213,672620,0
2096921,2096921,161562,672811,0
2096921,2096921,161136,672855,0
2096921,2096921,161003,673112,0
2096921,2096921,161301,672781,0
2096921,2096921,161132,673266,0
2096921,2096921,161335,673101,0
2096921,2096921,161388,673225,0
2096921,2096921,161345,672911,0
2096921,2096921,160940,673019,0
2096921,2096921,161360,672980,0
2096921,2096921,161387,673227,0
2096921,2096921,161283,673011,0
2096921,2096921,161357,673111,0
2096921,2096921,161322,673121,0
2096921,2096921,161285,672956,0
2096921,2096921,160971,672763,0
2096921,2096921,161317,673019,0
2096921,2096921,161531,673272,0
2096921,2096921,161587,672973,0
2096921,2096921,161528,672925,0
2096921,2096921,161403,672593,0
2096921,2096921,161274,672819,0
2096921,2096921,161031,672942,0
2096921,2096921,161144,673205,0
2096921,2096921,161261,673054,0
2096921,2096921,161407,672940,0
2096921,2096921,161353,673115,0
2096921,2096921,161450,672767,0
2096921,2096921,161149,672946,0
2096921,2096921,161184,673129,0
2096921,2096921,161271,672897,0
2096921,2096921,161584,672857,0
2096921,2096921,161411,672896,0
2096921,2096921,161505,672743,0
2096921,2096921,161371,672832,0
2096921,2096921,161198,672845,0
2096921,2096921,161345,672785,0
2096921,2096921,161059,672870,0
2096921,2096921,161331,672750,0
2096921,2096921,161129,672588,0
2096921,2096921,161078,672778,0
2096921,2096921,161061,672701,0
2096921,2096921,161084,672784,0
2096921,2096921,161108,672912,0
2096921,2096921,161355,672964,0
2096921,2096921,161387,672755,0
2096921,2096921,161317,672913,0
2096921,2096921,161199,672904,0
2096921,2096921,161021,672939,0
2096921,2096921,161284,672865,0
2096921,2096921,161346,672723,0
2096921,2096921,161509,672757,0
2096921,2096921,161142,672624,0
2096921,2096921,161038,672495,0
2096921,2096921,161470,672601,0
2096921,2096921,161187,672479,0
2096921,2096921,161269,672622,0
2096921,2096921,161489,672708,0
2096921,2096921,160953,672778,0
2096921,2096921,161203,672618,0
2096921,2096921,161202,672623,0
2096921,2096921,161316,672476,0
2096921,2096921,161210,672766,0
2096921,2096921,161136,672632,0
2096921,2096921,161044,672269,0
2096921,2096921,160940,671638,0
2096921,2096921,160896,671966,0
2096921,2096921,160950,672003,0
2096921,2096921,160834,671892,0
2096921,2096921,160542,671411,0
2096921,2096921,160767,671594,0
2096921,2096921,160695,671515,0
2096921,2096921,161080,671505,0
2096921,2096921,160873,671517,0
2096921,2096921,160506,670638,0
2096921,2096921,160410,670726,0
2096921,2096921,160621,670617,0
2096921,2096921,160430,670801,0
2096921,2096921,160550,670424,0
2096921,2096921,160373,669764,0
2096921,2096921,160180,669273,0
2096921,2096921,159981,669426,0
2096921,2096921,159943,669576,0
2096921,2096921,159782,669422,0
2096921,2096921,159646,668409,0
2096921,2096921,159760,668296,0
2096921,2096921,159521,668084,0
2096921,2096921,159397,668050,0
2096921,2096921,159190,668078,0
2096921,2096921,159019,665694,0
2096921,2096921,158776,665383,0
2096921,2096921,158695,665323,0
2096921,2096921,158414,665225,0
2096921,2096921,158658,665608,0
2096921,2096921,157591,662778,0
2096921,2096921,157133,661958,0
2096921,2096921,157208,662073,0
2096921,2096921,157103,662146,0
2096921,2096921,157379,661982,0
2096921,2096921,156245,659830,0
2096921,2096921,156365,659435,0
2096921,2096921,156434,659391,0
2096921,2096921,156015,659372,0
2096921,2096921,156024,659671,0
2096921,2096921,156004,657876,0
2096921,2096921,155687,657720,0
2096921,2096921,155334,657669,0
2096921,2096921,155417,657575,0
2096921,2096921,155410,657447,0
2096921,2096921,155197,656289,0
2096921,2096921,154836,656012,0
2096921,2096921,155236,656071,0
2096921,2096921,155218,655914,0
2096921,2096921,154970,656231,0
2096921,2096921,154770,655543,0
2096921,2096921,155012,655026,0
2096921,2096921,154515,655153,0
2096921,2096921,154695,655115,0
2096921,2096921,154269,655123,0
2096921,2096921,154408,654450,0
2096921,2096921,154423,654202,0
2096921,2096921,154498,654174,0
2096921,2096921,154668,654439,0
2096921,2096921,154642,654201,0
2096921,2096921,154443,653926,0
2096921,2096921,154392,653495,0
2096921,2096921,154034,653597,0
2096921,2096921,154428,654178,0
2096921,2096921,154392,653789,0
2096921,2096921,154162,653807,0
2096921,2096921,154218,653846,0
2096921,2096921,154262,653940,0
2096921,2096921,154469,653789,0
2096921,2096921,154506,653751,0
2096921,2096921,154275,653890,0
2096921,2096921,154201,653822,0
2096921,2096921,154185,653586,0
2096921,2096921,154227,653542,0
2096921,2096921,154216,653482,0
2096921,2096921,154379,653751,0
2096921,2096921,153976,653977,0
2096921,2096921,154498,654248,0
2096921,2096921,154115,654100,0
2096921,2096921,154349,653751,0
2096921,2096921,154267,654165,0
2096921,2096921,154185,653997,0
2096921,2096921,154441,653964,0
2096921,2096921,154437,654115,0
2096921,2096921,154593,654092,0
2096921,2096921,154561,653995,0
2096921,2096921,154662,654115,0
2096921,2096921,154569,654258,0
2096921,2096921,154396,654316,0
2096921,2096921,154474,654289,0
2096921,2096921,154805,654502,0
2096921,2096921,154438,654688,0
2096921,2096921,154808,654800,0
2096921,2096921,154472,654813,0
2096921,2096921,154630,654771,0
2096921,2096921,154850,655658,0
2096921,2096921,154816,655400,0
2096921,2096921,154878,655336,0
2096921,2096921,154895,654980,0
2096921,2096921,154886,655364,0
2096921,2096921,155298,655630,0
2096921,2096921,155044,655627,0
2096921,2096921,155232,655685,0
2096921,2096921,155193,655479,0
2096921,2096921,155204,655868,0
2096921,2096921,155354,656278,0
2096921,2096921,155105,656280,0
2096921,2096921,155105,656279,0
2096921,2096921,155140,656482,0
2096921,2096921,155240,656679,0
2096921,2096921,155528,657015,0
2096921,2096921,155537,657309,0
2096921,2096921,155521,656957,0
2096921,2096921,155442,656848,0
2096921,2096921,155428,657138,0
2096921,2096921,155703,657568,0
2096921,2096921,155655,657220,0
2096921,2096921,155620,657478,0
2096921,2096921,155729,657615,0
2096921,2096921,155832,657787,0
2096921,2096921,155601,658159,0
2096921,2096921,155543,658083,0
2096921,2096921,155962,658218,0
2096921,2096921,155565,658135,0
2096921,2096921,155564,657987,0
2096921,2096921,155833,658552,0
2096921,2096921,156077,658761,0
2096921,2096921,156454,658565,0
2096921,2096921,156144,658704,0
2096921,2096921,155947,658693,0
2096921,2096921,156265,659164,0
2096921,2096921,156608,659406,0
2096921,2096921,156222,659303,0
2096921,2096921,156303,659204,0
2096921,2096921,156135,659207,0
2096921,2096921,156299,659733,0
2096921,2096921,156541,660188,0
2096921,2096921,156510,659872,0
2096921,2096921,156493,659994,0
2096921,2096921,156196,660089,0
2096921,2096921,156599,660245,0
2096921,2096921,156771,660518,0
2096921,2096921,157020,660411,0
2096921,2096921,156706,660366,0
2096921,2096921,156526,660331,0
2096921,2096921,156770,660819,0
2096921,2096921,156772,661026,0
2096921,2096921,156909,661181,0
2096921,2096921,156821,661252,0
2096921,2096921,156778,661416,0
2096921,2096921,157022,661610,0
2096921,2096921,156999,661661,0
2096921,2096921,157090,661780,0
2096921,2096921,157082,661591,0
2096921,2096921,157283,661479,0
2096921,2096921,157328,661967,0
2096921,2096921,157541,661730,0
2096921,2096921,157373,661878,0
2096921,2096921,157312,662069,0
2096921,2096921,156941,662130,0
2096921,2096921,157159,662480,0
2096921,2096921,157412,662353,0
2096921,2096921,157214,662468,0
2096921,2096921,157385,662277,0
2096921,2096921,157339,662427,0
2096921,2096921,157548,662657,0
2096921,2096921,157447,662726,0
2096921,2096921,157335,662436,0
2096921,2096921,157606,662573,0
2096921,2096921,157173,662626,0
2096921,2096921,157591,662821,0
2096921,2096921,157501,663140,0
2096921,2096921,157633,662859,0
2096921,2096921,157872,662654,0
2096921,2096921,157424,662840,0
2096921,2096921,157284,662915,0
2096921,2096921,157604,662686,0
2096921,2096921,157791,662632,0
2096921,2096921,157551,662802,0
2096921,2096921,157583,662694,0
2096921,2096921,157619,662865,0
2096921,2096921,157640,662861,0
2096921,2096921,157606,662718,0
2096921,2096921,157732,662798,0
2096921,2096921,157617,663044,0
2096921,2096921,157530,662819,0
2096921,2096921,157509,662765,0
2096921,2096921,157751,662538,0
2096921,2096921,157532,662697,0
2096921,2096921,157644,662471,0
2096921,2096921,157450,662642,0
2096921,2096921,157808,662680,0
