2096921,2096921, 168316, 666039
2096921,2096921, 168190, 666017
2096921,2096921, 168129, 666260
2096921,2096921, 168282, 665742
2096921,2096921, 168168, 666003
2096921,2096921, 168068, 666161
2096921,2096921, 168121, 666069
2096921,2096921, 168268, 666263
2096921,2096921, 168476, 666282
2096921,2096921, 168605, 666273
2096921,2096921, 168435, 666429
2096921,2096921, 168448, 666495
2096921,2096921, 168425, 666269
2096921,2096921, 168498, 666454
2096921,2096921, 168147, 666466
2096921,2096921, 168443, 666328
2096921,2096921, 168299, 666516
2096921,2096921, 168531, 666542
2096921,2096921, 168471, 667150
2096921,2096921, 168478, 667175
2096921,2096921, 168629, 666917
2096921,2096921, 168711, 667036
2096921,2096921, 168538, 667085
2096921,2096921, 168769, 667558
2096921,2096921, 168594, 667814
2096921,2096921, 168808, 667843
2096921,2096921, 168944, 667634
2096921,2096921, 168850, 667437
2096921,2096921, 169005, 668159
2096921,2096921, 168959, 668198
2096921,2096921, 169385, 668333
2096921,2096921, 168905, 668179
2096921,2096921, 168760, 667897
2096921,2096921, 169333, 668501
2096921,2096921, 169644, 668603
2096921,2096921, 169337, 668462
2096921,2096921, 169200, 668603
2096921,2096921, 169137, 668754
2096921,2096921, 169602, 668910
2096921,2096921, 169376, 669242
2096921,2096921, 169455, 668927
2096921,2096921, 169345, 669092
2096921,2096921, 169490, 668756
2096921,2096921, 169379, 669341
2096921,2096921, 169455, 669474
2096921,2096921, 169763, 669451
2096921,2096921, 169528, 669534
2096921,2096921, 169611, 669432
2096921,2096921, 169801, 669712
2096921,2096921, 170184, 669967
2096921,2096921, 169986, 669406
2096921,2096921, 169794, 669782
2096921,2096921, 169642, 669794
2096921,2096921, 169915, 670368
2096921,2096921, 169977, 670528
2096921,2096921, 169841, 670348
2096921,2096921, 169723, 670254
2096921,2096921, 169913, 670315
2096921,2096921, 170016, 670649
2096921,2096921, 169910, 670821
2096921,2096921, 169998, 670696
2096921,2096921, 170173, 670821
2096921,2096921, 170145, 671065
2096921,2096921, 170268, 671571
2096921,2096921, 170087, 671464
2096921,2096921, 170132, 671217
2096921,2096921, 170204, 671380
2096921,2096921, 170429, 671370
2096921,2096921, 170420, 671428
2096921,2096921, 170331, 671317
2096921,2096921, 170375, 671675
2096921,2096921, 170326, 671352
2096921,2096921, 170377, 671623
2096921,2096921, 170491, 671972
2096921,2096921, 170520, 672255
2096921,2096921, 170428, 671767
2096921,2096921, 170778, 671983
2096921,2096921, 170820, 672038
2096921,2096921, 170669, 672331
2096921,2096921, 170676, 672535
2096921,2096921, 170721, 672355
2096921,2096921, 170732, 672236
2096921,2096921, 170703, 672386
2096921,2096921, 170563, 672683
2096921,2096921, 170689, 672900
2096921,2096921, 170778, 672825
2096921,2096921, 170693, 672672
2096921,2096921, 170901, 672704
2096921,2096921, 170893, 673075
2096921,2096921, 171082, 673064
2096921,2096921, 171133, 673322
2096921,2096921, 170867, 673293
2096921,2096921, 171276, 673238
2096921,2096921, 171188, 673583
2096921,2096921, 171530, 673712
2096921,2096921, 171326, 673712
2096921,2096921, 171086, 673645
2096921,2096921, 171061, 673497
2096921,2096921, 171471, 673939
2096921,2096921, 171747, 674090
2096921,2096921, 171601, 674028
2096921,2096921, 171508, 674075
2096921,2096921, 171450, 673837
2096921,2096921, 171611, 674282
2096921,2096921, 171334, 674359
2096921,2096921, 171578, 674348
2096921,2096921, 171373, 674211
2096921,2096921, 171400, 674143
2096921,2096921, 171410, 674232
2096921,2096921, 171470, 674449
2096921,2096921, 171472, 674500
2096921,2096921, 171682, 674529
2096921,2096921, 171591, 674591
2096921,2096921, 171731, 674782
2096921,2096921, 171559, 674572
2096921,2096921, 171327, 674720
2096921,2096921, 171271, 675075
2096921,2096921, 171586, 674673
2096921,2096921, 171660, 675169
2096921,2096921, 171541, 675405
2096921,2096921, 171741, 675238
2096921,2096921, 171793, 675447
2096921,2096921, 171699, 675406
2096921,2096921, 171891, 675515
2096921,2096921, 171789, 675461
2096921,2096921, 171910, 675251
2096921,2096921, 171908, 675501
2096921,2096921, 171821, 675389
2096921,2096921, 172316, 675870
2096921,2096921, 172288, 675636
2096921,2096921, 171938, 675799
2096921,2096921, 171697, 675730
2096921,2096921, 171929, 675880
2096921,2096921, 172257, 676097
2096921,2096921, 171978, 676116
2096921,2096921, 172035, 675825
2096921,2096921, 172048, 676108
2096921,2096921, 172030, 676037
2096921,2096921, 172360, 676269
2096921,2096921, 172490, 676187
2096921,2096921, 172129, 676144
2096921,2096921, 172256, 676226
2096921,2096921, 172243, 676349
2096921,2096921, 172081, 676500
2096921,2096921, 172411, 676508
2096921,2096921, 172191, 676357
2096921,2096921, 172121, 676291
2096921,2096921, 172318, 676274
2096921,2096921, 172307, 676708
2096921,2096921, 172520, 676626
2096921,2096921, 172183, 676803
2096921,2096921, 172401, 676520
2096921,2096921, 172273, 676459
2096921,2096921, 172112, 676778
2096921,2096921, 172333, 676687
2096921,2096921, 172126, 677199
2096921,2096921, 172419, 676778
2096921,2096921, 172510, 676730
2096921,2096921, 172475, 676848
2096921,2096921, 172526, 676912
2096921,2096921, 172433, 676859
2096921,2096921, 172626, 676822
2096921,2096921, 172533, 677067
2096921,2096921, 172616, 676945
2096921,2096921, 172734, 677132
2096921,2096921, 172798, 677301
2096921,2096921, 172460, 677060
2096921,2096921, 172793, 676913
2096921,2096921, 172474, 677054
2096921,2096921, 172651, 677151
2096921,2096921, 172728, 677200
2096921,2096921, 172626, 677281
2096921,2096921, 172801, 677208
2096921,2096921, 172780, 677406
2096921,2096921, 172882, 677313
2096921,2096921, 172895, 677375
2096921,2096921, 172964, 677410
2096921,2096921, 172630, 677299
2096921,2096921, 172677, 677382
2096921,2096921, 172598, 677323
2096921,2096921, 172737, 677536
2096921,2096921, 172648, 677608
2096921,2096921, 172368, 677664
2096921,2096921, 172776, 677282
2096921,2096921, 172618, 677566
2096921,2096921, 172662, 677605
2096921,2096921, 172702, 677641
2096921,2096921, 172934, 677491
2096921,2096921, 173207, 677902
2096921,2096921, 172935, 677646
2096921,2096921, 172783, 677674
2096921,2096921, 172783, 677808
2096921,2096921, 173056, 677819
2096921,2096921, 172989, 677987
2096921,2096921, 172670, 677927
2096921,2096921, 172921, 677832
2096921,2096921, 172858, 677594
2096921,2096921, 172795, 677656
2096921,2096921, 172854, 677998
2096921,2096921, 172678, 678260
2096921,2096921, 172760, 678344
2096921,2096921, 172906, 678248
2096921,2096921, 172933, 678035
2096921,2096921, 173213, 677901
2096921,2096921, 173506, 678305
2096921,2096921, 172772, 678442
2096921,2096921, 172897, 678007
2096921,2096921, 173000, 678302
2096921,2096921, 173014, 678299
2096921,2096921, 173048, 678208
2096921,2096921, 173114, 678270
2096921,2096921, 173190, 678389
2096921,2096921, 173196, 678264
2096921,2096921, 173127, 678502
2096921,2096921, 173299, 678273
2096921,2096921, 173306, 678379
2096921,2096921, 172989, 678394
2096921,2096921, 173311, 678210
2096921,2096921, 173194, 678440
2096921,2096921, 172949, 678156
2096921,2096921, 173109, 678371
2096921,2096921, 173165, 678416
2096921,2096921, 172904, 678384
2096921,2096921, 173537, 678388
2096921,2096921, 173256, 678550
2096921,2096921, 173154, 678399
2096921,2096921, 173208, 678321
2096921,2096921, 173130, 678408
2096921,2096921, 173191, 678322
2096921,2096921, 173148, 678429
2096921,2096921, 173201, 678735
2096921,2096921, 172915, 678629
2096921,2096921, 173281, 678601
2096921,2096921, 173369, 678400
2096921,2096921, 173426, 678675
2096921,2096921, 173290, 678678
2096921,2096921, 173128, 678553
2096921,2096921, 173291, 678855
2096921,2096921, 173286, 678372
2096921,2096921, 173394, 678585
2096921,2096921, 173312, 678731
2096921,2096921, 173461, 678532
2096921,2096921, 173021, 678611
2096921,2096921, 173282, 678420
2096921,2096921, 173304, 678568
2096921,2096921, 172949, 678936
2096921,2096921, 173050, 678672
2096921,2096921, 173071, 678567
2096921,2096921, 173150, 678447
2096921,2096921, 173119, 678510
2096921,2096921, 173359, 678601
2096921,2096921, 173272, 678288
2096921,2096921, 173141, 678571
2096921,2096921, 172884, 678495
2096921,2096921, 173163, 678315
2096921,2096921, 173021, 678394
2096921,2096921, 173228, 678470
2096921,2096921, 173259, 678653
2096921,2096921, 172987, 678564
2096921,2096921, 173003, 678393
2096921,2096921, 173269, 678494
2096921,2096921, 173294, 678467
2096921,2096921, 173104, 678660
2096921,2096921, 173232, 678692
2096921,2096921, 173287, 678549
2096921,2096921, 173301, 678351
2096921,2096921, 173129, 678390
2096921,2096921, 172909, 678467
2096921,2096921, 172956, 678195
2096921,2096921, 173326, 678266
2096921,2096921, 173140, 678105
2096921,2096921, 173078, 678039
2096921,2096921, 173126, 678167
2096921,2096921, 173498, 678242
2096921,2096921, 173041, 678363
2096921,2096921, 173131, 678238
2096921,2096921, 173078, 678214
2096921,2096921, 173107, 678367
2096921,2096921, 172997, 678100
2096921,2096921, 173114, 678246
2096921,2096921, 172979, 678030
2096921,2096921, 173225, 678008
2096921,2096921, 173260, 678275
2096921,2096921, 172834, 677449
2096921,2096921, 172801, 677199
2096921,2096921, 172957, 677262
2096921,2096921, 172868, 677428
2096921,2096921, 172664, 677461
2096921,2096921, 172505, 676924
2096921,2096921, 172680, 676753
2096921,2096921, 172650, 676787
2096921,2096921, 172490, 676468
2096921,2096921, 172683, 676652
2096921,2096921, 172217, 675803
2096921,2096921, 171983, 675898
2096921,2096921, 172000, 675626
2096921,2096921, 171906, 675565
2096921,2096921, 171837, 675693
2096921,2096921, 171749, 674323
2096921,2096921, 171648, 674165
2096921,2096921, 171414, 674187
2096921,2096921, 171572, 673935
2096921,2096921, 171929, 673980
2096921,2096921, 171331, 672881
2096921,2096921, 171030, 672708
2096921,2096921, 170681, 672403
2096921,2096921, 170888, 672381
2096921,2096921, 171070, 672560
2096921,2096921, 169862, 669705
2096921,2096921, 169693, 669214
2096921,2096921, 169636, 669208
2096921,2096921, 169432, 668817
2096921,2096921, 169501, 668865
2096921,2096921, 168232, 665779
2096921,2096921, 167953, 665097
2096921,2096921, 168018, 665008
2096921,2096921, 167663, 664490
2096921,2096921, 167839, 664561
2096921,2096921, 166562, 661971
2096921,2096921, 166815, 661612
2096921,2096921, 166749, 661444
2096921,2096921, 166585, 661511
2096921,2096921, 166642, 661429
2096921,2096921, 165968, 659746
2096921,2096921, 165529, 659006
2096921,2096921, 165656, 659153
2096921,2096921, 165873, 659281
2096921,2096921, 165828, 659098
2096921,2096921, 165021, 657622
2096921,2096921, 165020, 657427
2096921,2096921, 165124, 657304
2096921,2096921, 165121, 657275
2096921,2096921, 164904, 657294
2096921,2096921, 164728, 656057
2096921,2096921, 164488, 656009
2096921,2096921, 164390, 655829
2096921,2096921, 164401, 656093
2096921,2096921, 164456, 655780
2096921,2096921, 164258, 655162
2096921,2096921, 163806, 655037
2096921,2096921, 163890, 655035
2096921,2096921, 163933, 654688
2096921,2096921, 164151, 654753
2096921,2096921, 163889, 654609
2096921,2096921, 163786, 654296
2096921,2096921, 163652, 654313
2096921,2096921, 163749, 654500
2096921,2096921, 163658, 654032
2096921,2096921, 163584, 654067
2096921,2096921, 163704, 653947
2096921,2096921, 164005, 653841
2096921,2096921, 163532, 653893
2096921,2096921, 163530, 654084
2096921,2096921, 163829, 653744
2096921,2096921, 163665, 653713
2096921,2096921, 163695, 653815
2096921,2096921, 163567, 653983
2096921,2096921, 163885, 653922
2096921,2096921, 163965, 654293
2096921,2096921, 163709, 654506
2096921,2096921, 163922, 654091
2096921,2096921, 163823, 654357
2096921,2096921, 163623, 654215
2096921,2096921, 163562, 654401
2096921,2096921, 163755, 653845
2096921,2096921, 163547, 654467
2096921,2096921, 163721, 654150
2096921,2096921, 163629, 654387
2096921,2096921, 163801, 654348
2096921,2096921, 163871, 654597
2096921,2096921, 164010, 654344
2096921,2096921, 164035, 654617
2096921,2096921, 163829, 654629
2096921,2096921, 164248, 655159
2096921,2096921, 164313, 654899
2096921,2096921, 164199, 655186
2096921,2096921, 164172, 655178
2096921,2096921, 164113, 654922
2096921,2096921, 164033, 655465
2096921,2096921, 164274, 655663
2096921,2096921, 164471, 655719
2096921,2096921, 164733, 655943
2096921,2096921, 164438, 655811
2096921,2096921, 165049, 656209
2096921,2096921, 164770, 656401
2096921,2096921, 164601, 656355
2096921,2096921, 164640, 656648
2096921,2096921, 164700, 656926
2096921,2096921, 164903, 657069
2096921,2096921, 165025, 657155
2096921,2096921, 164859, 656883
2096921,2096921, 165008, 656925
2096921,2096921, 164948, 657149
2096921,2096921, 165288, 657709
2096921,2096921, 165015, 657709
2096921,2096921, 165260, 657756
2096921,2096921, 165209, 657832
2096921,2096921, 165220, 657588
2096921,2096921, 165426, 658222
2096921,2096921, 165521, 658515
2096921,2096921, 165647, 658311
2096921,2096921, 165719, 658516
2096921,2096921, 165453, 658215
2096921,2096921, 165643, 658669
2096921,2096921, 165704, 658795
2096921,2096921, 165751, 658950
2096921,2096921, 165902, 658881
2096921,2096921, 165886, 658885
2096921,2096921, 166333, 659337
2096921,2096921, 166077, 659583
2096921,2096921, 166095, 659588
2096921,2096921, 166130, 659759
2096921,2096921, 166189, 659740
2096921,2096921, 166007, 660358
2096921,2096921, 166316, 660547
2096921,2096921, 165998, 660742
2096921,2096921, 166212, 660228
2096921,2096921, 166188, 660435
2096921,2096921, 166251, 660730
2096921,2096921, 166499, 660885
2096921,2096921, 166543, 660824
2096921,2096921, 166521, 660953
2096921,2096921, 166694, 660975
2096921,2096921, 166751, 661643
2096921,2096921, 166855, 661723
2096921,2096921, 166834, 662156
2096921,2096921, 166833, 661958
2096921,2096921, 166900, 661970
2096921,2096921, 167120, 662234
2096921,2096921, 167271, 662325
2096921,2096921, 167139, 662337
2096921,2096921, 167000, 662334
2096921,2096921, 167010, 662545
2096921,2096921, 167364, 662881
2096921,2096921, 167230, 662930
2096921,2096921, 167422, 662734
2096921,2096921, 167195, 662609
2096921,2096921, 167345, 662785
2096921,2096921, 167349, 662998
2096921,2096921, 167355, 663366
2096921,2096921, 167613, 663529
2096921,2096921, 167338, 663271
2096921,2096921, 167838, 663122
2096921,2096921, 167628, 663534
2096921,2096921, 167759, 663434
2096921,2096921, 167834, 663732
2096921,2096921, 167531, 663372
2096921,2096921, 167582, 663483
2096921,2096921, 167867, 663742
2096921,2096921, 167827, 663765
2096921,2096921, 167955, 663941
2096921,2096921, 168100, 663923
2096921,2096921, 167700, 663905
2096921,2096921, 167845, 664036
2096921,2096921, 167831, 664101
2096921,2096921, 168007, 663989
2096921,2096921, 167931, 663914
2096921,2096921, 167776, 663987
2096921,2096921, 167922, 663892
2096921,2096921, 167782, 663680
2096921,2096921, 168110, 663941
2096921,2096921, 167602, 664158
2096921,2096921, 167678, 663964
2096921,2096921, 167777, 664074
2096921,2096921, 167845, 664171
2096921,2096921, 167958, 663811
2096921,2096921, 167824, 664117
2096921,2096921, 167789, 663936
2096921,2096921, 167858, 663787
2096921,2096921, 167726, 663783
2096921,2096921, 167601, 663910
2096921,2096921, 167631, 664016
2096921,2096921, 167445, 663712
2096921,2096921, 167724, 663664
2096921,2096921, 167285, 663249
2096921,2096921, 167439, 663220
2096921,2096921, 167442, 663251
2096921,2096921, 167445, 663347
2096921,2096921, 167528, 663251
2096921,2096921, 167668, 663188
2096921,2096921, 167708, 663063
2096921,2096921, 167458, 663302
2096921,2096921, 167431, 663017
2096921,2096921, 167492, 662651
2096921,2096921, 167495, 662925
2096921,2096921, 167346, 662848
2096921,2096921, 167480, 662904
2096921,2096921, 167426, 662696
2096921,2096921, 167089, 662300
2096921,2096921, 167201, 662445
2096921,2096921, 167230, 662595
2096921,2096921, 167425, 662680
2096921,2096921, 167195, 662527
2096921,2096921, 167298, 662551
2096921,2096921, 167346, 662319
2096921,2096921, 167191, 662221
2096921,2096921, 167192, 662252
2096921,2096921, 167115, 662048
2096921,2096921, 167210, 662086
2096921,2096921, 167384, 662192
2096921,2096921, 167341, 662440
2096921,2096921, 167312, 662070
2096921,2096921, 167483, 662270
2096921,2096921, 167350, 662369
2096921,2096921, 167432, 662473
2096921,2096921, 167309, 662238
2096921,2096921, 167089, 661884
2096921,2096921, 167392, 662220
2096921,2096921, 167438, 661973
2096921,2096921, 167159, 662315
2096921,2096921, 167529, 662306
2096921,2096921, 167273, 662290
2096921,2096921, 167335, 662526
2096921,2096921, 167191, 662596
2096921,2096921, 167424, 662494
2096921,2096921, 167192, 662763
2096921,2096921, 167436, 662549
2096921,2096921, 167397, 662605
2096921,2096921, 167520, 662690
2096921,2096921, 167543, 662896
2096921,2096921, 167489, 663345
2096921,2096921, 167456, 662678
2096921,2096921, 167623, 663180
2096921,2096921, 167634, 663364
2096921,2096921, 167794, 663219
2096921,2096921, 167626, 663438
2096921,2096921, 167819, 663438
2096921,2096921, 167541, 663330
2096921,2096921, 168014, 663615
2096921,2096921, 167828, 663711
2096921,2096921, 167869, 663825
2096921,2096921, 167995, 663870
2096921,2096921, 168061, 663846
2096921,2096921, 167631, 664118
2096921,2096921, 168050, 664027
2096921,2096921, 168152, 664070
2096921,2096921, 167932, 664148
2096921,2096921, 168126, 664191
2096921,2096921, 168287, 664492
2096921,2096921, 168550, 664595
2096921,2096921, 167904, 664656
2096921,2096921, 168289, 664650
2096921,2096921, 168268, 664914
2096921,2096921, 168372, 664916
2096921,2096921, 168232, 664595
2096921,2096921, 168205, 664965
2096921,2096921, 168308, 664898
2096921,2096921, 168088, 664734
2096921,2096921, 168226, 665155
2096921,2096921, 168178, 665186
2096921,2096921, 168409, 665263
2096921,2096921, 168639, 665271
2096921,2096921, 168758, 665432
2096921,2096921, 168511, 665490
2096921,2096921, 168650, 665548
2096921,2096921, 168728, 665702
2096921,2096921, 168698, 665596
2096921,2096921, 168669, 665242
2096921,2096921, 168656, 665922
2096921,2096921, 169063, 665841
2096921,2096921, 168797, 666182
2096921,2096921, 168703, 666131
2096921,2096921, 168625, 666251
2096921,2096921, 168899, 666385
2096921,2096921, 169116, 666425
2096921,2096921, 169001, 666203
2096921,2096921, 169110, 666045
2096921,2096921, 168901, 666083
2096921,2096921, 169092, 666257
2096921,2096921, 168916, 666417
2096921,2096921, 169144, 666488
2096921,2096921, 168843, 666961
2096921,2096921, 168915, 666783
2096921,2096921, 169218, 667050
2096921,2096921, 169187, 667000
2096921,2096921, 169058, 666893
2096921,2096921, 169001, 667234
2096921,2096921, 169070, 667054
2096921,2096921, 169728, 667113
2096921,2096921, 169386, 667256
2096921,2096921, 169528, 667242
2096921,2096921, 169585, 667133
2096921,2096921, 169396, 667264
2096921,2096921, 169365, 667480
2096921,2096921, 169440, 667636
2096921,2096921, 169269, 667856
2096921,2096921, 169377, 667477
2096921,2096921, 169381, 667630
2096921,2096921, 169544, 667741
2096921,2096921, 169510, 667631
2096921,2096921, 169417, 667587
2096921,2096921, 169637, 668019
2096921,2096921, 169584, 668137
2096921,2096921, 169807, 668376
2096921,2096921, 169771, 668329
2096921,2096921, 169820, 668270
2096921,2096921, 169662, 668163
2096921,2096921, 169694, 667797
2096921,2096921, 169815, 668486
2096921,2096921, 169849, 668615
2096921,2096921, 169867, 668673
2096921,2096921, 169917, 668689
2096921,2096921, 169952, 668381
2096921,2096921, 170148, 668696
2096921,2096921, 170287, 668909
2096921,2096921, 170167, 668658
2096921,2096921, 169891, 668842
2096921,2096921, 169961, 668851
2096921,2096921, 170160, 669184
2096921,2096921, 170038, 669054
2096921,2096921, 170279, 668908
2096921,2096921, 170237, 668964
2096921,2096921, 170158, 668994
2096921,2096921, 170167, 669078
2096921,2096921, 170266, 669237
2096921,2096921, 170410, 669182
2096921,2096921, 170238, 669056
2096921,2096921, 170123, 669502
2096921,2096921, 170287, 669578
2096921,2096921, 170175, 669246
2096921,2096921, 170427, 669532
2096921,2096921, 170488, 669454
2096921,2096921, 170196, 669598
2096921,2096921, 170415, 669595
2096921,2096921, 170406, 669670
2096921,2096921, 170304, 669630
2096921,2096921, 170465, 669656
2096921,2096921, 170170, 669635
2096921,2096921, 170513, 669622
2096921,2096921, 170481, 669583
2096921,2096921, 170527, 669735
2096921,2096921, 170371, 669858
2096921,2096921, 170659, 669916
2096921,2096921, 170564, 670187
2096921,2096921, 170664, 670191
2096921,2096921, 170437, 670091
2096921,2096921, 170930, 670096
2096921,2096921, 170467, 670150
2096921,2096921, 170804, 670056
2096921,2096921, 170834, 670492
2096921,2096921, 170818, 670155
2096921,2096921, 170932, 670218
2096921,2096921, 170831, 670247
2096921,2096921, 170708, 670260
2096921,2096921, 170762, 670598
2096921,2096921, 170826, 670251
2096921,2096921, 170788, 669930
2096921,2096921, 170744, 670187
2096921,2096921, 170591, 670429
2096921,2096921, 170707, 670625
2096921,2096921, 170600, 670769
2096921,2096921, 170923, 670374
2096921,2096921, 170805, 670161
2096921,2096921, 170553, 670537
2096921,2096921, 170754, 670312
2096921,2096921, 170910, 670631
2096921,2096921, 170894, 670444
2096921,2096921, 170915, 670696
2096921,2096921, 170761, 670630
2096921,2096921, 170935, 670971
2096921,2096921, 171086, 671302
2096921,2096921, 171245, 670838
2096921,2096921, 170949, 671039
2096921,2096921, 171053, 670974
2096921,2096921, 171043, 670786
2096921,2096921, 170863, 671072
2096921,2096921, 171037, 670935
2096921,2096921, 170955, 670846
2096921,2096921, 170905, 670782
2096921,2096921, 170972, 670804
2096921,2096921, 170969, 671086
2096921,2096921, 170715, 670911
2096921,2096921, 170871, 671003
2096921,2096921, 170842, 671165
2096921,2096921, 171098, 670937
2096921,2096921, 171031, 671247
2096921,2096921, 171119, 671042
2096921,2096921, 170988, 670839
2096921,2096921, 170713, 671192
2096921,2096921, 171051, 671264
2096921,2096921, 171368, 671616
2096921,2096921, 170952, 671445
2096921,2096921, 171111, 671091
2096921,2096921, 171182, 671039
2096921,2096921, 171207, 671155
2096921,2096921, 171113, 671163
2096921,2096921, 171066, 671465
2096921,2096921, 170912, 671232
2096921,2096921, 170980, 671438
2096921,2096921, 170934, 671572
2096921,2096921, 171163, 671505
2096921,2096921, 171211, 671529
2096921,2096921, 171246, 671397
2096921,2096921, 171417, 671394
2096921,2096921, 171189, 671345
2096921,2096921, 171253, 671554
2096921,2096921, 171193, 671516
2096921,2096921, 171348, 671265
2096921,2096921, 170983, 671360
2096921,2096921, 171125, 671627
2096921,2096921, 171006, 671411
2096921,2096921, 171260, 671611
2096921,2096921, 171402, 671686
2096921,2096921, 171376, 671773
2096921,2096921, 170997, 671803
2096921,2096921, 171295, 671956
2096921,2096921, 171390, 671960
2096921,2096921, 171315, 671711
2096921,2096921, 171530, 671909
2096921,2096921, 171523, 671701
2096921,2096921, 171074, 671922
2096921,2096921, 171312, 671798
2096921,2096921, 171257, 672060
2096921,2096921, 171153, 671984
2096921,2096921, 170900, 672135
2096921,2096921, 171407, 671824
2096921,2096921, 171633, 672025
2096921,2096921, 171530, 671796
2096921,2096921, 171540, 671946
2096921,2096921, 171447, 672046
2096921,2096921, 171479, 672085
2096921,2096921, 171211, 672248
2096921,2096921, 171228, 671986
2096921,2096921, 171594, 671951
2096921,2096921, 171416, 672035
2096921,2096921, 171462, 671957
2096921,2096921, 171616, 671841
2096921,2096921, 171104, 671933
2096921,2096921, 171514, 671992
2096921,2096921, 171649, 671991
2096921,2096921, 171232, 672215
2096921,2096921, 171395, 672195
2096921,2096921, 171358, 672155
2096921,2096921, 171243, 672370
2096921,2096921, 171415, 672384
2096921,2096921, 171512, 672235
2096921,2096921, 171077, 672053
2096921,2096921, 171358, 672130
2096921,2096921, 171676, 672347
2096921,2096921, 171540, 672120
2096921,2096921, 171484, 672236
2096921,2096921, 171504, 672099
2096921,2096921, 171451, 672049
2096921,2096921, 171310, 672411
2096921,2096921, 171396, 672211
2096921,2096921, 171593, 672300
2096921,2096921, 171130, 672336
2096921,2096921, 171348, 672128
2096921,2096921, 171489, 672060
2096921,2096921, 171548, 672072
2096921,2096921, 171662, 672043
2096921,2096921, 171603, 672113
2096921,2096921, 171401, 672190
2096921,2096921, 171427, 672093
2096921,2096921, 171400, 672029
2096921,2096921, 171399, 672023
2096921,2096921, 171415, 672038
2096921,2096921, 171339, 672030
2096921,2096921, 171612, 672084
2096921,2096921, 171482, 672148
2096921,2096921, 171406, 672156
2096921,2096921, 171496, 671878
2096921,2096921, 171518, 671985
2096921,2096921, 171695, 672207
2096921,2096921, 171483, 672430
2096921,2096921, 171441, 672274
2096921,2096921, 171343, 672160
2096921,2096921, 171097, 672033
2096921,2096921, 171149, 672225
2096921,2096921, 171379, 671948
2096921,2096921, 171327, 671921
2096921,2096921, 171574, 671874
2096921,2096921, 171484, 672407
2096921,2096921, 171116, 672075
2096921,2096921, 171657, 672105
2096921,2096921, 171469, 672096
2096921,2096921, 171758, 672071
2096921,2096921, 171639, 672212
2096921,2096921, 171555, 672145
2096921,2096921, 171593, 672105
2096921,2096921, 171399, 672375
2096921,2096921, 171233, 672221
2096921,2096921, 171298, 672177
2096921,2096921, 171025, 671586
2096921,2096921, 170991, 671671
2096921,2096921, 171040, 671513
2096921,2096921, 171189, 671342
2096921,2096921, 171090, 671356
2096921,2096921, 170858, 670588
2096921,2096921, 170934, 670873
2096921,2096921, 171003, 670480
2096921,2096921, 170995, 670719
2096921,2096921, 170708, 670681
2096921,2096921, 170415, 669767
2096921,2096921, 170384, 669506
2096921,2096921, 170676, 669595
2096921,2096921, 170309, 669424
2096921,2096921, 170250, 669712
2096921,2096921, 169929, 668674
2096921,2096921, 170243, 668275
2096921,2096921, 169982, 668212
2096921,2096921, 170006, 668124
2096921,2096921, 170090, 668080
2096921,2096921, 169609, 667147
2096921,2096921, 169533, 666651
2096921,2096921, 169373, 666633
2096921,2096921, 169413, 666485
2096921,2096921, 169347, 666765
2096921,2096921, 168324, 664236
2096921,2096921, 168291, 663795
2096921,2096921, 167980, 663645
2096921,2096921, 168086, 663462
2096921,2096921, 167782, 663248
2096921,2096921, 166697, 659982
2096921,2096921, 166385, 659316
2096921,2096921, 166498, 659099
2096921,2096921, 166243, 659289
2096921,2096921, 166388, 659250
2096921,2096921, 165425, 656759
2096921,2096921, 165145, 656027
2096921,2096921, 165032, 655958
2096921,2096921, 165193, 656002
2096921,2096921, 164944, 655787
2096921,2096921, 164674, 654053
2096921,2096921, 164366, 653746
2096921,2096921, 164390, 653551
2096921,2096921, 164318, 653597
2096921,2096921, 164124, 653691
2096921,2096921, 163721, 652522
2096921,2096921, 163609, 651980
2096921,2096921, 163664, 651993
2096921,2096921, 163838, 651976
2096921,2096921, 163487, 651726
2096921,2096921, 163327, 650901
2096921,2096921, 163241, 650765
2096921,2096921, 162900, 650664
2096921,2096921, 163028, 650449
2096921,2096921, 163039, 650633
2096921,2096921, 162673, 649784
2096921,2096921, 162543, 649540
2096921,2096921, 162800, 649474
2096921,2096921, 162661, 649722
2096921,2096921, 162780, 649701
2096921,2096921, 162710, 649702
2096921,2096921, 162629, 649221
2096921,2096921, 162491, 649204
2096921,2096921, 162581, 649046
2096921,2096921, 162565, 649245
2096921,2096921, 162255, 648948
2096921,2096921, 162544, 649069
2096921,2096921, 162622, 649042
2096921,2096921, 162215, 648975
2096921,2096921, 162589, 649252
2096921,2096921, 162540, 649077
2096921,2096921, 162725, 649185
2096921,2096921, 162430, 649067
2096921,2096921, 162531, 648928
2096921,2096921, 162327, 649052
2096921,2096921, 162413, 649152
2096921,2096921, 162653, 649168
2096921,2096921, 162254, 649533
2096921,2096921, 162540, 649425
2096921,2096921, 162566, 649519
2096921,2096921, 162908, 649495
2096921,2096921, 162542, 649454
2096921,2096921, 162610, 649368
2096921,2096921, 162712, 649590
2096921,2096921, 162784, 649613
2096921,2096921, 162571, 649784
2096921,2096921, 162791, 649946
2096921,2096921, 162592, 649930
2096921,2096921, 162774, 649766
2096921,2096921, 162790, 650048
2096921,2096921, 162795, 650485
2096921,2096921, 162829, 650409
2096921,2096921, 162876, 650168
2096921,2096921, 163243, 650356
2096921,2096921, 163089, 650502
2096921,2096921, 163191, 650977
2096921,2096921, 163369, 651209
2096921,2096921, 163298, 651072
2096921,2096921, 163138, 650982
2096921,2096921, 163296, 650870
2096921,2096921, 163225, 651464
2096921,2096921, 163173, 651758
2096921,2096921, 163337, 651509
2096921,2096921, 163272, 651738
2096921,2096921, 163486, 651857
2096921,2096921, 163569, 652348
2096921,2096921, 163695, 652620
2096921,2096921, 163817, 652650
2096921,2096921, 163597, 652664
2096921,2096921, 163725, 652873
2096921,2096921, 164187, 653128
2096921,2096921, 164116, 653016
2096921,2096921, 164104, 653034
2096921,2096921, 163892, 653533
2096921,2096921, 164015, 653700
2096921,2096921, 164257, 653906
2096921,2096921, 164677, 653941
2096921,2096921, 164576, 653818
2096921,2096921, 164425, 653683
2096921,2096921, 164339, 653725
2096921,2096921, 164457, 654420
2096921,2096921, 164572, 654732
2096921,2096921, 164592, 654767
2096921,2096921, 164512, 654759
2096921,2096921, 164740, 654583
2096921,2096921, 164458, 655202
2096921,2096921, 164756, 655464
2096921,2096921, 164861, 655602
2096921,2096921, 164934, 655231
2096921,2096921, 164929, 655470
2096921,2096921, 165175, 655926
2096921,2096921, 165100, 655981
2096921,2096921, 165354, 656245
2096921,2096921, 165117, 656101
2096921,2096921, 165092, 656133
2096921,2096921, 165331, 656857
2096921,2096921, 165521, 657016
2096921,2096921, 165582, 656736
2096921,2096921, 165501, 656896
2096921,2096921, 165460, 656692
2096921,2096921, 165651, 657154
2096921,2096921, 165711, 657729
2096921,2096921, 165876, 657658
2096921,2096921, 165688, 657671
2096921,2096921, 165820, 657467
2096921,2096921, 166007, 658152
2096921,2096921, 166025, 658318
2096921,2096921, 166042, 658484
2096921,2096921, 165956, 658619
2096921,2096921, 166336, 658572
2096921,2096921, 166059, 658880
2096921,2096921, 166294, 658861
2096921,2096921, 166317, 658898
2096921,2096921, 166297, 659065
2096921,2096921, 166155, 658792
2096921,2096921, 166642, 659506
2096921,2096921, 166547, 659269
2096921,2096921, 166698, 659751
2096921,2096921, 166649, 659692
2096921,2096921, 166579, 659821
2096921,2096921, 166718, 659962
2096921,2096921, 166629, 660017
2096921,2096921, 166839, 660201
2096921,2096921, 166654, 660000
2096921,2096921, 166592, 659814
2096921,2096921, 167087, 660219
2096921,2096921, 166893, 660373
2096921,2096921, 166924, 660190
2096921,2096921, 166998, 660378
2096921,2096921, 166990, 660491
2096921,2096921, 167054, 660651
2096921,2096921, 166944, 660428
2096921,2096921, 166840, 660560
2096921,2096921, 166867, 660588
2096921,2096921, 167187, 660474
2096921,2096921, 167154, 660644
2096921,2096921, 167009, 660530
2096921,2096921, 167010, 660449
2096921,2096921, 167141, 660452
2096921,2096921, 166936, 660519
2096921,2096921, 167206, 660276
2096921,2096921, 167159, 660501
2096921,2096921, 167278, 660570
2096921,2096921, 167008, 660626
2096921,2096921, 167034, 660500
2096921,2096921, 166773, 660452
2096921,2096921, 166835, 660612
2096921,2096921, 166791, 660196
2096921,2096921, 167140, 660608
2096921,2096921, 167136, 660332
2096921,2096921, 166826, 660389
2096921,2096921, 166993, 660374
2096921,2096921, 166863, 660146
2096921,2096921, 166848, 660412
2096921,2096921, 166814, 660220
2096921,2096921, 166594, 660229
2096921,2096921, 166668, 659933
2096921,2096921, 167111, 660021
2096921,2096921, 166916, 659777
2096921,2096921, 166735, 660054
2096921,2096921, 166823, 659685
2096921,2096921, 166591, 659846
2096921,2096921, 166515, 659682
2096921,2096921, 166702, 659865
2096921,2096921, 166581, 659950
2096921,2096921, 166692, 659727
2096921,2096921, 166466, 659640
2096921,2096921, 166769, 659733
2096921,2096921, 166729, 659650
2096921,2096921, 166638, 659586
2096921,2096921, 166520, 659405
2096921,2096921, 166627, 659757
2096921,2096921, 166684, 659813
2096921,2096921, 166710, 659911
2096921,2096921, 166550, 659665
2096921,2096921, 166977, 659671
2096921,2096921, 166508, 659794
2096921,2096921, 166693, 659772
2096921,2096921, 166762, 659690
2096921,2096921, 166605, 659731
2096921,2096921, 166431, 659644
2096921,2096921, 166681, 659845
2096921,2096921, 166761, 659612
2096921,2096921, 166530, 659800
2096921,2096921, 166366, 659893
2096921,2096921, 166449, 659740
2096921,2096921, 166672, 660030
2096921,2096921, 166689, 660077
2096921,2096921, 166584, 660074
2096921,2096921, 166778, 659906
2096921,2096921, 167017, 660177
2096921,2096921, 166943, 660430
2096921,2096921, 166823, 660493
2096921,2096921, 166735, 660483
2096921,2096921, 166935, 660312
2096921,2096921, 166821, 660762
2096921,2096921, 167066, 660763
2096921,2096921, 166910, 660939
2096921,2096921, 167098, 660830
2096921,2096921, 167150, 660981
2096921,2096921, 167247, 661506
2096921,2096921, 167284, 661216
2096921,2096921, 167384, 661453
2096921,2096921, 167182, 661425
2096921,2096921, 167338, 661714
2096921,2096921, 167505, 662132
2096921,2096921, 167344, 661861
2096921,2096921, 167563, 661858
2096921,2096921, 167460, 661980
2096921,2096921, 167491, 662073
2096921,2096921, 167356, 662363
2096921,2096921, 167711, 662733
2096921,2096921, 167474, 662649
2096921,2096921, 167698, 662598
2096921,2096921, 167440, 662516
2096921,2096921, 167492, 662874
2096921,2096921, 167900, 663225
2096921,2096921, 168045, 663267
2096921,2096921, 167848, 663074
2096921,2096921, 168168, 663255
2096921,2096921, 168225, 663689
2096921,2096921, 168437, 663505
2096921,2096921, 168127, 663212
2096921,2096921, 168147, 663424
2096921,2096921, 167988, 663334
2096921,2096921, 168134, 663856
2096921,2096921, 167925, 663837
2096921,2096921, 168298, 664163
2096921,2096921, 168297, 663855
2096921,2096921, 168452, 663880
2096921,2096921, 168516, 664357
2096921,2096921, 168413, 664343
2096921,2096921, 168308, 664426
2096921,2096921, 168615, 664557
2096921,2096921, 168298, 664616
2096921,2096921, 168236, 664949
2096921,2096921, 168348, 665134
2096921,2096921, 168549, 664957
2096921,2096921, 168691, 665053
2096921,2096921, 168769, 664598
2096921,2096921, 168931, 665444
2096921,2096921, 168928, 665547
2096921,2096921, 169004, 665563
2096921,2096921, 168895, 665857
2096921,2096921, 168718, 665522
2096921,2096921, 168974, 665626
2096921,2096921, 168944, 665998
2096921,2096921, 168878, 666107
2096921,2096921, 168676, 665805
2096921,2096921, 168857, 665907
2096921,2096921, 169049, 666017
2096921,2096921, 169121, 666351
2096921,2096921, 168928, 666189
2096921,2096921, 168989, 666194
2096921,2096921, 168935, 666184
2096921,2096921, 169222, 666605
2096921,2096921, 169024, 666625
2096921,2096921, 168958, 667052
2096921,2096921, 169155, 666785
2096921,2096921, 169367, 666873
2096921,2096921, 169621, 667133
2096921,2096921, 169738, 667100
2096921,2096921, 169582, 667340
2096921,2096921, 169630, 667295
2096921,2096921, 169410, 667102
2096921,2096921, 169648, 667782
2096921,2096921, 169265, 667721
2096921,2096921, 169437, 667768
2096921,2096921, 169632, 667664
2096921,2096921, 169605, 667839
2096921,2096921, 169639, 668330
2096921,2096921, 169885, 668372
2096921,2096921, 169827, 668273
2096921,2096921, 169728, 668024
2096921,2096921, 169655, 668041
2096921,2096921, 169918, 668522
2096921,2096921, 169896, 668468
2096921,2096921, 169784, 668631
2096921,2096921, 170054, 668648
2096921,2096921, 169859, 668689
2096921,2096921, 170007, 669057
2096921,2096921, 170125, 669065
2096921,2096921, 169946, 669300
2096921,2096921, 170149, 669031
2096921,2096921, 170005, 668794
2096921,2096921, 170141, 669138
2096921,2096921, 170364, 669298
2096921,2096921, 170545, 669323
2096921,2096921, 170259, 669293
2096921,2096921, 170185, 669365
2096921,2096921, 170293, 669625
2096921,2096921, 170358, 669767
2096921,2096921, 170540, 669801
2096921,2096921, 170357, 670023
2096921,2096921, 170259, 669591
2096921,2096921, 170501, 670048
2096921,2096921, 170613, 670249
2096921,2096921, 170331, 670117
2096921,2096921, 170769, 670254
2096921,2096921, 170600, 670372
2096921,2096921, 170731, 670415
2096921,2096921, 170682, 670576
2096921,2096921, 170540, 670382
2096921,2096921, 170686, 670466
2096921,2096921, 170425, 670459
2096921,2096921, 170550, 670852
2096921,2096921, 170825, 670741
2096921,2096921, 170625, 670877
2096921,2096921, 170529, 670809
2096921,2096921, 170721, 670914
2096921,2096921, 171002, 671165
2096921,2096921, 171254, 671333
2096921,2096921, 171008, 671208
2096921,2096921, 170735, 671330
2096921,2096921, 171027, 671269
2096921,2096921, 171006, 671576
2096921,2096921, 171155, 671501
2096921,2096921, 171147, 671623
2096921,2096921, 171001, 671138
2096921,2096921, 171059, 671421
2096921,2096921, 171024, 671626
2096921,2096921, 171066, 671707
2096921,2096921, 171184, 671751
2096921,2096921, 171242, 671785
2096921,2096921, 171258, 671667
2096921,2096921, 171461, 671919
2096921,2096921, 171369, 671927
2096921,2096921, 171370, 672088
2096921,2096921, 170920, 672186
2096921,2096921, 171216, 672082
2096921,2096921, 171324, 672287
2096921,2096921, 171389, 672344
2096921,2096921, 170946, 672253
2096921,2096921, 171234, 672249
2096921,2096921, 171466, 672468
2096921,2096921, 171448, 672593
2096921,2096921, 171470, 672743
2096921,2096921, 171276, 672523
2096921,2096921, 171395, 672666
2096921,2096921, 171540, 672430
2096921,2096921, 171414, 672929
2096921,2096921, 171254, 672694
2096921,2096921, 171459, 672965
2096921,2096921, 171360, 672698
2096921,2096921, 171322, 672859
2096921,2096921, 171643, 672868
2096921,2096921, 171513, 673034
2096921,2096921, 171620, 672936
2096921,2096921, 171371, 672928
2096921,2096921, 171672, 672799
2096921,2096921, 171728, 673098
2096921,2096921, 171763, 673135
2096921,2096921, 171609, 672934
2096921,2096921, 171349, 673103
2096921,2096921, 171597, 673159
2096921,2096921, 171473, 673223
2096921,2096921, 171444, 673295
2096921,2096921, 171614, 673456
2096921,2096921, 171707, 673738
2096921,2096921, 171637, 673800
2096921,2096921, 171674, 674004
2096921,2096921, 171764, 673849
2096921,2096921, 171734, 673817
2096921,2096921, 171833, 673893
2096921,2096921, 171876, 673610
2096921,2096921, 171885, 673648
2096921,2096921, 171839, 673857
2096921,2096921, 171900, 673917
2096921,2096921, 171800, 673625
2096921,2096921, 171759, 674051
2096921,2096921, 171812, 674113
2096921,2096921, 172027, 674541
2096921,2096921, 171829, 674424
2096921,2096921, 171991, 674413
2096921,2096921, 171821, 674236
2096921,2096921, 171872, 674134
2096921,2096921, 171781, 674511
2096921,2096921, 171917, 674387
2096921,2096921, 172053, 674369
2096921,2096921, 171742, 674169
2096921,2096921, 171680, 674636
2096921,2096921, 172285, 674928
2096921,2096921, 172002, 674460
2096921,2096921, 171986, 674533
2096921,2096921, 172144, 674574
2096921,2096921, 172229, 674637
2096921,2096921, 172106, 674654
2096921,2096921, 172305, 674705
2096921,2096921, 172165, 674772
2096921,2096921, 172257, 674711
2096921,2096921, 172259, 674810
2096921,2096921, 172351, 674961
2096921,2096921, 172255, 675032
2096921,2096921, 172098, 674942
2096921,2096921, 172088, 674828
2096921,2096921, 172093, 675109
2096921,2096921, 172212, 675258
2096921,2096921, 172268, 675134
2096921,2096921, 172257, 674937
2096921,2096921, 172274, 675254
2096921,2096921, 172619, 675300
2096921,2096921, 172580, 675031
2096921,2096921, 172525, 675510
2096921,2096921, 171927, 675263
2096921,2096921, 172181, 675177
2096921,2096921, 172070, 675320
2096921,2096921, 172061, 675322
2096921,2096921, 172117, 675676
2096921,2096921, 172328, 675514
2096921,2096921, 172441, 675412
2096921,2096921, 172551, 675341
2096921,2096921, 172473, 675610
2096921,2096921, 172447, 675816
2096921,2096921, 172066, 675820
2096921,2096921, 172065, 675560
2096921,2096921, 172285, 676000
2096921,2096921, 172242, 675446
2096921,2096921, 172323, 675668
2096921,2096921, 172331, 675948
2096921,2096921, 172396, 675967
2096921,2096921, 172673, 675608
2096921,2096921, 172577, 675790
2096921,2096921, 172413, 675731
2096921,2096921, 172635, 676137
2096921,2096921, 172515, 676053
2096921,2096921, 172573, 675957
2096921,2096921, 172521, 675775
2096921,2096921, 172745, 676120
2096921,2096921, 172571, 675942
2096921,2096921, 172598, 676048
2096921,2096921, 172469, 675898
2096921,2096921, 172647, 675882
2096921,2096921, 172269, 676000
2096921,2096921, 172611, 675988
2096921,2096921, 172587, 675767
2096921,2096921, 172459, 676103
2096921,2096921, 172616, 676041
2096921,2096921, 172834, 675874
2096921,2096921, 172602, 675871
2096921,2096921, 172845, 676029
2096921,2096921, 172454, 676301
2096921,2096921, 172421, 676121
2096921,2096921, 172717, 675896
2096921,2096921, 172643, 676022
2096921,2096921, 172504, 676236
2096921,2096921, 172397, 676176
2096921,2096921, 172514, 676287
2096921,2096921, 172641, 676184
2096921,2096921, 172441, 676387
2096921,2096921, 172257, 676284
2096921,2096921, 172486, 676496
2096921,2096921, 172544, 676289
2096921,2096921, 172455, 676394
2096921,2096921, 172306, 676572
2096921,2096921, 172627, 676431
2096921,2096921, 172771, 676603
2096921,2096921, 172556, 676495
2096921,2096921, 172459, 676188
2096921,2096921, 172738, 676615
2096921,2096921, 172566, 676535
2096921,2096921, 172288, 676182
2096921,2096921, 172267, 675803
2096921,2096921, 172209, 675646
2096921,2096921, 172495, 675755
2096921,2096921, 172324, 675560
2096921,2096921, 172273, 675288
2096921,2096921, 172208, 675613
2096921,2096921, 172174, 675223
2096921,2096921, 172153, 675184
2096921,2096921, 172025, 675277
2096921,2096921, 171876, 674324
2096921,2096921, 171945, 674112
2096921,2096921, 171639, 674197
2096921,2096921, 171607, 674226
2096921,2096921, 171458, 674137
2096921,2096921, 171126, 673001
2096921,2096921, 170921, 672812
2096921,2096921, 170953, 672638
2096921,2096921, 171283, 672522
2096921,2096921, 171296, 672950
2096921,2096921, 170818, 671702
2096921,2096921, 170643, 671643
2096921,2096921, 170750, 671599
2096921,2096921, 170573, 671494
2096921,2096921, 170240, 671222
2096921,2096921, 169307, 668674
2096921,2096921, 169285, 668398
2096921,2096921, 169249, 667908
2096921,2096921, 169416, 668040
2096921,2096921, 169065, 667905
2096921,2096921, 167905, 664474
2096921,2096921, 167769, 664083
2096921,2096921, 167721, 663990
2096921,2096921, 167661, 664113
2096921,2096921, 167696, 663539
2096921,2096921, 166833, 661294
2096921,2096921, 166725, 661171
2096921,2096921, 166257, 660704
2096921,2096921, 166270, 660832
2096921,2096921, 166352, 661074
2096921,2096921, 165701, 658959
2096921,2096921, 165876, 658624
2096921,2096921, 165504, 658828
2096921,2096921, 165421, 658669
2096921,2096921, 165407, 658356
2096921,2096921, 164714, 657131
2096921,2096921, 164816, 657034
2096921,2096921, 164988, 656949
2096921,2096921, 164665, 656508
2096921,2096921, 164672, 656763
2096921,2096921, 164595, 655784
2096921,2096921, 164470, 655894
2096921,2096921, 164325, 655837
2096921,2096921, 164406, 655441
2096921,2096921, 164360, 655653
2096921,2096921, 164108, 655266
2096921,2096921, 164139, 654957
2096921,2096921, 163944, 654896
2096921,2096921, 164016, 654828
2096921,2096921, 163997, 654790
2096921,2096921, 163948, 654301
2096921,2096921, 164010, 654489
2096921,2096921, 164282, 654121
2096921,2096921, 164086, 654314
2096921,2096921, 163540, 654249
2096921,2096921, 163464, 654319
2096921,2096921, 163511, 654364
2096921,2096921, 163783, 654336
2096921,2096921, 163822, 654065
2096921,2096921, 163928, 654393
2096921,2096921, 163814, 654236
2096921,2096921, 163756, 654565
2096921,2096921, 163906, 654315
2096921,2096921, 163880, 654173
2096921,2096921, 163521, 654016
2096921,2096921, 163910, 654542
2096921,2096921, 163883, 654444
2096921,2096921, 163982, 654783
2096921,2096921, 163809, 654927
2096921,2096921, 163778, 654939
2096921,2096921, 163886, 654852
2096921,2096921, 164118, 654835
2096921,2096921, 164062, 654936
2096921,2096921, 164041, 654616
2096921,2096921, 163989, 655095
2096921,2096921, 164087, 655341
2096921,2096921, 164179, 655342
2096921,2096921, 164038, 655304
2096921,2096921, 164323, 655317
2096921,2096921, 164451, 655381
2096921,2096921, 164269, 655976
2096921,2096921, 164548, 655917
2096921,2096921, 164292, 656237
2096921,2096921, 164283, 655887
2096921,2096921, 164445, 656025
2096921,2096921, 164536, 656255
2096921,2096921, 164484, 656576
2096921,2096921, 164460, 656787
2096921,2096921, 164706, 656735
2096921,2096921, 164784, 656774
2096921,2096921, 165046, 657594
2096921,2096921, 164886, 657493
2096921,2096921, 165072, 657556
2096921,2096921, 164791, 657416
2096921,2096921, 164865, 657475
2096921,2096921, 165374, 658067
2096921,2096921, 165460, 658510
2096921,2096921, 165503, 658230
2096921,2096921, 165330, 658234
2096921,2096921, 165401, 658674
2096921,2096921, 165347, 659145
2096921,2096921, 165413, 659130
2096921,2096921, 165618, 659075
2096921,2096921, 165564, 658817
2096921,2096921, 165843, 659288
2096921,2096921, 165902, 659709
2096921,2096921, 165782, 659910
2096921,2096921, 165725, 659764
2096921,2096921, 165969, 659973
2096921,2096921, 165961, 659772
2096921,2096921, 166133, 660432
2096921,2096921, 165949, 660665
2096921,2096921, 166155, 660496
2096921,2096921, 166180, 660523
2096921,2096921, 166220, 660406
2096921,2096921, 166553, 660950
2096921,2096921, 166196, 661351
2096921,2096921, 166114, 661714
2096921,2096921, 166634, 661364
2096921,2096921, 166514, 661444
2096921,2096921, 166866, 661881
2096921,2096921, 166794, 661970
2096921,2096921, 166608, 662056
2096921,2096921, 166890, 662140
2096921,2096921, 167036, 662189
2096921,2096921, 167179, 662895
2096921,2096921, 167351, 662741
2096921,2096921, 167299, 662853
2096921,2096921, 167045, 662913
2096921,2096921, 167442, 662761
2096921,2096921, 167470, 663429
2096921,2096921, 167375, 664010
2096921,2096921, 167331, 664091
2096921,2096921, 167340, 663822
2096921,2096921, 167637, 663838
2096921,2096921, 167488, 664144
2096921,2096921, 167839, 664522
2096921,2096921, 168162, 664609
2096921,2096921, 167625, 664720
2096921,2096921, 167885, 664682
2096921,2096921, 168008, 665233
2096921,2096921, 167739, 665255
2096921,2096921, 167649, 665384
2096921,2096921, 168037, 665321
2096921,2096921, 168007, 665296
2096921,2096921, 167924, 665870
2096921,2096921, 168085, 665932
2096921,2096921, 168245, 665713
2096921,2096921, 168095, 665693
2096921,2096921, 168137, 666058
2096921,2096921, 168622, 666656
2096921,2096921, 168298, 666431
2096921,2096921, 168584, 666311
2096921,2096921, 168547, 666470
2096921,2096921, 168507, 666291
2096921,2096921, 168572, 666814
2096921,2096921, 168518, 666753
2096921,2096921, 168315, 666668
2096921,2096921, 168784, 666754
2096921,2096921, 168534, 666802
2096921,2096921, 168856, 666879
2096921,2096921, 168748, 667252
2096921,2096921, 168726, 667047
2096921,2096921, 168691, 667056
2096921,2096921, 168579, 666928
2096921,2096921, 168580, 667045
2096921,2096921, 168604, 667067
2096921,2096921, 168249, 666651
2096921,2096921, 168864, 667012
2096921,2096921, 168588, 667235
2096921,2096921, 168647, 667148
2096921,2096921, 168943, 667085
2096921,2096921, 168663, 666755
2096921,2096921, 168702, 666924
2096921,2096921, 168262, 666924
2096921,2096921, 168686, 666965
2096921,2096921, 168675, 667007
2096921,2096921, 168632, 666770
2096921,2096921, 168511, 667025
2096921,2096921, 168725, 667224
2096921,2096921, 168560, 666954
2096921,2096921, 168383, 667147
2096921,2096921, 168433, 667155
2096921,2096921, 168395, 666863
2096921,2096921, 168490, 666866
2096921,2096921, 168537, 666288
2096921,2096921, 168426, 666407
2096921,2096921, 168397, 666447
2096921,2096921, 168485, 666486
2096921,2096921, 168509, 666362
2096921,2096921, 168519, 666373
2096921,2096921, 168436, 665979
2096921,2096921, 168431, 666462
2096921,2096921, 168450, 666193
2096921,2096921, 168431, 666209
2096921,2096921, 168070, 666116
2096921,2096921, 168328, 666167
2096921,2096921, 168090, 665955
2096921,2096921, 168261, 665824
2096921,2096921, 168233, 665910
2096921,2096921, 168197, 666025
2096921,2096921, 168239, 665723
2096921,2096921, 168382, 665753
2096921,2096921, 168197, 666041
2096921,2096921, 168177, 665911
2096921,2096921, 168219, 665989
2096921,2096921, 168033, 665721
2096921,2096921, 168231, 666065
2096921,2096921, 168233, 665892
2096921,2096921, 168411, 665935
2096921,2096921, 168532, 666022
2096921,2096921, 168364, 666014
2096921,2096921, 168361, 666158
2096921,2096921, 167927, 666163
2096921,2096921, 167973, 665995
2096921,2096921, 168008, 666276
2096921,2096921, 168203, 666104
2096921,2096921, 168144, 666260
2096921,2096921, 168118, 666138
2096921,2096921, 168365, 666285
2096921,2096921, 168372, 666302
2096921,2096921, 168374, 666546
2096921,2096921, 168438, 666725
2096921,2096921, 168131, 666530
2096921,2096921, 168341, 666372
2096921,2096921, 168687, 666711
2096921,2096921, 168424, 667134
2096921,2096921, 168609, 667219
2096921,2096921, 168908, 667168
2096921,2096921, 168718, 666926
2096921,2096921, 168913, 667537
2096921,2096921, 168907, 667628
2096921,2096921, 168740, 667445
2096921,2096921, 168972, 667684
2096921,2096921, 168964, 667476
2096921,2096921, 169063, 667873
2096921,2096921, 168689, 668076
2096921,2096921, 168928, 668042
2096921,2096921, 169452, 668312
2096921,2096921, 169066, 668262
2096921,2096921, 169193, 668515
2096921,2096921, 169319, 668535
2096921,2096921, 169338, 668663
2096921,2096921, 169179, 668591
2096921,2096921, 169165, 668726
2096921,2096921, 169305, 668984
2096921,2096921, 169360, 668930
2096921,2096921, 169256, 668633
2096921,2096921, 169357, 669198
2096921,2096921, 169603, 668949
2096921,2096921, 169694, 669449
2096921,2096921, 169775, 669622
2096921,2096921, 169521, 669255
2096921,2096921, 169595, 669428
2096921,2096921, 169800, 669571
2096921,2096921, 169832, 670016
2096921,2096921, 169831, 669773
2096921,2096921, 169815, 669811
2096921,2096921, 169713, 669862
2096921,2096921, 169567, 669766
2096921,2096921, 169769, 670236
2096921,2096921, 170117, 670283
2096921,2096921, 170149, 670057
2096921,2096921, 169689, 670051
2096921,2096921, 170008, 670513
2096921,2096921, 170045, 670734
2096921,2096921, 170202, 670693
2096921,2096921, 170019, 670754
2096921,2096921, 170027, 670810
2096921,2096921, 169771, 670807
2096921,2096921, 169994, 671070
2096921,2096921, 170246, 671414
2096921,2096921, 170297, 671134
2096921,2096921, 170310, 671212
2096921,2096921, 170235, 671083
2096921,2096921, 170322, 671614
2096921,2096921, 170630, 671431
2096921,2096921, 170764, 671696
2096921,2096921, 170608, 671711
2096921,2096921, 170532, 671693
2096921,2096921, 170652, 671717
2096921,2096921, 170636, 671794
2096921,2096921, 170431, 672045
2096921,2096921, 170639, 672166
2096921,2096921, 170486, 671882
2096921,2096921, 170781, 672138
2096921,2096921, 170774, 672484
2096921,2096921, 170890, 672110
2096921,2096921, 170783, 672308
2096921,2096921, 170972, 672059
2096921,2096921, 170874, 672482
2096921,2096921, 170935, 672433
2096921,2096921, 170928, 672625
2096921,2096921, 171132, 672854
2096921,2096921, 171099, 672930
2096921,2096921, 170966, 672818
2096921,2096921, 171004, 672927
2096921,2096921, 170919, 673105
2096921,2096921, 170971, 673162
2096921,2096921, 171140, 672762
2096921,2096921, 171326, 673378
2096921,2096921, 171377, 673326
2096921,2096921, 171352, 673323
2096921,2096921, 171100, 673535
2096921,2096921, 171265, 673589
2096921,2096921, 171383, 673897
2096921,2096921, 171200, 674124
2096921,2096921, 171311, 673788
2096921,2096921, 171563, 673798
2096921,2096921, 171532, 673870
2096921,2096921, 171437, 674273
2096921,2096921, 171547, 674543
2096921,2096921, 171532, 674236
2096921,2096921, 171422, 674284
2096921,2096921, 171364, 674490
2096921,2096921, 171370, 674508
2096921,2096921, 171591, 674316
2096921,2096921, 171375, 674304
2096921,2096921, 171734, 674681
2096921,2096921, 171537, 674722
2096921,2096921, 171720, 674880
2096921,2096921, 171649, 674796
2096921,2096921, 171876, 674765
2096921,2096921, 171644, 675108
2096921,2096921, 171654, 674789
2096921,2096921, 171889, 675155
2096921,2096921, 172102, 675065
2096921,2096921, 172114, 675004
2096921,2096921, 171766, 675152
2096921,2096921, 171961, 675284
2096921,2096921, 172036, 675327
2096921,2096921, 172000, 675244
2096921,2096921, 171755, 675391
2096921,2096921, 171813, 675446
2096921,2096921, 171839, 675538
2096921,2096921, 172099, 675587
2096921,2096921, 171908, 675766
2096921,2096921, 172251, 675960
2096921,2096921, 172090, 675364
2096921,2096921, 172189, 675826
2096921,2096921, 172030, 676190
2096921,2096921, 172042, 676085
2096921,2096921, 171967, 676085
2096921,2096921, 172181, 676010
2096921,2096921, 171901, 675933
2096921,2096921, 172290, 675952
2096921,2096921, 172263, 676414
2096921,2096921, 172266, 676431
2096921,2096921, 172358, 676171
2096921,2096921, 172038, 676132
2096921,2096921, 172403, 676435
2096921,2096921, 172514, 676540
2096921,2096921, 172281, 676522
2096921,2096921, 172511, 676476
2096921,2096921, 172239, 676308
2096921,2096921, 172472, 676177
2096921,2096921, 172413, 676432
2096921,2096921, 172131, 676431
2096921,2096921, 172730, 676471
2096921,2096921, 172655, 676655
2096921,2096921, 172301, 676999
2096921,2096921, 172567, 676872
2096921,2096921, 172516, 676828
2096921,2096921, 172215, 676593
2096921,2096921, 172472, 676706
2096921,2096921, 172478, 677040
2096921,2096921, 172718, 677037
2096921,2096921, 172416, 676898
2096921,2096921, 172469, 676920
2096921,2096921, 172374, 677195
2096921,2096921, 172544, 677336
2096921,2096921, 172604, 677007
2096921,2096921, 172592, 677275
2096921,2096921, 172498, 677353
2096921,2096921, 172600, 676967
2096921,2096921, 172829, 677391
2096921,2096921, 172711, 677438
2096921,2096921, 172811, 677272
2096921,2096921, 172598, 677354
2096921,2096921, 172450, 677582
2096921,2096921, 172659, 677337
2096921,2096921, 172596, 677390
2096921,2096921, 172686, 677171
2096921,2096921, 172516, 677565
2096921,2096921, 172540, 677336
2096921,2096921, 172984, 677797
2096921,2096921, 172806, 677684
2096921,2096921, 172923, 677932
2096921,2096921, 172906, 677610
2096921,2096921, 172931, 677767
2096921,2096921, 172757, 677765
2096921,2096921, 172997, 678013
2096921,2096921, 172729, 677932
2096921,2096921, 173020, 677784
2096921,2096921, 172701, 677600
2096921,2096921, 173024, 677702
2096921,2096921, 172917, 677944
2096921,2096921, 172948, 677834
2096921,2096921, 172714, 677683
2096921,2096921, 172716, 677801
2096921,2096921, 172543, 677950
2096921,2096921, 173109, 677843
2096921,2096921, 172946, 678239
2096921,2096921, 172740, 677955
2096921,2096921, 172833, 677874
2096921,2096921, 173094, 677861
2096921,2096921, 172959, 678164
2096921,2096921, 173079, 678187
2096921,2096921, 173094, 678087
2096921,2096921, 172853, 678097
2096921,2096921, 172698, 678259
2096921,2096921, 173036, 678399
2096921,2096921, 173297, 678295
2096921,2096921, 172657, 678597
2096921,2096921, 172984, 678065
2096921,2096921, 172971, 678384
2096921,2096921, 173204, 678441
2096921,2096921, 173175, 678342
2096921,2096921, 172858, 678532
2096921,2096921, 172838, 678451
2096921,2096921, 173074, 678423
2096921,2096921, 173139, 678684
2096921,2096921, 173146, 678502
2096921,2096921, 172996, 678078
2096921,2096921, 172957, 678119
2096921,2096921, 173144, 678695
2096921,2096921, 173082, 678344
2096921,2096921, 173109, 678401
2096921,2096921, 173255, 678714
2096921,2096921, 173171, 678733
2096921,2096921, 173300, 678543
2096921,2096921, 173075, 678473
2096921,2096921, 173070, 678305
2096921,2096921, 173462, 678418
2096921,2096921, 173304, 678628
2096921,2096921, 173446, 678488
2096921,2096921, 173130, 678617
2096921,2096921, 173205, 678507
2096921,2096921, 173264, 678808
2096921,2096921, 173380, 678474
2096921,2096921, 173269, 678604
2096921,2096921, 173529, 678660
2096921,2096921, 172879, 678631
2096921,2096921, 173147, 678408
2096921,2096921, 173560, 678690
2096921,2096921, 173276, 678604
2096921,2096921, 173050, 678818
2096921,2096921, 173024, 678687
2096921,2096921, 173389, 678783
2096921,2096921, 173395, 678822
2096921,2096921, 173146, 678575
2096921,2096921, 173141, 678644
2096921,2096921, 173323, 678784
2096921,2096921, 173190, 678502
2096921,2096921, 173178, 678559
2096921,2096921, 173088, 678721
2096921,2096921, 173003, 678324
2096921,2096921, 173124, 678034
2096921,2096921, 173546, 678482
2096921,2096921, 173386, 678510
2096921,2096921, 173347, 678702
2096921,2096921, 173350, 678786
2096921,2096921, 173278, 678854
2096921,2096921, 173128, 678791
2096921,2096921, 173392, 678491
2096921,2096921, 173348, 678768
2096921,2096921, 173113, 678228
2096921,2096921, 173072, 678347
2096921,2096921, 173224, 678612
2096921,2096921, 173241, 678518
2096921,2096921, 173275, 678437
2096921,2096921, 173017, 678444
2096921,2096921, 173070, 678227
2096921,2096921, 173062, 678483
2096921,2096921, 173248, 678626
2096921,2096921, 173135, 678588
2096921,2096921, 173375, 678466
2096921,2096921, 173431, 678498
2096921,2096921, 173362, 678611
2096921,2096921, 173316, 678509
2096921,2096921, 173163, 678449
2096921,2096921, 173181, 678446
2096921,2096921, 173044, 678424
2096921,2096921, 173111, 678443
2096921,2096921, 173099, 678346
2096921,2096921, 173041, 678334
2096921,2096921, 173262, 678383
2096921,2096921, 173151, 678571
2096921,2096921, 173317, 678622
2096921,2096921, 173429, 678317
2096921,2096921, 172867, 677713
2096921,2096921, 172729, 677788
2096921,2096921, 172939, 677606
2096921,2096921, 172890, 677454
2096921,2096921, 172780, 677449
2096921,2096921, 172430, 677128
2096921,2096921, 172583, 677031
2096921,2096921, 172379, 676957
2096921,2096921, 172452, 677078
2096921,2096921, 172611, 677003
2096921,2096921, 172402, 676206
2096921,2096921, 172061, 675703
2096921,2096921, 172155, 675734
2096921,2096921, 172356, 675408
2096921,2096921, 172093, 675501
2096921,2096921, 171660, 674782
2096921,2096921, 171635, 674285
2096921,2096921, 171755, 674312
2096921,2096921, 171327, 674629
2096921,2096921, 171491, 674008
2096921,2096921, 171264, 673115
2096921,2096921, 170946, 672581
2096921,2096921, 170877, 672919
2096921,2096921, 170878, 672750
2096921,2096921, 170920, 672827
2096921,2096921, 169723, 670155
2096921,2096921, 169810, 669253
2096921,2096921, 169666, 669357
2096921,2096921, 169696, 668881
2096921,2096921, 169326, 668990
2096921,2096921, 168334, 665759
2096921,2096921, 167932, 665000
2096921,2096921, 168119, 664825
2096921,2096921, 167823, 664644
2096921,2096921, 167637, 665019
2096921,2096921, 166505, 662667
2096921,2096921, 166474, 662210
2096921,2096921, 166860, 661898
2096921,2096921, 166860, 661646
2096921,2096921, 166456, 661671
2096921,2096921, 165857, 660049
2096921,2096921, 165780, 659356
2096921,2096921, 165642, 659392
2096921,2096921, 165642, 659307
2096921,2096921, 165527, 659154
2096921,2096921, 165118, 657897
2096921,2096921, 165057, 657362
2096921,2096921, 165026, 657438
2096921,2096921, 164967, 657220
2096921,2096921, 164780, 657313
2096921,2096921, 164305, 656230
2096921,2096921, 164427, 656045
2096921,2096921, 164576, 655749
2096921,2096921, 164425, 655996
2096921,2096921, 164444, 656010
2096921,2096921, 164284, 654963
2096921,2096921, 163963, 654959
2096921,2096921, 164007, 654974
2096921,2096921, 163604, 654928
2096921,2096921, 164318, 654918
2096921,2096921, 163984, 654489
2096921,2096921, 163930, 654563
2096921,2096921, 163958, 654369
2096921,2096921, 163792, 654437
2096921,2096921, 163638, 654595
2096921,2096921, 163606, 654237
2096921,2096921, 163719, 654478
2096921,2096921, 163831, 654152
2096921,2096921, 163815, 654114
2096921,2096921, 163743, 653756
2096921,2096921, 163754, 654189
2096921,2096921, 163854, 653788
2096921,2096921, 163923, 653983
2096921,2096921, 163829, 654160
2096921,2096921, 163518, 654081
2096921,2096921, 163861, 654529
2096921,2096921, 163768, 654754
2096921,2096921, 163559, 654259
2096921,2096921, 164158, 654327
2096921,2096921, 163966, 654475
2096921,2096921, 164095, 654337
2096921,2096921, 163965, 654238
2096921,2096921, 163829, 654478
2096921,2096921, 163941, 654299
2096921,2096921, 163811, 654467
2096921,2096921, 163937, 654642
2096921,2096921, 164138, 654771
2096921,2096921, 163955, 654501
2096921,2096921, 164045, 654818
2096921,2096921, 164096, 654859
2096921,2096921, 164440, 655132
2096921,2096921, 164250, 655218
2096921,2096921, 164275, 655524
2096921,2096921, 164240, 655161
2096921,2096921, 164334, 655224
2096921,2096921, 164726, 655912
2096921,2096921, 164517, 656005
2096921,2096921, 164380, 656234
2096921,2096921, 164321, 656118
2096921,2096921, 164431, 655941
2096921,2096921, 164842, 656542
2096921,2096921, 164916, 656762
2096921,2096921, 164773, 656641
2096921,2096921, 164935, 656916
2096921,2096921, 164876, 656540
2096921,2096921, 165229, 657142
2096921,2096921, 165114, 657167
2096921,2096921, 165124, 657116
2096921,2096921, 165159, 657320
2096921,2096921, 165045, 657447
2096921,2096921, 165256, 657845
2096921,2096921, 165213, 657875
2096921,2096921, 165444, 657967
2096921,2096921, 165397, 657661
2096921,2096921, 165489, 657845
2096921,2096921, 165411, 658250
2096921,2096921, 165389, 658463
2096921,2096921, 165518, 658728
2096921,2096921, 165754, 658279
2096921,2096921, 165770, 658761
2096921,2096921, 165764, 659128
2096921,2096921, 165883, 659227
2096921,2096921, 165465, 658971
2096921,2096921, 165768, 659012
2096921,2096921, 165823, 659067
2096921,2096921, 166191, 659414
2096921,2096921, 165913, 659682
2096921,2096921, 166010, 659745
2096921,2096921, 166226, 659757
2096921,2096921, 166514, 660053
2096921,2096921, 166399, 660377
2096921,2096921, 166142, 660315
2096921,2096921, 166413, 660503
2096921,2096921, 166155, 660189
2096921,2096921, 166063, 660456
2096921,2096921, 166458, 660824
2096921,2096921, 166468, 661069
2096921,2096921, 166673, 661076
2096921,2096921, 166838, 661138
2096921,2096921, 166786, 661266
2096921,2096921, 166913, 661638
2096921,2096921, 167025, 662219
2096921,2096921, 166807, 662358
2096921,2096921, 166651, 662014
2096921,2096921, 166776, 662054
2096921,2096921, 166867, 662578
2096921,2096921, 166901, 662483
2096921,2096921, 167434, 662559
2096921,2096921, 167304, 662580
2096921,2096921, 167346, 662517
2096921,2096921, 167345, 663034
2096921,2096921, 167525, 663451
2096921,2096921, 167508, 663072
2096921,2096921, 167328, 663083
2096921,2096921, 167413, 663114
2096921,2096921, 167644, 663517
2096921,2096921, 167707, 663367
2096921,2096921, 167679, 663240
2096921,2096921, 167458, 663448
2096921,2096921, 167819, 663436
2096921,2096921, 167851, 663978
2096921,2096921, 167766, 663869
2096921,2096921, 167637, 663888
2096921,2096921, 167608, 663993
2096921,2096921, 167486, 663826
2096921,2096921, 167967, 663789
2096921,2096921, 167716, 664039
2096921,2096921, 167743, 663960
2096921,2096921, 167824, 664251
2096921,2096921, 167651, 664240
2096921,2096921, 167880, 664320
2096921,2096921, 168035, 664459
2096921,2096921, 167754, 664235
2096921,2096921, 167728, 664226
2096921,2096921, 167931, 663997
2096921,2096921, 167941, 664142
2096921,2096921, 167717, 663893
2096921,2096921, 167630, 663893
2096921,2096921, 168116, 664187
2096921,2096921, 167892, 664168
2096921,2096921, 167990, 664312
2096921,2096921, 167741, 664196
2096921,2096921, 167976, 664168
2096921,2096921, 168004, 664135
2096921,2096921, 167790, 664420
2096921,2096921, 167863, 664163
2096921,2096921, 168063, 663813
2096921,2096921, 168011, 663869
2096921,2096921, 167461, 663405
2096921,2096921, 167699, 663795
2096921,2096921, 167869, 663421
2096921,2096921, 167579, 663292
2096921,2096921, 167714, 663558
2096921,2096921, 167643, 663430
2096921,2096921, 167622, 663641
2096921,2096921, 167372, 663233
2096921,2096921, 167536, 663015
2096921,2096921, 167772, 663052
2096921,2096921, 167478, 662821
2096921,2096921, 167297, 663324
2096921,2096921, 167461, 662755
2096921,2096921, 167548, 662896
2096921,2096921, 167513, 662836
2096921,2096921, 167478, 663005
2096921,2096921, 167344, 662708
2096921,2096921, 167104, 662466
2096921,2096921, 167248, 662443
2096921,2096921, 167395, 662401
2096921,2096921, 167223, 662418
2096921,2096921, 167290, 662534
2096921,2096921, 167288, 662703
2096921,2096921, 167304, 662375
2096921,2096921, 167182, 662343
2096921,2096921, 167304, 662397
2096921,2096921, 167215, 662411
2096921,2096921, 167327, 662446
2096921,2096921, 167181, 662217
2096921,2096921, 167128, 662340
2096921,2096921, 167159, 662372
2096921,2096921, 167242, 662555
2096921,2096921, 167299, 662806
2096921,2096921, 167288, 662338
2096921,2096921, 167265, 662291
2096921,2096921, 167236, 662334
2096921,2096921, 167419, 662337
2096921,2096921, 167646, 662202
2096921,2096921, 167350, 662418
2096921,2096921, 167409, 662554
2096921,2096921, 167227, 662742
2096921,2096921, 167401, 662363
2096921,2096921, 167246, 662615
2096921,2096921, 167274, 662476
2096921,2096921, 167356, 662632
2096921,2096921, 167144, 662758
2096921,2096921, 167489, 662658
2096921,2096921, 167607, 662823
2096921,2096921, 167646, 663028
2096921,2096921, 167627, 663029
2096921,2096921, 167596, 663229
2096921,2096921, 167429, 663145
2096921,2096921, 167612, 663620
2096921,2096921, 167734, 663390
2096921,2096921, 167745, 663526
2096921,2096921, 167772, 663642
2096921,2096921, 167700, 663500
2096921,2096921, 167845, 663842
2096921,2096921, 167761, 663812
2096921,2096921, 167670, 663500
2096921,2096921, 167993, 663736
2096921,2096921, 167919, 663976
2096921,2096921, 168188, 664125
2096921,2096921, 168054, 664233
2096921,2096921, 168060, 664180
2096921,2096921, 168321, 664486
2096921,2096921, 167837, 664427
2096921,2096921, 168187, 664534
2096921,2096921, 168069, 664519
2096921,2096921, 168116, 664740
2096921,2096921, 168382, 664704
2096921,2096921, 168198, 664952
2096921,2096921, 168305, 665014
2096921,2096921, 168601, 665037
2096921,2096921, 168509, 665033
2096921,2096921, 168490, 665151
2096921,2096921, 168329, 665072
2096921,2096921, 168723, 665103
2096921,2096921, 168424, 665480
2096921,2096921, 168703, 665315
2096921,2096921, 168656, 665428
2096921,2096921, 168590, 665263
2096921,2096921, 168584, 665502
2096921,2096921, 168454, 665878
2096921,2096921, 168480, 665882
2096921,2096921, 168666, 665840
2096921,2096921, 168769, 665860
2096921,2096921, 169042, 665851
2096921,2096921, 168980, 665901
2096921,2096921, 169004, 665936
2096921,2096921, 169057, 666626
2096921,2096921, 168831, 666383
2096921,2096921, 169004, 666581
2096921,2096921, 169201, 666422
2096921,2096921, 169028, 666728
2096921,2096921, 169216, 666593
2096921,2096921, 169474, 666808
2096921,2096921, 169191, 666723
2096921,2096921, 169202, 666684
2096921,2096921, 169320, 666691
2096921,2096921, 169576, 666914
2096921,2096921, 169082, 666987
2096921,2096921, 169177, 667156
2096921,2096921, 169081, 667412
2096921,2096921, 169099, 667282
2096921,2096921, 169125, 667026
2096921,2096921, 169363, 667285
2096921,2096921, 169391, 667550
2096921,2096921, 169693, 667385
2096921,2096921, 169288, 667517
2096921,2096921, 169317, 667321
2096921,2096921, 169557, 667439
2096921,2096921, 169789, 667871
2096921,2096921, 169645, 667833
2096921,2096921, 169439, 667405
2096921,2096921, 169535, 667675
2096921,2096921, 169693, 667779
2096921,2096921, 169648, 668093
2096921,2096921, 169664, 667805
2096921,2096921, 169828, 668235
2096921,2096921, 169426, 668117
2096921,2096921, 169422, 667847
2096921,2096921, 169828, 668243
2096921,2096921, 169901, 668497
2096921,2096921, 169725, 668792
2096921,2096921, 169896, 668709
2096921,2096921, 169895, 668623
2096921,2096921, 169967, 668856
2096921,2096921, 169718, 668677
2096921,2096921, 169995, 668554
2096921,2096921, 169675, 668681
2096921,2096921, 170034, 668692
2096921,2096921, 170029, 669021
2096921,2096921, 169876, 669034
2096921,2096921, 170128, 669085
2096921,2096921, 170148, 669078
2096921,2096921, 169849, 668833
2096921,2096921, 169880, 669048
2096921,2096921, 169959, 669134
2096921,2096921, 170331, 669114
2096921,2096921, 170216, 669172
2096921,2096921, 170304, 668884
2096921,2096921, 170232, 669257
2096921,2096921, 170099, 669324
2096921,2096921, 170167, 669670
2096921,2096921, 170289, 669288
2096921,2096921, 170264, 669557
2096921,2096921, 170291, 669239
2096921,2096921, 170200, 669772
2096921,2096921, 170286, 669456
2096921,2096921, 170458, 669754
2096921,2096921, 169899, 669319
2096921,2096921, 170269, 669765
2096921,2096921, 170042, 669840
2096921,2096921, 170330, 669653
2096921,2096921, 170192, 669943
2096921,2096921, 170546, 669824
2096921,2096921, 170475, 669952
2096921,2096921, 170516, 670157
2096921,2096921, 170443, 670048
2096921,2096921, 170718, 669883
2096921,2096921, 170544, 669903
2096921,2096921, 170495, 670256
2096921,2096921, 170524, 670200
2096921,2096921, 170480, 669907
2096921,2096921, 170602, 670039
2096921,2096921, 170512, 670022
2096921,2096921, 170220, 670393
2096921,2096921, 170738, 670373
2096921,2096921, 170805, 670250
2096921,2096921, 170688, 670262
2096921,2096921, 170686, 670393
2096921,2096921, 170773, 670288
2096921,2096921, 170424, 670358
2096921,2096921, 170348, 670202
2096921,2096921, 170425, 670655
2096921,2096921, 170713, 670458
2096921,2096921, 170850, 670443
2096921,2096921, 170899, 670580
2096921,2096921, 170795, 670999
2096921,2096921, 170804, 670678
2096921,2096921, 170857, 670754
2096921,2096921, 170523, 670632
2096921,2096921, 170462, 670878
2096921,2096921, 170422, 670789
2096921,2096921, 170782, 670569
2096921,2096921, 170775, 670489
2096921,2096921, 170825, 670732
2096921,2096921, 170929, 670790
2096921,2096921, 170878, 670822
2096921,2096921, 170700, 671139
2096921,2096921, 170942, 671025
2096921,2096921, 170902, 671159
2096921,2096921, 170645, 670884
2096921,2096921, 170800, 670618
2096921,2096921, 171010, 671014
2096921,2096921, 171083, 671055
2096921,2096921, 170985, 670888
2096921,2096921, 171025, 671436
2096921,2096921, 170877, 671274
2096921,2096921, 170973, 671056
2096921,2096921, 171043, 671076
2096921,2096921, 170976, 671363
2096921,2096921, 171072, 671358
2096921,2096921, 171106, 671434
2096921,2096921, 171029, 671190
2096921,2096921, 170788, 671361
2096921,2096921, 170737, 671155
2096921,2096921, 171116, 670957
2096921,2096921, 171021, 671285
2096921,2096921, 170986, 671281
2096921,2096921, 170997, 671136
2096921,2096921, 171103, 671480
2096921,2096921, 171047, 671345
2096921,2096921, 170953, 671538
2096921,2096921, 171314, 671559
2096921,2096921, 171203, 671233
2096921,2096921, 171284, 671399
2096921,2096921, 171432, 671410
2096921,2096921, 171021, 671629
2096921,2096921, 171293, 671310
2096921,2096921, 171026, 671537
2096921,2096921, 171020, 671444
2096921,2096921, 171061, 671581
2096921,2096921, 171070, 671752
2096921,2096921, 171055, 671788
2096921,2096921, 171285, 671401
2096921,2096921, 171564, 671672
2096921,2096921, 171290, 671542
2096921,2096921, 171155, 671384
2096921,2096921, 171463, 671343
2096921,2096921, 171329, 671691
2096921,2096921, 171250, 672054
2096921,2096921, 171267, 671738
2096921,2096921, 171040, 672025
2096921,2096921, 171587, 671736
2096921,2096921, 171099, 671780
2096921,2096921, 171428, 671759
2096921,2096921, 171267, 672033
2096921,2096921, 171436, 671820
2096921,2096921, 171335, 671703
2096921,2096921, 171339, 671645
2096921,2096921, 171314, 671762
2096921,2096921, 171320, 672046
2096921,2096921, 171590, 672014
2096921,2096921, 171640, 672102
2096921,2096921, 171524, 672341
2096921,2096921, 171159, 672014
2096921,2096921, 171263, 672273
2096921,2096921, 171426, 671993
2096921,2096921, 171533, 671948
2096921,2096921, 171505, 671785
2096921,2096921, 171515, 671906
2096921,2096921, 171480, 672051
2096921,2096921, 171503, 672028
2096921,2096921, 171489, 671998
2096921,2096921, 171726, 672082
2096921,2096921, 171598, 672003
2096921,2096921, 171754, 672148
2096921,2096921, 171705, 672132
2096921,2096921, 171748, 672144
2096921,2096921, 171643, 672166
2096921,2096921, 171573, 672188
2096921,2096921, 171538, 671982
2096921,2096921, 171731, 672378
2096921,2096921, 171436, 671908
2096921,2096921, 171498, 671941
2096921,2096921, 171497, 671776
2096921,2096921, 171329, 672180
2096921,2096921, 171329, 672337
2096921,2096921, 171372, 672307
2096921,2096921, 171381, 671941
2096921,2096921, 171470, 672100
2096921,2096921, 171478, 672251
2096921,2096921, 171714, 672113
2096921,2096921, 171738, 672280
2096921,2096921, 171912, 671941
2096921,2096921, 171809, 671892
2096921,2096921, 171514, 671835
2096921,2096921, 171561, 672025
2096921,2096921, 171384, 672068
2096921,2096921, 171439, 672112
2096921,2096921, 171565, 672047
2096921,2096921, 171705, 672148
2096921,2096921, 171333, 672122
2096921,2096921, 171415, 671948
2096921,2096921, 171386, 672050
2096921,2096921, 171420, 672307
2096921,2096921, 171310, 672225
2096921,2096921, 171327, 672119
2096921,2096921, 171532, 672148
2096921,2096921, 171641, 671774
2096921,2096921, 171409, 671912
2096921,2096921, 171526, 671965
2096921,2096921, 171324, 672129
2096921,2096921, 171451, 671855
2096921,2096921, 171369, 671963
2096921,2096921, 171373, 672037
2096921,2096921, 171419, 672106
2096921,2096921, 171483, 672307
2096921,2096921, 171384, 672487
2096921,2096921, 171520, 672342
2096921,2096921, 171400, 672310
2096921,2096921, 171795, 671913
2096921,2096921, 171516, 672364
2096921,2096921, 171399, 671900
2096921,2096921, 171620, 672171
2096921,2096921, 171293, 672051
2096921,2096921, 171397, 671744
2096921,2096921, 171458, 671991
2096921,2096921, 171467, 671900
2096921,2096921, 171395, 672096
2096921,2096921, 171174, 671424
2096921,2096921, 171291, 671429
2096921,2096921, 171175, 671638
2096921,2096921, 171208, 671297
2096921,2096921, 171276, 671281
2096921,2096921, 171106, 670813
2096921,2096921, 171011, 670645
2096921,2096921, 170918, 670841
2096921,2096921, 171000, 670727
2096921,2096921, 170746, 670540
2096921,2096921, 170680, 669567
2096921,2096921, 170408, 669700
2096921,2096921, 170423, 669728
2096921,2096921, 170286, 669876
2096921,2096921, 170410, 669634
2096921,2096921, 169999, 668820
2096921,2096921, 169848, 668280
2096921,2096921, 169912, 668299
2096921,2096921, 170029, 668228
2096921,2096921, 169897, 668146
2096921,2096921, 169502, 667276
2096921,2096921, 169282, 666611
2096921,2096921, 169367, 666595
2096921,2096921, 169368, 666634
2096921,2096921, 168876, 666626
2096921,2096921, 168370, 664198
2096921,2096921, 167933, 663494
2096921,2096921, 167998, 663504
2096921,2096921, 168150, 663340
2096921,2096921, 167512, 663414
2096921,2096921, 166774, 660190
2096921,2096921, 166438, 659659
2096921,2096921, 166360, 658878
2096921,2096921, 166316, 659101
2096921,2096921, 165862, 659319
2096921,2096921, 165258, 656969
2096921,2096921, 164957, 655975
2096921,2096921, 164899, 655870
2096921,2096921, 165154, 655998
2096921,2096921, 164918, 656125
2096921,2096921, 164237, 654239
2096921,2096921, 164101, 653479
2096921,2096921, 164297, 653644
2096921,2096921, 163988, 653469
2096921,2096921, 163956, 653723
2096921,2096921, 163554, 651998
2096921,2096921, 163411, 651516
2096921,2096921, 163518, 651685
2096921,2096921, 163590, 651913
2096921,2096921, 163335, 651841
2096921,2096921, 163083, 650809
2096921,2096921, 162974, 650562
2096921,2096921, 163121, 650739
2096921,2096921, 162901, 650369
2096921,2096921, 162822, 650594
2096921,2096921, 162442, 649956
2096921,2096921, 162731, 649834
2096921,2096921, 162463, 649763
2096921,2096921, 162615, 649900
2096921,2096921, 162535, 649622
2096921,2096921, 162313, 649627
2096921,2096921, 162534, 649180
2096921,2096921, 162625, 649221
2096921,2096921, 162589, 649133
2096921,2096921, 162252, 649162
2096921,2096921, 162395, 649059
2096921,2096921, 162610, 648566
2096921,2096921, 162540, 649095
2096921,2096921, 162385, 649003
2096921,2096921, 162186, 648950
2096921,2096921, 162566, 649044
2096921,2096921, 162367, 648928
2096921,2096921, 162384, 649194
2096921,2096921, 162288, 649080
2096921,2096921, 162436, 648839
2096921,2096921, 162599, 649347
2096921,2096921, 162600, 648982
2096921,2096921, 162737, 649216
2096921,2096921, 162390, 649126
2096921,2096921, 162385, 649201
2096921,2096921, 162414, 649488
2096921,2096921, 162625, 649608
2096921,2096921, 162709, 649538
2096921,2096921, 162764, 649457
2096921,2096921, 162362, 649375
2096921,2096921, 162648, 649740
2096921,2096921, 162445, 649749
2096921,2096921, 162633, 649672
2096921,2096921, 162875, 649732
2096921,2096921, 162939, 649659
2096921,2096921, 162953, 650340
2096921,2096921, 162908, 650321
2096921,2096921, 163140, 650545
2096921,2096921, 162890, 650491
2096921,2096921, 162987, 650423
2096921,2096921, 163039, 650947
2096921,2096921, 163152, 651422
2096921,2096921, 163392, 651182
2096921,2096921, 163142, 651131
2096921,2096921, 163330, 651200
2096921,2096921, 163388, 651414
2096921,2096921, 163572, 651709
2096921,2096921, 163400, 651995
2096921,2096921, 163387, 652006
2096921,2096921, 163568, 651605
2096921,2096921, 163766, 652228
2096921,2096921, 163566, 652531
2096921,2096921, 163748, 652331
2096921,2096921, 163890, 652483
2096921,2096921, 164028, 652371
2096921,2096921, 164070, 652968
2096921,2096921, 164059, 653112
2096921,2096921, 164218, 653085
2096921,2096921, 164116, 653222
2096921,2096921, 164052, 653132
2096921,2096921, 164218, 653800
2096921,2096921, 164403, 653877
2096921,2096921, 164420, 653893
2096921,2096921, 164231, 653727
2096921,2096921, 164493, 654145
2096921,2096921, 164659, 654641
2096921,2096921, 164779, 654680
2096921,2096921, 164745, 654669
2096921,2096921, 164540, 654630
2096921,2096921, 164768, 654703
2096921,2096921, 165048, 655162
2096921,2096921, 164568, 655324
2096921,2096921, 165006, 655310
2096921,2096921, 165014, 655470
2096921,2096921, 165145, 655357
2096921,2096921, 165288, 655950
2096921,2096921, 165426, 656207
2096921,2096921, 165096, 656182
2096921,2096921, 165219, 656335
2096921,2096921, 165451, 656106
2096921,2096921, 165431, 656592
2096921,2096921, 165544, 656821
2096921,2096921, 165490, 656914
2096921,2096921, 165743, 656890
2096921,2096921, 165694, 656841
2096921,2096921, 165759, 657454
2096921,2096921, 166035, 657858
2096921,2096921, 165924, 657771
2096921,2096921, 165885, 657772
2096921,2096921, 165645, 657723
2096921,2096921, 166007, 658405
2096921,2096921, 166155, 658920
2096921,2096921, 166057, 658688
2096921,2096921, 166099, 658531
2096921,2096921, 166285, 658242
2096921,2096921, 166184, 658772
2096921,2096921, 166373, 659213
2096921,2096921, 166410, 659184
2096921,2096921, 166448, 658989
2096921,2096921, 166285, 659054
2096921,2096921, 166452, 659559
2096921,2096921, 166524, 659504
2096921,2096921, 166217, 659342
2096921,2096921, 166727, 659680
2096921,2096921, 166741, 659984
2096921,2096921, 166831, 659731
2096921,2096921, 166683, 660098
2096921,2096921, 166834, 659899
2096921,2096921, 166808, 659772
2096921,2096921, 166811, 660201
2096921,2096921, 166855, 660495
2096921,2096921, 166983, 660498
2096921,2096921, 166894, 660329
2096921,2096921, 166894, 660419
2096921,2096921, 166845, 660252
2096921,2096921, 167070, 660252
2096921,2096921, 166863, 660805
2096921,2096921, 166984, 660810
2096921,2096921, 166905, 660615
2096921,2096921, 166965, 660541
2096921,2096921, 166785, 660533
2096921,2096921, 166906, 660365
2096921,2096921, 166931, 660613
2096921,2096921, 167067, 660465
2096921,2096921, 167286, 660572
2096921,2096921, 167204, 660376
2096921,2096921, 167156, 660593
2096921,2096921, 167094, 660564
2096921,2096921, 166800, 660555
2096921,2096921, 166919, 660809
2096921,2096921, 167098, 660457
2096921,2096921, 167018, 660377
2096921,2096921, 166933, 660487
2096921,2096921, 166868, 660355
2096921,2096921, 166697, 660444
2096921,2096921, 166555, 660035
2096921,2096921, 166696, 660000
2096921,2096921, 166850, 660146
2096921,2096921, 166811, 660331
2096921,2096921, 166922, 660116
2096921,2096921, 166754, 660104
2096921,2096921, 166585, 660135
2096921,2096921, 166607, 660072
2096921,2096921, 166687, 660004
2096921,2096921, 166729, 660108
2096921,2096921, 166851, 659848
2096921,2096921, 166740, 659843
2096921,2096921, 166465, 659755
2096921,2096921, 166451, 659795
2096921,2096921, 166457, 660016
2096921,2096921, 166397, 659844
2096921,2096921, 166555, 659612
2096921,2096921, 166544, 659527
2096921,2096921, 166422, 659476
2096921,2096921, 166268, 659692
2096921,2096921, 166451, 659609
2096921,2096921, 166272, 659589
2096921,2096921, 166469, 659579
2096921,2096921, 166424, 659473
2096921,2096921, 166382, 659596
2096921,2096921, 166371, 659322
2096921,2096921, 166493, 659694
2096921,2096921, 166354, 659655
2096921,2096921, 166846, 659443
2096921,2096921, 166762, 659745
2096921,2096921, 166925, 659970
2096921,2096921, 166488, 659796
2096921,2096921, 166687, 659574
2096921,2096921, 166542, 659691
2096921,2096921, 166434, 659479
2096921,2096921, 167008, 660019
2096921,2096921, 166736, 660475
2096921,2096921, 166579, 660006
2096921,2096921, 166554, 660019
2096921,2096921, 166720, 660069
2096921,2096921, 166646, 660408
2096921,2096921, 166650, 660216
2096921,2096921, 166710, 660559
2096921,2096921, 166884, 660301
2096921,2096921, 166901, 660104
2096921,2096921, 167054, 660575
2096921,2096921, 166885, 660776
2096921,2096921, 167037, 660805
2096921,2096921, 167025, 660999
2096921,2096921, 167190, 660967
2096921,2096921, 167401, 661505
2096921,2096921, 167281, 661404
2096921,2096921, 167180, 661299
2096921,2096921, 167280, 661280
2096921,2096921, 167234, 661487
2096921,2096921, 167503, 662035
2096921,2096921, 167547, 661960
2096921,2096921, 167489, 662101
2096921,2096921, 167422, 661669
2096921,2096921, 167298, 662202
2096921,2096921, 167606, 662557
2096921,2096921, 167384, 662563
2096921,2096921, 167577, 662789
2096921,2096921, 167669, 662497
2096921,2096921, 167506, 662714
2096921,2096921, 167724, 662841
2096921,2096921, 167657, 663000
2096921,2096921, 167938, 662923
2096921,2096921, 167717, 663206
2096921,2096921, 168015, 663335
2096921,2096921, 168177, 663500
2096921,2096921, 168173, 663357
2096921,2096921, 168158, 663581
2096921,2096921, 167709, 663628
2096921,2096921, 168005, 663647
2096921,2096921, 168126, 663711
2096921,2096921, 168141, 663725
2096921,2096921, 168057, 663869
2096921,2096921, 168185, 663824
2096921,2096921, 168148, 664107
2096921,2096921, 168438, 664162
2096921,2096921, 168287, 664314
2096921,2096921, 168264, 664312
2096921,2096921, 168466, 664306
2096921,2096921, 168650, 664168
2096921,2096921, 168441, 664733
2096921,2096921, 168531, 664938
2096921,2096921, 168266, 665062
2096921,2096921, 168618, 664743
2096921,2096921, 168622, 665073
2096921,2096921, 168893, 665272
2096921,2096921, 168724, 665482
2096921,2096921, 168685, 665420
2096921,2096921, 168647, 665355
2096921,2096921, 168842, 665139
2096921,2096921, 168973, 665870
2096921,2096921, 168878, 665949
2096921,2096921, 168763, 666023
2096921,2096921, 168467, 666104
2096921,2096921, 169124, 666127
2096921,2096921, 169170, 666253
2096921,2096921, 169172, 666183
2096921,2096921, 169091, 666379
2096921,2096921, 169034, 666353
2096921,2096921, 169253, 666331
2096921,2096921, 169166, 666384
2096921,2096921, 169330, 666503
2096921,2096921, 169290, 666850
2096921,2096921, 169370, 666926
2096921,2096921, 169560, 666593
2096921,2096921, 169490, 666779
2096921,2096921, 169316, 667543
2096921,2096921, 169265, 667401
2096921,2096921, 169354, 667239
2096921,2096921, 169364, 667240
2096921,2096921, 169526, 667121
2096921,2096921, 169690, 667431
2096921,2096921, 169548, 667515
2096921,2096921, 169633, 667544
2096921,2096921, 169507, 667709
2096921,2096921, 170091, 668168
2096921,2096921, 169761, 668034
2096921,2096921, 169756, 668228
2096921,2096921, 169723, 668114
2096921,2096921, 169829, 668329
2096921,2096921, 170155, 668430
2096921,2096921, 170033, 668413
2096921,2096921, 169897, 668265
2096921,2096921, 170023, 668396
2096921,2096921, 170262, 668255
2096921,2096921, 170121, 668885
2096921,2096921, 170004, 669021
2096921,2096921, 169967, 669186
2096921,2096921, 169976, 668853
2096921,2096921, 170045, 669162
2096921,2096921, 170093, 669283
2096921,2096921, 170140, 669018
2096921,2096921, 170251, 669400
2096921,2096921, 170220, 669171
2096921,2096921, 170187, 669413
2096921,2096921, 170298, 669289
2096921,2096921, 170308, 669634
2096921,2096921, 170294, 669310
2096921,2096921, 170275, 669346
2096921,2096921, 170353, 669334
2096921,2096921, 170349, 669905
2096921,2096921, 170327, 669820
2096921,2096921, 170159, 669741
2096921,2096921, 170377, 669452
2096921,2096921, 170449, 669637
2096921,2096921, 170659, 670356
2096921,2096921, 170676, 670330
2096921,2096921, 170609, 670389
2096921,2096921, 170842, 670287
2096921,2096921, 170576, 670312
2096921,2096921, 170510, 670385
2096921,2096921, 170451, 670403
2096921,2096921, 170749, 670665
2096921,2096921, 170713, 670773
2096921,2096921, 170626, 670689
2096921,2096921, 170975, 670916
2096921,2096921, 170978, 671166
2096921,2096921, 170871, 671175
2096921,2096921, 170829, 670878
2096921,2096921, 170734, 670991
2096921,2096921, 171038, 671211
2096921,2096921, 171094, 671140
2096921,2096921, 170847, 671215
2096921,2096921, 170915, 671183
2096921,2096921, 170790, 671566
2096921,2096921, 171024, 671751
2096921,2096921, 171015, 671505
2096921,2096921, 170870, 671551
2096921,2096921, 171000, 671571
2096921,2096921, 171290, 671507
2096921,2096921, 171002, 671761
2096921,2096921, 171155, 671802
2096921,2096921, 170977, 671673
2096921,2096921, 170984, 671704
2096921,2096921, 170865, 671805
2096921,2096921, 171310, 672255
2096921,2096921, 171243, 672338
2096921,2096921, 171262, 672087
2096921,2096921, 171030, 672093
2096921,2096921, 171303, 672347
2096921,2096921, 171554, 672114
2096921,2096921, 171453, 672592
2096921,2096921, 171168, 672139
2096921,2096921, 171228, 672367
2096921,2096921, 171420, 672570
2096921,2096921, 171270, 672654
2096921,2096921, 171581, 672753
2096921,2096921, 171431, 672570
2096921,2096921, 171290, 672643
2096921,2096921, 171233, 672546
2096921,2096921, 171445, 672759
2096921,2096921, 171120, 672869
2096921,2096921, 171260, 672868
2096921,2096921, 171190, 672932
2096921,2096921, 171398, 672829
2096921,2096921, 171966, 673075
2096921,2096921, 171695, 673133
2096921,2096921, 171373, 673106
2096921,2096921, 171384, 673130
2096921,2096921, 171305, 673368
2096921,2096921, 171587, 673140
2096921,2096921, 171531, 673332
2096921,2096921, 171496, 673350
2096921,2096921, 171618, 673322
2096921,2096921, 171640, 673403
2096921,2096921, 171814, 673775
2096921,2096921, 171751, 673501
2096921,2096921, 171790, 673537
2096921,2096921, 171725, 673600
2096921,2096921, 171508, 673303
2096921,2096921, 171658, 673683
2096921,2096921, 171615, 673940
2096921,2096921, 171362, 673462
2096921,2096921, 171860, 673439
2096921,2096921, 171924, 673570
2096921,2096921, 171982, 673769
2096921,2096921, 171780, 673688
2096921,2096921, 172018, 673836
2096921,2096921, 171917, 674040
2096921,2096921, 171924, 673744
2096921,2096921, 171861, 674024
2096921,2096921, 171853, 674184
2096921,2096921, 171552, 673977
2096921,2096921, 171804, 674173
2096921,2096921, 171993, 674085
2096921,2096921, 171952, 674165
2096921,2096921, 172100, 674078
2096921,2096921, 172365, 674193
2096921,2096921, 172250, 674354
2096921,2096921, 171945, 674483
2096921,2096921, 171963, 674642
2096921,2096921, 172123, 674800
2096921,2096921, 172180, 674615
2096921,2096921, 172205, 674654
2096921,2096921, 171897, 674777
2096921,2096921, 172158, 674842
2096921,2096921, 171897, 674816
2096921,2096921, 172015, 674724
2096921,2096921, 172086, 674907
2096921,2096921, 172338, 674681
2096921,2096921, 171974, 674866
2096921,2096921, 172197, 674851
2096921,2096921, 172063, 674971
2096921,2096921, 171883, 675280
2096921,2096921, 171997, 675064
2096921,2096921, 172218, 675039
2096921,2096921, 172450, 675175
2096921,2096921, 172382, 675200
2096921,2096921, 172420, 675425
2096921,2096921, 172354, 675237
2096921,2096921, 172340, 675064
2096921,2096921, 172020, 675164
2096921,2096921, 172444, 675294
2096921,2096921, 172460, 675443
2096921,2096921, 172601, 675635
2096921,2096921, 172152, 675305
2096921,2096921, 172207, 675438
2096921,2096921, 172447, 675317
2096921,2096921, 172344, 675526
2096921,2096921, 172305, 675500
2096921,2096921, 172559, 675339
2096921,2096921, 172389, 675393
2096921,2096921, 172590, 675439
2096921,2096921, 172346, 675261
2096921,2096921, 172389, 675474
2096921,2096921, 172646, 675565
2096921,2096921, 172319, 675506
2096921,2096921, 172405, 675547
2096921,2096921, 172197, 675463
2096921,2096921, 172401, 675635
2096921,2096921, 172506, 675800
2096921,2096921, 172354, 675764
2096921,2096921, 172580, 675529
2096921,2096921, 172484, 675787
2096921,2096921, 172412, 675585
2096921,2096921, 172464, 675871
2096921,2096921, 172547, 675923
2096921,2096921, 172633, 676121
2096921,2096921, 172267, 675871
2096921,2096921, 172664, 676045
2096921,2096921, 172444, 675920
2096921,2096921, 172480, 675589
2096921,2096921, 172348, 675770
2096921,2096921, 172258, 675997
2096921,2096921, 172141, 676299
2096921,2096921, 172642, 676027
2096921,2096921, 172506, 675993
2096921,2096921, 172553, 675863
2096921,2096921, 172606, 676328
2096921,2096921, 172542, 676080
2096921,2096921, 172561, 675965
2096921,2096921, 172602, 675855
2096921,2096921, 172328, 675804
2096921,2096921, 172402, 675877
2096921,2096921, 172642, 676211
2096921,2096921, 172537, 675969
2096921,2096921, 172426, 676116
2096921,2096921, 172438, 676131
2096921,2096921, 172643, 676485
2096921,2096921, 172502, 676241
2096921,2096921, 172648, 676005
2096921,2096921, 172660, 676210
2096921,2096921, 172487, 676335
2096921,2096921, 172700, 676340
2096921,2096921, 172314, 676218
2096921,2096921, 171933, 675704
2096921,2096921, 172134, 675636
2096921,2096921, 172037, 675565
2096921,2096921, 172265, 675323
2096921,2096921, 172043, 675472
2096921,2096921, 171892, 675314
2096921,2096921, 172154, 675024
2096921,2096921, 171929, 675171
2096921,2096921, 172021, 675220
2096921,2096921, 171968, 674933
2096921,2096921, 171628, 674173
2096921,2096921, 171707, 674183
2096921,2096921, 171673, 674163
2096921,2096921, 171876, 674056
2096921,2096921, 171352, 673801
2096921,2096921, 171097, 672903
2096921,2096921, 171262, 672854
2096921,2096921, 171121, 672877
2096921,2096921, 170730, 672668
2096921,2096921, 170853, 672878
2096921,2096921, 170911, 671569
2096921,2096921, 170404, 671423
2096921,2096921, 170439, 671074
2096921,2096921, 170413, 671074
2096921,2096921, 170004, 671320
2096921,2096921, 169741, 668788
2096921,2096921, 169661, 668419
2096921,2096921, 169236, 667897
2096921,2096921, 169100, 667742
2096921,2096921, 168580, 667813
2096921,2096921, 167820, 664790
2096921,2096921, 167306, 663961
2096921,2096921, 167619, 663516
2096921,2096921, 167574, 664099
2096921,2096921, 167237, 663763
2096921,2096921, 166551, 661207
2096921,2096921, 166448, 660873
2096921,2096921, 166478, 660876
2096921,2096921, 166417, 660944
2096921,2096921, 165966, 661147
2096921,2096921, 165529, 659027
2096921,2096921, 165085, 658821
2096921,2096921, 165056, 658351
2096921,2096921, 165352, 658483
2096921,2096921, 165174, 658203
2096921,2096921, 165107, 657094
2096921,2096921, 164444, 656746
2096921,2096921, 164927, 656531
2096921,2096921, 164665, 656758
2096921,2096921, 164872, 656592
2096921,2096921, 164377, 655621
2096921,2096921, 164339, 655592
2096921,2096921, 164044, 655356
2096921,2096921, 164579, 655315
2096921,2096921, 164077, 655329
2096921,2096921, 163963, 654801
2096921,2096921, 163753, 655143
2096921,2096921, 163900, 654578
2096921,2096921, 163792, 654595
2096921,2096921, 163891, 654574
2096921,2096921, 163685, 654174
2096921,2096921, 163809, 654041
2096921,2096921, 163954, 654125
2096921,2096921, 163721, 653932
2096921,2096921, 163831, 654075
2096921,2096921, 163862, 653947
2096921,2096921, 163864, 654136
2096921,2096921, 163803, 653802
2096921,2096921, 163630, 653921
2096921,2096921, 163813, 653985
2096921,2096921, 163340, 654199
2096921,2096921, 163588, 654032
2096921,2096921, 163532, 653949
2096921,2096921, 163642, 654138
2096921,2096921, 163779, 653932
2096921,2096921, 163674, 654185
2096921,2096921, 163856, 654509
2096921,2096921, 163802, 654836
2096921,2096921, 163904, 654552
2096921,2096921, 164061, 654625
2096921,2096921, 164055, 654727
2096921,2096921, 163953, 654720
2096921,2096921, 163922, 654729
2096921,2096921, 163873, 654828
2096921,2096921, 164281, 654952
2096921,2096921, 164096, 655054
2096921,2096921, 164184, 655121
2096921,2096921, 163998, 655253
2096921,2096921, 164060, 655031
2096921,2096921, 164153, 654873
2096921,2096921, 164529, 655459
2096921,2096921, 164462, 655777
2096921,2096921, 164472, 655840
2096921,2096921, 164441, 655740
2096921,2096921, 164455, 655877
2096921,2096921, 164752, 656703
2096921,2096921, 164606, 656600
2096921,2096921, 164585, 656630
2096921,2096921, 164786, 656557
2096921,2096921, 164727, 656583
2096921,2096921, 165030, 657318
2096921,2096921, 164983, 657281
2096921,2096921, 164735, 657380
2096921,2096921, 164785, 657532
2096921,2096921, 165120, 657594
2096921,2096921, 165324, 657850
2096921,2096921, 165600, 658260
2096921,2096921, 165529, 658122
2096921,2096921, 165187, 658290
2096921,2096921, 165520, 658220
2096921,2096921, 165356, 658917
2096921,2096921, 165542, 659258
2096921,2096921, 165387, 659162
2096921,2096921, 165398, 658793
2096921,2096921, 165750, 658853
2096921,2096921, 165546, 659745
2096921,2096921, 165646, 660001
2096921,2096921, 165999, 659902
2096921,2096921, 165798, 659960
2096921,2096921, 166135, 660012
2096921,2096921, 166271, 660422
2096921,2096921, 166163, 660443
2096921,2096921, 166339, 660763
2096921,2096921, 166037, 660479
2096921,2096921, 166264, 660318
2096921,2096921, 166497, 660933
2096921,2096921, 166482, 661386
2096921,2096921, 166363, 661347
2096921,2096921, 166434, 661225
2096921,2096921, 166400, 661262
2096921,2096921, 166814, 662033
2096921,2096921, 166762, 661956
2096921,2096921, 167041, 661970
2096921,2096921, 166667, 662077
2096921,2096921, 167181, 662195
2096921,2096921, 167101, 662492
2096921,2096921, 167149, 662960
2096921,2096921, 166934, 662797
2096921,2096921, 166973, 662850
2096921,2096921, 167257, 662946
2096921,2096921, 167276, 663729
2096921,2096921, 167356, 663759
2096921,2096921, 167346, 663578
2096921,2096921, 167511, 663695
2096921,2096921, 167581, 663602
2096921,2096921, 167687, 664269
2096921,2096921, 167807, 664553
2096921,2096921, 167582, 664419
2096921,2096921, 167756, 664166
2096921,2096921, 167836, 664521
2096921,2096921, 167835, 665209
2096921,2096921, 168152, 665194
2096921,2096921, 167905, 665088
2096921,2096921, 167994, 664914
2096921,2096921, 168020, 665181
2096921,2096921, 168102, 665850
2096921,2096921, 168213, 665678
2096921,2096921, 168365, 665635
2096921,2096921, 168398, 665379
2096921,2096921, 168325, 665411
2096921,2096921, 168352, 666303
2096921,2096921, 168729, 666618
2096921,2096921, 168403, 666438
2096921,2096921, 168332, 666394
2096921,2096921, 168227, 666333
2096921,2096921, 168391, 666505
2096921,2096921, 168262, 666782
2096921,2096921, 168496, 666366
2096921,2096921, 168383, 666638
2096921,2096921, 168515, 666569
2096921,2096921, 168756, 666775
2096921,2096921, 168406, 666760
2096921,2096921, 168397, 667324
2096921,2096921, 168602, 666814
2096921,2096921, 168513, 666964
2096921,2096921, 168500, 666919
2096921,2096921, 168543, 666963
2096921,2096921, 168451, 666979
2096921,2096921, 168711, 666915
2096921,2096921, 168524, 666753
2096921,2096921, 168811, 666974
2096921,2096921, 168801, 666980
2096921,2096921, 168621, 666968
2096921,2096921, 168531, 666706
2096921,2096921, 168151, 666915
2096921,2096921, 168353, 666831
2096921,2096921, 168824, 666891
2096921,2096921, 168470, 666925
2096921,2096921, 168643, 666900
2096921,2096921, 168573, 666776
2096921,2096921, 168633, 666520
2096921,2096921, 168244, 666371
2096921,2096921, 168234, 666637
2096921,2096921, 168328, 666770
2096921,2096921, 168609, 666911
2096921,2096921, 168441, 666524
2096921,2096921, 168332, 666264
2096921,2096921, 168271, 666203
2096921,2096921, 168489, 666211
2096921,2096921, 168410, 666442
2096921,2096921, 168207, 666089
2096921,2096921, 168573, 665938
2096921,2096921, 168287, 665886
2096921,2096921, 168237, 665972
2096921,2096921, 168211, 666052
2096921,2096921, 168192, 665882
2096921,2096921, 168358, 665778
2096921,2096921, 168134, 665586
2096921,2096921, 168077, 665952
2096921,2096921, 168570, 665732
2096921,2096921, 168226, 665721
2096921,2096921, 168144, 665721
2096921,2096921, 167872, 665876
2096921,2096921, 168007, 665972
2096921,2096921, 167964, 665718
2096921,2096921, 168128, 665911
2096921,2096921, 168159, 665841
2096921,2096921, 168407, 665519
2096921,2096921, 168332, 665714
2096921,2096921, 168138, 665752
2096921,2096921, 168259, 665905
2096921,2096921, 168129, 665853
2096921,2096921, 168204, 666039
2096921,2096921, 168088, 665861
2096921,2096921, 168396, 665967
2096921,2096921, 168412, 665855
2096921,2096921, 168363, 666141
2096921,2096921, 168207, 666266
2096921,2096921, 168127, 666249
2096921,2096921, 168350, 666105
2096921,2096921, 168418, 666681
2096921,2096921, 168511, 666701
2096921,2096921, 168315, 666466
2096921,2096921, 168427, 666377
2096921,2096921, 168497, 666403
2096921,2096921, 168497, 666831
2096921,2096921, 168280, 666957
2096921,2096921, 168527, 667098
2096921,2096921, 168541, 667035
2096921,2096921, 168662, 667316
2096921,2096921, 169049, 667568
2096921,2096921, 168954, 667412
2096921,2096921, 168778, 667707
2096921,2096921, 168718, 667394
2096921,2096921, 168842, 667356
2096921,2096921, 168942, 668278
2096921,2096921, 168787, 668274
2096921,2096921, 169016, 668583
2096921,2096921, 169076, 668290
2096921,2096921, 169101, 668468
2096921,2096921, 169174, 668769
2096921,2096921, 169070, 668964
2096921,2096921, 169453, 668603
2096921,2096921, 169453, 668565
2096921,2096921, 169338, 668530
2096921,2096921, 169559, 668810
2096921,2096921, 169572, 668878
2096921,2096921, 169332, 669126
2096921,2096921, 169274, 669077
2096921,2096921, 169727, 669248
2096921,2096921, 169696, 669450
2096921,2096921, 169687, 669670
2096921,2096921, 169625, 669610
2096921,2096921, 169219, 669505
2096921,2096921, 169448, 669435
2096921,2096921, 169597, 670069
2096921,2096921, 169570, 669909
2096921,2096921, 169858, 670119
2096921,2096921, 169843, 669789
2096921,2096921, 169807, 669790
2096921,2096921, 170052, 670334
2096921,2096921, 169996, 670222
2096921,2096921, 169897, 670551
2096921,2096921, 170189, 670491
2096921,2096921, 170191, 670131
2096921,2096921, 170281, 670816
2096921,2096921, 170136, 670743
2096921,2096921, 170118, 670718
2096921,2096921, 170392, 671069
2096921,2096921, 170276, 670818
2096921,2096921, 170408, 671320
2096921,2096921, 170439, 671280
2096921,2096921, 170189, 671014
2096921,2096921, 170170, 671248
2096921,2096921, 170218, 671373
2096921,2096921, 170150, 671554
2096921,2096921, 170489, 671657
2096921,2096921, 170684, 671554
2096921,2096921, 170425, 671615
2096921,2096921, 170327, 671652
2096921,2096921, 170712, 672099
2096921,2096921, 170449, 671607
2096921,2096921, 170668, 671921
2096921,2096921, 170541, 671995
2096921,2096921, 170686, 671914
2096921,2096921, 170502, 672155
2096921,2096921, 170756, 672109
2096921,2096921, 170561, 672401
2096921,2096921, 170451, 672471
2096921,2096921, 170611, 672355
2096921,2096921, 170895, 672634
2096921,2096921, 170771, 672799
2096921,2096921, 170820, 672825
2096921,2096921, 171003, 672817
2096921,2096921, 171119, 672853
2096921,2096921, 171015, 673096
2096921,2096921, 171097, 672856
2096921,2096921, 170976, 673181
2096921,2096921, 171117, 673270
2096921,2096921, 171082, 673175
2096921,2096921, 171453, 673175
2096921,2096921, 171058, 673597
2096921,2096921, 170894, 673598
2096921,2096921, 171144, 673582
2096921,2096921, 171203, 673506
2096921,2096921, 171557, 673824
2096921,2096921, 171284, 673945
2096921,2096921, 171208, 673719
2096921,2096921, 171329, 673989
2096921,2096921, 171517, 674140
2096921,2096921, 171512, 674232
2096921,2096921, 171286, 674287
2096921,2096921, 171522, 674244
2096921,2096921, 171517, 674338
2096921,2096921, 171412, 674373
2096921,2096921, 171659, 674551
2096921,2096921, 171523, 674389
2096921,2096921, 171514, 674357
2096921,2096921, 171614, 674392
2096921,2096921, 171682, 674297
2096921,2096921, 171844, 674681
2096921,2096921, 171713, 674862
2096921,2096921, 171751, 674953
2096921,2096921, 171915, 674809
2096921,2096921, 171592, 674723
2096921,2096921, 171569, 674748
2096921,2096921, 171842, 675047
2096921,2096921, 171433, 674938
2096921,2096921, 171568, 674977
2096921,2096921, 171951, 675050
2096921,2096921, 171909, 675352
2096921,2096921, 171548, 675285
2096921,2096921, 171844, 675201
2096921,2096921, 172160, 675063
2096921,2096921, 172163, 674956
2096921,2096921, 171992, 675371
2096921,2096921, 171955, 675788
2096921,2096921, 171825, 675546
2096921,2096921, 171847, 675420
2096921,2096921, 172151, 675608
2096921,2096921, 172182, 676004
2096921,2096921, 172184, 675936
2096921,2096921, 172161, 675534
2096921,2096921, 172190, 675997
2096921,2096921, 172206, 676011
2096921,2096921, 172314, 676210
2096921,2096921, 172190, 676055
2096921,2096921, 172021, 675963
2096921,2096921, 172297, 676203
2096921,2096921, 172266, 676194
2096921,2096921, 172298, 676476
2096921,2096921, 172078, 676568
2096921,2096921, 171919, 676285
2096921,2096921, 172403, 676534
2096921,2096921, 172399, 676400
2096921,2096921, 172355, 676366
2096921,2096921, 172309, 676506
2096921,2096921, 172430, 676417
2096921,2096921, 172399, 676445
2096921,2096921, 172384, 676926
2096921,2096921, 172372, 676847
2096921,2096921, 172761, 676904
2096921,2096921, 172589, 676711
2096921,2096921, 172597, 676587
2096921,2096921, 172376, 676674
2096921,2096921, 172464, 676853
2096921,2096921, 172533, 676954
2096921,2096921, 172436, 676995
2096921,2096921, 172571, 677121
2096921,2096921, 172684, 676893
2096921,2096921, 172613, 677206
2096921,2096921, 172562, 677098
2096921,2096921, 172592, 677166
2096921,2096921, 172854, 677178
2096921,2096921, 172738, 677120
2096921,2096921, 172805, 677170
2096921,2096921, 172698, 677125
2096921,2096921, 172464, 676984
2096921,2096921, 172904, 677355
2096921,2096921, 172358, 677256
2096921,2096921, 172751, 677212
2096921,2096921, 172681, 677341
2096921,2096921, 172492, 677310
2096921,2096921, 172679, 677429
2096921,2096921, 172765, 677252
2096921,2096921, 172602, 677353
2096921,2096921, 172742, 677554
2096921,2096921, 172677, 677651
2096921,2096921, 172864, 677673
2096921,2096921, 172758, 677750
2096921,2096921, 172684, 677613
2096921,2096921, 172753, 677900
2096921,2096921, 172556, 677770
2096921,2096921, 172734, 677987
2096921,2096921, 172778, 677841
2096921,2096921, 173041, 678070
2096921,2096921, 172991, 677940
2096921,2096921, 172606, 678076
2096921,2096921, 172570, 677763
2096921,2096921, 173059, 677809
2096921,2096921, 173134, 677927
2096921,2096921, 173216, 678064
2096921,2096921, 173030, 677944
2096921,2096921, 173173, 677903
2096921,2096921, 173157, 678076
2096921,2096921, 172841, 678184
2096921,2096921, 172954, 678238
2096921,2096921, 173032, 678132
2096921,2096921, 173118, 677993
2096921,2096921, 173165, 678143
2096921,2096921, 173191, 678389
2096921,2096921, 173227, 678251
2096921,2096921, 172931, 678469
2096921,2096921, 173087, 678548
2096921,2096921, 173061, 678407
2096921,2096921, 173028, 678476
2096921,2096921, 172958, 678708
2096921,2096921, 172976, 678573
2096921,2096921, 173180, 678644
2096921,2096921, 173451, 678300
2096921,2096921, 173205, 678653
2096921,2096921, 172901, 678618
2096921,2096921, 173106, 678798
2096921,2096921, 173184, 678519
2096921,2096921, 173030, 678761
2096921,2096921, 173019, 678586
2096921,2096921, 173383, 678392
2096921,2096921, 173425, 678679
2096921,2096921, 173110, 678563
2096921,2096921, 173477, 678479
2096921,2096921, 173304, 678601
2096921,2096921, 173210, 678852
2096921,2096921, 173311, 678571
2096921,2096921, 173190, 678251
2096921,2096921, 173344, 678651
2096921,2096921, 172946, 678567
2096921,2096921, 173114, 678485
2096921,2096921, 172926, 678688
2096921,2096921, 173153, 678631
2096921,2096921, 173534, 678255
2096921,2096921, 173496, 678612
2096921,2096921, 173327, 678592
2096921,2096921, 173499, 678536
2096921,2096921, 173220, 678742
2096921,2096921, 173170, 678809
2096921,2096921, 173084, 678853
2096921,2096921, 172954, 678703
2096921,2096921, 173360, 678976
2096921,2096921, 173162, 678786
2096921,2096921, 173376, 678547
2096921,2096921, 173318, 678639
2096921,2096921, 173119, 678639
2096921,2096921, 173064, 678490
2096921,2096921, 173108, 678347
2096921,2096921, 173239, 678210
2096921,2096921, 173581, 678526
2096921,2096921, 172975, 678324
2096921,2096921, 173061, 678811
2096921,2096921, 173032, 678617
2096921,2096921, 173322, 678761
2096921,2096921, 173379, 678544
2096921,2096921, 173168, 678595
2096921,2096921, 173122, 678598
2096921,2096921, 173196, 678703
2096921,2096921, 173071, 678793
2096921,2096921, 173147, 678571
2096921,2096921, 173068, 678692
2096921,2096921, 173093, 678947
2096921,2096921, 173379, 678703
2096921,2096921, 173297, 678566
2096921,2096921, 173267, 678613
2096921,2096921, 173281, 678462
2096921,2096921, 173227, 678761
2096921,2096921, 173233, 678432
2096921,2096921, 173024, 678661
2096921,2096921, 173307, 678300
2096921,2096921, 173014, 678607
2096921,2096921, 173013, 678337
2096921,2096921, 173027, 678417
2096921,2096921, 173079, 678293
2096921,2096921, 173193, 678401
2096921,2096921, 173038, 678418
2096921,2096921, 173383, 678351
2096921,2096921, 173220, 678379
2096921,2096921, 173249, 678437
2096921,2096921, 173303, 678446
2096921,2096921, 172959, 678213
2096921,2096921, 172937, 678391
2096921,2096921, 173089, 678449
2096921,2096921, 173276, 678512
2096921,2096921, 173055, 677779
2096921,2096921, 172951, 677751
2096921,2096921, 172771, 677674
2096921,2096921, 172447, 677962
2096921,2096921, 172479, 677662
2096921,2096921, 172385, 677188
2096921,2096921, 172355, 676769
2096921,2096921, 172533, 676691
2096921,2096921, 172788, 676910
2096921,2096921, 172645, 676941
2096921,2096921, 172356, 676027
2096921,2096921, 172190, 675660
2096921,2096921, 171968, 675847
2096921,2096921, 172260, 675817
2096921,2096921, 171535, 675668
2096921,2096921, 171820, 674522
2096921,2096921, 171587, 674194
2096921,2096921, 171434, 674317
2096921,2096921, 171215, 674080
2096921,2096921, 171292, 674228
2096921,2096921, 170969, 673082
2096921,2096921, 171150, 672907
2096921,2096921, 170603, 672829
2096921,2096921, 170824, 672720
2096921,2096921, 170450, 672462
2096921,2096921, 169567, 670310
2096921,2096921, 169333, 669680
2096921,2096921, 169587, 669418
2096921,2096921, 169510, 669467
2096921,2096921, 168937, 669282
2096921,2096921, 168490, 665788
2096921,2096921, 168012, 665255
2096921,2096921, 167963, 664751
2096921,2096921, 167770, 664903
2096921,2096921, 167506, 664920
2096921,2096921, 166729, 662350
2096921,2096921, 166516, 662113
2096921,2096921, 166630, 661640
2096921,2096921, 166785, 661983
2096921,2096921, 166243, 661742
2096921,2096921, 165804, 659780
2096921,2096921, 165608, 659470
2096921,2096921, 165815, 659610
2096921,2096921, 165689, 659337
2096921,2096921, 165504, 659252
2096921,2096921, 165263, 657939
2096921,2096921, 165074, 657593
2096921,2096921, 164848, 657637
2096921,2096921, 165079, 657579
2096921,2096921, 164789, 657339
2096921,2096921, 164646, 656293
2096921,2096921, 164369, 656170
2096921,2096921, 164390, 656250
2096921,2096921, 164499, 656324
2096921,2096921, 164160, 656209
2096921,2096921, 164261, 655266
2096921,2096921, 164250, 655029
2096921,2096921, 164083, 654965
2096921,2096921, 164166, 655010
2096921,2096921, 163994, 655296
2096921,2096921, 164094, 654705
2096921,2096921, 163689, 654441
2096921,2096921, 163732, 654710
2096921,2096921, 164007, 654555
2096921,2096921, 163626, 654445
2096921,2096921, 163794, 654649
2096921,2096921, 163670, 654132
2096921,2096921, 163804, 654509
2096921,2096921, 163738, 654206
2096921,2096921, 163943, 654219
2096921,2096921, 163667, 654300
2096921,2096921, 163609, 654193
2096921,2096921, 163736, 654247
2096921,2096921, 163780, 653974
2096921,2096921, 163728, 654271
2096921,2096921, 163739, 654456
2096921,2096921, 163737, 654513
2096921,2096921, 163967, 654250
2096921,2096921, 163930, 654529
2096921,2096921, 164057, 654476
2096921,2096921, 164250, 654535
2096921,2096921, 164233, 654733
2096921,2096921, 163910, 654510
2096921,2096921, 163710, 654481
2096921,2096921, 164013, 654473
2096921,2096921, 164092, 654712
2096921,2096921, 164300, 655037
2096921,2096921, 163755, 654859
2096921,2096921, 163933, 655037
2096921,2096921, 164121, 654645
2096921,2096921, 164188, 655292
2096921,2096921, 164076, 655434
2096921,2096921, 164107, 655260
2096921,2096921, 164146, 655373
2096921,2096921, 164286, 655111
2096921,2096921, 164630, 655822
2096921,2096921, 164381, 656064
2096921,2096921, 164828, 656204
2096921,2096921, 164341, 656161
2096921,2096921, 164516, 655857
2096921,2096921, 164943, 656334
2096921,2096921, 164922, 656684
2096921,2096921, 164917, 656515
2096921,2096921, 164757, 656868
2096921,2096921, 164827, 656957
2096921,2096921, 164755, 657203
2096921,2096921, 165376, 657020
2096921,2096921, 165371, 657330
2096921,2096921, 165267, 657491
2096921,2096921, 165038, 657412
2096921,2096921, 165362, 658140
2096921,2096921, 165227, 658178
2096921,2096921, 165427, 658081
2096921,2096921, 165494, 658213
2096921,2096921, 165500, 657731
2096921,2096921, 165535, 658478
2096921,2096921, 165713, 658306
2096921,2096921, 165527, 658753
2096921,2096921, 165346, 658501
2096921,2096921, 165889, 658769
2096921,2096921, 165994, 659307
2096921,2096921, 165780, 659387
2096921,2096921, 165938, 659136
2096921,2096921, 166144, 659227
2096921,2096921, 165775, 659285
2096921,2096921, 166174, 659907
2096921,2096921, 166184, 660094
2096921,2096921, 166025, 660004
2096921,2096921, 165962, 659972
2096921,2096921, 166302, 659922
2096921,2096921, 166046, 660414
2096921,2096921, 166314, 660561
2096921,2096921, 166347, 660638
2096921,2096921, 166453, 660430
2096921,2096921, 166566, 660421
2096921,2096921, 166465, 661381
2096921,2096921, 166759, 661658
2096921,2096921, 166430, 661632
2096921,2096921, 166502, 661362
2096921,2096921, 166824, 661471
2096921,2096921, 166837, 662179
2096921,2096921, 166980, 662046
2096921,2096921, 166983, 662131
2096921,2096921, 166867, 662178
2096921,2096921, 166946, 661865
2096921,2096921, 167370, 662204
2096921,2096921, 167117, 662633
2096921,2096921, 166873, 662479
2096921,2096921, 167007, 662800
2096921,2096921, 167515, 662683
2096921,2096921, 167864, 663518
2096921,2096921, 167396, 663396
2096921,2096921, 167862, 663280
2096921,2096921, 167454, 663328
2096921,2096921, 167480, 662949
2096921,2096921, 167612, 663497
2096921,2096921, 167546, 663749
2096921,2096921, 167589, 664012
2096921,2096921, 167647, 663919
2096921,2096921, 167628, 663609
2096921,2096921, 167734, 663968
2096921,2096921, 167489, 664005
2096921,2096921, 167691, 663893
2096921,2096921, 168021, 664095
2096921,2096921, 167735, 663937
2096921,2096921, 168059, 664292
2096921,2096921, 167930, 664229
2096921,2096921, 168036, 664273
2096921,2096921, 167934, 664084
2096921,2096921, 168010, 664403
2096921,2096921, 168004, 664377
2096921,2096921, 167811, 664286
2096921,2096921, 168220, 664471
2096921,2096921, 167909, 664670
2096921,2096921, 167720, 664262
2096921,2096921, 167813, 664278
2096921,2096921, 167658, 664281
2096921,2096921, 167947, 663890
2096921,2096921, 167743, 664069
2096921,2096921, 167756, 664268
2096921,2096921, 167666, 664062
2096921,2096921, 168004, 664034
2096921,2096921, 167866, 664269
2096921,2096921, 167902, 664221
2096921,2096921, 167628, 664195
2096921,2096921, 167967, 664001
2096921,2096921, 167797, 663937
2096921,2096921, 167989, 664072
2096921,2096921, 168026, 664214
2096921,2096921, 167711, 664146
2096921,2096921, 167860, 663683
2096921,2096921, 167705, 663619
2096921,2096921, 167536, 663666
2096921,2096921, 167678, 663670
2096921,2096921, 167400, 663636
2096921,2096921, 167466, 663418
2096921,2096921, 167457, 663562
2096921,2096921, 167453, 663223
2096921,2096921, 167466, 663541
2096921,2096921, 167633, 663308
2096921,2096921, 167561, 663057
2096921,2096921, 167660, 662954
2096921,2096921, 167398, 663109
2096921,2096921, 167605, 662858
2096921,2096921, 167206, 662562
2096921,2096921, 167473, 663080
2096921,2096921, 167400, 663190
2096921,2096921, 167336, 662970
2096921,2096921, 167688, 662957
2096921,2096921, 167523, 662921
2096921,2096921, 167521, 662571
2096921,2096921, 167349, 662684
2096921,2096921, 167356, 662896
2096921,2096921, 167269, 662813
2096921,2096921, 167344, 662887
2096921,2096921, 167166, 662736
2096921,2096921, 167498, 662581
2096921,2096921, 167229, 662516
2096921,2096921, 167329, 662753
2096921,2096921, 167241, 662389
2096921,2096921, 167193, 662379
2096921,2096921, 167453, 662480
2096921,2096921, 167428, 662479
2096921,2096921, 167528, 662671
2096921,2096921, 167509, 662490
2096921,2096921, 167519, 662624
2096921,2096921, 167562, 662715
2096921,2096921, 167422, 662714
2096921,2096921, 167546, 662615
2096921,2096921, 167423, 662695
2096921,2096921, 167505, 662816
2096921,2096921, 167414, 662756
2096921,2096921, 167456, 662907
2096921,2096921, 167707, 662963
2096921,2096921, 167487, 662691
2096921,2096921, 167684, 663082
2096921,2096921, 167717, 663436
2096921,2096921, 167595, 663114
2096921,2096921, 167861, 663299
2096921,2096921, 167830, 663330
2096921,2096921, 167930, 663704
2096921,2096921, 168011, 664297
2096921,2096921, 168102, 663999
2096921,2096921, 168116, 663847
2096921,2096921, 167764, 663919
2096921,2096921, 167801, 664140
2096921,2096921, 167822, 664069
2096921,2096921, 167854, 664111
2096921,2096921, 168123, 664356
2096921,2096921, 168262, 664151
2096921,2096921, 168199, 664499
2096921,2096921, 168161, 664537
2096921,2096921, 168196, 664618
2096921,2096921, 168171, 664687
2096921,2096921, 168280, 664451
2096921,2096921, 168514, 664860
2096921,2096921, 168649, 664916
2096921,2096921, 168368, 664766
2096921,2096921, 168549, 664814
2096921,2096921, 168393, 664789
2096921,2096921, 168414, 665119
2096921,2096921, 168490, 665136
2096921,2096921, 168844, 665170
2096921,2096921, 168774, 665260
2096921,2096921, 168939, 665400
2096921,2096921, 168705, 665463
2096921,2096921, 168497, 665643
2096921,2096921, 168452, 665534
2096921,2096921, 168382, 665577
2096921,2096921, 168724, 665506
2096921,2096921, 168638, 665715
2096921,2096921, 168547, 666063
2096921,2096921, 168359, 665849
2096921,2096921, 168864, 665839
2096921,2096921, 168560, 665878
2096921,2096921, 168862, 666253
2096921,2096921, 169055, 666215
2096921,2096921, 168649, 666312
2096921,2096921, 169117, 666073
2096921,2096921, 169225, 666172
2096921,2096921, 169065, 666689
2096921,2096921, 168532, 666968
2096921,2096921, 169079, 666599
2096921,2096921, 169129, 666723
2096921,2096921, 168992, 666708
2096921,2096921, 168973, 667031
2096921,2096921, 168962, 666836
2096921,2096921, 169268, 666638
2096921,2096921, 169184, 666666
2096921,2096921, 169453, 666956
2096921,2096921, 169474, 667122
2096921,2096921, 169059, 667252
2096921,2096921, 169238, 667315
2096921,2096921, 169309, 667153
2096921,2096921, 169501, 667077
2096921,2096921, 169312, 667509
2096921,2096921, 169349, 667861
2096921,2096921, 169253, 667374
2096921,2096921, 169521, 667673
2096921,2096921, 169741, 667881
2096921,2096921, 169745, 667919
2096921,2096921, 169513, 667891
2096921,2096921, 169693, 667824
2096921,2096921, 169543, 667934
2096921,2096921, 169552, 667872
2096921,2096921, 169627, 668193
2096921,2096921, 169505, 668404
2096921,2096921, 169536, 668071
2096921,2096921, 169993, 668055
2096921,2096921, 169827, 668197
2096921,2096921, 169937, 668141
2096921,2096921, 169525, 668512
2096921,2096921, 169803, 668468
2096921,2096921, 169923, 668595
2096921,2096921, 169953, 668434
2096921,2096921, 169870, 668919
2096921,2096921, 169991, 668877
2096921,2096921, 169909, 668754
2096921,2096921, 170029, 668752
2096921,2096921, 169902, 668926
2096921,2096921, 169981, 669250
2096921,2096921, 170036, 669137
2096921,2096921, 170194, 669015
2096921,2096921, 170159, 669096
2096921,2096921, 170191, 669229
2096921,2096921, 170239, 669452
2096921,2096921, 170340, 669271
2096921,2096921, 170376, 669250
2096921,2096921, 170205, 669239
2096921,2096921, 170301, 669160
2096921,2096921, 170354, 669232
2096921,2096921, 170187, 669285
2096921,2096921, 170284, 669405
2096921,2096921, 170347, 669317
2096921,2096921, 170462, 669334
2096921,2096921, 170328, 669505
2096921,2096921, 170599, 669806
2096921,2096921, 170397, 669802
2096921,2096921, 170376, 669963
2096921,2096921, 170431, 670068
2096921,2096921, 170304, 670044
2096921,2096921, 170763, 669902
2096921,2096921, 170759, 669832
2096921,2096921, 170464, 670134
2096921,2096921, 170288, 669901
2096921,2096921, 170438, 670023
2096921,2096921, 170422, 670163
2096921,2096921, 170547, 669976
2096921,2096921, 170558, 670109
2096921,2096921, 170810, 670206
2096921,2096921, 170591, 670369
2096921,2096921, 170633, 670342
2096921,2096921, 170617, 670393
2096921,2096921, 170626, 670636
2096921,2096921, 170565, 670385
2096921,2096921, 170637, 670420
2096921,2096921, 170801, 670398
2096921,2096921, 170820, 670485
2096921,2096921, 170645, 670629
2096921,2096921, 170762, 670387
2096921,2096921, 170481, 670805
2096921,2096921, 170652, 670800
2096921,2096921, 170717, 670631
2096921,2096921, 170822, 670544
2096921,2096921, 171002, 670620
2096921,2096921, 170853, 670649
2096921,2096921, 170992, 670754
2096921,2096921, 170534, 670735
2096921,2096921, 170826, 670682
2096921,2096921, 170847, 670684
2096921,2096921, 170900, 670939
2096921,2096921, 170857, 670924
2096921,2096921, 171008, 670967
2096921,2096921, 170874, 671083
2096921,2096921, 170764, 670758
2096921,2096921, 170720, 671355
2096921,2096921, 170537, 670980
2096921,2096921, 170946, 670987
2096921,2096921, 170874, 671003
2096921,2096921, 171068, 670995
2096921,2096921, 171088, 671243
2096921,2096921, 171173, 671275
2096921,2096921, 170874, 671295
2096921,2096921, 170893, 671243
2096921,2096921, 170803, 671070
2096921,2096921, 171040, 671173
2096921,2096921, 171109, 670979
2096921,2096921, 171302, 671162
2096921,2096921, 171134, 671100
2096921,2096921, 171083, 671192
2096921,2096921, 171172, 671302
2096921,2096921, 171041, 671264
2096921,2096921, 171043, 671343
2096921,2096921, 171200, 671258
2096921,2096921, 171212, 671232
2096921,2096921, 170968, 671642
2096921,2096921, 170958, 671301
2096921,2096921, 171252, 671272
2096921,2096921, 170978, 671491
2096921,2096921, 171355, 671542
2096921,2096921, 171325, 671462
2096921,2096921, 171291, 671572
2096921,2096921, 171124, 671620
2096921,2096921, 171093, 671553
2096921,2096921, 170993, 671877
2096921,2096921, 171307, 671906
2096921,2096921, 171145, 672044
2096921,2096921, 171396, 671750
2096921,2096921, 171240, 671615
2096921,2096921, 171359, 671581
2096921,2096921, 171134, 671877
2096921,2096921, 170967, 671769
2096921,2096921, 171165, 671822
2096921,2096921, 171283, 671854
2096921,2096921, 171491, 671960
2096921,2096921, 171146, 671856
2096921,2096921, 171079, 671875
2096921,2096921, 170963, 671751
2096921,2096921, 171240, 671761
2096921,2096921, 171350, 671849
2096921,2096921, 171439, 672072
2096921,2096921, 171253, 671960
2096921,2096921, 171591, 672001
2096921,2096921, 171365, 672014
2096921,2096921, 171418, 671941
2096921,2096921, 171401, 671934
2096921,2096921, 171462, 672091
2096921,2096921, 171304, 671962
2096921,2096921, 171430, 671902
2096921,2096921, 171198, 672129
2096921,2096921, 171320, 672119
2096921,2096921, 171333, 672079
2096921,2096921, 171619, 671905
2096921,2096921, 171277, 672270
2096921,2096921, 171384, 672063
2096921,2096921, 171312, 672196
2096921,2096921, 171339, 672317
2096921,2096921, 171463, 672076
2096921,2096921, 171334, 671853
2096921,2096921, 171719, 672224
2096921,2096921, 171401, 672319
2096921,2096921, 171501, 672361
2096921,2096921, 171515, 672364
2096921,2096921, 171318, 672297
2096921,2096921, 171372, 672149
2096921,2096921, 171604, 671753
2096921,2096921, 171467, 672143
2096921,2096921, 171397, 672190
2096921,2096921, 171304, 672162
2096921,2096921, 171481, 672111
2096921,2096921, 171727, 672184
2096921,2096921, 171555, 672508
2096921,2096921, 171523, 672087
2096921,2096921, 171309, 672317
2096921,2096921, 171629, 672325
2096921,2096921, 171415, 672279
2096921,2096921, 171594, 672316
2096921,2096921, 171071, 671969
2096921,2096921, 171402, 672282
2096921,2096921, 171721, 672066
2096921,2096921, 171560, 672132
2096921,2096921, 171651, 672254
2096921,2096921, 171570, 672440
2096921,2096921, 171638, 672250
2096921,2096921, 171592, 672086
2096921,2096921, 171650, 671856
2096921,2096921, 171597, 672100
