2096921,2096921,157297,662772,0
2096921,2096921,157072,662476,0
2096921,2096921,157181,662550,0
2096921,2096921,157023,662478,0
2096921,2096921,157030,662162,0
2096921,2096921,157183,662123,0
2096921,2096921,157067,661929,0
2096921,2096921,157066,662107,0
2096921,2096921,156910,662373,0
2096921,2096921,157060,662251,0
2096921,2096921,156968,661982,0
2096921,2096921,156928,662125,0
2096921,2096921,156954,661880,0
2096921,2096921,157159,661917,0
2096921,2096921,157131,661950,0
2096921,2096921,157208,661779,0
2096921,2096921,156994,662151,0
2096921,2096921,156992,661579,0
2096921,2096921,157126,661894,0
2096921,2096921,157120,661978,0
2096921,2096921,156934,661975,0
2096921,2096921,157129,662014,0
2096921,2096921,156930,662065,0
2096921,2096921,156890,661755,0
2096921,2096921,156815,661707,0
2096921,2096921,156762,661655,0
2096921,2096921,156817,661729,0
2096921,2096921,157185,661771,0
2096921,2096921,157020,661634,0
2096921,2096921,157184,661738,0
2096921,2096921,157402,661890,0
2096921,2096921,157149,661790,0
2096921,2096921,157126,661874,0
2096921,2096921,157058,661720,0
2096921,2096921,157196,661666,0
2096921,2096921,157103,662056,0
2096921,2096921,157013,661879,0
2096921,2096921,157129,661871,0
2096921,2096921,157308,661986,0
2096921,2096921,157186,662098,0
2096921,2096921,157395,662396,0
2096921,2096921,157268,662444,0
2096921,2096921,157461,662282,0
2096921,2096921,157569,662001,0
2096921,2096921,157361,662108,0
2096921,2096921,157345,662469,0
2096921,2096921,157393,662508,0
2096921,2096921,157670,662483,0
2096921,2096921,157231,662528,0
2096921,2096921,157739,662799,0
2096921,2096921,157422,662509,0
2096921,2096921,157321,662898,0
2096921,2096921,157732,662670,0
2096921,2096921,157585,662613,0
2096921,2096921,157453,662835,0
2096921,2096921,157522,662739,0
2096921,2096921,157427,662696,0
2096921,2096921,157578,662815,0
2096921,2096921,157423,663170,0
2096921,2096921,157658,662844,0
2096921,2096921,157773,662984,0
2096921,2096921,157824,663256,0
2096921,2096921,157615,663196,0
2096921,2096921,157568,662900,0
2096921,2096921,157543,663179,0
2096921,2096921,157669,663216,0
2096921,2096921,157546,663485,0
2096921,2096921,157668,663350,0
2096921,2096921,157687,663101,0
2096921,2096921,157947,663239,0
2096921,2096921,157974,663608,0
2096921,2096921,157870,663589,0
2096921,2096921,157829,663408,0
2096921,2096921,157797,663479,0
2096921,2096921,157923,663622,0
2096921,2096921,157996,663736,0
2096921,2096921,158029,663405,0
2096921,2096921,158001,663624,0
2096921,2096921,158237,663811,0
2096921,2096921,158084,663584,0
2096921,2096921,158032,663746,0
2096921,2096921,157952,664095,0
2096921,2096921,157749,663513,0
2096921,2096921,157984,663933,0
2096921,2096921,158102,663768,0
2096921,2096921,157948,663905,0
2096921,2096921,158571,663946,0
2096921,2096921,158422,664013,0
2096921,2096921,158154,664096,0
2096921,2096921,158460,664248,0
2096921,2096921,158593,664380,0
2096921,2096921,158440,664628,0
2096921,2096921,158315,664457,0
2096921,2096921,158412,664404,0
2096921,2096921,158179,664325,0
2096921,2096921,158098,664507,0
2096921,2096921,158352,664306,0
2096921,2096921,158419,664396,0
2096921,2096921,158501,664609,0
2096921,2096921,158394,664407,0
2096921,2096921,158384,664552,0
2096921,2096921,158275,664703,0
2096921,2096921,158715,664647,0
2096921,2096921,158399,664743,0
2096921,2096921,158237,664777,0
2096921,2096921,158247,664453,0
2096921,2096921,158191,664553,0
2096921,2096921,158615,664229,0
2096921,2096921,158649,664559,0
2096921,2096921,158539,664466,0
2096921,2096921,158419,664555,0
2096921,2096921,158412,664223,0
2096921,2096921,158508,664304,0
2096921,2096921,158599,664496,0
2096921,2096921,158631,664283,0
2096921,2096921,158600,664070,0
2096921,2096921,158286,664045,0
2096921,2096921,158566,664231,0
2096921,2096921,158504,663903,0
2096921,2096921,158254,663856,0
2096921,2096921,158302,663995,0
2096921,2096921,158319,663656,0
2096921,2096921,158412,663667,0
2096921,2096921,158387,663788,0
2096921,2096921,158280,663557,0
2096921,2096921,157972,663480,0
2096921,2096921,158053,663495,0
2096921,2096921,158255,663396,0
2096921,2096921,158266,663317,0
2096921,2096921,158164,663514,0
2096921,2096921,158449,663069,0
2096921,2096921,158319,663183,0
2096921,2096921,157974,663196,0
2096921,2096921,158061,662973,0
2096921,2096921,158154,662955,0
2096921,2096921,158143,662887,0
2096921,2096921,158211,662702,0
2096921,2096921,158237,662476,0
2096921,2096921,157751,662627,0
2096921,2096921,158036,662709,0
2096921,2096921,157958,662420,0
2096921,2096921,157914,662072,0
2096921,2096921,157718,662234,0
2096921,2096921,157732,662428,0
2096921,2096921,157507,662473,0
2096921,2096921,157718,661981,0
2096921,2096921,157729,661835,0
2096921,2096921,157712,661792,0
2096921,2096921,157981,662152,0
2096921,2096921,157729,661814,0
2096921,2096921,158011,661613,0
2096921,2096921,157953,661662,0
2096921,2096921,157771,661615,0
2096921,2096921,157745,661729,0
2096921,2096921,157697,661509,0
2096921,2096921,157636,661657,0
2096921,2096921,157645,661391,0
2096921,2096921,157629,661504,0
2096921,2096921,157726,661531,0
2096921,2096921,157659,661663,0
2096921,2096921,157716,661162,0
2096921,2096921,157609,661147,0
2096921,2096921,157731,661283,0
2096921,2096921,157333,661219,0
2096921,2096921,157613,661280,0
2096921,2096921,157648,661132,0
2096921,2096921,157604,661143,0
2096921,2096921,157420,661095,0
2096921,2096921,157621,661149,0
2096921,2096921,157399,661265,0
2096921,2096921,157643,660955,0
2096921,2096921,157511,661124,0
2096921,2096921,157220,661025,0
2096921,2096921,157420,660954,0
2096921,2096921,157410,660805,0
2096921,2096921,157478,661128,0
2096921,2096921,157661,661293,0
2096921,2096921,157286,661110,0
2096921,2096921,157382,660831,0
2096921,2096921,157615,661146,0
2096921,2096921,157903,661021,0
2096921,2096921,157729,660995,0
2096921,2096921,157536,661411,0
2096921,2096921,157570,661251,0
2096921,2096921,157923,661186,0
2096921,2096921,157943,661214,0
2096921,2096921,157777,661516,0
2096921,2096921,157932,661329,0
2096921,2096921,157693,661402,0
2096921,2096921,157790,661339,0
2096921,2096921,157813,661325,0
2096921,2096921,157599,661374,0
2096921,2096921,157715,661333,0
2096921,2096921,157882,661226,0
2096921,2096921,157816,661196,0
2096921,2096921,157694,661615,0
2096921,2096921,157866,661660,0
2096921,2096921,157715,661615,0
2096921,2096921,157979,661627,0
2096921,2096921,157876,661576,0
2096921,2096921,157671,661527,0
2096921,2096921,157767,661424,0
2096921,2096921,157947,661198,0
2096921,2096921,157805,661547,0
2096921,2096921,158069,661336,0
2096921,2096921,158006,661617,0
2096921,2096921,157710,661408,0
2096921,2096921,157862,661382,0
2096921,2096921,158042,661683,0
2096921,2096921,158173,661541,0
2096921,2096921,158092,661731,0
2096921,2096921,157759,661849,0
2096921,2096921,157712,661686,0
2096921,2096921,158007,661611,0
2096921,2096921,157954,661276,0
2096921,2096921,158025,661538,0
2096921,2096921,157911,661574,0
2096921,2096921,157974,661691,0
2096921,2096921,157910,661619,0
2096921,2096921,158126,661630,0
2096921,2096921,158264,661970,0
2096921,2096921,158400,661694,0
2096921,2096921,158123,661843,0
2096921,2096921,158102,661753,0
2096921,2096921,158158,661834,0
2096921,2096921,157922,661638,0
2096921,2096921,157924,661840,0
2096921,2096921,157969,661861,0
2096921,2096921,158329,661730,0
2096921,2096921,158102,661737,0
2096921,2096921,158162,662234,0
2096921,2096921,158028,662076,0
2096921,2096921,158029,661828,0
2096921,2096921,158252,661661,0
2096921,2096921,158017,661835,0
2096921,2096921,158098,661983,0
2096921,2096921,158142,661652,0
2096921,2096921,157883,661873,0
2096921,2096921,158235,661942,0
2096921,2096921,158197,662095,0
2096921,2096921,158119,661842,0
2096921,2096921,158374,661863,0
2096921,2096921,158017,661841,0
2096921,2096921,158114,661881,0
2096921,2096921,158397,661998,0
2096921,2096921,158348,662013,0
2096921,2096921,158530,662085,0
2096921,2096921,158438,662118,0
2096921,2096921,158280,661868,0
2096921,2096921,158391,661742,0
2096921,2096921,158357,661828,0
2096921,2096921,158533,662256,0
2096921,2096921,158520,662292,0
2096921,2096921,158409,662238,0
2096921,2096921,158188,662197,0
2096921,2096921,158688,662176,0
2096921,2096921,158546,662246,0
2096921,2096921,158525,661976,0
2096921,2096921,158359,662180,0
2096921,2096921,158417,661796,0
2096921,2096921,158282,661939,0
2096921,2096921,158410,662038,0
2096921,2096921,158193,662291,0
2096921,2096921,158283,662159,0
2096921,2096921,158406,662030,0
2096921,2096921,158311,662034,0
2096921,2096921,158459,662246,0
2096921,2096921,158556,662144,0
2096921,2096921,158806,662255,0
2096921,2096921,158746,662000,0
2096921,2096921,158515,662386,0
2096921,2096921,158419,662286,0
2096921,2096921,158421,662301,0
2096921,2096921,158306,662306,0
2096921,2096921,158619,662289,0
2096921,2096921,158380,662369,0
2096921,2096921,158254,662392,0
2096921,2096921,158726,662451,0
2096921,2096921,158476,662422,0
2096921,2096921,158354,662403,0
2096921,2096921,158465,662240,0
2096921,2096921,158460,662464,0
2096921,2096921,158640,662388,0
2096921,2096921,158590,662482,0
2096921,2096921,158392,662270,0
2096921,2096921,158459,662155,0
2096921,2096921,158878,661959,0
2096921,2096921,158758,662234,0
2096921,2096921,158700,662393,0
2096921,2096921,158715,662335,0
2096921,2096921,158455,662395,0
2096921,2096921,158462,662666,0
2096921,2096921,158470,662597,0
2096921,2096921,158561,662333,0
2096921,2096921,158687,662406,0
2096921,2096921,158728,662344,0
2096921,2096921,158658,662702,0
2096921,2096921,158654,662327,0
2096921,2096921,158587,662236,0
2096921,2096921,158610,662273,0
2096921,2096921,158745,662415,0
2096921,2096921,158813,662507,0
2096921,2096921,158645,662563,0
2096921,2096921,158490,662242,0
2096921,2096921,158674,662409,0
2096921,2096921,158683,662534,0
2096921,2096921,158518,662598,0
2096921,2096921,158762,662648,0
2096921,2096921,158758,662688,0
2096921,2096921,158829,662687,0
2096921,2096921,158724,662511,0
2096921,2096921,158724,662435,0
2096921,2096921,158582,662303,0
2096921,2096921,158562,662405,0
2096921,2096921,158584,662411,0
2096921,2096921,158436,662455,0
2096921,2096921,158608,662222,0
2096921,2096921,158508,662595,0
2096921,2096921,158805,662457,0
2096921,2096921,158552,662675,0
2096921,2096921,158643,662702,0
2096921,2096921,158826,662376,0
2096921,2096921,158800,662534,0
2096921,2096921,158677,662485,0
2096921,2096921,158610,662376,0
2096921,2096921,158687,662561,0
2096921,2096921,158558,662315,0
2096921,2096921,158903,662420,0
2096921,2096921,158801,662486,0
2096921,2096921,158722,662662,0
2096921,2096921,158554,662423,0
2096921,2096921,158660,662510,0
2096921,2096921,158620,662533,0
2096921,2096921,158957,662545,0
2096921,2096921,158805,662453,0
2096921,2096921,158858,662646,0
2096921,2096921,158835,662664,0
2096921,2096921,158860,662415,0
2096921,2096921,159079,662613,0
2096921,2096921,158932,662493,0
2096921,2096921,158895,662633,0
2096921,2096921,158959,662428,0
2096921,2096921,158614,662937,0
2096921,2096921,158769,662332,0
2096921,2096921,158868,662496,0
2096921,2096921,158743,662286,0
2096921,2096921,158737,662697,0
2096921,2096921,158896,662606,0
2096921,2096921,158695,662831,0
2096921,2096921,158758,662964,0
2096921,2096921,158842,662839,0
2096921,2096921,158992,662678,0
2096921,2096921,158939,662497,0
2096921,2096921,158546,662692,0
2096921,2096921,158952,662463,0
2096921,2096921,158606,662618,0
2096921,2096921,158652,662522,0
2096921,2096921,158769,662767,0
2096921,2096921,158886,662887,0
2096921,2096921,158809,662632,0
2096921,2096921,158981,662844,0
2096921,2096921,158831,662926,0
2096921,2096921,159022,662718,0
2096921,2096921,158763,662674,0
2096921,2096921,158704,662371,0
2096921,2096921,159154,662663,0
2096921,2096921,158899,662816,0
2096921,2096921,158966,662785,0
2096921,2096921,158854,662712,0
2096921,2096921,159087,662770,0
2096921,2096921,158896,662850,0
2096921,2096921,158904,662845,0
2096921,2096921,158730,663000,0
2096921,2096921,158482,662870,0
2096921,2096921,158787,663083,0
2096921,2096921,158882,662687,0
2096921,2096921,158914,662685,0
2096921,2096921,158911,662630,0
2096921,2096921,158937,662834,0
2096921,2096921,158803,662985,0
2096921,2096921,158922,663222,0
2096921,2096921,158772,662995,0
2096921,2096921,158552,663104,0
2096921,2096921,159132,662834,0
2096921,2096921,158774,662761,0
2096921,2096921,158772,663163,0
2096921,2096921,158834,662908,0
2096921,2096921,158630,662926,0
2096921,2096921,158894,662880,0
2096921,2096921,158993,663037,0
2096921,2096921,159003,663126,0
2096921,2096921,158935,662891,0
2096921,2096921,159177,663003,0
2096921,2096921,158758,662933,0
2096921,2096921,158712,662685,0
2096921,2096921,158742,663012,0
2096921,2096921,158668,662810,0
2096921,2096921,158870,662994,0
2096921,2096921,159017,662988,0
2096921,2096921,158923,662998,0
2096921,2096921,158814,663035,0
2096921,2096921,158792,663101,0
2096921,2096921,158835,663010,0
2096921,2096921,159065,663208,0
2096921,2096921,158916,663188,0
2096921,2096921,159058,662957,0
2096921,2096921,158996,663052,0
2096921,2096921,158960,662810,0
2096921,2096921,158920,662884,0
2096921,2096921,158934,662948,0
2096921,2096921,159151,663059,0
2096921,2096921,159196,663090,0
2096921,2096921,158719,662966,0
2096921,2096921,158807,663120,0
2096921,2096921,158907,662946,0
2096921,2096921,158952,663123,0
2096921,2096921,158827,663250,0
2096921,2096921,159151,663125,0
2096921,2096921,159213,663089,0
2096921,2096921,159046,662897,0
2096921,2096921,159050,663399,0
2096921,2096921,158798,663225,0
2096921,2096921,158872,662798,0
2096921,2096921,158915,663080,0
2096921,2096921,158817,663145,0
2096921,2096921,158821,663126,0
2096921,2096921,158857,663037,0
2096921,2096921,158830,663058,0
2096921,2096921,158918,663038,0
2096921,2096921,158940,663172,0
2096921,2096921,159018,663191,0
2096921,2096921,158979,663231,0
2096921,2096921,158865,663187,0
2096921,2096921,158787,663210,0
2096921,2096921,159130,662998,0
2096921,2096921,159193,663239,0
2096921,2096921,158951,663072,0
2096921,2096921,159148,663079,0
2096921,2096921,159147,663283,0
2096921,2096921,159054,662818,0
2096921,2096921,158674,662617,0
2096921,2096921,158817,662678,0
2096921,2096921,158841,662446,0
2096921,2096921,158742,662773,0
2096921,2096921,158502,662337,0
2096921,2096921,158696,662026,0
2096921,2096921,158807,662115,0
2096921,2096921,158602,662135,0
2096921,2096921,158674,662161,0
2096921,2096921,158604,661834,0
2096921,2096921,158176,661748,0
2096921,2096921,158578,661662,0
2096921,2096921,158341,661705,0
2096921,2096921,158659,661545,0
2096921,2096921,158070,661552,0
2096921,2096921,158105,661050,0
2096921,2096921,158023,660768,0
2096921,2096921,157934,660916,0
2096921,2096921,158004,660466,0
2096921,2096921,157746,660493,0
2096921,2096921,157791,660003,0
2096921,2096921,157784,659998,0
2096921,2096921,157668,660156,0
2096921,2096921,157446,659949,0
2096921,2096921,157051,659756,0
2096921,2096921,157227,658286,0
2096921,2096921,157183,657830,0
2096921,2096921,157139,657913,0
2096921,2096921,157142,657598,0
2096921,2096921,156138,657459,0
2096921,2096921,156040,655737,0
2096921,2096921,156030,655362,0
2096921,2096921,155878,654997,0
2096921,2096921,155900,655308,0
2096921,2096921,155528,654959,0
2096921,2096921,155634,653658,0
2096921,2096921,155517,653588,0
2096921,2096921,155358,653444,0
2096921,2096921,155597,653024,0
2096921,2096921,155173,653239,0
2096921,2096921,154934,652397,0
2096921,2096921,154956,652187,0
2096921,2096921,154904,651985,0
2096921,2096921,155033,652096,0
2096921,2096921,154837,651950,0
2096921,2096921,154389,651264,0
2096921,2096921,154205,650802,0
2096921,2096921,154358,651040,0
2096921,2096921,154409,650927,0
2096921,2096921,154290,650956,0
2096921,2096921,154255,650590,0
2096921,2096921,154266,650249,0
2096921,2096921,154258,650266,0
2096921,2096921,154405,650379,0
2096921,2096921,153869,650198,0
2096921,2096921,153765,649405,0
2096921,2096921,154174,649976,0
2096921,2096921,154426,649651,0
2096921,2096921,153973,649996,0
2096921,2096921,153795,649865,0
2096921,2096921,154002,649761,0
2096921,2096921,153743,649286,0
2096921,2096921,153784,649451,0
2096921,2096921,153787,649350,0
2096921,2096921,153960,649176,0
2096921,2096921,154100,649354,0
2096921,2096921,153905,649036,0
2096921,2096921,153932,649151,0
2096921,2096921,153951,649232,0
2096921,2096921,154030,649288,0
2096921,2096921,153974,649572,0
2096921,2096921,153875,649357,0
2096921,2096921,153807,649462,0
2096921,2096921,153840,649374,0
2096921,2096921,154020,649603,0
2096921,2096921,154099,649713,0
2096921,2096921,153904,649281,0
2096921,2096921,153547,649319,0
2096921,2096921,154072,649671,0
2096921,2096921,153900,649470,0
2096921,2096921,153666,649355,0
2096921,2096921,154019,649357,0
2096921,2096921,153890,649667,0
2096921,2096921,154232,649638,0
2096921,2096921,153911,649868,0
2096921,2096921,154007,650074,0
2096921,2096921,154087,649962,0
2096921,2096921,154043,649975,0
2096921,2096921,154117,650118,0
2096921,2096921,154322,649708,0
2096921,2096921,153984,650074,0
2096921,2096921,154106,650209,0
2096921,2096921,153890,650475,0
2096921,2096921,154145,650388,0
2096921,2096921,154426,650491,0
2096921,2096921,154297,650706,0
2096921,2096921,154032,650999,0
2096921,2096921,154047,650780,0
2096921,2096921,154396,650746,0
2096921,2096921,154453,650991,0
2096921,2096921,154620,651128,0
2096921,2096921,154613,651031,0
2096921,2096921,154247,651419,0
2096921,2096921,154650,651284,0
2096921,2096921,154572,651387,0
2096921,2096921,154676,651583,0
2096921,2096921,154529,651625,0
2096921,2096921,154633,651364,0
2096921,2096921,154582,651384,0
2096921,2096921,155004,651980,0
2096921,2096921,154897,652403,0
2096921,2096921,154965,652419,0
2096921,2096921,154956,652337,0
2096921,2096921,154818,652452,0
2096921,2096921,155192,652378,0
2096921,2096921,155104,652867,0
2096921,2096921,155235,652884,0
2096921,2096921,155276,652803,0
2096921,2096921,155347,652847,0
2096921,2096921,155058,652958,0
2096921,2096921,154990,653092,0
2096921,2096921,155154,653312,0
2096921,2096921,154958,653114,0
2096921,2096921,155151,653103,0
2096921,2096921,155352,653417,0
2096921,2096921,155569,653421,0
2096921,2096921,155484,653524,0
2096921,2096921,155479,653614,0
2096921,2096921,155504,653591,0
2096921,2096921,155454,654012,0
2096921,2096921,155696,654354,0
2096921,2096921,155678,654174,0
2096921,2096921,155670,653932,0
2096921,2096921,155785,654085,0
2096921,2096921,155858,654085,0
2096921,2096921,155628,654445,0
2096921,2096921,155597,654935,0
2096921,2096921,155702,654587,0
2096921,2096921,155871,654532,0
2096921,2096921,156105,654496,0
2096921,2096921,156101,655512,0
2096921,2096921,156029,655409,0
2096921,2096921,156160,655294,0
2096921,2096921,156211,655401,0
2096921,2096921,155969,655457,0
2096921,2096921,156169,655459,0
2096921,2096921,156533,655860,0
2096921,2096921,156372,655517,0
2096921,2096921,156311,655741,0
2096921,2096921,156517,655851,0
2096921,2096921,156631,655832,0
2096921,2096921,156350,656297,0
2096921,2096921,156330,656448,0
2096921,2096921,156183,656232,0
2096921,2096921,156307,656439,0
2096921,2096921,156282,656664,0
2096921,2096921,156443,656737,0
2096921,2096921,156728,656695,0
2096921,2096921,156686,656711,0
2096921,2096921,156702,656811,0
2096921,2096921,156717,656921,0
2096921,2096921,156569,656983,0
2096921,2096921,156464,656610,0
2096921,2096921,156561,656755,0
2096921,2096921,156336,656582,0
2096921,2096921,156896,656903,0
2096921,2096921,156972,657103,0
2096921,2096921,156691,657173,0
2096921,2096921,156371,657298,0
2096921,2096921,156804,657313,0
2096921,2096921,156916,657449,0
2096921,2096921,156610,657969,0
2096921,2096921,156892,657746,0
2096921,2096921,156637,657640,0
2096921,2096921,156682,657488,0
2096921,2096921,156639,657455,0
2096921,2096921,156690,657761,0
2096921,2096921,156726,657617,0
2096921,2096921,156601,657932,0
2096921,2096921,156805,657704,0
2096921,2096921,156783,657960,0
2096921,2096921,157075,657556,0
2096921,2096921,156859,657812,0
2096921,2096921,156802,657904,0
2096921,2096921,156949,657840,0
2096921,2096921,156686,657709,0
2096921,2096921,156968,657662,0
2096921,2096921,157018,657774,0
2096921,2096921,157011,658061,0
2096921,2096921,156935,658110,0
2096921,2096921,156841,658108,0
2096921,2096921,156986,657848,0
2096921,2096921,156843,657493,0
2096921,2096921,156292,657820,0
2096921,2096921,156544,657599,0
2096921,2096921,156806,657756,0
2096921,2096921,156698,657895,0
2096921,2096921,156726,657862,0
2096921,2096921,156780,657802,0
2096921,2096921,156920,658068,0
2096921,2096921,156960,657750,0
2096921,2096921,156891,658032,0
2096921,2096921,156467,657856,0
2096921,2096921,156652,657763,0
2096921,2096921,156782,658090,0
2096921,2096921,156648,658018,0
2096921,2096921,156713,657591,0
2096921,2096921,156726,657694,0
2096921,2096921,156731,657921,0
2096921,2096921,156971,658019,0
2096921,2096921,156793,657722,0
2096921,2096921,157016,657933,0
2096921,2096921,156659,657953,0
2096921,2096921,156759,657881,0
2096921,2096921,156951,658111,0
2096921,2096921,156852,658223,0
2096921,2096921,157160,658404,0
2096921,2096921,157071,658555,0
2096921,2096921,156785,658289,0
2096921,2096921,156826,658337,0
2096921,2096921,157191,658760,0
2096921,2096921,157028,658646,0
2096921,2096921,156975,658555,0
2096921,2096921,156795,658498,0
2096921,2096921,156984,658441,0
2096921,2096921,157222,658786,0
2096921,2096921,157200,658786,0
2096921,2096921,156892,658845,0
2096921,2096921,157248,658945,0
2096921,2096921,156907,658578,0
2096921,2096921,157419,658881,0
2096921,2096921,157323,659193,0
2096921,2096921,157292,659000,0
2096921,2096921,157024,659130,0
2096921,2096921,157394,658980,0
2096921,2096921,157397,659399,0
2096921,2096921,157114,659559,0
2096921,2096921,157345,659731,0
2096921,2096921,157167,659358,0
2096921,2096921,157587,659829,0
2096921,2096921,157633,659764,0
2096921,2096921,157581,660224,0
2096921,2096921,157438,660168,0
2096921,2096921,157390,660053,0
2096921,2096921,157463,660247,0
2096921,2096921,157721,660345,0
2096921,2096921,157618,660504,0
2096921,2096921,157609,660537,0
2096921,2096921,157533,660486,0
2096921,2096921,157767,660700,0
2096921,2096921,157703,660875,0
2096921,2096921,157826,661002,0
2096921,2096921,157863,661476,0
2096921,2096921,157694,661027,0
2096921,2096921,158047,661269,0
2096921,2096921,157884,661532,0
2096921,2096921,158019,661715,0
2096921,2096921,157951,661714,0
2096921,2096921,157914,661875,0
2096921,2096921,158003,661852,0
2096921,2096921,158096,662200,0
2096921,2096921,158155,661962,0
2096921,2096921,158175,662498,0
2096921,2096921,158224,662268,0
2096921,2096921,158075,662334,0
2096921,2096921,158319,662376,0
2096921,2096921,158326,662264,0
2096921,2096921,158004,662560,0
2096921,2096921,158291,663142,0
2096921,2096921,158357,663093,0
2096921,2096921,158334,663110,0
2096921,2096921,158183,662957,0
2096921,2096921,158446,662916,0
2096921,2096921,158305,662930,0
2096921,2096921,158597,662900,0
2096921,2096921,158537,663468,0
2096921,2096921,158410,663297,0
2096921,2096921,158627,663666,0
2096921,2096921,158720,663827,0
2096921,2096921,158459,663844,0
2096921,2096921,158817,663995,0
2096921,2096921,159005,664029,0
2096921,2096921,158764,664260,0
2096921,2096921,158655,664521,0
2096921,2096921,158954,664175,0
2096921,2096921,159111,664359,0
2096921,2096921,159022,664510,0
2096921,2096921,158912,664688,0
2096921,2096921,158826,664707,0
2096921,2096921,158898,664420,0
2096921,2096921,158921,664889,0
2096921,2096921,158999,664859,0
2096921,2096921,158924,664871,0
2096921,2096921,159170,664919,0
2096921,2096921,159031,665289,0
2096921,2096921,158954,665412,0
2096921,2096921,159127,665507,0
2096921,2096921,159168,665432,0
2096921,2096921,159329,665509,0
2096921,2096921,159514,665500,0
2096921,2096921,159387,665797,0
2096921,2096921,159307,665980,0
2096921,2096921,159361,665797,0
2096921,2096921,159092,665586,0
2096921,2096921,159163,665764,0
2096921,2096921,159488,666185,0
2096921,2096921,159574,666454,0
2096921,2096921,159483,666260,0
2096921,2096921,159534,666181,0
2096921,2096921,159336,666355,0
2096921,2096921,159566,666598,0
2096921,2096921,159450,666823,0
2096921,2096921,159474,666787,0
2096921,2096921,159781,666812,0
2096921,2096921,159537,666769,0
2096921,2096921,159941,667079,0
2096921,2096921,159654,666910,0
2096921,2096921,159717,667294,0
2096921,2096921,159727,667326,0
2096921,2096921,159961,667289,0
2096921,2096921,159671,667458,0
2096921,2096921,159816,667697,0
2096921,2096921,159965,667542,0
2096921,2096921,159644,667509,0
2096921,2096921,159839,667625,0
2096921,2096921,159973,668013,0
2096921,2096921,159913,667899,0
2096921,2096921,159921,668297,0
2096921,2096921,159742,667996,0
2096921,2096921,160183,668186,0
2096921,2096921,160288,668498,0
2096921,2096921,160390,668601,0
2096921,2096921,160211,668928,0
2096921,2096921,159845,668648,0
2096921,2096921,160227,668503,0
2096921,2096921,160144,668538,0
2096921,2096921,160082,668592,0
2096921,2096921,159961,668938,0
2096921,2096921,160197,668805,0
2096921,2096921,160124,668940,0
2096921,2096921,160399,669253,0
2096921,2096921,160448,669125,0
2096921,2096921,160342,669392,0
2096921,2096921,160136,669521,0
2096921,2096921,160663,669510,0
2096921,2096921,160473,669809,0
2096921,2096921,160219,669527,0
2096921,2096921,160417,669801,0
2096921,2096921,160537,669832,0
2096921,2096921,160404,669744,0
2096921,2096921,160410,670203,0
2096921,2096921,160487,670670,0
2096921,2096921,160577,670306,0
2096921,2096921,160584,670496,0
2096921,2096921,160530,670400,0
2096921,2096921,160637,670618,0
2096921,2096921,160483,670462,0
2096921,2096921,160755,670675,0
2096921,2096921,160619,670859,0
2096921,2096921,160837,670999,0
2096921,2096921,160647,671088,0
2096921,2096921,160833,670972,0
2096921,2096921,160709,671102,0
2096921,2096921,161007,671123,0
2096921,2096921,160899,670844,0
2096921,2096921,161032,671144,0
2096921,2096921,160879,671512,0
2096921,2096921,160889,671525,0
2096921,2096921,160972,671736,0
2096921,2096921,160818,671484,0
2096921,2096921,160764,671644,0
2096921,2096921,160769,671792,0
2096921,2096921,160766,671951,0
2096921,2096921,160889,671827,0
2096921,2096921,160872,671811,0
2096921,2096921,161398,671957,0
2096921,2096921,161309,672079,0
2096921,2096921,160923,672185,0
2096921,2096921,161130,672235,0
2096921,2096921,161074,672180,0
2096921,2096921,161078,672238,0
2096921,2096921,160947,672486,0
2096921,2096921,161011,672486,0
2096921,2096921,161016,672348,0
2096921,2096921,161303,672454,0
2096921,2096921,161117,672564,0
2096921,2096921,161124,672888,0
2096921,2096921,161128,672702,0
2096921,2096921,161223,672637,0
2096921,2096921,161071,672579,0
2096921,2096921,161152,672752,0
2096921,2096921,161345,672796,0
2096921,2096921,161433,672768,0
2096921,2096921,161312,673103,0
2096921,2096921,161387,673053,0
2096921,2096921,161190,673175,0
2096921,2096921,161294,673224,0
2096921,2096921,161373,673407,0
2096921,2096921,161504,673397,0
2096921,2096921,161452,673563,0
2096921,2096921,161624,673712,0
2096921,2096921,161741,673689,0
2096921,2096921,161485,673488,0
2096921,2096921,161547,673612,0
2096921,2096921,161604,673477,0
2096921,2096921,161530,673750,0
2096921,2096921,161473,673927,0
2096921,2096921,161592,674004,0
2096921,2096921,161588,673995,0
2096921,2096921,161896,674137,0
2096921,2096921,161739,674556,0
2096921,2096921,161820,674514,0
2096921,2096921,161647,674351,0
2096921,2096921,161932,674374,0
2096921,2096921,161985,674504,0
2096921,2096921,161665,674878,0
2096921,2096921,161921,674984,0
2096921,2096921,161748,674747,0
2096921,2096921,161830,675048,0
2096921,2096921,161938,674498,0
2096921,2096921,161706,675144,0
2096921,2096921,161826,675169,0
2096921,2096921,162045,675209,0
2096921,2096921,161901,675393,0
2096921,2096921,162249,675177,0
2096921,2096921,161925,675102,0
2096921,2096921,162168,675108,0
2096921,2096921,162208,675467,0
2096921,2096921,162317,675458,0
2096921,2096921,162315,675527,0
2096921,2096921,162346,675755,0
2096921,2096921,162215,676084,0
2096921,2096921,162230,675858,0
2096921,2096921,162072,675876,0
2096921,2096921,162119,675591,0
2096921,2096921,162199,675812,0
2096921,2096921,162132,676114,0
2096921,2096921,162458,676278,0
2096921,2096921,162513,675840,0
2096921,2096921,162461,675757,0
2096921,2096921,162322,676503,0
2096921,2096921,162270,676365,0
2096921,2096921,162205,676503,0
2096921,2096921,162199,676500,0
2096921,2096921,162346,676263,0
2096921,2096921,162224,676726,0
2096921,2096921,162284,676938,0
2096921,2096921,162425,676820,0
2096921,2096921,162205,676819,0
2096921,2096921,162338,676676,0
2096921,2096921,162337,676989,0
2096921,2096921,162482,676950,0
2096921,2096921,162666,676933,0
2096921,2096921,162323,676658,0
2096921,2096921,162514,676780,0
2096921,2096921,162629,677167,0
2096921,2096921,162626,677515,0
2096921,2096921,162749,677190,0
2096921,2096921,162755,677313,0
2096921,2096921,162476,677183,0
2096921,2096921,162642,677317,0
2096921,2096921,162443,677552,0
2096921,2096921,162611,677420,0
2096921,2096921,162274,677326,0
2096921,2096921,162589,677495,0
2096921,2096921,162287,677774,0
2096921,2096921,162656,677569,0
2096921,2096921,162663,677718,0
2096921,2096921,162795,677500,0
2096921,2096921,162939,677292,0
2096921,2096921,162783,677785,0
2096921,2096921,162777,677740,0
2096921,2096921,162855,677764,0
2096921,2096921,162862,677861,0
2096921,2096921,162630,678027,0
2096921,2096921,162808,678246,0
2096921,2096921,162687,678359,0
2096921,2096921,162646,678492,0
2096921,2096921,162902,678477,0
2096921,2096921,162640,678236,0
2096921,2096921,162847,678321,0
2096921,2096921,162922,678528,0
2096921,2096921,162904,678454,0
2096921,2096921,162949,678560,0
2096921,2096921,162855,678464,0
2096921,2096921,162929,678221,0
2096921,2096921,163049,678413,0
2096921,2096921,163160,678623,0
2096921,2096921,163036,678500,0
2096921,2096921,162856,678487,0
2096921,2096921,162796,678701,0
2096921,2096921,162685,678703,0
2096921,2096921,162916,678753,0
2096921,2096921,162869,678555,0
2096921,2096921,162853,678698,0
2096921,2096921,162848,679080,0
2096921,2096921,162735,679014,0
2096921,2096921,162829,679025,0
2096921,2096921,162833,679251,0
2096921,2096921,162748,679006,0
2096921,2096921,162658,678928,0
2096921,2096921,162785,678636,0
2096921,2096921,162727,678323,0
2096921,2096921,162584,678444,0
2096921,2096921,162715,678496,0
2096921,2096921,162798,678433,0
2096921,2096921,162591,678344,0
2096921,2096921,162943,678304,0
2096921,2096921,162923,678218,0
2096921,2096921,162470,678004,0
2096921,2096921,162688,677682,0
2096921,2096921,162355,677730,0
2096921,2096921,162478,677745,0
2096921,2096921,162508,677962,0
2096921,2096921,162312,677957,0
2096921,2096921,162332,677466,0
2096921,2096921,162282,677459,0
2096921,2096921,162474,677114,0
2096921,2096921,162375,677160,0
2096921,2096921,161856,677131,0
2096921,2096921,161756,676645,0
2096921,2096921,162006,676590,0
2096921,2096921,162031,676568,0
2096921,2096921,161788,676724,0
2096921,2096921,161375,676319,0
2096921,2096921,161422,675097,0
2096921,2096921,161281,674657,0
2096921,2096921,161248,674927,0
2096921,2096921,161515,674787,0
2096921,2096921,160669,674439,0
2096921,2096921,160430,672996,0
2096921,2096921,160268,672548,0
2096921,2096921,160617,672515,0
2096921,2096921,160384,672443,0
2096921,2096921,160000,672194,0
2096921,2096921,159818,670681,0
2096921,2096921,159820,670661,0
2096921,2096921,160005,670824,0
2096921,2096921,159984,670882,0
2096921,2096921,159374,670651,0
2096921,2096921,158979,669880,0
2096921,2096921,159182,669409,0
2096921,2096921,159126,669324,0
2096921,2096921,159115,669410,0
2096921,2096921,159181,669390,0
2096921,2096921,158858,668543,0
2096921,2096921,158863,668532,0
2096921,2096921,158863,668508,0
2096921,2096921,158916,668798,0
2096921,2096921,158732,668331,0
2096921,2096921,158662,668069,0
2096921,2096921,158815,668087,0
2096921,2096921,158632,667845,0
2096921,2096921,158545,667891,0
2096921,2096921,158320,667669,0
2096921,2096921,158469,667632,0
2096921,2096921,158392,667443,0
2096921,2096921,158437,667821,0
2096921,2096921,158483,667553,0
2096921,2096921,158370,667529,0
2096921,2096921,158425,667291,0
2096921,2096921,158500,667015,0
2096921,2096921,158562,667370,0
2096921,2096921,158213,667117,0
2096921,2096921,158158,667286,0
2096921,2096921,158341,667182,0
2096921,2096921,158044,667399,0
2096921,2096921,158562,667268,0
2096921,2096921,158380,667672,0
2096921,2096921,158580,667968,0
2096921,2096921,158306,667931,0
2096921,2096921,158379,667886,0
2096921,2096921,158515,667701,0
2096921,2096921,158522,667683,0
2096921,2096921,158689,667931,0
2096921,2096921,158784,668144,0
2096921,2096921,158317,668137,0
2096921,2096921,158428,667699,0
2096921,2096921,158415,667843,0
2096921,2096921,158581,667787,0
2096921,2096921,158805,667940,0
2096921,2096921,158410,668324,0
2096921,2096921,158578,668340,0
2096921,2096921,158453,668309,0
2096921,2096921,158710,668416,0
2096921,2096921,158834,668151,0
2096921,2096921,158856,668557,0
2096921,2096921,158766,668573,0
2096921,2096921,158916,668543,0
2096921,2096921,158875,668635,0
2096921,2096921,158722,668651,0
2096921,2096921,158906,668759,0
2096921,2096921,159162,668684,0
2096921,2096921,158767,668839,0
2096921,2096921,159124,669077,0
2096921,2096921,159152,669456,0
2096921,2096921,158826,669473,0
2096921,2096921,159374,669670,0
2096921,2096921,159115,669587,0
2096921,2096921,159247,669731,0
2096921,2096921,159219,669952,0
2096921,2096921,159393,669897,0
2096921,2096921,159068,670189,0
2096921,2096921,159172,670243,0
2096921,2096921,159181,670124,0
2096921,2096921,159241,670621,0
2096921,2096921,159509,670783,0
2096921,2096921,159565,670836,0
2096921,2096921,159348,670831,0
2096921,2096921,159492,671080,0
2096921,2096921,159461,671332,0
2096921,2096921,159373,670985,0
2096921,2096921,159177,671088,0
2096921,2096921,159359,670861,0
2096921,2096921,159879,671161,0
2096921,2096921,159798,671377,0
2096921,2096921,160038,671550,0
2096921,2096921,159904,671540,0
2096921,2096921,159972,671871,0
2096921,2096921,160036,671651,0
2096921,2096921,159981,672097,0
2096921,2096921,159949,672409,0
2096921,2096921,159960,672590,0
2096921,2096921,159931,672324,0
2096921,2096921,160074,672294,0
2096921,2096921,159928,672607,0
2096921,2096921,160291,672725,0
2096921,2096921,160105,672685,0
2096921,2096921,160156,672771,0
2096921,2096921,160076,672708,0
2096921,2096921,160384,673181,0
2096921,2096921,160457,673307,0
2096921,2096921,160213,673256,0
2096921,2096921,160141,673516,0
2096921,2096921,160205,673521,0
2096921,2096921,160446,673964,0
2096921,2096921,160621,673853,0
2096921,2096921,160677,674062,0
2096921,2096921,160698,673966,0
2096921,2096921,160780,673998,0
2096921,2096921,160507,674022,0
2096921,2096921,160913,674324,0
2096921,2096921,160609,674388,0
2096921,2096921,160441,674533,0
2096921,2096921,160692,674503,0
2096921,2096921,161036,675070,0
2096921,2096921,160857,675183,0
2096921,2096921,160850,675175,0
2096921,2096921,160661,675237,0
2096921,2096921,161216,675026,0
2096921,2096921,161162,675458,0
2096921,2096921,160614,675463,0
2096921,2096921,160884,675364,0
2096921,2096921,160911,675195,0
2096921,2096921,161061,675481,0
2096921,2096921,161251,675407,0
2096921,2096921,161028,675971,0
2096921,2096921,161141,675862,0
2096921,2096921,161248,675842,0
2096921,2096921,161251,675568,0
2096921,2096921,161571,675976,0
2096921,2096921,161422,675894,0
2096921,2096921,161235,676272,0
2096921,2096921,160999,676026,0
2096921,2096921,161231,676077,0
2096921,2096921,161243,676264,0
2096921,2096921,161411,676572,0
2096921,2096921,161382,676297,0
2096921,2096921,161475,676324,0
2096921,2096921,161332,676653,0
2096921,2096921,161496,676614,0
2096921,2096921,161417,676708,0
2096921,2096921,161590,676299,0
2096921,2096921,161732,676360,0
2096921,2096921,161339,676607,0
2096921,2096921,161499,676627,0
2096921,2096921,161172,676476,0
2096921,2096921,161463,676116,0
2096921,2096921,161453,676440,0
2096921,2096921,161736,676558,0
2096921,2096921,161664,676392,0
2096921,2096921,161658,676620,0
2096921,2096921,161408,676621,0
2096921,2096921,161421,676451,0
2096921,2096921,161387,676635,0
2096921,2096921,161660,676417,0
2096921,2096921,161669,676161,0
2096921,2096921,161642,676035,0
2096921,2096921,161660,676245,0
2096921,2096921,161513,676466,0
2096921,2096921,161230,676593,0
2096921,2096921,161360,676212,0
2096921,2096921,161497,676474,0
2096921,2096921,161617,676177,0
2096921,2096921,161179,676351,0
2096921,2096921,161265,676210,0
2096921,2096921,161293,676189,0
2096921,2096921,161184,676095,0
2096921,2096921,161146,675851,0
2096921,2096921,160999,675991,0
2096921,2096921,161473,675735,0
2096921,2096921,161150,675871,0
2096921,2096921,161304,675828,0
2096921,2096921,161089,675873,0
2096921,2096921,161124,675812,0
2096921,2096921,161077,675615,0
2096921,2096921,161390,675475,0
2096921,2096921,161366,675552,0
2096921,2096921,161448,675626,0
2096921,2096921,161008,676024,0
2096921,2096921,160994,675957,0
2096921,2096921,161317,676084,0
2096921,2096921,161145,675939,0
2096921,2096921,161043,675568,0
2096921,2096921,161142,675586,0
2096921,2096921,161100,675869,0
2096921,2096921,161459,675628,0
2096921,2096921,161243,675944,0
2096921,2096921,161194,675922,0
2096921,2096921,161383,675804,0
2096921,2096921,161061,676116,0
2096921,2096921,161078,675884,0
2096921,2096921,161294,675892,0
2096921,2096921,161161,675679,0
2096921,2096921,161283,675480,0
2096921,2096921,161039,675851,0
2096921,2096921,161227,675834,0
2096921,2096921,161048,675830,0
2096921,2096921,161259,675658,0
2096921,2096921,161535,675982,0
2096921,2096921,161492,676082,0
2096921,2096921,161318,676260,0
2096921,2096921,161200,676087,0
2096921,2096921,161229,675986,0
2096921,2096921,161447,676045,0
2096921,2096921,161637,676140,0
2096921,2096921,161141,676315,0
2096921,2096921,161327,676416,0
2096921,2096921,161532,675956,0
2096921,2096921,161675,676359,0
2096921,2096921,161466,676480,0
2096921,2096921,161594,676587,0
2096921,2096921,161428,676785,0
2096921,2096921,161433,676717,0
2096921,2096921,161548,676686,0
2096921,2096921,161588,677024,0
2096921,2096921,161742,677084,0
2096921,2096921,161689,677046,0
2096921,2096921,161567,677095,0
2096921,2096921,161792,676990,0
2096921,2096921,161761,677097,0
2096921,2096921,161715,677355,0
2096921,2096921,161741,677255,0
2096921,2096921,161696,677532,0
2096921,2096921,161852,677466,0
2096921,2096921,162074,677952,0
2096921,2096921,162047,677954,0
2096921,2096921,161721,677786,0
2096921,2096921,161996,677646,0
2096921,2096921,162079,677466,0
2096921,2096921,162177,677761,0
2096921,2096921,162116,677842,0
2096921,2096921,162133,677918,0
2096921,2096921,161921,677931,0
2096921,2096921,161928,678194,0
2096921,2096921,162112,678228,0
2096921,2096921,161916,678155,0
2096921,2096921,162186,678060,0
2096921,2096921,162228,678424,0
2096921,2096921,162261,678355,0
2096921,2096921,162180,678760,0
2096921,2096921,162242,678452,0
2096921,2096921,161949,678538,0
2096921,2096921,162129,678496,0
2096921,2096921,162204,678330,0
2096921,2096921,162189,678862,0
2096921,2096921,162355,678690,0
2096921,2096921,162155,678699,0
2096921,2096921,162321,678774,0
2096921,2096921,162874,678978,0
2096921,2096921,162679,678983,0
2096921,2096921,162448,679178,0
2096921,2096921,162469,678807,0
2096921,2096921,162469,678747,0
2096921,2096921,162480,679007,0
2096921,2096921,162349,679307,0
2096921,2096921,162603,679050,0
2096921,2096921,162482,678977,0
2096921,2096921,162299,679164,0
2096921,2096921,162347,679511,0
2096921,2096921,162561,679371,0
2096921,2096921,162490,679585,0
2096921,2096921,162554,679509,0
2096921,2096921,162429,679684,0
2096921,2096921,162535,679732,0
2096921,2096921,162564,679834,0
2096921,2096921,162786,679707,0
2096921,2096921,162753,679740,0
2096921,2096921,162593,679621,0
2096921,2096921,162705,679712,0
2096921,2096921,162795,680211,0
2096921,2096921,162996,679868,0
2096921,2096921,163043,679915,0
2096921,2096921,163050,679991,0
2096921,2096921,162870,679980,0
2096921,2096921,162947,679961,0
2096921,2096921,162774,680236,0
2096921,2096921,162721,679924,0
2096921,2096921,162784,680188,0
2096921,2096921,162721,680027,0
2096921,2096921,163076,680174,0
2096921,2096921,162798,680477,0
2096921,2096921,162866,680398,0
2096921,2096921,163127,680442,0
2096921,2096921,163125,680461,0
2096921,2096921,163286,680397,0
2096921,2096921,163382,680696,0
2096921,2096921,163175,680644,0
2096921,2096921,162893,680650,0
2096921,2096921,162900,680914,0
2096921,2096921,163012,680805,0
2096921,2096921,163230,680687,0
2096921,2096921,162770,680803,0
2096921,2096921,162943,680822,0
2096921,2096921,163020,680958,0
2096921,2096921,163019,680955,0
2096921,2096921,163104,681055,0
2096921,2096921,163326,681180,0
2096921,2096921,163056,681215,0
2096921,2096921,163022,681196,0
2096921,2096921,163316,681034,0
2096921,2096921,163170,681356,0
2096921,2096921,163335,681085,0
2096921,2096921,163300,681306,0
2096921,2096921,163197,681059,0
2096921,2096921,163148,681273,0
2096921,2096921,163168,681291,0
2096921,2096921,163435,681396,0
2096921,2096921,163273,681229,0
2096921,2096921,163326,681369,0
2096921,2096921,163106,681501,0
2096921,2096921,163220,681165,0
2096921,2096921,163371,681613,0
2096921,2096921,163408,681626,0
2096921,2096921,163605,681576,0
2096921,2096921,163482,681455,0
2096921,2096921,163291,681347,0
2096921,2096921,163623,681727,0
2096921,2096921,163550,681661,0
2096921,2096921,163552,681605,0
2096921,2096921,163334,681956,0
2096921,2096921,163315,681809,0
2096921,2096921,163582,681910,0
2096921,2096921,163163,681868,0
2096921,2096921,163274,681844,0
2096921,2096921,163316,681644,0
2096921,2096921,163240,681667,0
2096921,2096921,163282,681647,0
2096921,2096921,163483,682059,0
2096921,2096921,163876,681766,0
2096921,2096921,163791,681800,0
2096921,2096921,163391,681982,0
2096921,2096921,163489,682220,0
2096921,2096921,163456,681754,0
2096921,2096921,163804,682137,0
2096921,2096921,163478,682005,0
2096921,2096921,163480,682034,0
2096921,2096921,163709,681756,0
2096921,2096921,163668,681857,0
2096921,2096921,163515,681852,0
2096921,2096921,163482,682163,0
2096921,2096921,163844,681844,0
2096921,2096921,163657,681857,0
2096921,2096921,163424,681974,0
2096921,2096921,163251,681886,0
2096921,2096921,163138,682217,0
2096921,2096921,163504,682193,0
2096921,2096921,163641,681967,0
2096921,2096921,163643,682096,0
2096921,2096921,163659,682116,0
2096921,2096921,163511,681967,0
2096921,2096921,163659,682074,0
2096921,2096921,163720,681854,0
2096921,2096921,163724,682303,0
2096921,2096921,163509,681823,0
2096921,2096921,163681,681908,0
2096921,2096921,163749,682054,0
2096921,2096921,163687,681924,0
2096921,2096921,163537,682028,0
2096921,2096921,163757,682023,0
2096921,2096921,163607,682088,0
2096921,2096921,163877,682102,0
2096921,2096921,163470,681947,0
2096921,2096921,163694,682069,0
2096921,2096921,163397,682128,0
2096921,2096921,163598,681906,0
2096921,2096921,163694,682046,0
2096921,2096921,163494,681978,0
2096921,2096921,163680,681788,0
2096921,2096921,163323,682113,0
2096921,2096921,163669,682017,0
2096921,2096921,163667,681874,0
2096921,2096921,163687,682258,0
2096921,2096921,163349,682219,0
2096921,2096921,163734,682034,0
2096921,2096921,163454,681964,0
2096921,2096921,163811,681937,0
2096921,2096921,163711,681946,0
2096921,2096921,163462,682019,0
2096921,2096921,163604,682141,0
2096921,2096921,163512,682309,0
2096921,2096921,163581,682156,0
2096921,2096921,163762,682075,0
2096921,2096921,163804,682143,0
2096921,2096921,163670,681958,0
2096921,2096921,163494,681913,0
2096921,2096921,163709,682079,0
2096921,2096921,163671,681992,0
2096921,2096921,163603,681939,0
2096921,2096921,163621,682124,0
2096921,2096921,163661,681879,0
2096921,2096921,163765,682076,0
2096921,2096921,163825,682025,0
2096921,2096921,163800,681968,0
2096921,2096921,163494,682230,0
2096921,2096921,163379,681887,0
2096921,2096921,163546,682022,0
2096921,2096921,163541,681813,0
2096921,2096921,163581,681772,0
2096921,2096921,163834,681747,0
2096921,2096921,163472,681977,0
2096921,2096921,163663,681853,0
2096921,2096921,163633,682036,0
2096921,2096921,163700,681793,0
2096921,2096921,163318,681801,0
2096921,2096921,163578,681835,0
2096921,2096921,163521,681591,0
2096921,2096921,163599,681694,0
2096921,2096921,163752,681849,0
2096921,2096921,163473,681879,0
2096921,2096921,163556,681746,0
2096921,2096921,163448,681745,0
2096921,2096921,163464,681755,0
2096921,2096921,163528,681501,0
2096921,2096921,163620,681660,0
2096921,2096921,163631,681289,0
2096921,2096921,163513,681525,0
2096921,2096921,163571,681670,0
2096921,2096921,163478,681470,0
2096921,2096921,163516,681786,0
2096921,2096921,163530,681585,0
2096921,2096921,163771,681677,0
2096921,2096921,163666,681127,0
2096921,2096921,163523,681472,0
2096921,2096921,163339,681217,0
2096921,2096921,163778,681403,0
2096921,2096921,163625,681322,0
2096921,2096921,163695,681258,0
2096921,2096921,163785,681436,0
2096921,2096921,163759,681331,0
2096921,2096921,163588,681192,0
2096921,2096921,163558,681164,0
2096921,2096921,163514,680873,0
2096921,2096921,163654,681153,0
2096921,2096921,163386,681346,0
2096921,2096921,163494,681027,0
2096921,2096921,163386,680879,0
2096921,2096921,163397,681000,0
2096921,2096921,163187,681057,0
2096921,2096921,163237,681045,0
2096921,2096921,163456,680903,0
2096921,2096921,163339,680866,0
2096921,2096921,163845,680944,0
2096921,2096921,163427,680614,0
2096921,2096921,163512,680693,0
2096921,2096921,163277,680853,0
2096921,2096921,163416,680491,0
2096921,2096921,163458,680528,0
2096921,2096921,163765,680599,0
2096921,2096921,163295,680666,0
2096921,2096921,163107,680491,0
2096921,2096921,163390,680343,0
2096921,2096921,163507,680541,0
2096921,2096921,163114,680452,0
2096921,2096921,163194,680167,0
2096921,2096921,163206,680348,0
2096921,2096921,163249,680097,0
2096921,2096921,163419,680193,0
2096921,2096921,163417,680121,0
2096921,2096921,163289,680335,0
2096921,2096921,163390,679947,0
2096921,2096921,163471,680191,0
2096921,2096921,163328,679943,0
2096921,2096921,163101,679921,0
2096921,2096921,162974,680325,0
2096921,2096921,163026,680058,0
2096921,2096921,163191,680112,0
2096921,2096921,163101,679811,0
2096921,2096921,163055,679953,0
2096921,2096921,163037,679822,0
2096921,2096921,162834,679678,0
2096921,2096921,163010,679292,0
2096921,2096921,162868,679027,0
2096921,2096921,162813,678859,0
2096921,2096921,162803,679104,0
2096921,2096921,162656,678657,0
2096921,2096921,162850,678551,0
2096921,2096921,162788,678320,0
2096921,2096921,162788,678310,0
2096921,2096921,162529,677956,0
2096921,2096921,162461,678129,0
2096921,2096921,162653,678098,0
2096921,2096921,162538,677996,0
2096921,2096921,162496,677939,0
2096921,2096921,162072,677733,0
2096921,2096921,162073,676962,0
2096921,2096921,162090,676507,0
2096921,2096921,162116,676277,0
2096921,2096921,162337,676858,0
2096921,2096921,161787,676642,0
2096921,2096921,161691,675390,0
2096921,2096921,161414,675434,0
2096921,2096921,161560,675277,0
2096921,2096921,161634,675405,0
2096921,2096921,161074,675031,0
2096921,2096921,161147,673771,0
2096921,2096921,161007,673474,0
2096921,2096921,160885,673422,0
2096921,2096921,161243,673189,0
2096921,2096921,160170,672506,0
2096921,2096921,160092,670940,0
2096921,2096921,159587,670507,0
2096921,2096921,159681,670386,0
2096921,2096921,159818,670420,0
2096921,2096921,159283,669870,0
2096921,2096921,159439,668922,0
2096921,2096921,159315,668534,0
2096921,2096921,159060,668241,0
2096921,2096921,159347,668462,0
2096921,2096921,158645,667967,0
2096921,2096921,158298,666925,0
2096921,2096921,158728,666559,0
2096921,2096921,158361,666658,0
2096921,2096921,158413,666738,0
2096921,2096921,158094,666434,0
2096921,2096921,157967,665574,0
2096921,2096921,158149,665509,0
2096921,2096921,157952,665340,0
2096921,2096921,158033,665619,0
2096921,2096921,157692,665278,0
2096921,2096921,157884,664660,0
2096921,2096921,157770,664186,0
2096921,2096921,157857,664495,0
2096921,2096921,157477,664203,0
2096921,2096921,157578,664369,0
2096921,2096921,157429,663655,0
2096921,2096921,157314,663532,0
2096921,2096921,157500,663659,0
2096921,2096921,157688,663755,0
2096921,2096921,157256,663439,0
2096921,2096921,157203,663123,0
2096921,2096921,157483,663224,0
2096921,2096921,157245,663054,0
2096921,2096921,157166,663297,0
2096921,2096921,156967,663055,0
2096921,2096921,156916,662823,0
2096921,2096921,157184,662859,0
2096921,2096921,157286,662848,0
2096921,2096921,156980,662837,0
2096921,2096921,157169,662773,0
2096921,2096921,157404,662370,0
2096921,2096921,156997,662626,0
2096921,2096921,157154,662554,0
2096921,2096921,157385,662664,0
2096921,2096921,157053,662691,0
2096921,2096921,157369,662379,0
2096921,2096921,157241,662487,0
2096921,2096921,157324,662537,0
2096921,2096921,157374,662834,0
2096921,2096921,157134,662733,0
2096921,2096921,156975,662437,0
2096921,2096921,157215,662675,0
2096921,2096921,157047,662460,0
2096921,2096921,157314,662275,0
2096921,2096921,157070,662325,0
2096921,2096921,157138,662474,0
2096921,2096921,157060,662360,0
2096921,2096921,157262,662165,0
2096921,2096921,157443,662358,0
2096921,2096921,157257,662425,0
2096921,2096921,157456,662315,0
2096921,2096921,157465,662291,0
2096921,2096921,157413,662485,0
2096921,2096921,157190,662324,0
2096921,2096921,157524,662747,0
2096921,2096921,157241,662519,0
2096921,2096921,157085,662563,0
2096921,2096921,157204,662717,0
2096921,2096921,157335,662438,0
2096921,2096921,157430,662820,0
2096921,2096921,157564,662816,0
2096921,2096921,157545,662909,0
2096921,2096921,157586,662988,0
2096921,2096921,157355,662747,0
2096921,2096921,157425,662857,0
2096921,2096921,157208,663109,0
2096921,2096921,157484,662666,0
2096921,2096921,157418,663029,0
2096921,2096921,157600,662978,0
2096921,2096921,157372,663024,0
2096921,2096921,157561,663028,0
2096921,2096921,157534,663159,0
2096921,2096921,157612,663413,0
2096921,2096921,157579,662995,0
2096921,2096921,157702,663158,0
2096921,2096921,157409,663207,0
2096921,2096921,157609,663084,0
2096921,2096921,157974,663420,0
2096921,2096921,157949,663583,0
2096921,2096921,157832,663785,0
2096921,2096921,157975,663411,0
2096921,2096921,157670,663592,0
2096921,2096921,157740,663222,0
2096921,2096921,157760,663291,0
2096921,2096921,157935,663509,0
2096921,2096921,158129,663473,0
2096921,2096921,157748,663836,0
2096921,2096921,157824,663532,0
2096921,2096921,157807,663516,0
2096921,2096921,157888,663630,0
2096921,2096921,158247,663873,0
2096921,2096921,157953,663793,0
2096921,2096921,158062,663941,0
2096921,2096921,158229,663997,0
2096921,2096921,157863,663887,0
2096921,2096921,157993,663683,0
2096921,2096921,158150,663960,0
2096921,2096921,157972,664128,0
2096921,2096921,158122,664299,0
2096921,2096921,158272,664307,0
2096921,2096921,158245,664518,0
2096921,2096921,158192,664314,0
2096921,2096921,158302,664509,0
2096921,2096921,158277,663944,0
2096921,2096921,158556,664181,0
2096921,2096921,158294,664411,0
2096921,2096921,158263,664460,0
2096921,2096921,158365,664483,0
2096921,2096921,158507,664356,0
2096921,2096921,158522,664801,0
2096921,2096921,158447,664397,0
2096921,2096921,158461,664732,0
2096921,2096921,158555,664428,0
2096921,2096921,158562,664451,0
2096921,2096921,158437,664690,0
2096921,2096921,158672,664735,0
2096921,2096921,158413,664761,0
2096921,2096921,158584,664589,0
2096921,2096921,158708,664681,0
2096921,2096921,158940,664616,0
2096921,2096921,158530,664811,0
2096921,2096921,158875,664639,0
2096921,2096921,158500,664964,0
2096921,2096921,158442,664530,0
2096921,2096921,158379,664673,0
2096921,2096921,158389,664531,0
2096921,2096921,158357,664690,0
2096921,2096921,158307,664571,0
2096921,2096921,158329,664661,0
2096921,2096921,158384,664891,0
2096921,2096921,158404,664650,0
2096921,2096921,158358,664538,0
2096921,2096921,158520,664559,0
2096921,2096921,158312,664408,0
2096921,2096921,158345,664316,0
2096921,2096921,158237,663984,0
2096921,2096921,158262,664292,0
2096921,2096921,158687,664010,0
2096921,2096921,158515,664386,0
2096921,2096921,158004,664181,0
2096921,2096921,158186,663885,0
2096921,2096921,158233,663666,0
2096921,2096921,158105,664012,0
2096921,2096921,158308,664058,0
2096921,2096921,158360,663903,0
2096921,2096921,158337,663769,0
2096921,2096921,158540,663653,0
2096921,2096921,158260,663735,0
2096921,2096921,158267,663724,0
2096921,2096921,158037,663668,0
2096921,2096921,158028,663369,0
2096921,2096921,158262,663709,0
2096921,2096921,158301,663435,0
2096921,2096921,158005,663102,0
2096921,2096921,157876,662942,0
2096921,2096921,157950,662778,0
2096921,2096921,157950,662658,0
2096921,2096921,157943,662646,0
2096921,2096921,157958,662886,0
2096921,2096921,157993,662891,0
2096921,2096921,157858,662629,0
2096921,2096921,157849,662640,0
2096921,2096921,157853,662753,0
2096921,2096921,157772,662605,0
2096921,2096921,157748,662724,0
2096921,2096921,157715,662002,0
2096921,2096921,157702,662357,0
2096921,2096921,157730,662084,0
2096921,2096921,157754,662208,0
2096921,2096921,157681,662025,0
2096921,2096921,157789,662061,0
2096921,2096921,157705,661864,0
2096921,2096921,157763,662117,0
2096921,2096921,157397,662017,0
2096921,2096921,157680,661796,0
2096921,2096921,157685,661565,0
2096921,2096921,157643,661730,0
2096921,2096921,157776,661645,0
2096921,2096921,157806,661703,0
2096921,2096921,157637,661501,0
2096921,2096921,157647,661466,0
2096921,2096921,157864,661545,0
2096921,2096921,157850,661293,0
2096921,2096921,157508,661602,0
2096921,2096921,157471,661469,0
2096921,2096921,157685,661365,0
2096921,2096921,157484,661280,0
2096921,2096921,157660,661468,0
2096921,2096921,157660,661373,0
2096921,2096921,157862,661281,0
2096921,2096921,157802,661221,0
2096921,2096921,157578,661432,0
2096921,2096921,157621,661310,0
2096921,2096921,157565,661357,0
2096921,2096921,157631,661108,0
2096921,2096921,157692,661524,0
2096921,2096921,157804,661097,0
2096921,2096921,157940,661430,0
2096921,2096921,157636,661573,0
2096921,2096921,157906,661629,0
2096921,2096921,157823,661540,0
2096921,2096921,157805,661485,0
2096921,2096921,157952,661466,0
2096921,2096921,157940,661191,0
2096921,2096921,157754,661355,0
2096921,2096921,158104,661486,0
2096921,2096921,157705,661612,0
2096921,2096921,157549,661449,0
2096921,2096921,157789,661842,0
2096921,2096921,158121,661797,0
2096921,2096921,157970,661732,0
2096921,2096921,157985,661969,0
2096921,2096921,158016,661806,0
2096921,2096921,157806,661562,0
2096921,2096921,157686,661784,0
2096921,2096921,157535,661676,0
2096921,2096921,157680,661911,0
2096921,2096921,157700,661641,0
2096921,2096921,157800,661536,0
2096921,2096921,157960,661624,0
2096921,2096921,158148,661503,0
2096921,2096921,157882,661607,0
2096921,2096921,157939,661816,0
2096921,2096921,157659,661732,0
2096921,2096921,158041,661515,0
2096921,2096921,158001,661514,0
2096921,2096921,157943,661301,0
2096921,2096921,157884,661766,0
2096921,2096921,158104,661775,0
2096921,2096921,158110,661678,0
2096921,2096921,158269,661812,0
2096921,2096921,157881,662061,0
2096921,2096921,157851,662089,0
2096921,2096921,157989,661994,0
2096921,2096921,158211,662047,0
2096921,2096921,158207,661742,0
2096921,2096921,158184,661581,0
2096921,2096921,158023,661577,0
2096921,2096921,158016,661721,0
2096921,2096921,158087,661953,0
2096921,2096921,157983,661712,0
2096921,2096921,157948,661991,0
2096921,2096921,158012,661876,0
2096921,2096921,157920,661892,0
2096921,2096921,158018,661931,0
2096921,2096921,158311,661807,0
2096921,2096921,158308,661786,0
2096921,2096921,158144,661669,0
2096921,2096921,158318,661925,0
2096921,2096921,158190,661942,0
2096921,2096921,158068,661985,0
2096921,2096921,157995,661868,0
2096921,2096921,158010,662144,0
2096921,2096921,158276,661930,0
2096921,2096921,158225,661875,0
2096921,2096921,158167,661594,0
2096921,2096921,157927,661652,0
2096921,2096921,158319,661758,0
2096921,2096921,158171,662235,0
2096921,2096921,157983,662428,0
2096921,2096921,158354,661949,0
2096921,2096921,158504,662325,0
2096921,2096921,158454,662081,0
2096921,2096921,158256,661793,0
2096921,2096921,158223,662005,0
2096921,2096921,158234,662180,0
2096921,2096921,158302,662227,0
2096921,2096921,158514,662288,0
2096921,2096921,158561,662070,0
2096921,2096921,158427,662328,0
2096921,2096921,158488,662218,0
2096921,2096921,158384,662220,0
2096921,2096921,158076,662247,0
2096921,2096921,158216,662049,0
2096921,2096921,158514,662052,0
2096921,2096921,158719,662281,0
2096921,2096921,158387,662325,0
2096921,2096921,158499,662272,0
2096921,2096921,158387,662443,0
2096921,2096921,158588,662254,0
2096921,2096921,158678,662453,0
2096921,2096921,158624,662431,0
2096921,2096921,158486,662485,0
2096921,2096921,158354,662391,0
2096921,2096921,158566,662717,0
2096921,2096921,158635,662366,0
2096921,2096921,158347,662516,0
2096921,2096921,158406,662463,0
2096921,2096921,158374,662258,0
2096921,2096921,158846,662605,0
2096921,2096921,158623,662274,0
2096921,2096921,158451,662353,0
2096921,2096921,158547,662705,0
2096921,2096921,158495,662497,0
2096921,2096921,158702,662677,0
2096921,2096921,158271,662543,0
2096921,2096921,158471,662478,0
2096921,2096921,158717,662567,0
2096921,2096921,158927,662594,0
2096921,2096921,158685,662578,0
2096921,2096921,158828,662324,0
2096921,2096921,158596,662419,0
2096921,2096921,158474,662694,0
2096921,2096921,158437,662608,0
2096921,2096921,158759,662644,0
2096921,2096921,158855,662775,0
2096921,2096921,158708,662853,0
2096921,2096921,158495,662739,0
2096921,2096921,158726,662806,0
2096921,2096921,158804,662606,0
2096921,2096921,158809,662584,0
2096921,2096921,158481,662453,0
2096921,2096921,158387,662600,0
2096921,2096921,158363,662572,0
2096921,2096921,158572,662568,0
2096921,2096921,158749,662457,0
2096921,2096921,158757,662584,0
2096921,2096921,158907,662646,0
2096921,2096921,158776,662749,0
2096921,2096921,158664,662617,0
2096921,2096921,158692,662949,0
2096921,2096921,158779,662591,0
2096921,2096921,158973,662635,0
2096921,2096921,158751,662778,0
2096921,2096921,158878,662589,0
2096921,2096921,158727,662425,0
2096921,2096921,158795,662554,0
2096921,2096921,158664,662436,0
2096921,2096921,158548,662531,0
2096921,2096921,158630,662550,0
2096921,2096921,158502,662818,0
2096921,2096921,158581,662546,0
2096921,2096921,158421,662692,0
2096921,2096921,158556,662935,0
2096921,2096921,158687,662876,0
2096921,2096921,158516,662454,0
2096921,2096921,158713,662488,0
2096921,2096921,158588,662519,0
2096921,2096921,158771,662803,0
2096921,2096921,158683,662660,0
2096921,2096921,158727,662697,0
2096921,2096921,158445,662644,0
2096921,2096921,158606,662573,0
2096921,2096921,158683,662992,0
2096921,2096921,158746,662718,0
2096921,2096921,158805,662771,0
2096921,2096921,158432,662780,0
2096921,2096921,158474,662671,0
2096921,2096921,158719,662612,0
2096921,2096921,158775,662853,0
2096921,2096921,158730,662540,0
2096921,2096921,158582,662735,0
2096921,2096921,158561,662921,0
2096921,2096921,158460,662491,0
2096921,2096921,158512,662681,0
2096921,2096921,158835,662653,0
2096921,2096921,158815,662859,0
2096921,2096921,158965,662854,0
2096921,2096921,158614,662913,0
2096921,2096921,158990,662922,0
2096921,2096921,158901,662782,0
2096921,2096921,158913,662494,0
2096921,2096921,158684,662584,0
2096921,2096921,158746,662627,0
2096921,2096921,158595,662707,0
2096921,2096921,158935,662688,0
2096921,2096921,158986,662660,0
2096921,2096921,159005,662602,0
2096921,2096921,158793,662970,0
2096921,2096921,158746,662819,0
2096921,2096921,158638,662528,0
2096921,2096921,158726,662488,0
2096921,2096921,158880,662539,0
2096921,2096921,158860,662888,0
2096921,2096921,159022,662756,0
2096921,2096921,158768,662446,0
2096921,2096921,159047,662564,0
2096921,2096921,158566,662713,0
2096921,2096921,158775,662851,0
2096921,2096921,158893,662984,0
2096921,2096921,158675,662841,0
2096921,2096921,158661,662670,0
2096921,2096921,158829,662682,0
2096921,2096921,158955,662908,0
2096921,2096921,158805,662647,0
2096921,2096921,158584,662761,0
2096921,2096921,158711,662563,0
2096921,2096921,158942,662818,0
2096921,2096921,158983,663096,0
2096921,2096921,158967,662878,0
2096921,2096921,158804,663003,0
2096921,2096921,158876,662724,0
2096921,2096921,158790,662736,0
2096921,2096921,158881,662866,0
2096921,2096921,158894,662988,0
2096921,2096921,159193,662758,0
2096921,2096921,158954,662827,0
2096921,2096921,158985,662574,0
2096921,2096921,158762,662916,0
2096921,2096921,158538,662909,0
2096921,2096921,158973,663141,0
2096921,2096921,158813,662709,0
2096921,2096921,159047,662925,0
2096921,2096921,159041,662705,0
2096921,2096921,159165,663251,0
2096921,2096921,158951,663059,0
2096921,2096921,159018,662910,0
2096921,2096921,158708,663057,0
2096921,2096921,159025,663052,0
2096921,2096921,158743,663069,0
2096921,2096921,158871,663208,0
2096921,2096921,159091,663004,0
2096921,2096921,159117,662906,0
2096921,2096921,158849,662912,0
2096921,2096921,158916,663199,0
2096921,2096921,158750,663165,0
2096921,2096921,159176,662957,0
2096921,2096921,158886,663315,0
2096921,2096921,158872,663248,0
2096921,2096921,158939,663157,0
2096921,2096921,158920,663140,0
2096921,2096921,159029,663506,0
2096921,2096921,159228,663390,0
2096921,2096921,158981,663158,0
2096921,2096921,159086,663006,0
2096921,2096921,158907,663040,0
2096921,2096921,158666,662974,0
2096921,2096921,158785,663087,0
2096921,2096921,159059,663009,0
2096921,2096921,158943,663137,0
2096921,2096921,158813,662797,0
2096921,2096921,158984,662851,0
2096921,2096921,158961,662951,0
2096921,2096921,159210,662944,0
2096921,2096921,159091,663350,0
2096921,2096921,158996,663067,0
2096921,2096921,159044,663177,0
2096921,2096921,158968,663256,0
2096921,2096921,158866,663363,0
2096921,2096921,158910,662988,0
2096921,2096921,158814,662988,0
2096921,2096921,158890,663007,0
2096921,2096921,158994,663227,0
2096921,2096921,159078,662880,0
2096921,2096921,159075,662788,0
2096921,2096921,159014,662881,0
2096921,2096921,158992,663082,0
2096921,2096921,158949,662885,0
2096921,2096921,159040,663019,0
2096921,2096921,159002,663051,0
2096921,2096921,158762,663182,0
2096921,2096921,158668,663370,0
2096921,2096921,159012,663151,0
2096921,2096921,158925,663263,0
2096921,2096921,158817,662835,0
2096921,2096921,158814,663123,0
2096921,2096921,158840,663207,0
2096921,2096921,159088,663041,0
2096921,2096921,158899,663152,0
2096921,2096921,158662,662993,0
2096921,2096921,158754,662777,0
2096921,2096921,158644,662631,0
2096921,2096921,158670,662605,0
2096921,2096921,158769,662720,0
2096921,2096921,158624,662214,0
2096921,2096921,158788,662099,0
2096921,2096921,158684,662018,0
2096921,2096921,158461,662153,0
2096921,2096921,158701,662022,0
2096921,2096921,158641,661983,0
2096921,2096921,158431,661738,0
2096921,2096921,158566,661594,0
2096921,2096921,158729,661662,0
2096921,2096921,158479,661611,0
2096921,2096921,157838,661405,0
2096921,2096921,158218,660834,0
2096921,2096921,157898,660921,0
2096921,2096921,158059,661092,0
2096921,2096921,158133,660919,0
2096921,2096921,157972,660521,0
2096921,2096921,157740,660251,0
2096921,2096921,157986,659968,0
2096921,2096921,157687,659767,0
2096921,2096921,157711,659751,0
2096921,2096921,156972,659415,0
2096921,2096921,157043,658160,0
2096921,2096921,157200,657722,0
2096921,2096921,157027,657738,0
2096921,2096921,157105,657828,0
2096921,2096921,156207,656809,0
2096921,2096921,156021,655664,0
2096921,2096921,155896,655349,0
2096921,2096921,156076,655097,0
2096921,2096921,155835,655421,0
2096921,2096921,155527,654678,0
2096921,2096921,155366,653609,0
2096921,2096921,155407,653704,0
2096921,2096921,155239,653341,0
2096921,2096921,155484,653597,0
2096921,2096921,155083,653053,0
2096921,2096921,155147,652459,0
2096921,2096921,154823,652410,0
2096921,2096921,154856,652112,0
2096921,2096921,154891,652229,0
2096921,2096921,154608,651461,0
2096921,2096921,154506,651421,0
2096921,2096921,154645,651184,0
2096921,2096921,154526,651034,0
2096921,2096921,154338,651179,0
2096921,2096921,154493,650970,0
2096921,2096921,154088,650482,0
2096921,2096921,154360,650447,0
2096921,2096921,154213,650551,0
2096921,2096921,154429,650368,0
2096921,2096921,153937,649955,0
2096921,2096921,154009,649935,0
2096921,2096921,154126,649563,0
2096921,2096921,154197,649598,0
2096921,2096921,154050,649920,0
2096921,2096921,153947,649673,0
2096921,2096921,153701,649321,0
2096921,2096921,153588,649481,0
2096921,2096921,153880,649404,0
2096921,2096921,154178,649437,0
2096921,2096921,153992,649594,0
2096921,2096921,153922,649310,0
2096921,2096921,153896,649575,0
2096921,2096921,154212,649352,0
2096921,2096921,154100,649390,0
2096921,2096921,153935,649529,0
2096921,2096921,154025,649622,0
2096921,2096921,154001,649547,0
2096921,2096921,154155,649370,0
2096921,2096921,153861,649453,0
2096921,2096921,154028,649658,0
2096921,2096921,154095,649719,0
2096921,2096921,153950,649573,0
2096921,2096921,153865,649530,0
2096921,2096921,154156,649776,0
2096921,2096921,154018,649665,0
2096921,2096921,153826,649590,0
2096921,2096921,153841,649327,0
2096921,2096921,153846,649610,0
2096921,2096921,154111,649574,0
2096921,2096921,153879,649426,0
2096921,2096921,154045,649588,0
2096921,2096921,154238,649830,0
2096921,2096921,153958,649777,0
2096921,2096921,154122,649826,0
2096921,2096921,154135,650109,0
2096921,2096921,154108,649924,0
2096921,2096921,154419,650222,0
2096921,2096921,154146,650276,0
2096921,2096921,154379,650066,0
2096921,2096921,154487,650432,0
2096921,2096921,154321,650474,0
2096921,2096921,154304,650603,0
2096921,2096921,154404,650555,0
2096921,2096921,154190,650627,0
2096921,2096921,154595,650816,0
2096921,2096921,154713,651281,0
2096921,2096921,154506,650885,0
2096921,2096921,154609,651262,0
2096921,2096921,154483,651105,0
2096921,2096921,154613,651305,0
2096921,2096921,154581,651327,0
2096921,2096921,154689,651778,0
2096921,2096921,154518,651457,0
2096921,2096921,154518,651930,0
2096921,2096921,155060,651773,0
2096921,2096921,154866,652035,0
2096921,2096921,154845,652222,0
2096921,2096921,155083,652039,0
2096921,2096921,155203,652280,0
2096921,2096921,155428,652448,0
2096921,2096921,155241,652525,0
2096921,2096921,155036,652699,0
2096921,2096921,155018,652696,0
2096921,2096921,155112,652687,0
2096921,2096921,155288,652764,0
2096921,2096921,155503,652713,0
2096921,2096921,155425,653102,0
2096921,2096921,154984,652956,0
2096921,2096921,155196,653048,0
2096921,2096921,155273,653194,0
2096921,2096921,155361,653297,0
2096921,2096921,155444,653615,0
2096921,2096921,155359,653536,0
2096921,2096921,155619,653597,0
2096921,2096921,155853,653660,0
2096921,2096921,155450,653867,0
2096921,2096921,155570,653779,0
2096921,2096921,155510,654109,0
2096921,2096921,155479,653831,0
2096921,2096921,155651,654067,0
2096921,2096921,155561,654637,0
2096921,2096921,155679,654544,0
2096921,2096921,155491,654436,0
2096921,2096921,155584,654999,0
2096921,2096921,155891,655156,0
2096921,2096921,156021,655416,0
2096921,2096921,155807,655163,0
2096921,2096921,155894,655211,0
2096921,2096921,155904,655003,0
2096921,2096921,156270,655285,0
2096921,2096921,156102,655560,0
2096921,2096921,155994,655748,0
2096921,2096921,156041,655401,0
2096921,2096921,156161,655733,0
2096921,2096921,156238,655628,0
2096921,2096921,156434,655749,0
2096921,2096921,156273,655973,0
2096921,2096921,156220,656038,0
2096921,2096921,156227,655991,0
2096921,2096921,156519,656101,0
2096921,2096921,156568,656466,0
2096921,2096921,156705,656693,0
2096921,2096921,156648,656414,0
2096921,2096921,156387,656436,0
2096921,2096921,156898,656811,0
2096921,2096921,156890,657073,0
2096921,2096921,156533,657047,0
2096921,2096921,156910,657198,0
2096921,2096921,156431,657160,0
2096921,2096921,156907,657245,0
2096921,2096921,156692,657271,0
2096921,2096921,156660,657344,0
2096921,2096921,156561,656835,0
2096921,2096921,156406,657042,0
2096921,2096921,156478,657309,0
2096921,2096921,156493,656944,0
2096921,2096921,156578,657164,0
2096921,2096921,156531,657522,0
2096921,2096921,156777,657396,0
2096921,2096921,156872,657355,0
2096921,2096921,156858,657517,0
2096921,2096921,156734,657514,0
2096921,2096921,156764,657260,0
2096921,2096921,156661,657262,0
2096921,2096921,156707,657283,0
2096921,2096921,156947,657632,0
2096921,2096921,156894,657588,0
2096921,2096921,156656,657740,0
2096921,2096921,156219,657555,0
2096921,2096921,156658,657735,0
2096921,2096921,156636,657700,0
2096921,2096921,156738,657863,0
2096921,2096921,156690,657674,0
2096921,2096921,156596,657561,0
2096921,2096921,156757,657710,0
2096921,2096921,156853,657874,0
2096921,2096921,156591,657419,0
2096921,2096921,156986,657526,0
2096921,2096921,156619,657608,0
2096921,2096921,156845,657477,0
2096921,2096921,156846,657363,0
2096921,2096921,156858,657463,0
2096921,2096921,156549,657345,0
2096921,2096921,156737,657509,0
2096921,2096921,156514,657951,0
2096921,2096921,156590,657614,0
2096921,2096921,156669,657494,0
2096921,2096921,156539,657327,0
2096921,2096921,156674,657199,0
2096921,2096921,156795,657526,0
2096921,2096921,156665,657548,0
2096921,2096921,156849,657565,0
2096921,2096921,156980,657652,0
2096921,2096921,156685,657912,0
2096921,2096921,156559,657438,0
2096921,2096921,156750,658013,0
2096921,2096921,156708,657978,0
2096921,2096921,156590,657726,0
2096921,2096921,156609,657698,0
2096921,2096921,156566,657590,0
2096921,2096921,156859,657802,0
2096921,2096921,156767,657713,0
2096921,2096921,156817,657658,0
2096921,2096921,156748,657940,0
2096921,2096921,156864,657970,0
2096921,2096921,156720,658062,0
2096921,2096921,156771,658040,0
2096921,2096921,156812,658437,0
2096921,2096921,156895,658178,0
2096921,2096921,156832,658267,0
2096921,2096921,157004,658103,0
2096921,2096921,156901,658400,0
2096921,2096921,156725,658413,0
2096921,2096921,156894,658547,0
2096921,2096921,157200,658656,0
2096921,2096921,157113,658829,0
2096921,2096921,156746,658818,0
2096921,2096921,156849,658856,0
2096921,2096921,156958,658588,0
2096921,2096921,157102,659064,0
2096921,2096921,156929,659284,0
2096921,2096921,157279,659288,0
2096921,2096921,157202,659426,0
2096921,2096921,157030,659426,0
2096921,2096921,157406,659438,0
2096921,2096921,157374,659907,0
2096921,2096921,157143,659988,0
2096921,2096921,157234,660029,0
2096921,2096921,157266,659784,0
2096921,2096921,157481,659869,0
2096921,2096921,157651,660388,0
2096921,2096921,157352,660429,0
2096921,2096921,157402,660367,0
2096921,2096921,157328,660074,0
2096921,2096921,157629,660515,0
2096921,2096921,157414,660450,0
2096921,2096921,157670,660697,0
2096921,2096921,157528,660923,0
2096921,2096921,157483,660765,0
2096921,2096921,157887,660843,0
2096921,2096921,157965,661202,0
2096921,2096921,157915,661399,0
2096921,2096921,158012,661101,0
2096921,2096921,157958,661258,0
2096921,2096921,157930,661469,0
2096921,2096921,158271,661948,0
2096921,2096921,158099,661464,0
2096921,2096921,158045,661594,0
2096921,2096921,157794,661772,0
2096921,2096921,158020,661791,0
2096921,2096921,158052,661936,0
2096921,2096921,158095,662042,0
2096921,2096921,157958,661860,0
2096921,2096921,157941,662117,0
2096921,2096921,158050,662443,0
2096921,2096921,158230,662719,0
2096921,2096921,158541,662474,0
2096921,2096921,158245,662691,0
2096921,2096921,158062,662596,0
2096921,2096921,158468,662662,0
2096921,2096921,158443,662686,0
2096921,2096921,158331,662957,0
2096921,2096921,158331,663307,0
2096921,2096921,158308,662949,0
2096921,2096921,158382,663145,0
2096921,2096921,158303,663634,0
2096921,2096921,158567,663842,0
2096921,2096921,158392,663709,0
2096921,2096921,158737,663681,0
2096921,2096921,158678,663624,0
2096921,2096921,158948,664211,0
2096921,2096921,158495,663949,0
2096921,2096921,158793,663979,0
2096921,2096921,158484,663991,0
2096921,2096921,158907,664026,0
2096921,2096921,158976,664451,0
2096921,2096921,159069,664608,0
2096921,2096921,158788,664304,0
2096921,2096921,159013,664220,0
2096921,2096921,158861,664529,0
2096921,2096921,158818,664561,0
2096921,2096921,158874,664806,0
2096921,2096921,159056,664840,0
2096921,2096921,158961,665039,0
2096921,2096921,159171,665062,0
2096921,2096921,159080,665258,0
2096921,2096921,159035,665601,0
2096921,2096921,159144,665552,0
2096921,2096921,158973,665344,0
2096921,2096921,159127,665332,0
2096921,2096921,159132,665761,0
2096921,2096921,159064,665676,0
2096921,2096921,159130,665902,0
2096921,2096921,159304,665803,0
2096921,2096921,159240,666046,0
2096921,2096921,159528,666253,0
2096921,2096921,159375,666237,0
2096921,2096921,159625,666334,0
2096921,2096921,159470,666319,0
2096921,2096921,159443,666043,0
2096921,2096921,159659,666694,0
2096921,2096921,159463,666814,0
2096921,2096921,159602,666586,0
2096921,2096921,159719,666769,0
2096921,2096921,159747,667158,0
2096921,2096921,159687,667166,0
2096921,2096921,159694,667426,0
2096921,2096921,159305,667366,0
2096921,2096921,159734,667402,0
2096921,2096921,159644,667489,0
2096921,2096921,159817,667748,0
2096921,2096921,159544,667623,0
2096921,2096921,159881,667704,0
2096921,2096921,159989,667679,0
2096921,2096921,160040,667471,0
2096921,2096921,159598,667804,0
2096921,2096921,159758,668014,0
2096921,2096921,159630,668061,0
2096921,2096921,160208,667974,0
2096921,2096921,160279,668085,0
2096921,2096921,160336,668236,0
2096921,2096921,159988,668210,0
2096921,2096921,160077,668214,0
2096921,2096921,159993,668548,0
2096921,2096921,159922,668532,0
2096921,2096921,160056,668730,0
2096921,2096921,160457,668872,0
2096921,2096921,160360,668793,0
2096921,2096921,160142,669017,0
2096921,2096921,160115,669076,0
2096921,2096921,160357,669094,0
2096921,2096921,160205,668977,0
2096921,2096921,160395,669005,0
2096921,2096921,160373,668838,0
2096921,2096921,160484,669076,0
2096921,2096921,160592,669494,0
2096921,2096921,160431,670025,0
2096921,2096921,160572,669739,0
2096921,2096921,160395,669759,0
2096921,2096921,160609,669516,0
2096921,2096921,160526,670040,0
2096921,2096921,160383,669877,0
2096921,2096921,160634,670086,0
2096921,2096921,160665,669997,0
2096921,2096921,160593,670425,0
2096921,2096921,160524,670266,0
2096921,2096921,160640,670535,0
2096921,2096921,160140,670480,0
2096921,2096921,160459,670385,0
2096921,2096921,160616,670360,0
2096921,2096921,160843,670763,0
2096921,2096921,161101,670648,0
2096921,2096921,160899,670785,0
2096921,2096921,160786,670676,0
2096921,2096921,161125,670988,0
2096921,2096921,160804,671418,0
2096921,2096921,160890,671424,0
2096921,2096921,160701,671245,0
2096921,2096921,160734,671049,0
2096921,2096921,160827,671094,0
2096921,2096921,161258,671059,0
2096921,2096921,160833,671427,0
2096921,2096921,160976,671535,0
2096921,2096921,161134,671534,0
2096921,2096921,161033,671617,0
2096921,2096921,160783,672154,0
2096921,2096921,161312,672083,0
2096921,2096921,161180,672070,0
2096921,2096921,161166,672115,0
2096921,2096921,161030,672065,0
2096921,2096921,161081,672232,0
2096921,2096921,161153,672400,0
2096921,2096921,161148,672108,0
2096921,2096921,161522,671955,0
2096921,2096921,161268,672371,0
2096921,2096921,161269,672621,0
2096921,2096921,161297,672759,0
2096921,2096921,161193,672331,0
2096921,2096921,161087,672340,0
2096921,2096921,161484,672675,0
2096921,2096921,161337,672490,0
2096921,2096921,161228,672533,0
2096921,2096921,161369,672898,0
2096921,2096921,161377,672960,0
2096921,2096921,161390,673392,0
2096921,2096921,161428,673283,0
2096921,2096921,161287,673415,0
2096921,2096921,161411,673276,0
2096921,2096921,161449,673321,0
2096921,2096921,161099,673488,0
2096921,2096921,161566,673504,0
2096921,2096921,161553,673378,0
2096921,2096921,161426,673344,0
2096921,2096921,161652,673447,0
2096921,2096921,161729,673666,0
2096921,2096921,161793,673778,0
2096921,2096921,161536,673618,0
2096921,2096921,161718,673819,0
2096921,2096921,161953,673689,0
2096921,2096921,161641,674022,0
2096921,2096921,161611,674082,0
2096921,2096921,161955,674484,0
2096921,2096921,161582,674224,0
2096921,2096921,161828,674268,0
2096921,2096921,161682,674302,0
2096921,2096921,161787,674743,0
2096921,2096921,161862,674417,0
2096921,2096921,161777,674491,0
2096921,2096921,162036,674678,0
2096921,2096921,162179,674982,0
2096921,2096921,161895,674822,0
2096921,2096921,161877,674817,0
2096921,2096921,161787,674876,0
2096921,2096921,161634,674894,0
2096921,2096921,161587,674887,0
2096921,2096921,161924,675269,0
2096921,2096921,161813,675303,0
2096921,2096921,161806,675529,0
2096921,2096921,161916,675436,0
2096921,2096921,161965,675215,0
2096921,2096921,162008,675561,0
2096921,2096921,161780,675426,0
2096921,2096921,161771,675678,0
2096921,2096921,162200,675630,0
2096921,2096921,162257,675558,0
2096921,2096921,162093,675938,0
2096921,2096921,162248,676053,0
2096921,2096921,161921,675842,0
2096921,2096921,162213,675815,0
2096921,2096921,162255,675799,0
2096921,2096921,162222,675916,0
2096921,2096921,162432,676317,0
2096921,2096921,162193,676358,0
2096921,2096921,162533,676153,0
2096921,2096921,162292,676056,0
2096921,2096921,162431,676394,0
2096921,2096921,162368,676297,0
2096921,2096921,162266,676173,0
2096921,2096921,162518,676519,0
2096921,2096921,162340,676391,0
2096921,2096921,162378,676668,0
2096921,2096921,162136,676815,0
2096921,2096921,162139,676702,0
2096921,2096921,162273,676775,0
2096921,2096921,162752,677051,0
2096921,2096921,162523,677045,0
2096921,2096921,162503,676785,0
2096921,2096921,162295,677324,0
2096921,2096921,162974,677111,0
2096921,2096921,162598,677266,0
2096921,2096921,162667,676971,0
2096921,2096921,162296,677018,0
2096921,2096921,162569,676996,0
2096921,2096921,162474,677326,0
2096921,2096921,162657,677151,0
2096921,2096921,162412,677284,0
2096921,2096921,162628,677429,0
2096921,2096921,162403,677452,0
2096921,2096921,162440,677483,0
2096921,2096921,162859,677395,0
2096921,2096921,162616,677473,0
2096921,2096921,162757,677646,0
2096921,2096921,162947,677514,0
2096921,2096921,162558,677616,0
2096921,2096921,162629,677622,0
2096921,2096921,162564,677621,0
2096921,2096921,162544,677966,0
2096921,2096921,162573,677608,0
2096921,2096921,162643,677707,0
2096921,2096921,162900,678044,0
2096921,2096921,162904,678050,0
2096921,2096921,162829,678052,0
2096921,2096921,162697,678362,0
2096921,2096921,162876,678389,0
2096921,2096921,163045,678055,0
2096921,2096921,162970,678117,0
2096921,2096921,162992,678280,0
2096921,2096921,162725,678192,0
2096921,2096921,162781,678248,0
2096921,2096921,163203,678179,0
2096921,2096921,162890,678444,0
2096921,2096921,162781,678689,0
2096921,2096921,162823,678764,0
2096921,2096921,162922,678769,0
2096921,2096921,162969,678440,0
2096921,2096921,162781,678572,0
2096921,2096921,162628,678310,0
2096921,2096921,162807,678297,0
2096921,2096921,162718,678288,0
2096921,2096921,162446,677910,0
2096921,2096921,162632,677894,0
2096921,2096921,162356,678345,0
2096921,2096921,162891,678147,0
2096921,2096921,162811,677925,0
2096921,2096921,162521,677814,0
2096921,2096921,162708,677699,0
2096921,2096921,162636,677917,0
2096921,2096921,162429,677966,0
2096921,2096921,162555,677794,0
2096921,2096921,162469,677454,0
2096921,2096921,162323,677140,0
2096921,2096921,162472,677194,0
2096921,2096921,162239,677227,0
2096921,2096921,162426,677050,0
2096921,2096921,162266,677035,0
2096921,2096921,162050,676495,0
2096921,2096921,161983,676470,0
2096921,2096921,162096,676250,0
2096921,2096921,161931,676538,0
2096921,2096921,161402,675402,0
2096921,2096921,161302,674780,0
2096921,2096921,161242,674340,0
2096921,2096921,161352,674191,0
2096921,2096921,161248,674610,0
2096921,2096921,160666,673431,0
2096921,2096921,160397,672139,0
2096921,2096921,160144,672400,0
2096921,2096921,160084,672246,0
2096921,2096921,160387,672202,0
2096921,2096921,159638,671308,0
2096921,2096921,159487,670563,0
2096921,2096921,159580,670352,0
2096921,2096921,159594,670272,0
2096921,2096921,159907,670346,0
2096921,2096921,159007,669620,0
2096921,2096921,158847,669158,0
2096921,2096921,158935,669034,0
2096921,2096921,159239,669403,0
2096921,2096921,159153,669117,0
2096921,2096921,158617,668884,0
2096921,2096921,158857,668340,0
2096921,2096921,158955,668153,0
2096921,2096921,158896,668212,0
2096921,2096921,158959,668522,0
2096921,2096921,158649,667948,0
2096921,2096921,158431,667952,0
2096921,2096921,158527,668051,0
2096921,2096921,158533,667762,0
2096921,2096921,158472,667724,0
2096921,2096921,158388,667284,0
2096921,2096921,158330,666945,0
2096921,2096921,158216,667289,0
2096921,2096921,158312,667212,0
2096921,2096921,158504,667311,0
2096921,2096921,158324,667297,0
2096921,2096921,158272,667191,0
2096921,2096921,158334,667164,0
2096921,2096921,158369,667362,0
2096921,2096921,158330,667232,0
2096921,2096921,158428,667140,0
2096921,2096921,158414,667345,0
2096921,2096921,158563,666945,0
2096921,2096921,158386,666956,0
2096921,2096921,158533,667154,0
2096921,2096921,158271,667560,0
2096921,2096921,158487,667783,0
2096921,2096921,158650,667378,0
2096921,2096921,158381,667391,0
2096921,2096921,158379,667198,0
2096921,2096921,158528,667443,0
2096921,2096921,158314,667712,0
2096921,2096921,158341,667799,0
2096921,2096921,158344,667777,0
2096921,2096921,158138,667602,0
2096921,2096921,158608,668034,0
2096921,2096921,158713,667989,0
2096921,2096921,158457,667997,0
2096921,2096921,158649,668203,0
2096921,2096921,158653,667703,0
2096921,2096921,158683,668196,0
2096921,2096921,158712,668377,0
2096921,2096921,158800,668124,0
2096921,2096921,158620,668474,0
2096921,2096921,158622,668300,0
2096921,2096921,158678,668605,0
2096921,2096921,158818,668753,0
2096921,2096921,158756,668784,0
2096921,2096921,158783,668898,0
2096921,2096921,158809,668948,0
2096921,2096921,158819,668943,0
2096921,2096921,158805,669604,0
2096921,2096921,158916,669478,0
2096921,2096921,158975,669629,0
2096921,2096921,159129,669368,0
2096921,2096921,159299,669684,0
2096921,2096921,159384,669920,0
2096921,2096921,159296,669989,0
2096921,2096921,159218,669873,0
2096921,2096921,159039,670124,0
2096921,2096921,159329,670148,0
2096921,2096921,159180,670357,0
2096921,2096921,159384,670459,0
2096921,2096921,159347,670374,0
2096921,2096921,159313,670702,0
2096921,2096921,159714,670815,0
2096921,2096921,159800,671148,0
2096921,2096921,159818,670993,0
2096921,2096921,159613,670966,0
2096921,2096921,159901,671461,0
2096921,2096921,159966,671546,0
2096921,2096921,159875,671723,0
2096921,2096921,159699,671746,0
2096921,2096921,159655,671602,0
2096921,2096921,159542,671632,0
2096921,2096921,159904,672015,0
2096921,2096921,159790,672196,0
2096921,2096921,159678,671922,0
2096921,2096921,159730,672199,0
2096921,2096921,160124,672357,0
2096921,2096921,159940,672516,0
2096921,2096921,159835,672886,0
2096921,2096921,160005,672948,0
2096921,2096921,160353,672715,0
2096921,2096921,160146,672542,0
2096921,2096921,160213,673038,0
2096921,2096921,160095,673139,0
2096921,2096921,160141,673238,0
2096921,2096921,160436,673129,0
2096921,2096921,160192,673139,0
2096921,2096921,160512,673645,0
2096921,2096921,160424,673726,0
2096921,2096921,160342,673891,0
2096921,2096921,160533,673932,0
2096921,2096921,160577,674002,0
2096921,2096921,160807,674224,0
2096921,2096921,160581,674345,0
2096921,2096921,160690,674403,0
2096921,2096921,160861,674147,0
2096921,2096921,160733,674249,0
2096921,2096921,160687,674424,0
2096921,2096921,160862,674517,0
2096921,2096921,160921,675007,0
2096921,2096921,160792,674864,0
2096921,2096921,160903,674928,0
2096921,2096921,160953,674822,0
2096921,2096921,160812,675157,0
2096921,2096921,161146,675231,0
2096921,2096921,160940,675172,0
2096921,2096921,160872,674881,0
2096921,2096921,160823,675411,0
2096921,2096921,161072,675395,0
2096921,2096921,161460,675611,0
2096921,2096921,161257,675785,0
2096921,2096921,161156,675802,0
2096921,2096921,161303,675914,0
2096921,2096921,161284,676159,0
2096921,2096921,161443,675757,0
2096921,2096921,161220,675933,0
2096921,2096921,161276,676056,0
2096921,2096921,161398,675860,0
2096921,2096921,161411,676089,0
2096921,2096921,161425,676140,0
2096921,2096921,161306,675948,0
2096921,2096921,161338,675931,0
2096921,2096921,161255,676659,0
2096921,2096921,161470,676410,0
2096921,2096921,161332,676399,0
2096921,2096921,161361,676515,0
2096921,2096921,161555,676149,0
2096921,2096921,161676,676379,0
2096921,2096921,161572,676511,0
2096921,2096921,161479,676116,0
2096921,2096921,161584,676419,0
2096921,2096921,161345,676377,0
2096921,2096921,161719,676575,0
2096921,2096921,161571,676436,0
2096921,2096921,161535,676382,0
2096921,2096921,161488,676444,0
2096921,2096921,161511,676375,0
2096921,2096921,161519,676361,0
2096921,2096921,161518,676296,0
2096921,2096921,161429,676358,0
2096921,2096921,161674,676518,0
2096921,2096921,161327,676292,0
2096921,2096921,161455,676323,0
2096921,2096921,161486,676301,0
2096921,2096921,161403,676330,0
2096921,2096921,161269,676235,0
2096921,2096921,161242,676252,0
2096921,2096921,161090,676398,0
2096921,2096921,161230,675973,0
2096921,2096921,161121,676087,0
2096921,2096921,161081,676010,0
2096921,2096921,161477,676152,0
2096921,2096921,161224,676166,0
2096921,2096921,161396,676131,0
2096921,2096921,161146,676031,0
2096921,2096921,161310,676177,0
2096921,2096921,161304,676098,0
2096921,2096921,161317,676155,0
2096921,2096921,161029,675757,0
2096921,2096921,161228,675642,0
2096921,2096921,161179,676215,0
2096921,2096921,161231,676011,0
2096921,2096921,161442,675848,0
2096921,2096921,161499,675636,0
2096921,2096921,161088,675791,0
2096921,2096921,160928,675662,0
2096921,2096921,161116,675648,0
2096921,2096921,161221,675699,0
2096921,2096921,161141,675896,0
2096921,2096921,161109,675671,0
2096921,2096921,161368,675978,0
2096921,2096921,161110,675557,0
2096921,2096921,160914,675798,0
2096921,2096921,161128,675820,0
2096921,2096921,161296,675687,0
2096921,2096921,161374,676044,0
2096921,2096921,161531,675821,0
2096921,2096921,161377,676006,0
2096921,2096921,161434,675806,0
2096921,2096921,161436,675836,0
2096921,2096921,161134,675945,0
2096921,2096921,161166,676044,0
2096921,2096921,161449,675943,0
2096921,2096921,161284,676257,0
2096921,2096921,161557,676314,0
2096921,2096921,161295,676188,0
2096921,2096921,161169,676157,0
2096921,2096921,161374,676190,0
2096921,2096921,161236,676351,0
2096921,2096921,161351,676213,0
2096921,2096921,161509,676334,0
2096921,2096921,161642,676760,0
2096921,2096921,161407,676806,0
2096921,2096921,161766,676862,0
2096921,2096921,161630,676627,0
2096921,2096921,161827,676723,0
2096921,2096921,161357,676896,0
2096921,2096921,161758,676786,0
2096921,2096921,161736,676870,0
2096921,2096921,161740,676882,0
2096921,2096921,161727,677198,0
2096921,2096921,161737,677166,0
2096921,2096921,161664,677278,0
2096921,2096921,161594,677289,0
2096921,2096921,161953,677408,0
2096921,2096921,161593,677359,0
2096921,2096921,161816,677469,0
2096921,2096921,161809,677326,0
2096921,2096921,161842,677893,0
2096921,2096921,162132,677594,0
2096921,2096921,162124,677849,0
2096921,2096921,161658,678006,0
2096921,2096921,161995,677984,0
2096921,2096921,161896,677896,0
2096921,2096921,161983,677864,0
2096921,2096921,161848,677956,0
2096921,2096921,161980,677870,0
2096921,2096921,162043,677987,0
2096921,2096921,162201,677972,0
2096921,2096921,161987,678117,0
2096921,2096921,162079,678376,0
2096921,2096921,161879,678040,0
2096921,2096921,162070,678484,0
2096921,2096921,162422,678127,0
2096921,2096921,162270,678533,0
2096921,2096921,162151,678690,0
2096921,2096921,162392,678493,0
2096921,2096921,162351,678861,0
2096921,2096921,162238,678717,0
2096921,2096921,162289,678819,0
2096921,2096921,162222,678841,0
2096921,2096921,162054,678956,0
2096921,2096921,162204,679049,0
2096921,2096921,162249,679138,0
2096921,2096921,162107,679004,0
2096921,2096921,162376,678968,0
2096921,2096921,162439,679042,0
2096921,2096921,162736,679024,0
2096921,2096921,162579,679284,0
2096921,2096921,162562,679153,0
2096921,2096921,162448,679413,0
2096921,2096921,162310,679366,0
2096921,2096921,162749,679521,0
2096921,2096921,162694,679610,0
2096921,2096921,162783,679901,0
2096921,2096921,162563,679634,0
2096921,2096921,162386,679855,0
2096921,2096921,162398,679539,0
2096921,2096921,162661,679740,0
2096921,2096921,162565,679736,0
2096921,2096921,162698,679869,0
2096921,2096921,162588,679833,0
2096921,2096921,162696,680037,0
2096921,2096921,162607,680250,0
2096921,2096921,162909,680191,0
2096921,2096921,162674,680071,0
2096921,2096921,162900,680112,0
2096921,2096921,162815,679912,0
2096921,2096921,162814,679995,0
2096921,2096921,162938,680142,0
2096921,2096921,163229,680422,0
2096921,2096921,163100,680208,0
2096921,2096921,163267,680288,0
2096921,2096921,163026,680548,0
2096921,2096921,163030,680571,0
2096921,2096921,162628,680173,0
2096921,2096921,162697,680592,0
2096921,2096921,162827,680543,0
2096921,2096921,163061,680599,0
2096921,2096921,163039,680800,0
2096921,2096921,162965,680617,0
2096921,2096921,163113,680777,0
2096921,2096921,162881,680571,0
2096921,2096921,163348,680590,0
2096921,2096921,163227,680868,0
2096921,2096921,163255,680919,0
2096921,2096921,163124,680884,0
2096921,2096921,163067,680973,0
2096921,2096921,163174,680729,0
2096921,2096921,162984,681086,0
2096921,2096921,163178,681112,0
2096921,2096921,163055,681053,0
2096921,2096921,163223,681037,0
2096921,2096921,163222,681068,0
2096921,2096921,162954,681119,0
2096921,2096921,163280,681175,0
2096921,2096921,163101,681274,0
2096921,2096921,163353,681191,0
2096921,2096921,163358,681252,0
2096921,2096921,163223,681167,0
2096921,2096921,163394,681205,0
2096921,2096921,163449,681349,0
2096921,2096921,163182,681367,0
2096921,2096921,163505,681459,0
2096921,2096921,163472,681914,0
2096921,2096921,163374,681580,0
2096921,2096921,163593,681882,0
2096921,2096921,163030,681950,0
2096921,2096921,163369,681702,0
2096921,2096921,163342,681713,0
2096921,2096921,163200,681672,0
2096921,2096921,163115,681669,0
2096921,2096921,163585,681746,0
2096921,2096921,163463,681660,0
2096921,2096921,163652,681931,0
2096921,2096921,163431,682078,0
2096921,2096921,163517,681747,0
2096921,2096921,163266,681859,0
2096921,2096921,163643,681948,0
2096921,2096921,163697,681769,0
2096921,2096921,163551,681523,0
2096921,2096921,163818,681963,0
2096921,2096921,163620,681876,0
2096921,2096921,163515,681969,0
2096921,2096921,163366,681876,0
2096921,2096921,163692,681574,0
2096921,2096921,163365,681949,0
2096921,2096921,163333,681656,0
2096921,2096921,163370,681926,0
2096921,2096921,163544,681841,0
2096921,2096921,163507,681883,0
2096921,2096921,163484,681938,0
2096921,2096921,163469,682090,0
2096921,2096921,163657,682067,0
2096921,2096921,163420,682228,0
2096921,2096921,163705,682026,0
2096921,2096921,163642,682352,0
2096921,2096921,163574,682422,0
2096921,2096921,163359,682337,0
2096921,2096921,163294,681955,0
2096921,2096921,163715,682179,0
2096921,2096921,163609,681934,0
2096921,2096921,163368,682236,0
2096921,2096921,163514,682336,0
2096921,2096921,163558,682251,0
2096921,2096921,163737,682178,0
2096921,2096921,163420,682094,0
2096921,2096921,163420,681892,0
2096921,2096921,163690,682134,0
2096921,2096921,163736,682029,0
2096921,2096921,163883,682290,0
2096921,2096921,163609,682118,0
2096921,2096921,163738,682025,0
2096921,2096921,163756,682081,0
2096921,2096921,163458,682125,0
2096921,2096921,163782,682315,0
2096921,2096921,163902,682229,0
2096921,2096921,163606,682303,0
2096921,2096921,163949,682143,0
2096921,2096921,163651,682566,0
2096921,2096921,163444,682251,0
2096921,2096921,163601,682241,0
2096921,2096921,163848,682305,0
2096921,2096921,163857,682102,0
2096921,2096921,163361,682319,0
2096921,2096921,163757,682342,0
2096921,2096921,163649,682158,0
2096921,2096921,163908,682351,0
2096921,2096921,163847,682324,0
2096921,2096921,164004,682375,0
2096921,2096921,163710,682293,0
2096921,2096921,163793,682347,0
2096921,2096921,163717,682366,0
2096921,2096921,163823,682271,0
2096921,2096921,163957,682292,0
2096921,2096921,163912,682098,0
2096921,2096921,163534,682330,0
2096921,2096921,163460,682200,0
2096921,2096921,163819,682427,0
2096921,2096921,163564,682002,0
2096921,2096921,163706,682041,0
2096921,2096921,163775,682131,0
2096921,2096921,163914,681991,0
2096921,2096921,163769,682210,0
2096921,2096921,163656,682321,0
2096921,2096921,163584,682028,0
2096921,2096921,163660,682325,0
2096921,2096921,163371,682221,0
2096921,2096921,163464,682492,0
2096921,2096921,163572,682173,0
2096921,2096921,163596,681966,0
2096921,2096921,163676,681977,0
2096921,2096921,163881,681934,0
2096921,2096921,163444,682033,0
2096921,2096921,163788,682121,0
2096921,2096921,163729,682462,0
2096921,2096921,163589,681997,0
2096921,2096921,163552,682031,0
2096921,2096921,163689,681803,0
2096921,2096921,163745,682006,0
2096921,2096921,163654,682209,0
2096921,2096921,163476,682275,0
2096921,2096921,163710,682360,0
2096921,2096921,163545,682023,0
2096921,2096921,163899,681971,0
2096921,2096921,163731,681930,0
2096921,2096921,163394,681804,0
2096921,2096921,163792,681975,0
2096921,2096921,163572,681854,0
2096921,2096921,163819,681654,0
2096921,2096921,163786,681744,0
2096921,2096921,163773,681525,0
2096921,2096921,163768,682058,0
2096921,2096921,163576,682053,0
2096921,2096921,163856,681990,0
2096921,2096921,163564,681851,0
2096921,2096921,163644,681698,0
2096921,2096921,163331,681683,0
2096921,2096921,163481,681690,0
2096921,2096921,163636,681663,0
2096921,2096921,163778,681974,0
2096921,2096921,163948,681729,0
2096921,2096921,163727,681499,0
2096921,2096921,163709,681642,0
2096921,2096921,163672,681552,0
2096921,2096921,163501,681378,0
2096921,2096921,163478,681591,0
2096921,2096921,163376,681585,0
2096921,2096921,163462,681438,0
2096921,2096921,163416,681373,0
2096921,2096921,163467,681447,0
2096921,2096921,163502,681408,0
2096921,2096921,163589,681210,0
2096921,2096921,163564,681330,0
2096921,2096921,163514,681237,0
2096921,2096921,163254,681273,0
2096921,2096921,163234,681167,0
2096921,2096921,163276,681293,0
2096921,2096921,163548,681100,0
2096921,2096921,163604,681273,0
2096921,2096921,163362,680930,0
2096921,2096921,163626,680948,0
2096921,2096921,163153,681072,0
2096921,2096921,163540,680786,0
2096921,2096921,163374,680833,0
2096921,2096921,163344,680779,0
2096921,2096921,163562,680988,0
2096921,2096921,163317,680915,0
2096921,2096921,163212,680703,0
2096921,2096921,163527,680760,0
2096921,2096921,163415,680782,0
2096921,2096921,163192,680606,0
2096921,2096921,163320,680723,0
2096921,2096921,163312,680370,0
2096921,2096921,163403,680453,0
2096921,2096921,163289,680548,0
2096921,2096921,163222,680590,0
2096921,2096921,163132,680150,0
2096921,2096921,163436,680395,0
2096921,2096921,163109,680523,0
2096921,2096921,163158,680348,0
2096921,2096921,163164,680353,0
2096921,2096921,163022,680242,0
2096921,2096921,162921,679748,0
2096921,2096921,163176,679608,0
2096921,2096921,163282,679548,0
2096921,2096921,163068,679855,0
2096921,2096921,163087,679438,0
2096921,2096921,162964,679040,0
2096921,2096921,162784,679054,0
2096921,2096921,162789,678956,0
2096921,2096921,163049,679091,0
2096921,2096921,162988,678755,0
2096921,2096921,162838,678331,0
2096921,2096921,162836,678083,0
2096921,2096921,162746,678230,0
2096921,2096921,162387,677996,0
2096921,2096921,162146,677883,0
2096921,2096921,162361,677279,0
2096921,2096921,162102,677012,0
2096921,2096921,162337,676948,0
2096921,2096921,162151,677176,0
2096921,2096921,161769,676722,0
2096921,2096921,161742,676183,0
2096921,2096921,161664,676313,0
2096921,2096921,161522,676053,0
2096921,2096921,161643,675910,0
2096921,2096921,161164,674886,0
2096921,2096921,160825,673854,0
2096921,2096921,161097,673656,0
2096921,2096921,160896,673743,0
2096921,2096921,160952,673787,0
2096921,2096921,160196,672422,0
2096921,2096921,160097,670922,0
2096921,2096921,159825,670922,0
2096921,2096921,159690,670872,0
2096921,2096921,160012,671010,0
2096921,2096921,159460,669981,0
2096921,2096921,159392,669007,0
2096921,2096921,159343,668940,0
2096921,2096921,159469,669197,0
2096921,2096921,159318,668945,0
2096921,2096921,158975,667932,0
2096921,2096921,158868,667328,0
2096921,2096921,158676,667001,0
2096921,2096921,158788,667181,0
2096921,2096921,158788,667119,0
2096921,2096921,158403,666495,0
2096921,2096921,158225,666002,0
2096921,2096921,158378,665962,0
2096921,2096921,158180,666011,0
2096921,2096921,158227,665625,0
2096921,2096921,158042,665536,0
2096921,2096921,158017,665288,0
2096921,2096921,157727,664933,0
2096921,2096921,158022,664909,0
2096921,2096921,157925,664913,0
2096921,2096921,157509,664826,0
2096921,2096921,157688,664393,0
2096921,2096921,157727,664121,0
2096921,2096921,157734,664268,0
2096921,2096921,157464,664192,0
2096921,2096921,157461,664052,0
2096921,2096921,157572,663533,0
2096921,2096921,157370,663629,0
2096921,2096921,157478,663619,0
2096921,2096921,157225,663487,0
2096921,2096921,157377,663431,0
2096921,2096921,157197,663341,0
2096921,2096921,157102,663062,0
2096921,2096921,156886,663329,0
2096921,2096921,157388,663472,0
2096921,2096921,157322,663312,0
2096921,2096921,157362,663127,0
2096921,2096921,157274,663095,0
2096921,2096921,157179,662645,0
2096921,2096921,157324,662889,0
2096921,2096921,157372,663048,0
2096921,2096921,157283,663015,0
2096921,2096921,157054,662874,0
2096921,2096921,157419,663094,0
2096921,2096921,157318,663062,0
2096921,2096921,157239,662958,0
2096921,2096921,157060,662921,0
2096921,2096921,157437,662865,0
2096921,2096921,157324,662907,0
2096921,2096921,157426,662690,0
2096921,2096921,157237,662991,0
2096921,2096921,157346,662647,0
2096921,2096921,157260,662978,0
2096921,2096921,157190,662550,0
2096921,2096921,157219,662839,0
2096921,2096921,157531,662862,0
2096921,2096921,157330,662807,0
2096921,2096921,157612,662887,0
2096921,2096921,157412,662976,0
2096921,2096921,157660,662858,0
2096921,2096921,157819,663225,0
2096921,2096921,157521,663291,0
2096921,2096921,157530,663127,0
2096921,2096921,157470,663179,0
2096921,2096921,157261,662930,0
2096921,2096921,157538,663279,0
2096921,2096921,157740,663461,0
2096921,2096921,157714,663250,0
2096921,2096921,157718,663031,0
2096921,2096921,157548,663374,0
2096921,2096921,157790,663139,0
2096921,2096921,157992,663565,0
2096921,2096921,157626,663467,0
2096921,2096921,157508,663800,0
2096921,2096921,157541,663523,0
2096921,2096921,157798,663607,0
2096921,2096921,157687,663797,0
2096921,2096921,157948,663852,0
2096921,2096921,157769,663769,0
2096921,2096921,157798,663871,0
2096921,2096921,157683,664016,0
2096921,2096921,157489,664174,0
2096921,2096921,157742,663763,0
2096921,2096921,157701,663642,0
2096921,2096921,158024,664082,0
2096921,2096921,158086,663886,0
2096921,2096921,157866,664061,0
2096921,2096921,157978,663790,0
2096921,2096921,157837,663728,0
2096921,2096921,157846,664292,0
2096921,2096921,157901,664228,0
2096921,2096921,157814,664157,0
2096921,2096921,157910,664445,0
2096921,2096921,158277,664457,0
2096921,2096921,158318,664449,0
2096921,2096921,158342,664537,0
2096921,2096921,158351,664728,0
2096921,2096921,158246,664422,0
2096921,2096921,158107,664506,0
2096921,2096921,158115,664460,0
2096921,2096921,158223,664464,0
2096921,2096921,158282,664300,0
2096921,2096921,158419,664493,0
2096921,2096921,158216,664422,0
2096921,2096921,158406,664574,0
2096921,2096921,158284,664655,0
2096921,2096921,158675,665294,0
2096921,2096921,158491,664961,0
2096921,2096921,158473,664818,0
2096921,2096921,158311,664778,0
2096921,2096921,158572,665130,0
2096921,2096921,158708,665484,0
2096921,2096921,158346,665153,0
2096921,2096921,158280,664874,0
2096921,2096921,158477,665198,0
2096921,2096921,158767,665373,0
2096921,2096921,158552,665172,0
2096921,2096921,158823,665058,0
2096921,2096921,158627,664973,0
2096921,2096921,158532,665280,0
2096921,2096921,158496,665511,0
2096921,2096921,158627,665250,0
2096921,2096921,158482,665230,0
2096921,2096921,158434,665182,0
2096921,2096921,158848,665633,0
2096921,2096921,158825,665451,0
2096921,2096921,158601,665247,0
2096921,2096921,158535,665354,0
2096921,2096921,158600,665350,0
2096921,2096921,158651,665017,0
2096921,2096921,158476,665323,0
2096921,2096921,158597,665111,0
2096921,2096921,158699,665159,0
2096921,2096921,158837,664998,0
2096921,2096921,158865,665092,0
2096921,2096921,158515,664998,0
2096921,2096921,158592,664928,0
2096921,2096921,158575,664827,0
2096921,2096921,158343,665085,0
2096921,2096921,158506,665166,0
2096921,2096921,158531,665022,0
2096921,2096921,158667,664831,0
2096921,2096921,158245,664569,0
2096921,2096921,158571,664815,0
2096921,2096921,158623,665045,0
2096921,2096921,158652,664910,0
2096921,2096921,158533,664903,0
2096921,2096921,158535,664505,0
2096921,2096921,158610,664513,0
2096921,2096921,158374,664791,0
2096921,2096921,158510,664744,0
2096921,2096921,158609,664542,0
2096921,2096921,158364,664300,0
2096921,2096921,158312,664070,0
2096921,2096921,158372,663689,0
2096921,2096921,158248,664298,0
2096921,2096921,158547,663825,0
2096921,2096921,158687,663776,0
2096921,2096921,158135,663736,0
2096921,2096921,158483,663580,0
2096921,2096921,157959,663612,0
2096921,2096921,158233,663418,0
2096921,2096921,158292,663294,0
2096921,2096921,158299,663760,0
2096921,2096921,157836,663673,0
2096921,2096921,158103,663676,0
2096921,2096921,157845,663289,0
2096921,2096921,158352,663164,0
2096921,2096921,158030,663001,0
2096921,2096921,158052,663190,0
2096921,2096921,157752,662982,0
2096921,2096921,157917,662837,0
2096921,2096921,157829,662965,0
2096921,2096921,158130,662397,0
2096921,2096921,157871,662592,0
2096921,2096921,157865,662824,0
2096921,2096921,158005,662181,0
2096921,2096921,157849,662344,0
2096921,2096921,158064,662378,0
2096921,2096921,158040,662338,0
2096921,2096921,157903,662466,0
2096921,2096921,157733,662165,0
2096921,2096921,157896,662028,0
2096921,2096921,157760,662153,0
2096921,2096921,157722,661906,0
2096921,2096921,157672,661874,0
2096921,2096921,157857,661875,0
2096921,2096921,157709,662327,0
2096921,2096921,157532,661798,0
2096921,2096921,157702,662118,0
2096921,2096921,157521,661712,0
2096921,2096921,157621,661687,0
2096921,2096921,157715,661922,0
2096921,2096921,157875,661666,0
2096921,2096921,157868,661905,0
2096921,2096921,157839,661813,0
2096921,2096921,157621,661516,0
2096921,2096921,157655,661855,0
2096921,2096921,157527,661842,0
2096921,2096921,157804,661545,0
2096921,2096921,157681,661850,0
2096921,2096921,157921,661875,0
2096921,2096921,157836,661864,0
2096921,2096921,157808,661977,0
2096921,2096921,157669,661797,0
2096921,2096921,157783,661872,0
2096921,2096921,157850,661874,0
2096921,2096921,158155,662063,0
2096921,2096921,158000,661915,0
2096921,2096921,158037,661794,0
2096921,2096921,158132,662300,0
2096921,2096921,158108,661792,0
2096921,2096921,158038,662094,0
2096921,2096921,157594,661883,0
2096921,2096921,157803,662125,0
2096921,2096921,157892,662196,0
2096921,2096921,157950,662040,0
2096921,2096921,158180,662146,0
2096921,2096921,158035,662046,0
2096921,2096921,157944,662229,0
2096921,2096921,158086,662173,0
2096921,2096921,157966,662241,0
2096921,2096921,158311,662171,0
2096921,2096921,158138,662195,0
2096921,2096921,158116,661965,0
2096921,2096921,157923,662215,0
2096921,2096921,158192,662207,0
2096921,2096921,158051,661992,0
2096921,2096921,158341,662048,0
2096921,2096921,158229,662097,0
2096921,2096921,158167,662025,0
2096921,2096921,158010,662008,0
2096921,2096921,157944,661958,0
2096921,2096921,157961,662388,0
2096921,2096921,157913,662178,0
2096921,2096921,158255,662419,0
2096921,2096921,158198,662298,0
2096921,2096921,158380,662278,0
2096921,2096921,158169,662193,0
2096921,2096921,157952,662336,0
2096921,2096921,158177,662644,0
2096921,2096921,158005,662186,0
2096921,2096921,158218,662288,0
2096921,2096921,158278,662103,0
2096921,2096921,158191,662226,0
2096921,2096921,158401,662308,0
2096921,2096921,158491,662095,0
2096921,2096921,158256,662354,0
2096921,2096921,158272,662253,0
2096921,2096921,158375,662363,0
2096921,2096921,158004,662448,0
2096921,2096921,158235,662161,0
2096921,2096921,158220,662403,0
2096921,2096921,158434,662272,0
2096921,2096921,158256,662136,0
2096921,2096921,158401,662567,0
2096921,2096921,158167,662269,0
2096921,2096921,158345,662394,0
2096921,2096921,158371,662239,0
2096921,2096921,158158,662219,0
2096921,2096921,158381,662546,0
2096921,2096921,158223,662435,0
2096921,2096921,158317,662257,0
2096921,2096921,158358,662247,0
2096921,2096921,158250,662404,0
2096921,2096921,158566,662502,0
2096921,2096921,158437,662678,0
2096921,2096921,158349,662883,0
2096921,2096921,158450,662321,0
2096921,2096921,158530,662469,0
2096921,2096921,158295,662660,0
2096921,2096921,158421,662652,0
2096921,2096921,158306,662394,0
2096921,2096921,158741,662492,0
2096921,2096921,158686,662820,0
2096921,2096921,158671,663038,0
2096921,2096921,158640,662618,0
2096921,2096921,158505,662923,0
2096921,2096921,158678,662816,0
2096921,2096921,158426,662814,0
2096921,2096921,158284,662888,0
2096921,2096921,158480,662612,0
2096921,2096921,158380,662573,0
2096921,2096921,158570,662901,0
2096921,2096921,158497,662554,0
2096921,2096921,158776,662673,0
2096921,2096921,158712,662688,0
2096921,2096921,158673,662503,0
2096921,2096921,158559,662581,0
2096921,2096921,158698,662727,0
2096921,2096921,158569,662922,0
2096921,2096921,158421,662699,0
2096921,2096921,158267,662486,0
2096921,2096921,158684,662548,0
2096921,2096921,158760,662937,0
2096921,2096921,158572,662571,0
2096921,2096921,158710,662905,0
2096921,2096921,158671,662664,0
2096921,2096921,158675,662850,0
2096921,2096921,158784,662713,0
2096921,2096921,158502,662835,0
2096921,2096921,158627,662475,0
2096921,2096921,158466,662622,0
2096921,2096921,158712,662468,0
2096921,2096921,158755,662695,0
2096921,2096921,158913,662727,0
2096921,2096921,158918,662712,0
2096921,2096921,158699,662730,0
2096921,2096921,158633,662798,0
2096921,2096921,158913,662526,0
2096921,2096921,158669,662486,0
2096921,2096921,158661,662827,0
2096921,2096921,158730,662749,0
2096921,2096921,158435,662751,0
2096921,2096921,158505,662926,0
2096921,2096921,158522,663244,0
2096921,2096921,158650,662835,0
2096921,2096921,158367,662977,0
2096921,2096921,158702,663125,0
2096921,2096921,158981,662756,0
2096921,2096921,158755,662856,0
2096921,2096921,158641,662393,0
2096921,2096921,158616,662752,0
2096921,2096921,158607,662920,0
2096921,2096921,158710,662878,0
2096921,2096921,158742,662841,0
2096921,2096921,158904,662640,0
2096921,2096921,158648,662434,0
2096921,2096921,158900,662619,0
2096921,2096921,158615,662591,0
2096921,2096921,158689,662720,0
2096921,2096921,158661,662773,0
2096921,2096921,158750,662790,0
2096921,2096921,158606,662579,0
2096921,2096921,158687,662747,0
2096921,2096921,158928,662762,0
2096921,2096921,158684,662834,0
2096921,2096921,158759,662813,0
2096921,2096921,158903,662819,0
2096921,2096921,158784,662751,0
2096921,2096921,159069,662718,0
2096921,2096921,158672,662885,0
2096921,2096921,158860,662607,0
2096921,2096921,158618,662960,0
2096921,2096921,158910,662779,0
2096921,2096921,158727,663017,0
2096921,2096921,158725,662677,0
2096921,2096921,158688,662852,0
2096921,2096921,158767,662637,0
2096921,2096921,158939,662673,0
2096921,2096921,158872,662745,0
2096921,2096921,158823,662810,0
2096921,2096921,158983,662769,0
2096921,2096921,159208,662704,0
2096921,2096921,159061,662492,0
2096921,2096921,158795,662566,0
2096921,2096921,158670,662820,0
2096921,2096921,158788,662642,0
2096921,2096921,158746,662754,0
2096921,2096921,158762,662788,0
2096921,2096921,158367,662803,0
2096921,2096921,158432,662739,0
2096921,2096921,158826,662495,0
2096921,2096921,159186,662853,0
2096921,2096921,158702,662793,0
2096921,2096921,158934,662813,0
2096921,2096921,158865,662969,0
2096921,2096921,158945,662891,0
2096921,2096921,158658,662680,0
2096921,2096921,158728,662850,0
2096921,2096921,158951,662957,0
2096921,2096921,158724,662468,0
2096921,2096921,158737,662597,0
2096921,2096921,158868,662639,0
2096921,2096921,158721,662797,0
2096921,2096921,158481,662778,0
2096921,2096921,158802,662607,0
2096921,2096921,158687,662914,0
2096921,2096921,158854,662836,0
2096921,2096921,158626,662539,0
2096921,2096921,158772,662868,0
2096921,2096921,158737,662954,0
2096921,2096921,158783,662676,0
2096921,2096921,159011,662868,0
2096921,2096921,158962,662767,0
2096921,2096921,158904,662895,0
2096921,2096921,158853,662967,0
2096921,2096921,158650,663054,0
2096921,2096921,158859,662790,0
2096921,2096921,158774,662893,0
2096921,2096921,158780,662819,0
2096921,2096921,158824,662884,0
2096921,2096921,158831,662760,0
2096921,2096921,158910,662907,0
2096921,2096921,159194,662932,0
2096921,2096921,158929,663092,0
2096921,2096921,158915,663168,0
2096921,2096921,158898,663171,0
2096921,2096921,158643,662946,0
2096921,2096921,158890,662917,0
2096921,2096921,158695,662997,0
2096921,2096921,158778,663220,0
2096921,2096921,158773,663063,0
2096921,2096921,159191,663145,0
2096921,2096921,159028,663079,0
2096921,2096921,159033,662930,0
2096921,2096921,159087,662839,0
2096921,2096921,159045,662516,0
2096921,2096921,158941,663087,0
2096921,2096921,159028,663080,0
2096921,2096921,158763,663050,0
2096921,2096921,158938,663040,0
2096921,2096921,158702,663210,0
2096921,2096921,158941,663050,0
2096921,2096921,159202,663217,0
2096921,2096921,158830,663118,0
2096921,2096921,158804,663016,0
2096921,2096921,158961,663060,0
2096921,2096921,159034,663106,0
2096921,2096921,158959,663100,0
2096921,2096921,158949,663045,0
2096921,2096921,158774,663114,0
2096921,2096921,159042,663281,0
2096921,2096921,159128,663019,0
2096921,2096921,159090,663017,0
2096921,2096921,159025,663119,0
2096921,2096921,159177,662964,0
2096921,2096921,159256,663166,0
2096921,2096921,159149,663113,0
2096921,2096921,159061,662978,0
2096921,2096921,158654,663041,0
2096921,2096921,158966,663248,0
2096921,2096921,158859,663053,0
2096921,2096921,159035,662918,0
2096921,2096921,159197,663131,0
2096921,2096921,159147,662999,0
2096921,2096921,158955,662841,0
2096921,2096921,159007,662891,0
2096921,2096921,158868,663019,0
2096921,2096921,158972,663471,0
2096921,2096921,158840,663193,0
2096921,2096921,158826,663023,0
2096921,2096921,158838,663101,0
2096921,2096921,159030,662817,0
2096921,2096921,158814,663293,0
2096921,2096921,158896,663069,0
2096921,2096921,158713,663209,0
2096921,2096921,158946,663325,0
2096921,2096921,158901,663436,0
2096921,2096921,158725,663175,0
2096921,2096921,159030,662806,0
2096921,2096921,159275,662880,0
2096921,2096921,158974,662919,0
2096921,2096921,158981,662736,0
2096921,2096921,158694,663024,0
2096921,2096921,159034,663191,0
2096921,2096921,159126,662988,0
2096921,2096921,158791,662783,0
2096921,2096921,158811,662832,0
2096921,2096921,158964,663196,0
2096921,2096921,158866,662869,0
2096921,2096921,158843,662869,0
2096921,2096921,159329,663295,0
2096921,2096921,158999,663327,0
2096921,2096921,159001,663191,0
2096921,2096921,158874,662905,0
2096921,2096921,158738,662836,0
2096921,2096921,158409,662739,0
2096921,2096921,158584,662754,0
2096921,2096921,158746,662624,0
2096921,2096921,158848,662434,0
2096921,2096921,158894,662647,0
2096921,2096921,158452,662322,0
2096921,2096921,158754,662425,0
2096921,2096921,158740,662367,0
2096921,2096921,158486,661717,0
2096921,2096921,158751,661551,0
2096921,2096921,158367,661438,0
2096921,2096921,158484,661834,0
2096921,2096921,158483,661661,0
2096921,2096921,158350,661266,0
2096921,2096921,158382,660779,0
2096921,2096921,158114,660650,0
2096921,2096921,158249,660771,0
2096921,2096921,158312,660643,0
2096921,2096921,158143,660314,0
2096921,2096921,157831,659902,0
2096921,2096921,157790,659958,0
2096921,2096921,157885,659956,0
2096921,2096921,157999,659610,0
2096921,2096921,157044,658800,0
2096921,2096921,157080,658251,0
2096921,2096921,157186,657888,0
2096921,2096921,157381,657972,0
2096921,2096921,157321,658157,0
2096921,2096921,156353,656778,0
2096921,2096921,156255,655499,0
2096921,2096921,156296,655567,0
2096921,2096921,156383,655491,0
2096921,2096921,156554,655459,0
2096921,2096921,155717,654454,0
2096921,2096921,155341,653588,0
2096921,2096921,155461,653611,0
2096921,2096921,155589,653720,0
2096921,2096921,155621,653378,0
2096921,2096921,155108,652751,0
2096921,2096921,154951,652589,0
2096921,2096921,154808,652296,0
2096921,2096921,154801,652214,0
2096921,2096921,154716,652000,0
2096921,2096921,154590,651502,0
2096921,2096921,154552,651232,0
2096921,2096921,154668,651204,0
2096921,2096921,154472,650929,0
2096921,2096921,154599,651196,0
2096921,2096921,154283,650784,0
2096921,2096921,154199,650508,0
2096921,2096921,154452,650500,0
2096921,2096921,154163,650528,0
2096921,2096921,154098,650306,0
2096921,2096921,154213,650310,0
2096921,2096921,153980,649840,0
2096921,2096921,153968,650032,0
2096921,2096921,154087,649726,0
2096921,2096921,154057,649777,0
2096921,2096921,154196,649470,0
2096921,2096921,153939,649543,0
2096921,2096921,153776,649468,0
2096921,2096921,154112,649432,0
2096921,2096921,154025,649282,0
2096921,2096921,153980,649471,0
2096921,2096921,153700,649368,0
2096921,2096921,153859,649458,0
2096921,2096921,153751,649366,0
2096921,2096921,154044,649272,0
2096921,2096921,154140,649597,0
2096921,2096921,154044,649586,0
2096921,2096921,154012,649530,0
2096921,2096921,153896,649106,0
2096921,2096921,153861,649068,0
2096921,2096921,153772,649156,0
2096921,2096921,153713,649666,0
2096921,2096921,153888,649733,0
2096921,2096921,153870,649468,0
2096921,2096921,153906,649805,0
2096921,2096921,153915,649606,0
2096921,2096921,154151,649941,0
2096921,2096921,154148,649640,0
2096921,2096921,153928,649566,0
2096921,2096921,153939,649519,0
2096921,2096921,154160,649784,0
2096921,2096921,154200,649839,0
2096921,2096921,153869,649919,0
2096921,2096921,154206,650069,0
2096921,2096921,154055,649961,0
2096921,2096921,154240,650179,0
2096921,2096921,154403,650258,0
2096921,2096921,154116,650469,0
2096921,2096921,154104,650450,0
2096921,2096921,154451,650110,0
2096921,2096921,154195,650383,0
2096921,2096921,154294,650541,0
2096921,2096921,154150,650439,0
2096921,2096921,154554,650678,0
2096921,2096921,154284,650864,0
2096921,2096921,154340,650782,0
2096921,2096921,154511,651351,0
2096921,2096921,154411,651352,0
2096921,2096921,154707,651302,0
2096921,2096921,154595,651015,0
2096921,2096921,154615,651403,0
2096921,2096921,154508,651456,0
2096921,2096921,154446,651706,0
2096921,2096921,154731,651594,0
2096921,2096921,154959,651556,0
2096921,2096921,155243,651897,0
2096921,2096921,155042,652143,0
2096921,2096921,154902,652294,0
2096921,2096921,154677,652122,0
2096921,2096921,154524,652048,0
2096921,2096921,154759,651995,0
2096921,2096921,154894,652430,0
2096921,2096921,155005,652579,0
2096921,2096921,154987,652356,0
2096921,2096921,155384,652234,0
2096921,2096921,155447,653038,0
2096921,2096921,155314,653179,0
2096921,2096921,155456,653136,0
2096921,2096921,155299,653051,0
2096921,2096921,155198,652794,0
2096921,2096921,155157,653135,0
2096921,2096921,155129,653453,0
2096921,2096921,155323,653256,0
2096921,2096921,155623,653515,0
2096921,2096921,155462,653410,0
2096921,2096921,155478,653538,0
2096921,2096921,155419,653925,0
2096921,2096921,155649,653886,0
2096921,2096921,155470,653589,0
2096921,2096921,155794,653789,0
2096921,2096921,155466,654363,0
2096921,2096921,155986,654534,0
2096921,2096921,155857,654372,0
2096921,2096921,155840,654092,0
2096921,2096921,155650,654349,0
2096921,2096921,155588,654641,0
2096921,2096921,155883,654706,0
2096921,2096921,155776,654654,0
2096921,2096921,155670,654974,0
2096921,2096921,155952,654630,0
2096921,2096921,156146,655308,0
2096921,2096921,156083,655578,0
2096921,2096921,156268,655544,0
2096921,2096921,155791,655560,0
2096921,2096921,155959,655447,0
2096921,2096921,156219,655541,0
2096921,2096921,156262,656173,0
2096921,2096921,156270,655912,0
2096921,2096921,156248,655729,0
2096921,2096921,156347,655999,0
2096921,2096921,156476,655931,0
2096921,2096921,156423,656162,0
2096921,2096921,156594,656285,0
2096921,2096921,156273,656020,0
2096921,2096921,156283,656212,0
2096921,2096921,156399,656470,0
2096921,2096921,156491,656733,0
2096921,2096921,156586,656613,0
2096921,2096921,156418,656757,0
2096921,2096921,156613,656754,0
2096921,2096921,156337,656584,0
2096921,2096921,156678,656841,0
2096921,2096921,156838,656767,0
2096921,2096921,156839,656942,0
2096921,2096921,156482,657023,0
2096921,2096921,156834,656784,0
2096921,2096921,156805,657214,0
2096921,2096921,156664,657284,0
2096921,2096921,156433,657223,0
2096921,2096921,156727,657116,0
2096921,2096921,156471,656978,0
2096921,2096921,156971,656971,0
2096921,2096921,156790,657240,0
2096921,2096921,156801,657082,0
2096921,2096921,156612,657148,0
2096921,2096921,156840,657223,0
2096921,2096921,156586,657480,0
2096921,2096921,156740,657560,0
2096921,2096921,156736,657333,0
2096921,2096921,156643,657484,0
2096921,2096921,156603,657411,0
2096921,2096921,156565,657378,0
2096921,2096921,156489,657504,0
2096921,2096921,156797,657431,0
2096921,2096921,156516,657257,0
2096921,2096921,156618,657278,0
2096921,2096921,156651,657281,0
2096921,2096921,156764,657465,0
2096921,2096921,156695,657579,0
2096921,2096921,156490,657216,0
2096921,2096921,156655,657446,0
2096921,2096921,156537,657286,0
2096921,2096921,156703,657208,0
2096921,2096921,156673,657285,0
2096921,2096921,156793,657053,0
2096921,2096921,156660,657409,0
2096921,2096921,156641,657116,0
2096921,2096921,156659,657378,0
2096921,2096921,156768,657239,0
2096921,2096921,156580,657029,0
2096921,2096921,156364,657078,0
2096921,2096921,156535,657134,0
2096921,2096921,156417,657081,0
2096921,2096921,156363,657392,0
2096921,2096921,156663,657472,0
2096921,2096921,156839,657004,0
2096921,2096921,156835,657436,0
2096921,2096921,156672,657552,0
2096921,2096921,156593,657292,0
2096921,2096921,156639,657406,0
2096921,2096921,156463,657628,0
2096921,2096921,156773,657676,0
2096921,2096921,156680,657449,0
2096921,2096921,156824,657750,0
2096921,2096921,156673,657914,0
2096921,2096921,156868,657692,0
2096921,2096921,156795,657995,0
2096921,2096921,156875,657893,0
2096921,2096921,156995,657924,0
2096921,2096921,156732,657845,0
2096921,2096921,156831,658045,0
2096921,2096921,157132,658375,0
2096921,2096921,156658,658146,0
2096921,2096921,156597,658275,0
2096921,2096921,157049,658246,0
2096921,2096921,156783,658138,0
2096921,2096921,157140,658511,0
2096921,2096921,156980,658361,0
2096921,2096921,156728,658555,0
2096921,2096921,156849,658293,0
2096921,2096921,156953,658449,0
2096921,2096921,157062,658803,0
2096921,2096921,157116,658701,0
2096921,2096921,157043,658898,0
2096921,2096921,157297,659169,0
2096921,2096921,157176,659578,0
2096921,2096921,157296,659699,0
2096921,2096921,157338,659353,0
2096921,2096921,157099,659323,0
2096921,2096921,157233,659667,0
2096921,2096921,157575,659518,0
2096921,2096921,157547,659689,0
2096921,2096921,157674,660047,0
2096921,2096921,157544,660075,0
2096921,2096921,157614,660060,0
2096921,2096921,157613,660000,0
2096921,2096921,157579,660320,0
2096921,2096921,157604,660213,0
2096921,2096921,157499,660414,0
2096921,2096921,157862,660305,0
2096921,2096921,157636,660507,0
2096921,2096921,157614,660776,0
2096921,2096921,157670,660894,0
2096921,2096921,157721,660872,0
2096921,2096921,157672,660836,0
2096921,2096921,157939,661043,0
2096921,2096921,158027,661642,0
2096921,2096921,158061,661270,0
2096921,2096921,157735,661526,0
2096921,2096921,157659,661224,0
2096921,2096921,157868,661278,0
2096921,2096921,158016,661474,0
2096921,2096921,157964,661719,0
2096921,2096921,158095,661706,0
2096921,2096921,158169,661772,0
2096921,2096921,158002,662284,0
2096921,2096921,158319,662204,0
2096921,2096921,158166,662342,0
2096921,2096921,158141,662337,0
2096921,2096921,158252,661900,0
2096921,2096921,158062,662319,0
2096921,2096921,158033,662547,0
2096921,2096921,158102,662445,0
2096921,2096921,158149,663187,0
2096921,2096921,158331,662641,0
2096921,2096921,158559,662766,0
2096921,2096921,158406,662764,0
2096921,2096921,158371,663257,0
2096921,2096921,158416,662883,0
2096921,2096921,158658,663414,0
2096921,2096921,158278,663370,0
2096921,2096921,158414,663339,0
2096921,2096921,158483,663458,0
2096921,2096921,158561,663372,0
2096921,2096921,158620,663552,0
2096921,2096921,158790,663808,0
2096921,2096921,158636,663983,0
2096921,2096921,158588,664238,0
2096921,2096921,158669,664049,0
2096921,2096921,158769,664004,0
2096921,2096921,158960,664359,0
2096921,2096921,158923,664503,0
2096921,2096921,158812,664490,0
2096921,2096921,158801,664308,0
2096921,2096921,158818,664260,0
2096921,2096921,159141,664442,0
2096921,2096921,159133,664925,0
2096921,2096921,159030,664914,0
2096921,2096921,159005,664996,0
2096921,2096921,159195,665123,0
2096921,2096921,159386,665171,0
2096921,2096921,159093,665122,0
2096921,2096921,159245,665271,0
2096921,2096921,158940,665276,0
2096921,2096921,159045,665551,0
2096921,2096921,159037,665746,0
