2096921,2096921,217150,582468,0
2096921,2096921,217572,582345,0
2096921,2096921,219568,582472,0
2096921,2096921,219001,584139,0
2096921,2096921,217043,582347,0
2096921,2096921,216075,581427,0
2096921,2096921,216235,581052,0
2096921,2096921,213951,580555,0
2096921,2096921,214289,579050,0
2096921,2096921,216164,580508,0
2096921,2096921,216797,581556,0
2096921,2096921,217097,581784,0
2096921,2096921,219266,581702,0
2096921,2096921,218540,583351,0
2096921,2096921,216898,581679,0
2096921,2096921,215752,580710,0
2096921,2096921,215888,580627,0
2096921,2096921,213555,580350,0
2096921,2096921,213817,578786,0
2096921,2096921,215744,580291,0
2096921,2096921,216824,581262,0
2096921,2096921,217164,581277,0
2096921,2096921,218892,581685,0
2096921,2096921,218713,583247,0
2096921,2096921,217087,581944,0
2096921,2096921,216605,580602,0
2096921,2096921,216119,580276,0
2096921,2096921,214191,580458,0
2096921,2096921,214293,578666,0
2096921,2096921,216213,580306,0
2096921,2096921,216744,581463,0
2096921,2096921,217217,581685,0
2096921,2096921,219291,582092,0
2096921,2096921,218986,583301,0
2096921,2096921,216968,581752,0
2096921,2096921,216332,580975,0
2096921,2096921,216454,580751,0
2096921,2096921,214096,580631,0
2096921,2096921,214663,578985,0
2096921,2096921,216226,580478,0
2096921,2096921,217040,581686,0
2096921,2096921,217374,582141,0
2096921,2096921,219528,582232,0
2096921,2096921,218862,583932,0
2096921,2096921,217301,582545,0
2096921,2096921,216492,581667,0
2096921,2096921,216518,581463,0
2096921,2096921,214353,581089,0
2096921,2096921,214566,579819,0
2096921,2096921,216138,581034,0
2096921,2096921,217493,582185,0
2096921,2096921,217851,582741,0
2096921,2096921,219811,582870,0
2096921,2096921,219875,584533,0
2096921,2096921,217890,582904,0
2096921,2096921,217293,581918,0
2096921,2096921,216712,581855,0
2096921,2096921,214613,581786,0
2096921,2096921,214862,580144,0
2096921,2096921,216970,581448,0
2096921,2096921,218030,582873,0
2096921,2096921,218247,583247,0
2096921,2096921,220387,583495,0
2096921,2096921,220216,584906,0
2096921,2096921,218373,583620,0
2096921,2096921,217600,582391,0
2096921,2096921,217418,582344,0
2096921,2096921,215177,582318,0
2096921,2096921,215612,580588,0
2096921,2096921,217555,582431,0
2096921,2096921,218233,583488,0
2096921,2096921,218511,583848,0
2096921,2096921,220880,583998,0
2096921,2096921,220380,585446,0
2096921,2096921,218756,583930,0
2096921,2096921,218079,583044,0
2096921,2096921,217973,582885,0
2096921,2096921,215568,582748,0
2096921,2096921,216080,581340,0
2096921,2096921,217768,583010,0
2096921,2096921,218699,583505,0
2096921,2096921,218995,584197,0
2096921,2096921,221106,584195,0
2096921,2096921,220731,585998,0
2096921,2096921,218858,584441,0
2096921,2096921,218445,583250,0
2096921,2096921,218120,583308,0
2096921,2096921,215910,583093,0
2096921,2096921,215958,581902,0
2096921,2096921,217995,582946,0
2096921,2096921,219090,584192,0
2096921,2096921,219692,584831,0
2096921,2096921,221557,585188,0
2096921,2096921,221238,586571,0
2096921,2096921,219512,584945,0
2096921,2096921,218712,583986,0
2096921,2096921,218525,583967,0
2096921,2096921,216269,583611,0
2096921,2096921,216550,582274,0
2096921,2096921,218460,583496,0
2096921,2096921,219579,584420,0
2096921,2096921,219844,585052,0
2096921,2096921,222036,585275,0
2096921,2096921,221670,587283,0
2096921,2096921,219679,585329,0
2096921,2096921,218903,584630,0
2096921,2096921,218550,584274,0
2096921,2096921,216319,584153,0
2096921,2096921,216710,582530,0
2096921,2096921,218861,584162,0
2096921,2096921,219801,584843,0
2096921,2096921,219927,585671,0
2096921,2096921,221996,585572,0
2096921,2096921,221967,586813,0
2096921,2096921,219836,585427,0
2096921,2096921,219201,584760,0
2096921,2096921,219078,584342,0
2096921,2096921,216700,584210,0
2096921,2096921,217354,582714,0
2096921,2096921,218698,583727,0
2096921,2096921,219842,585177,0
2096921,2096921,220011,585230,0
2096921,2096921,222170,585571,0
2096921,2096921,221890,587191,0
2096921,2096921,219929,585596,0
2096921,2096921,218838,584477,0
2096921,2096921,218684,584398,0
2096921,2096921,216278,583742,0
2096921,2096921,217037,582731,0
2096921,2096921,218631,584251,0
2096921,2096921,219662,585115,0
2096921,2096921,219880,585119,0
2096921,2096921,222044,585077,0
2096921,2096921,221773,586969,0
2096921,2096921,219970,585364,0
2096921,2096921,219130,584533,0
2096921,2096921,218683,584241,0
2096921,2096921,216705,583840,0
2096921,2096921,216861,582100,0
2096921,2096921,218623,583489,0
2096921,2096921,219398,584658,0
2096921,2096921,219464,585004,0
2096921,2096921,221860,585053,0
2096921,2096921,221571,586673,0
2096921,2096921,219462,584894,0
2096921,2096921,218649,584134,0
2096921,2096921,218681,583608,0
2096921,2096921,216390,583605,0
2096921,2096921,216608,582093,0
2096921,2096921,217898,583219,0
2096921,2096921,219306,584352,0
2096921,2096921,219471,584357,0
2096921,2096921,221764,584563,0
2096921,2096921,221022,586023,0
2096921,2096921,219018,584448,0
2096921,2096921,218275,583592,0
2096921,2096921,218271,583557,0
2096921,2096921,216154,583237,0
2096921,2096921,216717,581543,0
2096921,2096921,218282,582901,0
2096921,2096921,219140,584141,0
2096921,2096921,219504,584300,0
2096921,2096921,221576,584443,0
2096921,2096921,221086,586083,0
2096921,2096921,219020,584213,0
2096921,2096921,218643,583514,0
2096921,2096921,218446,583192,0
2096921,2096921,216491,583264,0
2096921,2096921,216268,581567,0
2096921,2096921,218466,582993,0
2096921,2096921,218992,583754,0
2096921,2096921,219499,583934,0
2096921,2096921,221592,584324,0
2096921,2096921,221118,585904,0
2096921,2096921,219328,584306,0
2096921,2096921,218487,583391,0
2096921,2096921,218373,583425,0
2096921,2096921,216018,582681,0
2096921,2096921,216060,581340,0
2096921,2096921,218227,582704,0
2096921,2096921,219383,583806,0
2096921,2096921,219406,584485,0
2096921,2096921,221826,584703,0
2096921,2096921,221346,586165,0
2096921,2096921,219523,584708,0
2096921,2096921,218873,583373,0
2096921,2096921,218557,583364,0
2096921,2096921,216303,583424,0
2096921,2096921,216737,581821,0
2096921,2096921,218448,583259,0
2096921,2096921,219521,584047,0
2096921,2096921,219884,584681,0
2096921,2096921,221822,585100,0
2096921,2096921,221300,586456,0
2096921,2096921,219522,584862,0
2096921,2096921,218988,583895,0
2096921,2096921,218744,583778,0
2096921,2096921,216769,583747,0
2096921,2096921,216776,582522,0
2096921,2096921,218864,583508,0
2096921,2096921,219858,584738,0
2096921,2096921,220178,585061,0
2096921,2096921,222132,585112,0
2096921,2096921,222045,586416,0
2096921,2096921,220208,585220,0
2096921,2096921,219474,584397,0
2096921,2096921,219347,584041,0
2096921,2096921,216802,583994,0
2096921,2096921,217245,582652,0
2096921,2096921,218874,583895,0
2096921,2096921,220047,585205,0
2096921,2096921,220372,585573,0
2096921,2096921,222602,585509,0
2096921,2096921,221984,587006,0
2096921,2096921,220080,585544,0
2096921,2096921,219537,584690,0
2096921,2096921,219420,584364,0
2096921,2096921,217084,584382,0
2096921,2096921,217491,582858,0
2096921,2096921,219019,584203,0
2096921,2096921,220155,584656,0
2096921,2096921,220430,585234,0
2096921,2096921,222705,585961,0
2096921,2096921,222207,586971,0
2096921,2096921,220003,585728,0
2096921,2096921,219665,584554,0
2096921,2096921,219311,584780,0
2096921,2096921,217236,584385,0
2096921,2096921,217560,583317,0
2096921,2096921,219227,584839,0
2096921,2096921,220347,585827,0
2096921,2096921,220740,586146,0
2096921,2096921,222947,586052,0
2096921,2096921,222922,587633,0
2096921,2096921,220319,586149,0
2096921,2096921,219414,585200,0
2096921,2096921,219759,584807,0
2096921,2096921,217839,585081,0
2096921,2096921,217878,583469,0
2096921,2096921,219904,584635,0
2096921,2096921,220526,586003,0
2096921,2096921,220777,586225,0
2096921,2096921,222911,586271,0
2096921,2096921,223064,587712,0
2096921,2096921,220976,585722,0
2096921,2096921,220108,585130,0
2096921,2096921,219919,585131,0
2096921,2096921,217575,585060,0
2096921,2096921,217845,583611,0
2096921,2096921,219908,585138,0
2096921,2096921,220798,586183,0
2096921,2096921,221206,586489,0
2096921,2096921,223357,586546,0
2096921,2096921,222899,587725,0
2096921,2096921,221073,586528,0
2096921,2096921,220744,585401,0
2096921,2096921,220066,585648,0
2096921,2096921,218178,585387,0
2096921,2096921,218276,584281,0
2096921,2096921,220182,585443,0
2096921,2096921,220996,586422,0
2096921,2096921,221448,586627,0
2096921,2096921,223379,587003,0
2096921,2096921,223080,588264,0
2096921,2096921,221170,586800,0
2096921,2096921,220322,586081,0
2096921,2096921,220178,585539,0
2096921,2096921,218021,585796,0
2096921,2096921,218537,584120,0
2096921,2096921,220300,585278,0
2096921,2096921,221451,586595,0
2096921,2096921,221716,586959,0
2096921,2096921,223664,586932,0
2096921,2096921,223357,588357,0
2096921,2096921,221234,586974,0
2096921,2096921,220390,586071,0
2096921,2096921,220242,585753,0
2096921,2096921,218337,585778,0
2096921,2096921,218625,584591,0
2096921,2096921,220618,585818,0
2096921,2096921,221226,586662,0
2096921,2096921,221736,586932,0
2096921,2096921,223484,587233,0
2096921,2096921,223265,588656,0
2096921,2096921,221185,587271,0
2096921,2096921,220641,586408,0
2096921,2096921,220417,586146,0
2096921,2096921,218271,585562,0
2096921,2096921,218631,584616,0
2096921,2096921,220626,585762,0
2096921,2096921,221804,586881,0
2096921,2096921,221838,587388,0
2096921,2096921,224061,587243,0
2096921,2096921,223566,588785,0
2096921,2096921,222179,587447,0
2096921,2096921,221036,586554,0
2096921,2096921,220661,586431,0
2096921,2096921,218594,586449,0
2096921,2096921,218831,585115,0
2096921,2096921,220638,586204,0
2096921,2096921,221551,587062,0
2096921,2096921,221741,587591,0
2096921,2096921,223861,587638,0
2096921,2096921,223666,588904,0
2096921,2096921,221899,587469,0
2096921,2096921,221167,586725,0
2096921,2096921,220722,586322,0
2096921,2096921,218599,586228,0
2096921,2096921,219109,585091,0
2096921,2096921,221004,586204,0
2096921,2096921,221663,586986,0
2096921,2096921,222017,587224,0
2096921,2096921,224020,587735,0
2096921,2096921,223939,588874,0
2096921,2096921,221991,587272,0
2096921,2096921,220885,586553,0
2096921,2096921,220808,586466,0
2096921,2096921,218889,586460,0
2096921,2096921,219016,585083,0
2096921,2096921,220627,586121,0
2096921,2096921,221799,586984,0
2096921,2096921,222018,587905,0
2096921,2096921,224304,587869,0
2096921,2096921,223850,588937,0
2096921,2096921,222231,587721,0
2096921,2096921,220961,586933,0
2096921,2096921,220844,586616,0
2096921,2096921,218795,586484,0
2096921,2096921,219239,585349,0
2096921,2096921,220817,586366,0
2096921,2096921,221886,587114,0
2096921,2096921,221863,587724,0
2096921,2096921,224035,587635,0
2096921,2096921,223904,588899,0
2096921,2096921,221848,587633,0
2096921,2096921,221490,587076,0
2096921,2096921,221246,587154,0
2096921,2096921,219127,586550,0
2096921,2096921,219349,585339,0
2096921,2096921,221132,586547,0
2096921,2096921,221918,587623,0
2096921,2096921,222261,587788,0
2096921,2096921,224182,588062,0
2096921,2096921,223972,589103,0
2096921,2096921,222279,587829,0
2096921,2096921,221417,586892,0
2096921,2096921,221244,586707,0
2096921,2096921,218781,586707,0
2096921,2096921,219215,585537,0
2096921,2096921,221212,586970,0
2096921,2096921,221870,587828,0
2096921,2096921,222278,587958,0
2096921,2096921,224357,587890,0
2096921,2096921,224037,589344,0
2096921,2096921,222096,587936,0
2096921,2096921,221394,587391,0
2096921,2096921,220997,586935,0
2096921,2096921,219040,586990,0
2096921,2096921,219382,585416,0
2096921,2096921,221385,586736,0
2096921,2096921,222153,587605,0
2096921,2096921,222492,588172,0
2096921,2096921,224222,588392,0
2096921,2096921,224232,589829,0
2096921,2096921,222387,588335,0
2096921,2096921,221809,587482,0
2096921,2096921,221454,587015,0
2096921,2096921,219285,586874,0
2096921,2096921,219507,585868,0
2096921,2096921,221372,586639,0
2096921,2096921,222327,587922,0
2096921,2096921,222659,588097,0
2096921,2096921,224551,588445,0
2096921,2096921,224243,589598,0
2096921,2096921,222584,588187,0
2096921,2096921,221648,587156,0
2096921,2096921,221302,587100,0
2096921,2096921,219271,586999,0
2096921,2096921,219801,585699,0
2096921,2096921,221341,586858,0
2096921,2096921,222308,587879,0
2096921,2096921,222839,588418,0
2096921,2096921,224881,588459,0
2096921,2096921,224600,589945,0
2096921,2096921,222329,588085,0
2096921,2096921,221923,587533,0
2096921,2096921,221708,587340,0
2096921,2096921,219004,587272,0
2096921,2096921,219531,586424,0
2096921,2096921,221428,587292,0
2096921,2096921,222197,588237,0
2096921,2096921,222710,588491,0
2096921,2096921,224772,588295,0
2096921,2096921,224326,589758,0
2096921,2096921,222701,588451,0
2096921,2096921,221544,587622,0
2096921,2096921,221235,587737,0
2096921,2096921,219161,587002,0
2096921,2096921,219550,586079,0
2096921,2096921,221511,587041,0
2096921,2096921,222296,588142,0
2096921,2096921,222230,588427,0
2096921,2096921,224487,588517,0
2096921,2096921,224328,589705,0
2096921,2096921,222359,588099,0
2096921,2096921,221759,587482,0
2096921,2096921,221502,587530,0
2096921,2096921,219519,587407,0
2096921,2096921,219648,586511,0
2096921,2096921,221420,587091,0
2096921,2096921,222253,587927,0
2096921,2096921,222803,588554,0
2096921,2096921,224817,588360,0
2096921,2096921,224531,589729,0
2096921,2096921,222599,588457,0
2096921,2096921,221983,587796,0
2096921,2096921,221611,587406,0
2096921,2096921,219527,587139,0
2096921,2096921,219416,586200,0
2096921,2096921,221211,587228,0
2096921,2096921,222205,587849,0
2096921,2096921,222478,588764,0
2096921,2096921,224568,588361,0
2096921,2096921,224089,589769,0
2096921,2096921,222543,588636,0
2096921,2096921,222020,587344,0
2096921,2096921,221625,587435,0
2096921,2096921,219444,587314,0
2096921,2096921,219829,586073,0
2096921,2096921,221584,586991,0
2096921,2096921,222527,587739,0
2096921,2096921,222449,588223,0
2096921,2096921,224727,588576,0
2096921,2096921,224452,589604,0
2096921,2096921,222985,588318,0
2096921,2096921,221567,587868,0
2096921,2096921,221632,587360,0
2096921,2096921,219617,587164,0
2096921,2096921,219552,586183,0
2096921,2096921,221310,587125,0
2096921,2096921,222543,588010,0
2096921,2096921,222978,588789,0
2096921,2096921,224668,588366,0
2096921,2096921,224603,589422,0
2096921,2096921,222486,588381,0
2096921,2096921,221587,587577,0
2096921,2096921,221473,587067,0
2096921,2096921,219334,586749,0
2096921,2096921,219482,585928,0
2096921,2096921,221392,586963,0
2096921,2096921,222261,587883,0
2096921,2096921,222297,588243,0
2096921,2096921,224266,588320,0
2096921,2096921,224118,589173,0
2096921,2096921,222486,587799,0
2096921,2096921,221298,587240,0
2096921,2096921,220920,586768,0
2096921,2096921,218628,586439,0
2096921,2096921,219002,585148,0
2096921,2096921,221206,586303,0
2096921,2096921,221482,587210,0
2096921,2096921,221711,587071,0
2096921,2096921,223667,587227,0
2096921,2096921,223322,588293,0
2096921,2096921,221298,586978,0
2096921,2096921,220321,585994,0
2096921,2096921,219979,585097,0
2096921,2096921,217825,585084,0
2096921,2096921,218078,584112,0
2096921,2096921,220023,584998,0
2096921,2096921,220100,585932,0
2096921,2096921,220197,585373,0
2096921,2096921,222326,585136,0
2096921,2096921,222123,586202,0
2096921,2096921,219881,584909,0
2096921,2096921,218373,584439,0
2096921,2096921,217846,582331,0
2096921,2096921,215759,581786,0
2096921,2096921,216000,580944,0
2096921,2096921,217873,581677,0
2096921,2096921,218053,582514,0
2096921,2096921,218170,581766,0
2096921,2096921,219952,581435,0
2096921,2096921,219614,582628,0
2096921,2096921,217832,581239,0
2096921,2096921,216319,580372,0
2096921,2096921,216165,579267,0
2096921,2096921,214104,579367,0
2096921,2096921,214042,577931,0
2096921,2096921,215876,579401,0
2096921,2096921,216659,579798,0
2096921,2096921,216294,579630,0
2096921,2096921,218717,579563,0
2096921,2096921,218187,580636,0
2096921,2096921,216601,579075,0
2096921,2096921,215403,578356,0
2096921,2096921,214991,578020,0
2096921,2096921,212957,577927,0
2096921,2096921,213083,576366,0
2096921,2096921,214999,577444,0
2096921,2096921,215772,578700,0
2096921,2096921,216136,578606,0
2096921,2096921,218033,578762,0
2096921,2096921,217787,579759,0
2096921,2096921,215745,578192,0
2096921,2096921,214675,577776,0
2096921,2096921,214613,577094,0
2096921,2096921,212540,576696,0
2096921,2096921,212914,575690,0
2096921,2096921,214655,576704,0
2096921,2096921,215418,577846,0
2096921,2096921,215757,578117,0
2096921,2096921,217717,578131,0
2096921,2096921,217479,579044,0
2096921,2096921,215612,577972,0
2096921,2096921,214441,577113,0
2096921,2096921,214556,576782,0
2096921,2096921,212518,576547,0
2096921,2096921,212809,575805,0
2096921,2096921,214751,576714,0
2096921,2096921,215489,577673,0
2096921,2096921,215657,578397,0
2096921,2096921,217719,578371,0
2096921,2096921,217813,579312,0
2096921,2096921,215844,578132,0
2096921,2096921,215017,577448,0
2096921,2096921,214554,577142,0
2096921,2096921,212552,577307,0
2096921,2096921,213247,576006,0
2096921,2096921,214788,576948,0
2096921,2096921,215489,577960,0
2096921,2096921,215957,578162,0
2096921,2096921,217671,578475,0
2096921,2096921,217787,579422,0
2096921,2096921,215550,578431,0
2096921,2096921,214979,577490,0
2096921,2096921,214943,577299,0
2096921,2096921,212993,577277,0
2096921,2096921,213261,576844,0
2096921,2096921,214833,577446,0
2096921,2096921,215846,578289,0
2096921,2096921,216361,579054,0
2096921,2096921,218338,578927,0
2096921,2096921,217798,579790,0
2096921,2096921,216160,578651,0
2096921,2096921,215780,578101,0
2096921,2096921,215650,578092,0
2096921,2096921,213457,578242,0
2096921,2096921,213463,577073,0
2096921,2096921,215399,578005,0
2096921,2096921,216369,578823,0
2096921,2096921,216642,579556,0
2096921,2096921,218818,579691,0
2096921,2096921,218527,580558,0
2096921,2096921,216700,579628,0
2096921,2096921,215950,578907,0
2096921,2096921,215726,578650,0
2096921,2096921,213985,578663,0
2096921,2096921,214104,577678,0
2096921,2096921,215767,578970,0
2096921,2096921,216665,579517,0
2096921,2096921,217130,580474,0
2096921,2096921,219247,580773,0
2096921,2096921,218625,581702,0
2096921,2096921,217038,580370,0
2096921,2096921,216524,579618,0
2096921,2096921,216523,579380,0
2096921,2096921,214613,579598,0
2096921,2096921,214775,578762,0
2096921,2096921,216456,579855,0
2096921,2096921,217256,580264,0
2096921,2096921,217584,580714,0
2096921,2096921,219585,580838,0
2096921,2096921,219296,581920,0
2096921,2096921,217554,580839,0
2096921,2096921,217115,580174,0
2096921,2096921,216721,580271,0
2096921,2096921,214585,580340,0
2096921,2096921,214589,579418,0
2096921,2096921,216544,580558,0
2096921,2096921,217822,581180,0
2096921,2096921,218000,581965,0
2096921,2096921,219692,581802,0
2096921,2096921,219682,582921,0
2096921,2096921,217948,581644,0
2096921,2096921,217518,581083,0
2096921,2096921,217092,581012,0
2096921,2096921,215224,581060,0
2096921,2096921,215624,580026,0
2096921,2096921,217348,580722,0
2096921,2096921,218370,581534,0
2096921,2096921,218498,582465,0
2096921,2096921,220407,582771,0
2096921,2096921,220250,583403,0
2096921,2096921,218549,582586,0
2096921,2096921,217389,581973,0
2096921,2096921,217425,581939,0
2096921,2096921,215518,581683,0
2096921,2096921,215983,580910,0
2096921,2096921,217620,581588,0
2096921,2096921,218643,582469,0
2096921,2096921,218610,582830,0
2096921,2096921,220681,582919,0
2096921,2096921,220755,584130,0
2096921,2096921,218968,583163,0
2096921,2096921,218230,582377,0
2096921,2096921,217984,582179,0
2096921,2096921,216041,582174,0
2096921,2096921,216323,581324,0
2096921,2096921,217886,582200,0
2096921,2096921,218813,583230,0
2096921,2096921,219287,583409,0
2096921,2096921,221135,583558,0
2096921,2096921,221136,584265,0
2096921,2096921,219151,583423,0
2096921,2096921,218456,582582,0
2096921,2096921,218229,582202,0
2096921,2096921,216184,582252,0
2096921,2096921,216349,581749,0
2096921,2096921,218256,582302,0
2096921,2096921,218880,583613,0
2096921,2096921,219479,583863,0
2096921,2096921,221244,583648,0
2096921,2096921,221311,584523,0
2096921,2096921,219073,583407,0
2096921,2096921,218185,582773,0
2096921,2096921,218011,582592,0
2096921,2096921,216181,582446,0
2096921,2096921,216327,581685,0
2096921,2096921,218188,582687,0
2096921,2096921,219429,583501,0
2096921,2096921,219658,583904,0
2096921,2096921,221596,583918,0
2096921,2096921,221097,584838,0
2096921,2096921,219170,583477,0
2096921,2096921,218154,583187,0
2096921,2096921,218038,582521,0
2096921,2096921,216187,582367,0
2096921,2096921,216497,581871,0
2096921,2096921,218145,582347,0
2096921,2096921,218810,583257,0
2096921,2096921,219174,583518,0
2096921,2096921,220901,583763,0
2096921,2096921,220997,584490,0
2096921,2096921,219194,583832,0
2096921,2096921,218424,582815,0
2096921,2096921,217962,582541,0
2096921,2096921,215861,582344,0
2096921,2096921,216265,581679,0
2096921,2096921,217957,582595,0
2096921,2096921,218744,583355,0
2096921,2096921,218753,583562,0
2096921,2096921,220894,583658,0
2096921,2096921,220748,584777,0
2096921,2096921,218974,583299,0
2096921,2096921,218038,582744,0
2096921,2096921,217987,582693,0
2096921,2096921,215893,582405,0
2096921,2096921,216296,581357,0
2096921,2096921,218041,582240,0
2096921,2096921,218827,583213,0
2096921,2096921,219022,583667,0
2096921,2096921,221376,583836,0
2096921,2096921,221289,584281,0
2096921,2096921,219267,583475,0
2096921,2096921,218328,582951,0
2096921,2096921,218181,582678,0
2096921,2096921,215872,582254,0
2096921,2096921,216174,581487,0
2096921,2096921,217900,582196,0
2096921,2096921,218970,583339,0
2096921,2096921,219334,583691,0
2096921,2096921,221292,583983,0
2096921,2096921,220912,584504,0
2096921,2096921,219231,583865,0
2096921,2096921,218425,582969,0
2096921,2096921,218120,582947,0
2096921,2096921,216019,582841,0
2096921,2096921,216407,582036,0
2096921,2096921,218294,582696,0
2096921,2096921,219311,583491,0
2096921,2096921,219524,584188,0
2096921,2096921,221515,584418,0
2096921,2096921,221286,584841,0
2096921,2096921,219502,584199,0
2096921,2096921,218647,583641,0
2096921,2096921,218420,583165,0
2096921,2096921,216491,583225,0
2096921,2096921,216894,582855,0
2096921,2096921,218505,583410,0
2096921,2096921,219442,584249,0
2096921,2096921,220081,584717,0
2096921,2096921,221768,584923,0
2096921,2096921,221617,585388,0
2096921,2096921,219504,584561,0
2096921,2096921,218862,583902,0
2096921,2096921,219023,584094,0
2096921,2096921,217006,583855,0
2096921,2096921,217166,583351,0
2096921,2096921,219330,583866,0
2096921,2096921,219980,584803,0
2096921,2096921,220223,585296,0
2096921,2096921,221975,585533,0
2096921,2096921,221553,586267,0
2096921,2096921,219663,585322,0
2096921,2096921,219191,584525,0
2096921,2096921,219096,584763,0
2096921,2096921,217193,584627,0
2096921,2096921,217748,583932,0
2096921,2096921,218929,584640,0
2096921,2096921,220333,585250,0
2096921,2096921,220515,585726,0
2096921,2096921,222466,586017,0
2096921,2096921,222114,586768,0
2096921,2096921,220402,585902,0
2096921,2096921,219687,585324,0
2096921,2096921,219548,585058,0
2096921,2096921,217697,584826,0
2096921,2096921,217720,584337,0
2096921,2096921,219546,585120,0
2096921,2096921,220455,585900,0
2096921,2096921,220791,586405,0
2096921,2096921,222961,586432,0
2096921,2096921,222451,587346,0
2096921,2096921,220597,586564,0
2096921,2096921,220061,585641,0
2096921,2096921,219760,585505,0
2096921,2096921,217902,585359,0
2096921,2096921,218038,584831,0
2096921,2096921,219889,585813,0
2096921,2096921,220886,586362,0
2096921,2096921,221050,586913,0
2096921,2096921,222917,587004,0
2096921,2096921,222775,587667,0
2096921,2096921,221013,586915,0
2096921,2096921,220114,586060,0
2096921,2096921,220261,585932,0
2096921,2096921,217871,585814,0
2096921,2096921,218566,585094,0
2096921,2096921,220210,585904,0
2096921,2096921,221136,586798,0
2096921,2096921,221506,587606,0
2096921,2096921,223486,587552,0
2096921,2096921,222934,588409,0
2096921,2096921,221331,587023,0
2096921,2096921,220721,586492,0
2096921,2096921,220750,586531,0
2096921,2096921,218682,586514,0
2096921,2096921,218441,585920,0
2096921,2096921,220402,586475,0
2096921,2096921,221090,587532,0
2096921,2096921,221819,588051,0
2096921,2096921,223507,587968,0
2096921,2096921,223558,588919,0
2096921,2096921,221831,587841,0
2096921,2096921,220901,587331,0
2096921,2096921,220762,587122,0
2096921,2096921,218907,586968,0
2096921,2096921,218981,586370,0
2096921,2096921,220491,586971,0
2096921,2096921,221775,588003,0
2096921,2096921,221916,588619,0
2096921,2096921,224084,588602,0
2096921,2096921,223664,589084,0
2096921,2096921,221954,587995,0
2096921,2096921,220947,587639,0
2096921,2096921,221091,587626,0
2096921,2096921,218953,587501,0
2096921,2096921,219307,586718,0
2096921,2096921,221195,587792,0
2096921,2096921,222124,588544,0
2096921,2096921,222191,589086,0
2096921,2096921,224037,589004,0
2096921,2096921,223936,589821,0
2096921,2096921,222228,588744,0
2096921,2096921,221122,588154,0
2096921,2096921,221144,587708,0
2096921,2096921,219414,587842,0
2096921,2096921,219296,587142,0
2096921,2096921,221152,587717,0
2096921,2096921,222056,588579,0
2096921,2096921,222523,589270,0
2096921,2096921,224187,589672,0
2096921,2096921,223985,590056,0
2096921,2096921,222355,589399,0
2096921,2096921,222114,588731,0
2096921,2096921,221551,588527,0
2096921,2096921,219464,588261,0
2096921,2096921,219530,587923,0
2096921,2096921,221368,588247,0
2096921,2096921,222253,589244,0
2096921,2096921,223103,589909,0
2096921,2096921,224778,589980,0
2096921,2096921,224588,590625,0
2096921,2096921,222422,589527,0
2096921,2096921,221751,588768,0
2096921,2096921,221696,588698,0
2096921,2096921,219728,588465,0
2096921,2096921,219713,588121,0
2096921,2096921,221859,588732,0
2096921,2096921,222363,589398,0
2096921,2096921,222772,589795,0
2096921,2096921,224847,590107,0
2096921,2096921,224525,591059,0
2096921,2096921,223051,590130,0
2096921,2096921,222088,589170,0
2096921,2096921,221882,589091,0
2096921,2096921,220082,588702,0
2096921,2096921,219949,588183,0
2096921,2096921,221632,589159,0
2096921,2096921,222776,589830,0
2096921,2096921,222898,590458,0
2096921,2096921,224838,590603,0
2096921,2096921,224786,590815,0
2096921,2096921,223048,590170,0
2096921,2096921,222130,589490,0
2096921,2096921,221905,589290,0
2096921,2096921,220107,589089,0
2096921,2096921,220430,588732,0
2096921,2096921,221990,589380,0
2096921,2096921,223084,589990,0
2096921,2096921,223296,590796,0
2096921,2096921,225312,590966,0
2096921,2096921,224627,591357,0
2096921,2096921,223062,590536,0
2096921,2096921,222227,590001,0
2096921,2096921,221978,589793,0
2096921,2096921,220399,589350,0
2096921,2096921,220428,588836,0
2096921,2096921,221912,589630,0
2096921,2096921,222906,590431,0
2096921,2096921,223232,590925,0
2096921,2096921,225009,591050,0
2096921,2096921,224774,591531,0
2096921,2096921,223086,590731,0
2096921,2096921,222479,590177,0
2096921,2096921,222254,589780,0
2096921,2096921,220370,589804,0
2096921,2096921,220664,589519,0
2096921,2096921,222369,589964,0
2096921,2096921,223152,590707,0
2096921,2096921,223251,591075,0
2096921,2096921,225408,591421,0
2096921,2096921,225281,591850,0
2096921,2096921,223352,591023,0
2096921,2096921,222557,590197,0
2096921,2096921,222560,590118,0
2096921,2096921,220296,589712,0
2096921,2096921,220537,589402,0
2096921,2096921,222316,589904,0
2096921,2096921,223299,590799,0
2096921,2096921,223508,591415,0
2096921,2096921,225529,591410,0
2096921,2096921,225118,592102,0
2096921,2096921,223468,591358,0
2096921,2096921,222879,590197,0
2096921,2096921,222383,590466,0
2096921,2096921,220389,590487,0
2096921,2096921,220772,590006,0
2096921,2096921,222753,590676,0
2096921,2096921,223691,591196,0
2096921,2096921,223655,591681,0
2096921,2096921,225321,591691,0
2096921,2096921,225447,592416,0
2096921,2096921,223728,591389,0
2096921,2096921,222820,591182,0
2096921,2096921,222455,590796,0
2096921,2096921,220696,590484,0
2096921,2096921,221089,590209,0
2096921,2096921,222909,590466,0
2096921,2096921,223693,591643,0
2096921,2096921,223924,591953,0
2096921,2096921,225544,592081,0
2096921,2096921,225299,592508,0
2096921,2096921,223730,591859,0
2096921,2096921,223196,591194,0
2096921,2096921,222872,590852,0
2096921,2096921,220885,590766,0
2096921,2096921,221213,590175,0
2096921,2096921,222938,590804,0
2096921,2096921,223742,591690,0
2096921,2096921,224323,592284,0
2096921,2096921,225729,591990,0
2096921,2096921,225578,592547,0
2096921,2096921,223891,591819,0
2096921,2096921,223161,591416,0
2096921,2096921,223054,591408,0
2096921,2096921,221108,591092,0
2096921,2096921,221223,590588,0
2096921,2096921,223096,591114,0
2096921,2096921,223886,592032,0
2096921,2096921,223856,592440,0
2096921,2096921,226010,592661,0
2096921,2096921,225392,592943,0
2096921,2096921,223991,592381,0
2096921,2096921,223357,591699,0
2096921,2096921,222800,591460,0
2096921,2096921,221191,591219,0
2096921,2096921,221599,590687,0
2096921,2096921,223226,591284,0
2096921,2096921,224041,592122,0
2096921,2096921,224177,592810,0
2096921,2096921,226040,592889,0
2096921,2096921,225756,593362,0
2096921,2096921,224354,592346,0
2096921,2096921,223520,591955,0
2096921,2096921,223258,591568,0
2096921,2096921,221503,591229,0
2096921,2096921,221417,591031,0
2096921,2096921,223457,591650,0
2096921,2096921,224051,592452,0
2096921,2096921,224391,593035,0
2096921,2096921,226318,592514,0
2096921,2096921,225822,593319,0
2096921,2096921,224051,592568,0
2096921,2096921,223519,591738,0
2096921,2096921,223036,591819,0
2096921,2096921,221027,591618,0
2096921,2096921,221247,591039,0
2096921,2096921,223111,591917,0
2096921,2096921,224204,592413,0
2096921,2096921,224477,592995,0
2096921,2096921,226268,592973,0
2096921,2096921,226021,593352,0
2096921,2096921,224249,592777,0
2096921,2096921,223628,592455,0
2096921,2096921,223198,592127,0
2096921,2096921,220834,591892,0
2096921,2096921,221666,591297,0
2096921,2096921,223242,591759,0
2096921,2096921,223647,592570,0
2096921,2096921,224202,592861,0
2096921,2096921,226479,593291,0
2096921,2096921,225864,593768,0
2096921,2096921,224164,592710,0
2096921,2096921,223324,591905,0
2096921,2096921,223009,592012,0
2096921,2096921,221253,591957,0
2096921,2096921,221458,591442,0
2096921,2096921,223206,592123,0
2096921,2096921,224262,592683,0
2096921,2096921,224447,593109,0
2096921,2096921,226383,593431,0
2096921,2096921,225970,593590,0
2096921,2096921,223955,592884,0
2096921,2096921,223486,592375,0
2096921,2096921,222936,591556,0
2096921,2096921,221243,591831,0
2096921,2096921,221562,591481,0
2096921,2096921,223414,591851,0
2096921,2096921,223880,592727,0
2096921,2096921,224044,592550,0
2096921,2096921,226269,592674,0
2096921,2096921,225615,593317,0
2096921,2096921,223867,592698,0
2096921,2096921,223004,592083,0
2096921,2096921,223019,591191,0
2096921,2096921,220621,590911,0
2096921,2096921,221228,590266,0
2096921,2096921,222485,590901,0
2096921,2096921,223087,592064,0
2096921,2096921,223446,591865,0
2096921,2096921,225284,592065,0
2096921,2096921,224915,592389,0
2096921,2096921,222795,591477,0
2096921,2096921,222121,591057,0
2096921,2096921,221912,590219,0
2096921,2096921,219776,590035,0
2096921,2096921,220474,589288,0
2096921,2096921,222062,590244,0
2096921,2096921,222355,591006,0
2096921,2096921,222405,590381,0
2096921,2096921,224215,590100,0
2096921,2096921,223687,590657,0
2096921,2096921,222066,589549,0
2096921,2096921,220365,589039,0
2096921,2096921,219887,587431,0
2096921,2096921,217804,586909,0
2096921,2096921,218546,586461,0
2096921,2096921,220218,587055,0
2096921,2096921,219971,587967,0
2096921,2096921,220084,586820,0
2096921,2096921,221878,586543,0
2096921,2096921,221281,587033,0
2096921,2096921,219654,586051,0
2096921,2096921,218562,585820,0
2096921,2096921,218189,584860,0
2096921,2096921,215925,584118,0
2096921,2096921,216610,583789,0
2096921,2096921,218119,584238,0
2096921,2096921,218156,585004,0
2096921,2096921,218406,584881,0
2096921,2096921,220311,584593,0
2096921,2096921,220065,585146,0
2096921,2096921,218286,584288,0
2096921,2096921,217372,583897,0
2096921,2096921,216932,582882,0
2096921,2096921,215171,582784,0
2096921,2096921,215555,582381,0
2096921,2096921,217293,583035,0
2096921,2096921,217633,583866,0
2096921,2096921,218130,583734,0
2096921,2096921,219926,583832,0
2096921,2096921,219642,584208,0
2096921,2096921,217912,583402,0
2096921,2096921,217169,582625,0
2096921,2096921,216808,582296,0
2096921,2096921,214667,582064,0
2096921,2096921,214807,581587,0
2096921,2096921,217075,582309,0
2096921,2096921,217393,583233,0
2096921,2096921,217438,583405,0
2096921,2096921,219686,583087,0
2096921,2096921,219226,583783,0
2096921,2096921,217357,582996,0
2096921,2096921,216747,582535,0
2096921,2096921,216430,582288,0
2096921,2096921,214397,582379,0
2096921,2096921,215017,581688,0
2096921,2096921,216663,582225,0
2096921,2096921,217783,583221,0
2096921,2096921,217788,583563,0
2096921,2096921,219461,583639,0
2096921,2096921,219184,584296,0
2096921,2096921,217465,583029,0
2096921,2096921,216713,582930,0
2096921,2096921,216396,582552,0
2096921,2096921,214903,582361,0
2096921,2096921,215316,582087,0
2096921,2096921,216851,582611,0
2096921,2096921,217771,583219,0
2096921,2096921,218112,584070,0
2096921,2096921,219720,583768,0
2096921,2096921,219258,584106,0
2096921,2096921,217863,583744,0
2096921,2096921,217040,582812,0
2096921,2096921,216987,582784,0
2096921,2096921,214981,582590,0
2096921,2096921,215584,582132,0
2096921,2096921,217092,582974,0
2096921,2096921,218085,583851,0
2096921,2096921,218169,584479,0
2096921,2096921,220229,584424,0
2096921,2096921,220123,585129,0
2096921,2096921,218338,584325,0
2096921,2096921,217967,583733,0
2096921,2096921,217411,583731,0
2096921,2096921,215751,583596,0
2096921,2096921,216179,583362,0
2096921,2096921,217526,584087,0
2096921,2096921,218559,584364,0
2096921,2096921,218847,585289,0
2096921,2096921,220828,585429,0
2096921,2096921,220354,585917,0
2096921,2096921,218443,584922,0
2096921,2096921,218056,584412,0
2096921,2096921,217715,584328,0
2096921,2096921,216162,583920,0
2096921,2096921,216280,583935,0
2096921,2096921,218249,584655,0
2096921,2096921,219072,585148,0
2096921,2096921,219417,585808,0
2096921,2096921,221025,586048,0
2096921,2096921,220870,586527,0
2096921,2096921,219276,585845,0
2096921,2096921,218675,584995,0
2096921,2096921,218543,585127,0
2096921,2096921,216451,584811,0
2096921,2096921,217025,584470,0
2096921,2096921,218716,585188,0
2096921,2096921,219521,586032,0
2096921,2096921,219823,586547,0
2096921,2096921,221485,586953,0
2096921,2096921,221183,587340,0
2096921,2096921,219457,586149,0
2096921,2096921,219006,585722,0
2096921,2096921,218701,585769,0
2096921,2096921,217171,585576,0
2096921,2096921,217393,585081,0
2096921,2096921,218695,585961,0
2096921,2096921,219997,586758,0
2096921,2096921,220524,587319,0
2096921,2096921,222268,587569,0
2096921,2096921,221678,588104,0
2096921,2096921,219901,587212,0
2096921,2096921,219605,586715,0
2096921,2096921,219169,586781,0
2096921,2096921,217444,586096,0
2096921,2096921,218132,586178,0
2096921,2096921,219598,586940,0
2096921,2096921,220635,587407,0
2096921,2096921,220863,588286,0
2096921,2096921,222775,588300,0
2096921,2096921,221953,588736,0
2096921,2096921,220605,587544,0
2096921,2096921,219945,587299,0
2096921,2096921,219882,587554,0
2096921,2096921,218024,586951,0
2096921,2096921,218348,586474,0
2096921,2096921,219981,586991,0
2096921,2096921,220888,587949,0
2096921,2096921,221165,588300,0
2096921,2096921,222962,588745,0
2096921,2096921,222572,589228,0
2096921,2096921,221030,588524,0
2096921,2096921,220614,588187,0
2096921,2096921,220571,588124,0
2096921,2096921,218215,587198,0
2096921,2096921,218702,586757,0
2096921,2096921,220635,587937,0
2096921,2096921,221569,588782,0
2096921,2096921,221498,589183,0
2096921,2096921,223234,588858,0
2096921,2096921,222717,589609,0
2096921,2096921,221280,588699,0
2096921,2096921,220350,587839,0
2096921,2096921,220391,588120,0
2096921,2096921,218349,587391,0
2096921,2096921,218925,587591,0
2096921,2096921,220223,587908,0
2096921,2096921,221201,589000,0
2096921,2096921,221336,589254,0
2096921,2096921,223316,589011,0
2096921,2096921,222806,589739,0
2096921,2096921,221134,588750,0
2096921,2096921,220572,588271,0
2096921,2096921,220340,588199,0
2096921,2096921,218643,587521,0
2096921,2096921,218684,587151,0
2096921,2096921,220215,588095,0
2096921,2096921,221021,588873,0
2096921,2096921,221371,589296,0
2096921,2096921,223418,589145,0
2096921,2096921,222727,589529,0
2096921,2096921,221015,588816,0
2096921,2096921,220312,588289,0
2096921,2096921,220126,587928,0
2096921,2096921,218445,587272,0
2096921,2096921,218530,587066,0
2096921,2096921,220236,587927,0
2096921,2096921,221078,588556,0
2096921,2096921,221102,588814,0
2096921,2096921,223007,588849,0
2096921,2096921,222606,589257,0
2096921,2096921,220795,588610,0
2096921,2096921,220000,588179,0
2096921,2096921,219953,587744,0
2096921,2096921,218429,587116,0
2096921,2096921,218547,586927,0
2096921,2096921,220228,587606,0
2096921,2096921,220917,588476,0
2096921,2096921,221217,588879,0
2096921,2096921,222814,588768,0
2096921,2096921,222265,589598,0
2096921,2096921,220820,588497,0
2096921,2096921,220014,587940,0
2096921,2096921,220129,587286,0
2096921,2096921,218336,587036,0
2096921,2096921,218727,586546,0
2096921,2096921,220195,587490,0
2096921,2096921,220902,588435,0
2096921,2096921,220986,588745,0
2096921,2096921,223169,588646,0
2096921,2096921,222468,588922,0
2096921,2096921,220948,588261,0
2096921,2096921,220028,587693,0
2096921,2096921,219850,587590,0
2096921,2096921,218030,587093,0
2096921,2096921,218788,587116,0
2096921,2096921,220417,587611,0
2096921,2096921,220831,588454,0
2096921,2096921,220997,588508,0
2096921,2096921,223107,588947,0
2096921,2096921,222433,589099,0
2096921,2096921,220987,588514,0
2096921,2096921,220397,587973,0
2096921,2096921,220097,587710,0
2096921,2096921,218105,586912,0
2096921,2096921,218661,586958,0
2096921,2096921,220227,587713,0
2096921,2096921,221073,588438,0
2096921,2096921,221471,589255,0
2096921,2096921,223351,589082,0
2096921,2096921,222543,589864,0
2096921,2096921,220866,588957,0
2096921,2096921,220340,588355,0
2096921,2096921,220253,588180,0
2096921,2096921,218427,587496,0
2096921,2096921,218835,587199,0
2096921,2096921,220862,588097,0
2096921,2096921,221596,588895,0
2096921,2096921,221819,589415,0
2096921,2096921,223491,589629,0
2096921,2096921,222716,589796,0
2096921,2096921,221254,588764,0
2096921,2096921,220697,588752,0
2096921,2096921,220833,588509,0
2096921,2096921,218854,587704,0
2096921,2096921,219312,588037,0
2096921,2096921,221080,588704,0
2096921,2096921,221836,589459,0
2096921,2096921,222274,590006,0
2096921,2096921,223803,590093,0
2096921,2096921,223209,590482,0
2096921,2096921,221490,589435,0
2096921,2096921,221233,588768,0
2096921,2096921,220887,588952,0
2096921,2096921,219056,588260,0
2096921,2096921,219751,588205,0
2096921,2096921,220999,588944,0
2096921,2096921,222001,589937,0
2096921,2096921,221968,590160,0
2096921,2096921,223999,590534,0
2096921,2096921,223407,591035,0
2096921,2096921,221720,590067,0
2096921,2096921,221024,589425,0
2096921,2096921,221165,589284,0
2096921,2096921,219675,588686,0
2096921,2096921,219882,588003,0
2096921,2096921,221454,589283,0
2096921,2096921,222199,590217,0
2096921,2096921,222299,590762,0
2096921,2096921,224030,591027,0
2096921,2096921,223638,591424,0
2096921,2096921,222001,590676,0
2096921,2096921,221658,589752,0
2096921,2096921,221359,589797,0
2096921,2096921,219560,588819,0
2096921,2096921,220055,588927,0
2096921,2096921,221850,589569,0
2096921,2096921,222685,590672,0
2096921,2096921,222756,591001,0
2096921,2096921,224588,591609,0
2096921,2096921,223965,591714,0
2096921,2096921,222128,590995,0
2096921,2096921,221717,590039,0
2096921,2096921,221757,590195,0
2096921,2096921,219527,589305,0
2096921,2096921,220285,589599,0
2096921,2096921,222178,590319,0
2096921,2096921,222691,591181,0
2096921,2096921,222941,591628,0
2096921,2096921,224511,591870,0
2096921,2096921,224038,592025,0
2096921,2096921,222219,591074,0
2096921,2096921,222312,590701,0
2096921,2096921,222116,590534,0
2096921,2096921,220379,589736,0
2096921,2096921,220722,589437,0
2096921,2096921,221981,590588,0
2096921,2096921,222833,591122,0
2096921,2096921,223174,591498,0
2096921,2096921,224818,591998,0
2096921,2096921,223997,592402,0
2096921,2096921,222635,591393,0
2096921,2096921,222618,590938,0
2096921,2096921,222277,590680,0
2096921,2096921,220110,589865,0
2096921,2096921,220885,589765,0
2096921,2096921,222379,590467,0
2096921,2096921,223250,591441,0
2096921,2096921,223580,592068,0
2096921,2096921,225547,592435,0
2096921,2096921,224464,592765,0
2096921,2096921,223070,591801,0
2096921,2096921,222599,590877,0
2096921,2096921,222503,591057,0
2096921,2096921,220858,590199,0
2096921,2096921,221174,590180,0
2096921,2096921,222693,591274,0
2096921,2096921,223214,591831,0
2096921,2096921,223572,592269,0
2096921,2096921,225662,592631,0
2096921,2096921,224412,593269,0
2096921,2096921,223306,592267,0
2096921,2096921,222905,591852,0
2096921,2096921,222517,591346,0
2096921,2096921,220819,590271,0
2096921,2096921,221552,590457,0
2096921,2096921,223254,591153,0
2096921,2096921,223695,592479,0
2096921,2096921,223916,592896,0
2096921,2096921,225507,592951,0
2096921,2096921,224622,593378,0
2096921,2096921,223253,592582,0
2096921,2096921,222944,591839,0
2096921,2096921,222927,591789,0
2096921,2096921,221036,590810,0
2096921,2096921,221665,591033,0
2096921,2096921,223373,591720,0
2096921,2096921,223678,592496,0
2096921,2096921,224085,592789,0
2096921,2096921,225850,593391,0
2096921,2096921,225023,593781,0
2096921,2096921,223520,592789,0
2096921,2096921,222853,592143,0
2096921,2096921,222631,591759,0
2096921,2096921,220816,590879,0
2096921,2096921,221602,591033,0
2096921,2096921,223053,592148,0
2096921,2096921,223686,592674,0
2096921,2096921,224034,593034,0
2096921,2096921,225673,593875,0
2096921,2096921,225144,593878,0
2096921,2096921,223577,592639,0
2096921,2096921,223274,592027,0
2096921,2096921,223181,591877,0
2096921,2096921,221496,591005,0
2096921,2096921,222215,591465,0
2096921,2096921,223516,592244,0
2096921,2096921,224272,592849,0
2096921,2096921,224257,593179,0
2096921,2096921,226220,593920,0
2096921,2096921,225026,594235,0
2096921,2096921,223661,593078,0
2096921,2096921,223098,592368,0
2096921,2096921,223052,592186,0
2096921,2096921,221088,591426,0
2096921,2096921,222288,591393,0
2096921,2096921,223538,592232,0
2096921,2096921,224258,592789,0
2096921,2096921,224230,593627,0
2096921,2096921,226138,593601,0
2096921,2096921,225236,594063,0
2096921,2096921,223699,592934,0
2096921,2096921,223171,592503,0
2096921,2096921,223070,592078,0
2096921,2096921,221325,591038,0
2096921,2096921,222088,591281,0
2096921,2096921,223575,592492,0
2096921,2096921,224338,593244,0
2096921,2096921,224417,593538,0
2096921,2096921,226222,594003,0
2096921,2096921,225395,594187,0
2096921,2096921,223696,593192,0
2096921,2096921,223084,592345,0
2096921,2096921,223196,592444,0
2096921,2096921,221416,590945,0
2096921,2096921,222325,591458,0
2096921,2096921,224001,592350,0
2096921,2096921,224470,593171,0
2096921,2096921,224787,593612,0
2096921,2096921,226546,594225,0
2096921,2096921,225540,594192,0
2096921,2096921,224059,593250,0
2096921,2096921,223546,592625,0
2096921,2096921,223452,592523,0
2096921,2096921,221374,591148,0
2096921,2096921,222132,591391,0
2096921,2096921,223755,592346,0
2096921,2096921,224323,593496,0
2096921,2096921,224515,593775,0
2096921,2096921,226635,594301,0
2096921,2096921,225751,594735,0
2096921,2096921,224468,593481,0
2096921,2096921,223579,592529,0
2096921,2096921,223047,592231,0
2096921,2096921,221655,591114,0
2096921,2096921,222244,591113,0
2096921,2096921,224140,592199,0
2096921,2096921,224452,593275,0
2096921,2096921,224842,593745,0
2096921,2096921,226399,594481,0
2096921,2096921,225538,594457,0
2096921,2096921,223730,593628,0
2096921,2096921,223321,592672,0
2096921,2096921,223510,592354,0
2096921,2096921,221652,591387,0
2096921,2096921,222456,591315,0
2096921,2096921,223772,592363,0
2096921,2096921,224388,593328,0
2096921,2096921,224728,593782,0
2096921,2096921,226646,594408,0
2096921,2096921,225533,594418,0
2096921,2096921,224119,593371,0
2096921,2096921,223434,592703,0
2096921,2096921,223317,592583,0
2096921,2096921,221699,591238,0
2096921,2096921,222663,591523,0
2096921,2096921,224016,592551,0
2096921,2096921,224618,593468,0
2096921,2096921,224527,593748,0
2096921,2096921,226481,594479,0
2096921,2096921,225788,594556,0
2096921,2096921,224317,593453,0
2096921,2096921,223877,592839,0
2096921,2096921,223475,592650,0
2096921,2096921,221527,591395,0
2096921,2096921,222566,591237,0
2096921,2096921,223980,592550,0
2096921,2096921,224553,593371,0
2096921,2096921,224802,593694,0
2096921,2096921,226436,594682,0
2096921,2096921,225608,594752,0
2096921,2096921,224192,593488,0
2096921,2096921,223384,593031,0
2096921,2096921,223451,592850,0
2096921,2096921,221540,591152,0
2096921,2096921,222489,591301,0
2096921,2096921,224078,592353,0
2096921,2096921,224720,593222,0
2096921,2096921,224714,593618,0
2096921,2096921,226544,594545,0
2096921,2096921,225796,594426,0
2096921,2096921,224399,593556,0
2096921,2096921,223674,592761,0
2096921,2096921,223158,592359,0
2096921,2096921,221443,590874,0
2096921,2096921,222581,591475,0
2096921,2096921,224272,592464,0
2096921,2096921,224675,593190,0
2096921,2096921,224653,593761,0
2096921,2096921,226634,594578,0
2096921,2096921,225461,594577,0
2096921,2096921,223966,593406,0
2096921,2096921,223429,592780,0
2096921,2096921,223194,592327,0
2096921,2096921,221628,591028,0
2096921,2096921,222467,591027,0
2096921,2096921,224017,591995,0
2096921,2096921,224652,592871,0
2096921,2096921,224787,593357,0
2096921,2096921,226557,594413,0
2096921,2096921,225602,594431,0
2096921,2096921,224002,593240,0
2096921,2096921,223631,593009,0
2096921,2096921,223863,592656,0
2096921,2096921,221349,590731,0
2096921,2096921,222358,591379,0
2096921,2096921,223692,592319,0
2096921,2096921,224702,593247,0
2096921,2096921,224549,593485,0
2096921,2096921,226070,594269,0
2096921,2096921,225072,594222,0
2096921,2096921,223990,593325,0
2096921,2096921,223288,592549,0
2096921,2096921,223149,592309,0
2096921,2096921,221404,590471,0
2096921,2096921,222547,590892,0
2096921,2096921,223752,591907,0
2096921,2096921,224493,592617,0
2096921,2096921,224646,593103,0
2096921,2096921,226413,594318,0
2096921,2096921,225271,594249,0
2096921,2096921,223852,593146,0
2096921,2096921,223203,592288,0
2096921,2096921,222868,591799,0
2096921,2096921,221103,590408,0
2096921,2096921,222335,591006,0
2096921,2096921,223641,591552,0
2096921,2096921,223993,592552,0
2096921,2096921,224173,592354,0
2096921,2096921,226253,593631,0
2096921,2096921,225203,593831,0
2096921,2096921,223390,592288,0
2096921,2096921,222537,591749,0
2096921,2096921,222604,591250,0
2096921,2096921,220853,589391,0
2096921,2096921,221854,589537,0
2096921,2096921,222844,590803,0
2096921,2096921,223205,591674,0
2096921,2096921,223473,591568,0
2096921,2096921,225215,592264,0
2096921,2096921,224105,592329,0
2096921,2096921,222533,591142,0
2096921,2096921,221688,590704,0
2096921,2096921,221784,589531,0
2096921,2096921,219689,588187,0
2096921,2096921,220641,588379,0
2096921,2096921,222301,589499,0
2096921,2096921,222321,590802,0
2096921,2096921,222181,589475,0
2096921,2096921,223840,590142,0
2096921,2096921,222911,589983,0
2096921,2096921,221433,589162,0
2096921,2096921,219760,588263,0
2096921,2096921,219505,586542,0
2096921,2096921,217600,584298,0
2096921,2096921,218367,584875,0
2096921,2096921,219811,585926,0
2096921,2096921,219852,586651,0
2096921,2096921,219646,585943,0
2096921,2096921,221417,587091,0
2096921,2096921,220268,586325,0
2096921,2096921,218848,585343,0
2096921,2096921,217954,584671,0
2096921,2096921,217607,583748,0
2096921,2096921,215740,581808,0
2096921,2096921,216768,582299,0
2096921,2096921,218413,583173,0
2096921,2096921,218413,584119,0
2096921,2096921,218224,583813,0
2096921,2096921,220020,584775,0
2096921,2096921,219242,584670,0
2096921,2096921,217691,583191,0
2096921,2096921,216885,582663,0
2096921,2096921,216277,581777,0
2096921,2096921,214796,580201,0
2096921,2096921,215387,580639,0
2096921,2096921,216980,581610,0
2096921,2096921,217124,582789,0
2096921,2096921,217233,582518,0
2096921,2096921,219527,583788,0
2096921,2096921,218263,583508,0
2096921,2096921,216841,582397,0
2096921,2096921,216320,581491,0
2096921,2096921,215964,581290,0
2096921,2096921,214166,579176,0
2096921,2096921,215524,579388,0
2096921,2096921,216707,581033,0
2096921,2096921,217075,581868,0
2096921,2096921,216700,581738,0
2096921,2096921,218980,583008,0
2096921,2096921,217871,582695,0
2096921,2096921,216147,581601,0
2096921,2096921,216045,580828,0
2096921,2096921,215777,580612,0
2096921,2096921,214055,579097,0
2096921,2096921,215130,579344,0
2096921,2096921,216626,580337,0
2096921,2096921,216715,581182,0
2096921,2096921,217075,581666,0
2096921,2096921,219033,582960,0
2096921,2096921,217974,582569,0
2096921,2096921,216269,581421,0
2096921,2096921,215931,580848,0
2096921,2096921,216005,580931,0
2096921,2096921,214109,578858,0
2096921,2096921,215163,579131,0
2096921,2096921,216707,580493,0
2096921,2096921,217224,581229,0
2096921,2096921,217183,581606,0
2096921,2096921,219050,583196,0
2096921,2096921,218150,582677,0
2096921,2096921,216611,581870,0
2096921,2096921,216165,581058,0
2096921,2096921,216167,580750,0
2096921,2096921,214086,579181,0
2096921,2096921,215423,579393,0
2096921,2096921,216869,580907,0
2096921,2096921,217544,581654,0
2096921,2096921,217560,582200,0
2096921,2096921,219415,583817,0
2096921,2096921,218343,583273,0
2096921,2096921,216860,581894,0
2096921,2096921,216476,581510,0
2096921,2096921,216297,581636,0
2096921,2096921,214553,579730,0
2096921,2096921,215878,580347,0
2096921,2096921,217081,581760,0
2096921,2096921,217698,582297,0
2096921,2096921,217769,582551,0
2096921,2096921,219710,584023,0
2096921,2096921,218617,583653,0
2096921,2096921,217389,582465,0
2096921,2096921,216956,581701,0
2096921,2096921,216949,582197,0
2096921,2096921,215063,579929,0
2096921,2096921,216100,580616,0
2096921,2096921,217371,581732,0
2096921,2096921,218139,582418,0
2096921,2096921,218412,583010,0
2096921,2096921,220526,584593,0
2096921,2096921,219042,584226,0
2096921,2096921,217653,582829,0
2096921,2096921,217175,582345,0
2096921,2096921,217224,582542,0
2096921,2096921,215044,580626,0
2096921,2096921,216465,581192,0
2096921,2096921,217815,582375,0
2096921,2096921,218765,583217,0
2096921,2096921,218553,583973,0
2096921,2096921,220319,585011,0
2096921,2096921,219197,585155,0
2096921,2096921,217917,583527,0
2096921,2096921,217953,583190,0
2096921,2096921,217875,583158,0
2096921,2096921,215598,581153,0
2096921,2096921,217179,581698,0
2096921,2096921,218591,582726,0
2096921,2096921,219227,584054,0
2096921,2096921,219261,584500,0
2096921,2096921,220988,585548,0
2096921,2096921,219682,585330,0
2096921,2096921,218421,584345,0
2096921,2096921,218121,583797,0
2096921,2096921,218351,583640,0
2096921,2096921,216440,581585,0
2096921,2096921,217518,582152,0
2096921,2096921,218714,583204,0
2096921,2096921,219317,584391,0
2096921,2096921,219412,584779,0
2096921,2096921,221574,586532,0
2096921,2096921,220279,586041,0
2096921,2096921,218792,584471,0
2096921,2096921,218901,583965,0
2096921,2096921,218621,583523,0
2096921,2096921,216324,582026,0
2096921,2096921,217772,582620,0
2096921,2096921,219333,584025,0
2096921,2096921,219734,584775,0
2096921,2096921,220082,585371,0
2096921,2096921,221861,586883,0
2096921,2096921,220504,586806,0
2096921,2096921,219131,585307,0
2096921,2096921,218917,584706,0
2096921,2096921,218702,584461,0
2096921,2096921,216970,582611,0
2096921,2096921,218288,582986,0
2096921,2096921,219429,584380,0
2096921,2096921,219774,585298,0
2096921,2096921,219957,585844,0
2096921,2096921,221804,587224,0
2096921,2096921,220773,586328,0
2096921,2096921,219554,585333,0
2096921,2096921,219004,584489,0
2096921,2096921,218830,584215,0
2096921,2096921,216746,582617,0
2096921,2096921,218100,583236,0
2096921,2096921,219546,584515,0
2096921,2096921,219777,585365,0
2096921,2096921,219944,585538,0
2096921,2096921,222125,587288,0
2096921,2096921,220691,587073,0
2096921,2096921,219703,585306,0
2096921,2096921,218930,584586,0
2096921,2096921,218739,584279,0
2096921,2096921,216582,582362,0
2096921,2096921,218120,582989,0
2096921,2096921,219622,584398,0
2096921,2096921,219834,585076,0
2096921,2096921,219929,585373,0
2096921,2096921,221541,586910,0
2096921,2096921,220766,586409,0
2096921,2096921,219177,584854,0
2096921,2096921,218721,584231,0
2096921,2096921,218584,583863,0
2096921,2096921,216874,581940,0
2096921,2096921,217885,582436,0
2096921,2096921,219056,584055,0
2096921,2096921,219358,584839,0
2096921,2096921,219612,584638,0
2096921,2096921,221843,586563,0
2096921,2096921,220544,586086,0
2096921,2096921,219019,584734,0
2096921,2096921,218646,584163,0
2096921,2096921,218238,583887,0
2096921,2096921,216836,581572,0
2096921,2096921,217703,582251,0
2096921,2096921,219175,583628,0
2096921,2096921,219488,584393,0
2096921,2096921,219543,584650,0
2096921,2096921,221413,586239,0
2096921,2096921,220010,585900,0
2096921,2096921,218833,584297,0
2096921,2096921,218564,583824,0
2096921,2096921,218292,583429,0
2096921,2096921,216228,581061,0
2096921,2096921,217628,581717,0
2096921,2096921,218921,583202,0
2096921,2096921,219372,584026,0
2096921,2096921,219285,584337,0
2096921,2096921,221273,586097,0
2096921,2096921,220028,585629,0
2096921,2096921,218692,584140,0
2096921,2096921,218403,583590,0
2096921,2096921,218180,583306,0
2096921,2096921,216369,581498,0
2096921,2096921,217805,582057,0
2096921,2096921,219018,583358,0
2096921,2096921,219378,584390,0
2096921,2096921,219472,584603,0
2096921,2096921,221136,586328,0
2096921,2096921,220128,585893,0
2096921,2096921,218781,584705,0
2096921,2096921,218239,583759,0
2096921,2096921,218430,583415,0
2096921,2096921,216401,581032,0
2096921,2096921,217931,582010,0
2096921,2096921,218973,583377,0
2096921,2096921,219522,583913,0
2096921,2096921,219758,584512,0
2096921,2096921,221981,586268,0
2096921,2096921,220091,586119,0
2096921,2096921,218954,584315,0
2096921,2096921,218565,583623,0
2096921,2096921,218504,583680,0
2096921,2096921,216524,581623,0
2096921,2096921,217992,582181,0
2096921,2096921,219188,583562,0
2096921,2096921,219458,584101,0
2096921,2096921,220106,584641,0
2096921,2096921,221877,586545,0
2096921,2096921,220581,586289,0
2096921,2096921,219137,584903,0
2096921,2096921,219059,584148,0
2096921,2096921,218724,584170,0
2096921,2096921,216716,581800,0
2096921,2096921,218274,582517,0
2096921,2096921,219492,583853,0
2096921,2096921,220047,584856,0
2096921,2096921,220509,584985,0
2096921,2096921,222096,587037,0
2096921,2096921,220526,586767,0
2096921,2096921,219606,585193,0
2096921,2096921,218975,584579,0
2096921,2096921,219068,584208,0
2096921,2096921,216921,581892,0
2096921,2096921,218331,582617,0
2096921,2096921,219713,584376,0
2096921,2096921,220034,585250,0
2096921,2096921,220176,585702,0
2096921,2096921,222288,587395,0
2096921,2096921,220835,586921,0
2096921,2096921,219865,585400,0
2096921,2096921,219586,584783,0
2096921,2096921,219321,584334,0
2096921,2096921,217388,581805,0
2096921,2096921,218767,582870,0
2096921,2096921,220075,584246,0
2096921,2096921,220381,585543,0
2096921,2096921,220515,585427,0
2096921,2096921,222486,587691,0
2096921,2096921,221123,587118,0
2096921,2096921,219681,585759,0
2096921,2096921,219482,585017,0
2096921,2096921,219438,585041,0
2096921,2096921,217309,582657,0
2096921,2096921,219050,583114,0
2096921,2096921,220385,584820,0
2096921,2096921,220757,585814,0
2096921,2096921,220743,585950,0
2096921,2096921,222641,588095,0
2096921,2096921,221319,587598,0
2096921,2096921,220108,585972,0
2096921,2096921,219792,585127,0
2096921,2096921,219714,585029,0
2096921,2096921,217469,582910,0
2096921,2096921,218730,583391,0
2096921,2096921,220366,585253,0
2096921,2096921,220845,585849,0
2096921,2096921,220982,586284,0
2096921,2096921,223164,588339,0
2096921,2096921,221783,588253,0
2096921,2096921,220219,586301,0
2096921,2096921,220072,585640,0
2096921,2096921,219969,585390,0
2096921,2096921,217946,583089,0
2096921,2096921,219348,583644,0
2096921,2096921,220469,585366,0
2096921,2096921,220923,586537,0
2096921,2096921,221300,586445,0
2096921,2096921,223218,588543,0
2096921,2096921,221754,588193,0
2096921,2096921,220486,586470,0
2096921,2096921,220143,585438,0
2096921,2096921,220149,585623,0
2096921,2096921,218254,583138,0
2096921,2096921,219451,584209,0
2096921,2096921,220797,585600,0
2096921,2096921,221400,586611,0
2096921,2096921,221662,586943,0
2096921,2096921,223767,588676,0
2096921,2096921,221882,588079,0
2096921,2096921,220646,586728,0
2096921,2096921,220307,586279,0
2096921,2096921,220039,585852,0
2096921,2096921,218250,583738,0
2096921,2096921,219555,584348,0
2096921,2096921,220916,585901,0
2096921,2096921,221473,586444,0
2096921,2096921,221454,587116,0
2096921,2096921,223526,588898,0
2096921,2096921,222045,588542,0
2096921,2096921,220771,586762,0
2096921,2096921,220807,586441,0
2096921,2096921,220166,585928,0
2096921,2096921,218542,583955,0
2096921,2096921,219914,584624,0
2096921,2096921,221256,586096,0
2096921,2096921,221790,586957,0
2096921,2096921,221774,587559,0
2096921,2096921,223766,589265,0
2096921,2096921,221998,588779,0
2096921,2096921,220819,586943,0
2096921,2096921,220468,586133,0
2096921,2096921,220803,586297,0
2096921,2096921,218532,583811,0
2096921,2096921,220453,584805,0
2096921,2096921,221512,586421,0
2096921,2096921,221848,587076,0
2096921,2096921,221972,587514,0
2096921,2096921,223901,589346,0
2096921,2096921,222136,589072,0
2096921,2096921,221125,587212,0
2096921,2096921,220690,586603,0
2096921,2096921,220710,586432,0
2096921,2096921,218729,584084,0
2096921,2096921,220334,584865,0
2096921,2096921,221543,586494,0
2096921,2096921,221881,587206,0
2096921,2096921,222166,587393,0
2096921,2096921,223919,589352,0
2096921,2096921,222179,589315,0
2096921,2096921,221156,587484,0
2096921,2096921,220946,586970,0
2096921,2096921,220723,586426,0
2096921,2096921,218543,584292,0
2096921,2096921,220152,584981,0
2096921,2096921,221612,586642,0
2096921,2096921,221858,587384,0
2096921,2096921,222187,587506,0
2096921,2096921,224283,589795,0
2096921,2096921,222388,589293,0
2096921,2096921,221255,587797,0
2096921,2096921,221153,587094,0
2096921,2096921,220688,587004,0
2096921,2096921,218627,584379,0
2096921,2096921,220290,584911,0
2096921,2096921,221713,586619,0
2096921,2096921,221868,587437,0
2096921,2096921,222228,587719,0
2096921,2096921,224273,589980,0
2096921,2096921,222575,589341,0
2096921,2096921,221375,587824,0
2096921,2096921,221063,587152,0
2096921,2096921,220942,586695,0
2096921,2096921,219067,584368,0
2096921,2096921,220603,585090,0
2096921,2096921,221795,586583,0
2096921,2096921,221955,587427,0
2096921,2096921,222427,587798,0
2096921,2096921,224253,589799,0
2096921,2096921,222734,589356,0
2096921,2096921,221343,587592,0
2096921,2096921,221162,586856,0
2096921,2096921,220973,586896,0
2096921,2096921,219014,584240,0
2096921,2096921,220655,584963,0
2096921,2096921,221829,586604,0
2096921,2096921,222069,587694,0
2096921,2096921,222219,588091,0
2096921,2096921,224195,589966,0
2096921,2096921,222478,589468,0
2096921,2096921,221454,587742,0
2096921,2096921,220889,587160,0
2096921,2096921,221171,586995,0
2096921,2096921,218830,584450,0
2096921,2096921,220593,585291,0
2096921,2096921,221871,587326,0
2096921,2096921,222304,587915,0
2096921,2096921,222279,588390,0
2096921,2096921,224240,590348,0
2096921,2096921,222737,589589,0
2096921,2096921,221497,588067,0
2096921,2096921,221235,587336,0
2096921,2096921,221074,586911,0
2096921,2096921,219230,584428,0
2096921,2096921,220966,585196,0
2096921,2096921,222036,586947,0
2096921,2096921,222087,587898,0
2096921,2096921,222501,588166,0
2096921,2096921,224402,590484,0
2096921,2096921,222875,589823,0
2096921,2096921,221747,588059,0
2096921,2096921,221105,587325,0
2096921,2096921,221242,587331,0
2096921,2096921,219358,584667,0
2096921,2096921,220626,585480,0
2096921,2096921,222245,587064,0
2096921,2096921,222427,588054,0
2096921,2096921,222693,588144,0
2096921,2096921,224714,590507,0
2096921,2096921,222741,589999,0
2096921,2096921,221679,588266,0
2096921,2096921,221475,587309,0
2096921,2096921,221189,587110,0
2096921,2096921,219243,584971,0
2096921,2096921,220973,585576,0
2096921,2096921,222124,587498,0
2096921,2096921,222775,588343,0
2096921,2096921,222831,588527,0
2096921,2096921,224499,590486,0
2096921,2096921,223196,589980,0
2096921,2096921,222004,588224,0
2096921,2096921,221604,587286,0
2096921,2096921,221268,587033,0
2096921,2096921,219625,584962,0
2096921,2096921,220680,585614,0
2096921,2096921,222291,587397,0
2096921,2096921,222709,588544,0
2096921,2096921,222648,588551,0
2096921,2096921,224771,590652,0
2096921,2096921,223223,590185,0
2096921,2096921,221784,588497,0
2096921,2096921,221838,587666,0
2096921,2096921,221455,587639,0
2096921,2096921,219213,585308,0
2096921,2096921,221289,585645,0
2096921,2096921,222210,587195,0
2096921,2096921,222565,588490,0
2096921,2096921,222704,588479,0
2096921,2096921,224604,590621,0
2096921,2096921,223027,590301,0
2096921,2096921,221602,588520,0
2096921,2096921,221465,587530,0
2096921,2096921,221296,587444,0
2096921,2096921,219068,585215,0
2096921,2096921,220864,585777,0
2096921,2096921,222345,587557,0
2096921,2096921,222862,588005,0
2096921,2096921,222780,588562,0
2096921,2096921,224470,590689,0
2096921,2096921,223170,590171,0
2096921,2096921,222082,588326,0
2096921,2096921,221679,587626,0
2096921,2096921,221559,587771,0
2096921,2096921,220081,585486,0
2096921,2096921,220959,585997,0
2096921,2096921,222028,587749,0
2096921,2096921,222485,588366,0
2096921,2096921,223065,589065,0
2096921,2096921,224932,591049,0
2096921,2096921,222840,590181,0
2096921,2096921,221634,588759,0
2096921,2096921,221730,587778,0
2096921,2096921,221841,587513,0
2096921,2096921,219637,585161,0
2096921,2096921,221279,585670,0
2096921,2096921,222397,587114,0
2096921,2096921,222561,588101,0
2096921,2096921,222646,588493,0
2096921,2096921,224596,590746,0
2096921,2096921,223260,590375,0
2096921,2096921,221911,588647,0
2096921,2096921,221633,587914,0
2096921,2096921,221439,587581,0
2096921,2096921,219409,584864,0
2096921,2096921,221075,585985,0
2096921,2096921,222267,587377,0
2096921,2096921,222691,588383,0
2096921,2096921,223026,588691,0
2096921,2096921,224555,590687,0
2096921,2096921,223018,590094,0
2096921,2096921,221775,588217,0
2096921,2096921,221548,587583,0
2096921,2096921,221400,587418,0
2096921,2096921,219484,584665,0
2096921,2096921,220965,585393,0
2096921,2096921,222035,586830,0
2096921,2096921,222372,588172,0
2096921,2096921,222570,588004,0
2096921,2096921,224250,590622,0
2096921,2096921,222578,589909,0
2096921,2096921,221372,587848,0
2096921,2096921,221140,587404,0
2096921,2096921,220683,586742,0
2096921,2096921,218613,584171,0
2096921,2096921,220590,584835,0
2096921,2096921,221596,586327,0
2096921,2096921,221783,587415,0
2096921,2096921,221615,587192,0
2096921,2096921,223640,589232,0
2096921,2096921,221949,588549,0
2096921,2096921,220579,586892,0
2096921,2096921,220325,585887,0
2096921,2096921,220103,585202,0
2096921,2096921,218002,582730,0
2096921,2096921,219434,583295,0
2096921,2096921,220575,585221,0
2096921,2096921,220554,585708,0
2096921,2096921,220506,585161,0
2096921,2096921,222285,587295,0
2096921,2096921,220628,586849,0
2096921,2096921,219445,584812,0
2096921,2096921,218285,584262,0
2096921,2096921,217890,582254,0
2096921,2096921,215597,579869,0
2096921,2096921,217243,580273,0
2096921,2096921,219001,581677,0
2096921,2096921,218027,582406,0
2096921,2096921,217888,581731,0
2096921,2096921,219787,583919,0
2096921,2096921,218199,583395,0
2096921,2096921,217374,581332,0
2096921,2096921,216306,580648,0
2096921,2096921,216160,579937,0
2096921,2096921,214343,577179,0
2096921,2096921,215411,577534,0
2096921,2096921,216966,579505,0
2096921,2096921,216744,580425,0
2096921,2096921,216708,579818,0
2096921,2096921,218372,582026,0
2096921,2096921,216792,581460,0
2096921,2096921,215732,579186,0
2096921,2096921,215462,578698,0
2096921,2096921,214967,578078,0
2096921,2096921,213051,575658,0
2096921,2096921,214930,576261,0
2096921,2096921,216079,577780,0
2096921,2096921,216071,578545,0
2096921,2096921,215969,578358,0
2096921,2096921,217803,580573,0
2096921,2096921,216090,580211,0
2096921,2096921,215365,578151,0
2096921,2096921,214938,577539,0
2096921,2096921,214685,577082,0
2096921,2096921,212837,575018,0
2096921,2096921,214417,575481,0
2096921,2096921,215274,577019,0
2096921,2096921,215865,577993,0
2096921,2096921,215974,577964,0
2096921,2096921,217620,580358,0
2096921,2096921,215926,579750,0
2096921,2096921,215041,577834,0
2096921,2096921,214864,577032,0
2096921,2096921,214669,576727,0
2096921,2096921,212534,574660,0
2096921,2096921,214255,575286,0
2096921,2096921,215273,577070,0
2096921,2096921,215812,577832,0
2096921,2096921,216196,578143,0
2096921,2096921,217895,580279,0
2096921,2096921,216065,580092,0
2096921,2096921,214888,578154,0
2096921,2096921,214573,577355,0
2096921,2096921,214331,577370,0
2096921,2096921,212831,574656,0
2096921,2096921,214181,575189,0
2096921,2096921,215561,577286,0
2096921,2096921,215894,578067,0
2096921,2096921,216013,578377,0
2096921,2096921,217831,580736,0
2096921,2096921,216275,580171,0
2096921,2096921,215068,578529,0
2096921,2096921,215185,577596,0
2096921,2096921,215090,577405,0
2096921,2096921,213124,575013,0
2096921,2096921,215017,575449,0
2096921,2096921,215969,577654,0
2096921,2096921,216252,578377,0
2096921,2096921,216183,579187,0
2096921,2096921,218208,581425,0
2096921,2096921,216485,580729,0
2096921,2096921,215591,578908,0
2096921,2096921,215367,578409,0
2096921,2096921,215243,578137,0
2096921,2096921,213316,575995,0
2096921,2096921,214956,576440,0
2096921,2096921,216196,578060,0
2096921,2096921,216603,578926,0
2096921,2096921,216991,579651,0
2096921,2096921,218917,581826,0
2096921,2096921,217036,581550,0
2096921,2096921,216021,579758,0
2096921,2096921,215695,578615,0
2096921,2096921,215707,578826,0
2096921,2096921,214153,576440,0
2096921,2096921,215476,577147,0
2096921,2096921,216449,578940,0
2096921,2096921,217008,580059,0
2096921,2096921,217181,580332,0
2096921,2096921,219184,582744,0
2096921,2096921,217484,582394,0
2096921,2096921,216531,580380,0
2096921,2096921,216467,579500,0
2096921,2096921,215988,579392,0
2096921,2096921,214174,577339,0
2096921,2096921,215809,577878,0
2096921,2096921,216993,579440,0
2096921,2096921,217749,580387,0
2096921,2096921,217881,580956,0
2096921,2096921,219532,583389,0
2096921,2096921,217628,582893,0
2096921,2096921,216802,580896,0
2096921,2096921,216771,580463,0
2096921,2096921,216580,580336,0
2096921,2096921,214646,578078,0
2096921,2096921,216672,578495,0
2096921,2096921,217751,580306,0
2096921,2096921,218039,581446,0
2096921,2096921,218270,581776,0
2096921,2096921,219707,583991,0
2096921,2096921,218379,583688,0
2096921,2096921,217315,581586,0
2096921,2096921,217355,580880,0
2096921,2096921,217101,580731,0
2096921,2096921,215372,578710,0
2096921,2096921,216833,579141,0
2096921,2096921,217988,580890,0
2096921,2096921,218432,581795,0
2096921,2096921,218446,582535,0
2096921,2096921,220376,584837,0
2096921,2096921,218651,584362,0
2096921,2096921,217873,582267,0
2096921,2096921,217781,581629,0
2096921,2096921,217634,581587,0
2096921,2096921,215695,579689,0
2096921,2096921,217482,580080,0
2096921,2096921,218429,581596,0
2096921,2096921,218972,582535,0
2096921,2096921,219278,582928,0
2096921,2096921,220574,585561,0
2096921,2096921,218882,584926,0
2096921,2096921,218092,583099,0
2096921,2096921,217872,582039,0
2096921,2096921,217902,582012,0
2096921,2096921,216512,579979,0
2096921,2096921,217541,580377,0
2096921,2096921,218494,581969,0
2096921,2096921,219040,582824,0
2096921,2096921,219221,583682,0
2096921,2096921,221046,585866,0
2096921,2096921,219324,584921,0
2096921,2096921,218511,583316,0
2096921,2096921,218241,582595,0
2096921,2096921,218180,582849,0
2096921,2096921,216495,580386,0
2096921,2096921,217685,580610,0
2096921,2096921,219049,582525,0
2096921,2096921,219240,583653,0
2096921,2096921,219372,583685,0
2096921,2096921,220812,585889,0
2096921,2096921,219332,585667,0
2096921,2096921,218466,583605,0
2096921,2096921,218461,582944,0
2096921,2096921,218111,582709,0
2096921,2096921,216384,580370,0
2096921,2096921,217805,580803,0
2096921,2096921,218843,582652,0
2096921,2096921,219313,583548,0
2096921,2096921,219225,583919,0
2096921,2096921,220903,585811,0
2096921,2096921,219357,585809,0
2096921,2096921,218572,583533,0
2096921,2096921,218168,582795,0
2096921,2096921,218016,582496,0
2096921,2096921,216242,580090,0
2096921,2096921,217758,580630,0
2096921,2096921,219050,582719,0
2096921,2096921,219477,583346,0
2096921,2096921,219370,583822,0
2096921,2096921,221070,585688,0
2096921,2096921,219625,585385,0
2096921,2096921,218481,583703,0
2096921,2096921,218250,582834,0
2096921,2096921,217714,582280,0
2096921,2096921,216261,580157,0
2096921,2096921,217966,580545,0
2096921,2096921,218678,582497,0
2096921,2096921,218916,583203,0
2096921,2096921,219416,583518,0
2096921,2096921,220708,585970,0
2096921,2096921,219342,585419,0
2096921,2096921,218345,583442,0
2096921,2096921,218062,582572,0
2096921,2096921,217732,582212,0
2096921,2096921,216303,580070,0
2096921,2096921,217762,580612,0
2096921,2096921,218796,582296,0
2096921,2096921,219023,583086,0
2096921,2096921,219343,583356,0
2096921,2096921,220725,585456,0
2096921,2096921,219519,585364,0
2096921,2096921,218121,583532,0
2096921,2096921,218217,582845,0
2096921,2096921,217781,582627,0
2096921,2096921,216492,580631,0
2096921,2096921,217764,580757,0
2096921,2096921,218942,582588,0
2096921,2096921,219296,583583,0
2096921,2096921,219162,583602,0
2096921,2096921,220782,586038,0
2096921,2096921,219349,585645,0
2096921,2096921,218636,583879,0
2096921,2096921,218276,582972,0
2096921,2096921,217709,582465,0
2096921,2096921,216597,580694,0
2096921,2096921,217820,581150,0
2096921,2096921,218950,582480,0
2096921,2096921,219212,583738,0
2096921,2096921,219583,583788,0
2096921,2096921,220925,586176,0
2096921,2096921,219582,585918,0
2096921,2096921,218523,584145,0
2096921,2096921,218593,583309,0
2096921,2096921,218465,583316,0
2096921,2096921,217312,581427,0
2096921,2096921,218303,581576,0
2096921,2096921,219390,583397,0
2096921,2096921,219843,584346,0
2096921,2096921,220119,584593,0
2096921,2096921,221434,586788,0
2096921,2096921,220455,586404,0
2096921,2096921,219005,584578,0
2096921,2096921,219158,584058,0
2096921,2096921,218858,583679,0
2096921,2096921,217445,581712,0
2096921,2096921,218583,582004,0
2096921,2096921,219770,583885,0
2096921,2096921,220250,584815,0
2096921,2096921,220195,585294,0
2096921,2096921,221471,587381,0
2096921,2096921,220143,587129,0
2096921,2096921,219519,585026,0
2096921,2096921,219261,584252,0
2096921,2096921,219211,584308,0
2096921,2096921,217565,582191,0
2096921,2096921,218988,582570,0
2096921,2096921,219946,584278,0
2096921,2096921,220301,585384,0
2096921,2096921,220706,585778,0
2096921,2096921,221711,587894,0
2096921,2096921,220161,587680,0
2096921,2096921,219793,585645,0
2096921,2096921,219548,585192,0
2096921,2096921,219587,585056,0
2096921,2096921,218149,583106,0
2096921,2096921,219457,583104,0
2096921,2096921,220354,584885,0
2096921,2096921,220778,585963,0
2096921,2096921,220955,586211,0
2096921,2096921,222138,588372,0
2096921,2096921,220875,588028,0
2096921,2096921,219928,586699,0
2096921,2096921,220018,585544,0
2096921,2096921,219904,585245,0
2096921,2096921,218401,583387,0
2096921,2096921,219622,583898,0
2096921,2096921,220536,585637,0
2096921,2096921,220901,586593,0
2096921,2096921,221179,586881,0
2096921,2096921,222276,589205,0
2096921,2096921,221133,588847,0
2096921,2096921,220367,586605,0
2096921,2096921,220354,586077,0
2096921,2096921,220024,585932,0
2096921,2096921,218858,584122,0
2096921,2096921,219991,584455,0
2096921,2096921,220978,586564,0
2096921,2096921,221537,587093,0
2096921,2096921,221156,587382,0
2096921,2096921,222651,589438,0
2096921,2096921,221574,589128,0
2096921,2096921,220673,586989,0
2096921,2096921,220195,586382,0
2096921,2096921,220346,586378,0
2096921,2096921,218903,584494,0
2096921,2096921,220273,584541,0
2096921,2096921,221192,586344,0
2096921,2096921,221635,587417,0
2096921,2096921,221499,587817,0
2096921,2096921,222621,590332,0
2096921,2096921,221556,589545,0
2096921,2096921,220774,587709,0
2096921,2096921,220675,587019,0
2096921,2096921,220505,587003,0
2096921,2096921,219194,585034,0
2096921,2096921,220454,585298,0
2096921,2096921,221595,587014,0
2096921,2096921,221957,587831,0
2096921,2096921,222022,588153,0
2096921,2096921,223476,590231,0
2096921,2096921,221992,590027,0
2096921,2096921,221335,588152,0
2096921,2096921,220766,587564,0
2096921,2096921,220945,587974,0
2096921,2096921,219534,585465,0
2096921,2096921,220755,585557,0
2096921,2096921,221645,587294,0
2096921,2096921,222322,588088,0
2096921,2096921,222497,588728,0
2096921,2096921,223531,590663,0
2096921,2096921,222520,590221,0
2096921,2096921,221378,588567,0
2096921,2096921,221281,587556,0
2096921,2096921,220960,587949,0
2096921,2096921,220094,586100,0
2096921,2096921,220982,586114,0
2096921,2096921,222136,588055,0
2096921,2096921,222569,588490,0
2096921,2096921,222336,589112,0
2096921,2096921,223509,591019,0
2096921,2096921,222510,590825,0
2096921,2096921,221328,588762,0
2096921,2096921,221769,587944,0
2096921,2096921,221331,588053,0
2096921,2096921,220260,586123,0
2096921,2096921,221162,586732,0
2096921,2096921,221962,588287,0
2096921,2096921,222671,589289,0
2096921,2096921,222814,589551,0
2096921,2096921,223907,591311,0
2096921,2096921,222190,591255,0
2096921,2096921,221782,589390,0
2096921,2096921,221805,588219,0
2096921,2096921,221446,588540,0
2096921,2096921,220606,586543,0
2096921,2096921,221603,586673,0
2096921,2096921,222531,588718,0
2096921,2096921,222648,589394,0
2096921,2096921,222718,589761,0
2096921,2096921,223772,591689,0
2096921,2096921,222805,591630,0
2096921,2096921,221795,590009,0
2096921,2096921,221962,589340,0
2096921,2096921,221660,589137,0
2096921,2096921,220961,587182,0
2096921,2096921,221695,587311,0
2096921,2096921,222526,589112,0
2096921,2096921,222935,589811,0
2096921,2096921,222879,590494,0
2096921,2096921,224058,592479,0
2096921,2096921,222927,591953,0
2096921,2096921,222598,590193,0
2096921,2096921,221874,589121,0
2096921,2096921,221710,589313,0
2096921,2096921,220686,587337,0
2096921,2096921,221745,587236,0
2096921,2096921,222896,589381,0
2096921,2096921,223304,589827,0
2096921,2096921,223317,590538,0
2096921,2096921,223970,592320,0
2096921,2096921,223089,592381,0
2096921,2096921,222377,590514,0
2096921,2096921,222265,589780,0
2096921,2096921,222239,589425,0
2096921,2096921,221138,587760,0
2096921,2096921,222283,587922,0
2096921,2096921,222996,589663,0
2096921,2096921,223384,590394,0
2096921,2096921,223095,590963,0
2096921,2096921,224179,592856,0
2096921,2096921,223377,592551,0
2096921,2096921,222574,590531,0
2096921,2096921,222000,589861,0
2096921,2096921,221776,589824,0
2096921,2096921,221254,587969,0
2096921,2096921,222145,588142,0
2096921,2096921,222773,589886,0
2096921,2096921,223186,590440,0
2096921,2096921,223206,591073,0
2096921,2096921,224436,592899,0
2096921,2096921,223246,592598,0
2096921,2096921,222551,590763,0
2096921,2096921,222384,590222,0
2096921,2096921,222164,589891,0
2096921,2096921,221467,588061,0
2096921,2096921,222390,588372,0
2096921,2096921,223083,590081,0
2096921,2096921,223643,591326,0
2096921,2096921,223779,591439,0
2096921,2096921,224591,593318,0
2096921,2096921,223507,593144,0
2096921,2096921,222838,591375,0
2096921,2096921,222411,590362,0
2096921,2096921,222518,590093,0
2096921,2096921,221591,588172,0
2096921,2096921,222495,588542,0
2096921,2096921,223281,590622,0
2096921,2096921,223518,591335,0
2096921,2096921,223751,591512,0
2096921,2096921,224560,593740,0
2096921,2096921,223528,593174,0
2096921,2096921,222685,591627,0
2096921,2096921,222956,590591,0
2096921,2096921,222682,590601,0
2096921,2096921,222004,588832,0
2096921,2096921,222624,588921,0
2096921,2096921,223639,590625,0
2096921,2096921,223963,591694,0
2096921,2096921,223759,591893,0
2096921,2096921,224546,593895,0
2096921,2096921,223793,593862,0
2096921,2096921,223264,591548,0
2096921,2096921,222812,590938,0
2096921,2096921,222324,590689,0
2096921,2096921,221809,589009,0
2096921,2096921,222515,589093,0
2096921,2096921,223938,590723,0
2096921,2096921,223878,591222,0
2096921,2096921,224190,591956,0
2096921,2096921,224969,593726,0
2096921,2096921,223968,593721,0
2096921,2096921,223271,591793,0
2096921,2096921,223102,591063,0
2096921,2096921,222859,591063,0
2096921,2096921,222222,589243,0
2096921,2096921,223077,589339,0
2096921,2096921,223659,591380,0
2096921,2096921,224083,592224,0
2096921,2096921,224185,592351,0
2096921,2096921,224800,594076,0
2096921,2096921,223769,594056,0
2096921,2096921,223391,592331,0
2096921,2096921,222901,591274,0
2096921,2096921,222609,591524,0
2096921,2096921,222344,589512,0
2096921,2096921,222655,589650,0
2096921,2096921,223776,591397,0
2096921,2096921,224079,591898,0
2096921,2096921,224221,592418,0
2096921,2096921,225079,594324,0
2096921,2096921,223909,594157,0
2096921,2096921,223565,592177,0
2096921,2096921,223098,591378,0
2096921,2096921,222914,591437,0
2096921,2096921,222167,589933,0
2096921,2096921,223043,589801,0
2096921,2096921,224164,591520,0
2096921,2096921,224395,592609,0
2096921,2096921,224036,592704,0
2096921,2096921,224742,594618,0
2096921,2096921,223868,594406,0
2096921,2096921,223325,592617,0
2096921,2096921,223084,591790,0
2096921,2096921,222707,591542,0
2096921,2096921,222319,589687,0
2096921,2096921,222819,589712,0
2096921,2096921,224138,591211,0
2096921,2096921,224288,592458,0
2096921,2096921,223850,592561,0
2096921,2096921,224745,594561,0
2096921,2096921,223894,594245,0
2096921,2096921,223675,592745,0
2096921,2096921,223197,591947,0
2096921,2096921,223104,591669,0
2096921,2096921,222409,589820,0
2096921,2096921,223375,589852,0
2096921,2096921,223985,591515,0
2096921,2096921,224379,592197,0
2096921,2096921,224314,592772,0
2096921,2096921,225083,594878,0
2096921,2096921,224188,594453,0
2096921,2096921,223251,593260,0
2096921,2096921,222952,592389,0
2096921,2096921,222962,591795,0
2096921,2096921,222832,590027,0
2096921,2096921,223253,590021,0
2096921,2096921,223717,591721,0
2096921,2096921,224181,592623,0
2096921,2096921,224705,592788,0
2096921,2096921,225050,595108,0
2096921,2096921,224361,594752,0
2096921,2096921,223421,593020,0
2096921,2096921,222813,592311,0
2096921,2096921,223060,591567,0
2096921,2096921,222373,589801,0
2096921,2096921,222999,590009,0
2096921,2096921,223763,591753,0
2096921,2096921,224260,592449,0
2096921,2096921,223993,592481,0
2096921,2096921,224759,594563,0
2096921,2096921,223855,594007,0
2096921,2096921,223630,592881,0
2096921,2096921,222756,591780,0
2096921,2096921,222500,591515,0
2096921,2096921,221771,589419,0
2096921,2096921,222550,589500,0
2096921,2096921,223319,591184,0
2096921,2096921,223393,591896,0
2096921,2096921,223320,592058,0
2096921,2096921,224129,593486,0
2096921,2096921,223413,593314,0
2096921,2096921,222952,591507,0
2096921,2096921,221958,590473,0
2096921,2096921,221564,590239,0
2096921,2096921,220901,588021,0
2096921,2096921,221414,588311,0
2096921,2096921,222407,589954,0
2096921,2096921,222207,590896,0
2096921,2096921,222180,590558,0
2096921,2096921,222718,591891,0
2096921,2096921,221906,591406,0
2096921,2096921,221364,589734,0
2096921,2096921,219964,588986,0
2096921,2096921,219478,587156,0
2096921,2096921,218985,585182,0
2096921,2096921,219953,585202,0
2096921,2096921,220618,586834,0
2096921,2096921,220020,587891,0
2096921,2096921,219893,587020,0
2096921,2096921,220724,588617,0
2096921,2096921,219567,587886,0
2096921,2096921,219212,586264,0
2096921,2096921,218191,585323,0
2096921,2096921,218015,584520,0
2096921,2096921,217402,582245,0
2096921,2096921,218301,582749,0
2096921,2096921,218999,584434,0
2096921,2096921,218836,585346,0
2096921,2096921,218570,584678,0
2096921,2096921,218863,586135,0
2096921,2096921,217798,585779,0
2096921,2096921,217498,584091,0
2096921,2096921,216889,583613,0
2096921,2096921,216862,583128,0
2096921,2096921,216244,580722,0
2096921,2096921,216745,580996,0
2096921,2096921,217695,582642,0
2096921,2096921,217523,583660,0
2096921,2096921,217831,583521,0
2096921,2096921,218257,585260,0
2096921,2096921,217704,584981,0
2096921,2096921,217026,583446,0
2096921,2096921,216433,582657,0
2096921,2096921,216172,582170,0
2096921,2096921,215944,580136,0
2096921,2096921,216588,580736,0
2096921,2096921,217172,582620,0
2096921,2096921,217534,583378,0
2096921,2096921,217604,583221,0
2096921,2096921,218344,584874,0
2096921,2096921,217274,584414,0
2096921,2096921,216878,582962,0
2096921,2096921,216467,582326,0
2096921,2096921,216667,582182,0
2096921,2096921,215876,580630,0
2096921,2096921,216713,580710,0
2096921,2096921,217493,582198,0
2096921,2096921,217736,582938,0
2096921,2096921,217889,583238,0
2096921,2096921,218318,585054,0
2096921,2096921,217601,584895,0
2096921,2096921,217213,582978,0
2096921,2096921,217020,582653,0
2096921,2096921,216707,582516,0
2096921,2096921,216176,580487,0
2096921,2096921,216611,581133,0
2096921,2096921,217450,582875,0
2096921,2096921,217786,583440,0
2096921,2096921,218397,583563,0
2096921,2096921,218582,585651,0
2096921,2096921,217627,585188,0
2096921,2096921,217130,583628,0
2096921,2096921,217129,582839,0
2096921,2096921,216779,582865,0
2096921,2096921,216443,580746,0
2096921,2096921,217349,581495,0
2096921,2096921,217714,583143,0
2096921,2096921,218388,583898,0
2096921,2096921,218067,584210,0
2096921,2096921,218807,585941,0
2096921,2096921,218152,585514,0
2096921,2096921,217570,584043,0
2096921,2096921,217486,583462,0
2096921,2096921,217313,583230,0
2096921,2096921,216824,581859,0
2096921,2096921,217608,582073,0
2096921,2096921,218204,583771,0
2096921,2096921,219070,584468,0
2096921,2096921,219116,584934,0
2096921,2096921,219520,586782,0
2096921,2096921,218704,586595,0
2096921,2096921,218067,584912,0
2096921,2096921,218034,584046,0
2096921,2096921,217604,584011,0
2096921,2096921,217215,582568,0
2096921,2096921,217656,582828,0
2096921,2096921,218678,584470,0
2096921,2096921,219223,585142,0
2096921,2096921,219182,585762,0
2096921,2096921,219814,587488,0
2096921,2096921,218820,587288,0
2096921,2096921,218525,585591,0
2096921,2096921,217968,584845,0
2096921,2096921,218059,584976,0
2096921,2096921,217595,583266,0
2096921,2096921,218147,583489,0
2096921,2096921,219239,585102,0
2096921,2096921,219974,585826,0
2096921,2096921,219767,586393,0
2096921,2096921,220413,588264,0
2096921,2096921,219530,588003,0
2096921,2096921,218883,586177,0
2096921,2096921,218860,585598,0
2096921,2096921,218540,585531,0
2096921,2096921,218239,584242,0
2096921,2096921,219072,584370,0
2096921,2096921,219879,585938,0
2096921,2096921,219973,586733,0
2096921,2096921,220307,587294,0
2096921,2096921,220609,589070,0
2096921,2096921,219833,588626,0
2096921,2096921,219222,586974,0
2096921,2096921,219198,586359,0
2096921,2096921,219039,586206,0
2096921,2096921,218448,584412,0
2096921,2096921,219173,585321,0
2096921,2096921,219837,587014,0
2096921,2096921,220733,587101,0
2096921,2096921,220637,587833,0
2096921,2096921,221272,589834,0
2096921,2096921,220553,589504,0
2096921,2096921,220138,587441,0
2096921,2096921,219880,587055,0
2096921,2096921,219632,586854,0
2096921,2096921,219090,585233,0
2096921,2096921,219931,585761,0
2096921,2096921,220470,587304,0
2096921,2096921,220760,588321,0
2096921,2096921,220938,588472,0
2096921,2096921,221631,590488,0
2096921,2096921,220861,590036,0
2096921,2096921,220018,588274,0
2096921,2096921,220153,587738,0
2096921,2096921,219901,587857,0
2096921,2096921,219444,585353,0
2096921,2096921,220143,586509,0
2096921,2096921,220920,587949,0
2096921,2096921,221103,588813,0
2096921,2096921,221420,588990,0
2096921,2096921,222030,590592,0
2096921,2096921,220955,590040,0
2096921,2096921,220265,588482,0
2096921,2096921,220387,588035,0
2096921,2096921,219859,588129,0
2096921,2096921,219719,585867,0
2096921,2096921,220178,586605,0
2096921,2096921,220836,588283,0
2096921,2096921,221482,588863,0
2096921,2096921,221540,588993,0
2096921,2096921,222025,591230,0
2096921,2096921,221228,590563,0
2096921,2096921,220481,588722,0
2096921,2096921,220178,588261,0
2096921,2096921,219827,587909,0
2096921,2096921,219622,586212,0
2096921,2096921,220064,586609,0
2096921,2096921,220956,588153,0
2096921,2096921,221227,588909,0
2096921,2096921,221314,589361,0
2096921,2096921,222167,590866,0
2096921,2096921,221124,590662,0
2096921,2096921,220724,588708,0
2096921,2096921,220285,588115,0
2096921,2096921,219232,587637,0
2096921,2096921,219397,585860,0
2096921,2096921,219916,586579,0
2096921,2096921,221160,588003,0
2096921,2096921,221235,588916,0
2096921,2096921,221513,588698,0
2096921,2096921,221873,590578,0
2096921,2096921,220643,590027,0
2096921,2096921,220297,588745,0
2096921,2096921,219723,588052,0
2096921,2096921,219372,587634,0
2096921,2096921,219434,585750,0
2096921,2096921,220044,586255,0
2096921,2096921,220792,587934,0
2096921,2096921,221136,588506,0
2096921,2096921,221226,588551,0
2096921,2096921,221604,589980,0
2096921,2096921,220689,589927,0
2096921,2096921,220092,588169,0
2096921,2096921,219814,587697,0
2096921,2096921,219211,587125,0
2096921,2096921,219386,585382,0
2096921,2096921,219848,586268,0
2096921,2096921,220743,587839,0
2096921,2096921,221055,588281,0
2096921,2096921,221085,588341,0
2096921,2096921,221583,590350,0
2096921,2096921,220879,589811,0
2096921,2096921,220035,588049,0
2096921,2096921,220015,587774,0
2096921,2096921,219343,587096,0
2096921,2096921,219276,585681,0
2096921,2096921,220153,586287,0
2096921,2096921,220937,587618,0
2096921,2096921,221236,588425,0
2096921,2096921,221335,588729,0
2096921,2096921,221496,590170,0
2096921,2096921,220872,589746,0
2096921,2096921,220276,588469,0
2096921,2096921,220079,587623,0
2096921,2096921,219315,587446,0
2096921,2096921,219436,585698,0
2096921,2096921,219958,586569,0
2096921,2096921,220986,588045,0
2096921,2096921,221234,588243,0
2096921,2096921,221478,588967,0
2096921,2096921,222099,590763,0
2096921,2096921,221001,590137,0
2096921,2096921,220375,588251,0
2096921,2096921,220415,588024,0
2096921,2096921,219489,587883,0
2096921,2096921,219700,586069,0
2096921,2096921,220376,586731,0
2096921,2096921,221008,588420,0
2096921,2096921,221251,589028,0
2096921,2096921,221877,589373,0
2096921,2096921,222143,591500,0
2096921,2096921,221514,590534,0
2096921,2096921,220485,589138,0
2096921,2096921,220526,588611,0
2096921,2096921,219939,588768,0
2096921,2096921,219833,586589,0
2096921,2096921,220697,587348,0
2096921,2096921,221532,588828,0
2096921,2096921,222000,589670,0
2096921,2096921,222299,589892,0
2096921,2096921,222680,591854,0
2096921,2096921,221850,591159,0
2096921,2096921,221132,589674,0
2096921,2096921,220936,589061,0
2096921,2096921,219988,589116,0
2096921,2096921,220342,587097,0
2096921,2096921,220750,587794,0
2096921,2096921,221737,589667,0
2096921,2096921,221876,589862,0
2096921,2096921,222422,590586,0
2096921,2096921,222520,592223,0
2096921,2096921,222112,591442,0
2096921,2096921,221517,590024,0
2096921,2096921,221462,589462,0
2096921,2096921,220182,589251,0
2096921,2096921,220672,587542,0
2096921,2096921,221119,588257,0
2096921,2096921,221961,589606,0
2096921,2096921,222458,590135,0
2096921,2096921,223130,590640,0
2096921,2096921,223163,592722,0
2096921,2096921,222092,591761,0
2096921,2096921,221578,590342,0
2096921,2096921,221306,589728,0
2096921,2096921,220165,589697,0
2096921,2096921,220705,587971,0
2096921,2096921,221328,588521,0
2096921,2096921,222297,589907,0
2096921,2096921,222994,590797,0
2096921,2096921,223356,591273,0
2096921,2096921,223720,592779,0
2096921,2096921,222706,591839,0
2096921,2096921,222083,590624,0
2096921,2096921,221485,590251,0
2096921,2096921,220522,590189,0
2096921,2096921,220794,588315,0
2096921,2096921,221795,588934,0
2096921,2096921,222321,590670,0
2096921,2096921,222775,591113,0
2096921,2096921,223592,591279,0
2096921,2096921,223615,593158,0
2096921,2096921,222783,592694,0
2096921,2096921,222099,590792,0
2096921,2096921,221883,590527,0
2096921,2096921,220833,590390,0
2096921,2096921,221004,588474,0
2096921,2096921,221558,589572,0
2096921,2096921,222961,590859,0
2096921,2096921,223157,591062,0
2096921,2096921,223857,591485,0
2096921,2096921,223838,593362,0
2096921,2096921,222786,592710,0
2096921,2096921,222086,591342,0
2096921,2096921,222205,590450,0
2096921,2096921,220768,590821,0
2096921,2096921,220997,589091,0
2096921,2096921,222275,589911,0
2096921,2096921,223233,591512,0
2096921,2096921,223663,591838,0
2096921,2096921,224562,592000,0
2096921,2096921,224279,594151,0
2096921,2096921,223112,593050,0
2096921,2096921,222347,591473,0
2096921,2096921,222304,591190,0
2096921,2096921,221430,590804,0
2096921,2096921,221315,589284,0
2096921,2096921,222371,590123,0
2096921,2096921,223323,591546,0
2096921,2096921,223865,592207,0
2096921,2096921,224510,592369,0
2096921,2096921,224398,594255,0
2096921,2096921,223693,593440,0
2096921,2096921,222840,591852,0
2096921,2096921,222780,591277,0
2096921,2096921,221252,591247,0
2096921,2096921,221481,589211,0
2096921,2096921,222534,590045,0
2096921,2096921,223100,591831,0
2096921,2096921,223536,592239,0
2096921,2096921,224829,592394,0
2096921,2096921,224730,594650,0
2096921,2096921,223956,593698,0
2096921,2096921,223349,592197,0
2096921,2096921,222999,591474,0
2096921,2096921,221154,591488,0
2096921,2096921,221527,589838,0
2096921,2096921,222684,590652,0
2096921,2096921,223362,592251,0
2096921,2096921,224038,592785,0
2096921,2096921,225201,592906,0
2096921,2096921,224924,594735,0
2096921,2096921,223646,593811,0
2096921,2096921,223448,592293,0
2096921,2096921,223239,591966,0
2096921,2096921,221437,592011,0
2096921,2096921,221769,589956,0
2096921,2096921,222915,590769,0
2096921,2096921,223743,592595,0
2096921,2096921,223971,592808,0
2096921,2096921,225144,592995,0
2096921,2096921,225136,594819,0
2096921,2096921,224194,594280,0
2096921,2096921,223573,592551,0
2096921,2096921,223104,592332,0
2096921,2096921,221715,591992,0
2096921,2096921,221797,590247,0
2096921,2096921,222929,591023,0
2096921,2096921,223760,592446,0
2096921,2096921,224252,593094,0
2096921,2096921,225302,593370,0
2096921,2096921,224935,595485,0
2096921,2096921,224039,594324,0
2096921,2096921,223179,592569,0
2096921,2096921,223041,591974,0
2096921,2096921,221625,591865,0
2096921,2096921,221824,590150,0
2096921,2096921,222802,590979,0
2096921,2096921,224237,592633,0
2096921,2096921,224438,593119,0
2096921,2096921,225594,593611,0
2096921,2096921,225492,595388,0
2096921,2096921,224324,594303,0
2096921,2096921,223454,592764,0
2096921,2096921,223305,592616,0
2096921,2096921,221926,592117,0
2096921,2096921,222404,590562,0
2096921,2096921,223292,591273,0
2096921,2096921,224212,592836,0
2096921,2096921,224262,593480,0
2096921,2096921,225678,593559,0
2096921,2096921,225307,595472,0
2096921,2096921,224126,594662,0
2096921,2096921,223550,592739,0
2096921,2096921,223064,592365,0
2096921,2096921,221723,592368,0
2096921,2096921,222039,590390,0
2096921,2096921,223111,591396,0
2096921,2096921,224204,592735,0
2096921,2096921,224420,593413,0
2096921,2096921,225658,593445,0
2096921,2096921,225444,595581,0
2096921,2096921,224354,594449,0
2096921,2096921,223621,593018,0
2096921,2096921,223691,592436,0
2096921,2096921,221729,592559,0
2096921,2096921,222298,590394,0
2096921,2096921,223124,591519,0
2096921,2096921,224139,593068,0
2096921,2096921,224583,593667,0
2096921,2096921,225789,593644,0
2096921,2096921,225384,595659,0
2096921,2096921,224321,594582,0
2096921,2096921,223635,593049,0
2096921,2096921,223471,592648,0
2096921,2096921,221976,592350,0
2096921,2096921,222460,590897,0
2096921,2096921,223536,591889,0
2096921,2096921,224257,593392,0
2096921,2096921,224104,593682,0
2096921,2096921,225645,593784,0
2096921,2096921,225528,595421,0
2096921,2096921,224137,594400,0
2096921,2096921,223494,593163,0
2096921,2096921,223689,592772,0
2096921,2096921,222108,592746,0
2096921,2096921,222088,590852,0
2096921,2096921,223196,592023,0
2096921,2096921,224095,593113,0
2096921,2096921,224804,593541,0
2096921,2096921,226279,594003,0
2096921,2096921,225747,595720,0
2096921,2096921,224380,594717,0
2096921,2096921,223595,593495,0
2096921,2096921,223513,593003,0
2096921,2096921,221846,592555,0
2096921,2096921,222625,590611,0
2096921,2096921,223401,591772,0
2096921,2096921,224182,593211,0
2096921,2096921,224659,593588,0
2096921,2096921,226164,593795,0
2096921,2096921,225717,595929,0
2096921,2096921,224639,595022,0
2096921,2096921,223846,593143,0
2096921,2096921,223298,592542,0
2096921,2096921,221533,592368,0
2096921,2096921,222358,590581,0
2096921,2096921,223386,591827,0
2096921,2096921,224283,593389,0
2096921,2096921,224679,593958,0
2096921,2096921,225863,594057,0
2096921,2096921,225880,595605,0
2096921,2096921,224617,594562,0
2096921,2096921,223780,593311,0
2096921,2096921,223640,592533,0
2096921,2096921,221724,592707,0
2096921,2096921,222150,590748,0
2096921,2096921,223409,591790,0
2096921,2096921,224119,593152,0
2096921,2096921,224665,593702,0
2096921,2096921,225698,593651,0
2096921,2096921,225915,595453,0
2096921,2096921,224175,594481,0
2096921,2096921,223757,592824,0
2096921,2096921,223642,592811,0
2096921,2096921,221664,592369,0
2096921,2096921,222568,590309,0
2096921,2096921,223518,591938,0
2096921,2096921,224274,593388,0
2096921,2096921,224126,593713,0
2096921,2096921,225894,593889,0
2096921,2096921,225746,595459,0
2096921,2096921,224627,594213,0
2096921,2096921,223850,592988,0
2096921,2096921,223845,592262,0
2096921,2096921,221479,592560,0
2096921,2096921,222193,590135,0
2096921,2096921,223555,591655,0
2096921,2096921,224481,593069,0
2096921,2096921,224538,593989,0
2096921,2096921,226044,593622,0
2096921,2096921,225775,595393,0
2096921,2096921,224536,594498,0
2096921,2096921,223547,592738,0
2096921,2096921,223641,592343,0
2096921,2096921,221268,592190,0
2096921,2096921,222039,590106,0
2096921,2096921,223202,591610,0
2096921,2096921,224270,593147,0
2096921,2096921,224557,593497,0
2096921,2096921,226076,593916,0
2096921,2096921,225285,595887,0
2096921,2096921,224339,594472,0
2096921,2096921,223670,593068,0
2096921,2096921,223437,592650,0
2096921,2096921,221533,592172,0
2096921,2096921,222012,590277,0
2096921,2096921,223250,591375,0
2096921,2096921,223964,592929,0
2096921,2096921,224646,593295,0
2096921,2096921,226176,593160,0
2096921,2096921,225877,595282,0
2096921,2096921,224368,594100,0
2096921,2096921,223690,592790,0
2096921,2096921,223001,592273,0
2096921,2096921,221137,592008,0
2096921,2096921,221788,590051,0
2096921,2096921,223027,591331,0
2096921,2096921,224039,592637,0
2096921,2096921,224277,593002,0
2096921,2096921,225651,592765,0
2096921,2096921,225120,594459,0
2096921,2096921,224099,593173,0
2096921,2096921,223277,592271,0
2096921,2096921,222875,591753,0
2096921,2096921,220667,590877,0
2096921,2096921,221101,588970,0
2096921,2096921,222559,590393,0
2096921,2096921,223686,591802,0
2096921,2096921,223540,591926,0
2096921,2096921,224907,591878,0
2096921,2096921,224343,593377,0
2096921,2096921,223221,592087,0
2096921,2096921,222426,590761,0
2096921,2096921,221730,590245,0
2096921,2096921,219603,589697,0
2096921,2096921,220394,587582,0
2096921,2096921,221818,589145,0
2096921,2096921,222599,590062,0
2096921,2096921,222213,590678,0
2096921,2096921,223670,589811,0
2096921,2096921,223138,591071,0
2096921,2096921,221565,589722,0
2096921,2096921,221369,588605,0
2096921,2096921,219793,588204,0
2096921,2096921,217635,586686,0
2096921,2096921,218248,583986,0
2096921,2096921,219341,585551,0
2096921,2096921,220300,586980,0
2096921,2096921,219992,587510,0
2096921,2096921,221199,586343,0
2096921,2096921,221371,587839,0
2096921,2096921,219314,586143,0
2096921,2096921,218697,585238,0
2096921,2096921,217922,584761,0
2096921,2096921,215780,583370,0
2096921,2096921,216257,581533,0
2096921,2096921,217809,582857,0
2096921,2096921,218555,584243,0
2096921,2096921,218163,584196,0
2096921,2096921,220106,583794,0
2096921,2096921,219167,585431,0
2096921,2096921,218042,584333,0
2096921,2096921,217610,582822,0
2096921,2096921,217018,582459,0
2096921,2096921,214626,581781,0
2096921,2096921,215409,579691,0
2096921,2096921,216391,581177,0
2096921,2096921,217325,582650,0
2096921,2096921,217472,582878,0
2096921,2096921,219070,582684,0
2096921,2096921,219176,584567,0
2096921,2096921,217328,583284,0
2096921,2096921,216545,581718,0
2096921,2096921,216450,581421,0
2096921,2096921,214162,581087,0
2096921,2096921,214936,579013,0
2096921,2096921,216246,580546,0
2096921,2096921,216989,581749,0
2096921,2096921,217275,582161,0
2096921,2096921,218816,581971,0
2096921,2096921,218580,583850,0
2096921,2096921,217011,582433,0
2096921,2096921,216357,581153,0
2096921,2096921,216083,580924,0
2096921,2096921,213977,580717,0
2096921,2096921,214463,578745,0
2096921,2096921,215715,579801,0
2096921,2096921,216780,581730,0
2096921,2096921,216861,582012,0
2096921,2096921,219203,582243,0
2096921,2096921,218452,583948,0
2096921,2096921,217178,582496,0
2096921,2096921,216485,581370,0
2096921,2096921,216219,580734,0
2096921,2096921,213644,580520,0
2096921,2096921,214755,578573,0
2096921,2096921,215997,580259,0
2096921,2096921,216981,581532,0
2096921,2096921,217157,581696,0
2096921,2096921,219239,581969,0
2096921,2096921,219005,584138,0
2096921,2096921,217270,582643,0
2096921,2096921,216288,581451,0
2096921,2096921,216144,580779,0
2096921,2096921,214136,581226,0
2096921,2096921,214915,579250,0
2096921,2096921,216210,580356,0
2096921,2096921,217262,581527,0
2096921,2096921,217370,582366,0
2096921,2096921,219408,582302,0
2096921,2096921,219067,584354,0
2096921,2096921,217268,583038,0
2096921,2096921,217059,581298,0
2096921,2096921,216616,581302,0
2096921,2096921,214351,581620,0
2096921,2096921,215182,579453,0
2096921,2096921,216616,580863,0
2096921,2096921,217349,582013,0
2096921,2096921,217885,582696,0
2096921,2096921,219734,582991,0
2096921,2096921,219435,584801,0
2096921,2096921,218294,583205,0
2096921,2096921,217203,582026,0
2096921,2096921,217193,581861,0
2096921,2096921,214552,581855,0
2096921,2096921,215313,579662,0
2096921,2096921,216916,581425,0
2096921,2096921,217720,582776,0
2096921,2096921,218232,583317,0
2096921,2096921,220129,583184,0
2096921,2096921,219554,585267,0
2096921,2096921,218277,583910,0
2096921,2096921,217606,582523,0
2096921,2096921,217261,582322,0
2096921,2096921,215440,582232,0
2096921,2096921,215801,580342,0
2096921,2096921,217594,582050,0
2096921,2096921,218235,583262,0
2096921,2096921,218769,583583,0
2096921,2096921,220585,583833,0
2096921,2096921,220405,586001,0
2096921,2096921,218739,584240,0
2096921,2096921,218164,583255,0
2096921,2096921,217754,583175,0
2096921,2096921,215457,582886,0
2096921,2096921,216389,580885,0
2096921,2096921,217640,582416,0
2096921,2096921,218321,583838,0
2096921,2096921,218873,583998,0
2096921,2096921,221032,584536,0
2096921,2096921,220541,586578,0
2096921,2096921,219189,584990,0
2096921,2096921,218367,583914,0
2096921,2096921,218339,583593,0
2096921,2096921,216007,583480,0
2096921,2096921,216407,581391,0
2096921,2096921,217948,582960,0
2096921,2096921,218961,584427,0
2096921,2096921,219393,584639,0
2096921,2096921,221145,584837,0
2096921,2096921,221031,586839,0
2096921,2096921,219629,585434,0
2096921,2096921,218585,583947,0
2096921,2096921,218695,583870,0
2096921,2096921,216397,583850,0
2096921,2096921,216883,581660,0
2096921,2096921,218363,583493,0
2096921,2096921,219506,585044,0
2096921,2096921,219689,585039,0
2096921,2096921,221796,585407,0
2096921,2096921,221246,587193,0
2096921,2096921,219649,585897,0
2096921,2096921,218994,584593,0
2096921,2096921,218863,584275,0
2096921,2096921,216879,584269,0
2096921,2096921,217231,582434,0
2096921,2096921,218920,583873,0
2096921,2096921,219653,585035,0
2096921,2096921,219857,585438,0
2096921,2096921,221798,585763,0
2096921,2096921,221619,587531,0
2096921,2096921,219786,585886,0
2096921,2096921,219050,584882,0
2096921,2096921,218998,584558,0
2096921,2096921,216670,584272,0
2096921,2096921,217220,582484,0
2096921,2096921,219005,583859,0
2096921,2096921,219629,585324,0
2096921,2096921,220061,585510,0
2096921,2096921,222117,585723,0
2096921,2096921,221830,587884,0
2096921,2096921,219925,586120,0
2096921,2096921,219283,584574,0
2096921,2096921,218812,584414,0
2096921,2096921,216323,584070,0
2096921,2096921,216917,582170,0
2096921,2096921,218649,584146,0
2096921,2096921,219657,585540,0
2096921,2096921,219833,585474,0
2096921,2096921,221720,585433,0
2096921,2096921,221892,587429,0
2096921,2096921,219851,585401,0
2096921,2096921,219044,584448,0
2096921,2096921,218815,584127,0
2096921,2096921,216037,584104,0
2096921,2096921,216949,581950,0
2096921,2096921,218462,583592,0
2096921,2096921,219556,584959,0
2096921,2096921,219659,585220,0
2096921,2096921,221848,585333,0
2096921,2096921,221377,587398,0
2096921,2096921,219679,585533,0
2096921,2096921,218781,584284,0
2096921,2096921,218495,584127,0
2096921,2096921,215729,583465,0
2096921,2096921,216549,581714,0
2096921,2096921,218679,583290,0
2096921,2096921,219501,584593,0
2096921,2096921,219592,584787,0
2096921,2096921,221631,584737,0
2096921,2096921,221408,586546,0
2096921,2096921,219477,584962,0
2096921,2096921,218731,583785,0
2096921,2096921,218319,583599,0
2096921,2096921,216046,583164,0
2096921,2096921,216705,581260,0
2096921,2096921,218060,583004,0
2096921,2096921,219242,584258,0
2096921,2096921,219486,584101,0
2096921,2096921,221631,584562,0
2096921,2096921,221272,586566,0
2096921,2096921,219248,584905,0
2096921,2096921,218614,583807,0
2096921,2096921,218605,583476,0
2096921,2096921,216126,583102,0
2096921,2096921,216645,581465,0
2096921,2096921,218419,582875,0
2096921,2096921,219154,584241,0
2096921,2096921,219287,584334,0
2096921,2096921,221477,584359,0
2096921,2096921,221080,586439,0
2096921,2096921,219378,584557,0
2096921,2096921,218737,583700,0
2096921,2096921,218386,583312,0
2096921,2096921,216186,583211,0
2096921,2096921,216541,581260,0
2096921,2096921,218492,582833,0
2096921,2096921,219298,584242,0
2096921,2096921,219713,584525,0
2096921,2096921,221834,584702,0
2096921,2096921,221136,586627,0
2096921,2096921,219709,585061,0
2096921,2096921,218926,583790,0
2096921,2096921,218709,583789,0
2096921,2096921,216404,583567,0
2096921,2096921,217041,581718,0
2096921,2096921,218396,583355,0
2096921,2096921,219572,584512,0
2096921,2096921,220048,584789,0
2096921,2096921,222257,584989,0
2096921,2096921,222147,586726,0
2096921,2096921,219872,585148,0
2096921,2096921,218890,583784,0
2096921,2096921,218787,584032,0
2096921,2096921,216366,583957,0
2096921,2096921,217198,582070,0
2096921,2096921,218966,583466,0
2096921,2096921,219820,584604,0
2096921,2096921,220305,584883,0
2096921,2096921,222305,585060,0
2096921,2096921,221843,586965,0
2096921,2096921,219839,585576,0
2096921,2096921,219018,584194,0
2096921,2096921,219041,584144,0
2096921,2096921,216803,583844,0
2096921,2096921,217260,582238,0
2096921,2096921,219172,583375,0
2096921,2096921,220114,585145,0
2096921,2096921,220246,585290,0
2096921,2096921,222783,585558,0
2096921,2096921,222274,587715,0
2096921,2096921,220397,586168,0
2096921,2096921,219554,584838,0
2096921,2096921,219307,584627,0
2096921,2096921,217201,584665,0
2096921,2096921,217359,582497,0
2096921,2096921,219248,584114,0
2096921,2096921,220179,585604,0
2096921,2096921,220518,585714,0
2096921,2096921,223037,585906,0
2096921,2096921,222356,587741,0
2096921,2096921,220489,585970,0
2096921,2096921,219632,584926,0
2096921,2096921,219284,584437,0
2096921,2096921,217073,584585,0
2096921,2096921,217559,582646,0
2096921,2096921,219819,584649,0
2096921,2096921,220303,585171,0
2096921,2096921,220906,585694,0
2096921,2096921,223228,586170,0
2096921,2096921,222686,588103,0
2096921,2096921,220748,586201,0
2096921,2096921,219819,585355,0
2096921,2096921,219727,585203,0
2096921,2096921,217346,584993,0
2096921,2096921,217800,583308,0
2096921,2096921,219538,584774,0
2096921,2096921,220749,585562,0
2096921,2096921,220711,585911,0
2096921,2096921,223302,586284,0
2096921,2096921,222892,588055,0
2096921,2096921,220936,586312,0
2096921,2096921,219722,585582,0
2096921,2096921,219737,585128,0
2096921,2096921,217859,585161,0
2096921,2096921,218012,582929,0
2096921,2096921,219910,584856,0
2096921,2096921,220603,586201,0
2096921,2096921,220869,586177,0
2096921,2096921,223299,586386,0
2096921,2096921,222976,588460,0
2096921,2096921,220759,586623,0
2096921,2096921,220226,585749,0
2096921,2096921,219967,585559,0
2096921,2096921,217971,585094,0
2096921,2096921,218138,583337,0
2096921,2096921,219990,585218,0
2096921,2096921,221019,586412,0
2096921,2096921,221484,586784,0
2096921,2096921,223590,586878,0
2096921,2096921,223455,588878,0
2096921,2096921,221134,586996,0
2096921,2096921,220455,585890,0
2096921,2096921,220148,585653,0
2096921,2096921,218030,585482,0
2096921,2096921,218317,583829,0
2096921,2096921,220000,585374,0
2096921,2096921,221063,586520,0
2096921,2096921,221194,586836,0
2096921,2096921,223552,587279,0
2096921,2096921,223358,588786,0
2096921,2096921,221583,587163,0
2096921,2096921,220358,585987,0
2096921,2096921,220559,585774,0
2096921,2096921,218389,585465,0
2096921,2096921,218346,584115,0
2096921,2096921,220168,585504,0
2096921,2096921,221156,586786,0
2096921,2096921,221363,587064,0
2096921,2096921,224057,587329,0
2096921,2096921,223320,588912,0
2096921,2096921,221575,587148,0
2096921,2096921,220845,586178,0
2096921,2096921,220746,586005,0
2096921,2096921,218401,585879,0
2096921,2096921,218705,584578,0
2096921,2096921,220738,586037,0
2096921,2096921,221496,586743,0
2096921,2096921,221631,587169,0
2096921,2096921,223720,587530,0
2096921,2096921,223527,589222,0
2096921,2096921,221428,587582,0
2096921,2096921,220861,586668,0
2096921,2096921,220716,586408,0
2096921,2096921,218639,586086,0
2096921,2096921,218978,584265,0
2096921,2096921,220663,585867,0
2096921,2096921,221486,587076,0
2096921,2096921,222034,587379,0
2096921,2096921,224316,587582,0
2096921,2096921,223973,589172,0
2096921,2096921,222233,587641,0
2096921,2096921,220747,586981,0
2096921,2096921,220849,586585,0
2096921,2096921,218547,586443,0
2096921,2096921,219043,584998,0
2096921,2096921,220723,586187,0
2096921,2096921,221536,587158,0
2096921,2096921,221953,587595,0
2096921,2096921,224171,587589,0
2096921,2096921,224061,589101,0
2096921,2096921,221876,587689,0
2096921,2096921,221053,586663,0
2096921,2096921,220532,586530,0
2096921,2096921,219003,586280,0
2096921,2096921,219037,584887,0
2096921,2096921,220899,586120,0
2096921,2096921,222061,587308,0
2096921,2096921,222081,587442,0
2096921,2096921,224479,587897,0
2096921,2096921,223998,589643,0
2096921,2096921,221841,587777,0
2096921,2096921,221439,587115,0
2096921,2096921,221305,586679,0
2096921,2096921,218908,586367,0
2096921,2096921,219009,585282,0
2096921,2096921,221188,586265,0
2096921,2096921,221723,587603,0
2096921,2096921,222232,587920,0
2096921,2096921,224316,587861,0
2096921,2096921,223730,589785,0
2096921,2096921,222113,588011,0
2096921,2096921,221238,586896,0
2096921,2096921,221131,586672,0
2096921,2096921,219068,586785,0
2096921,2096921,219139,585105,0
2096921,2096921,220902,586759,0
2096921,2096921,221805,587326,0
2096921,2096921,222081,587825,0
2096921,2096921,224407,588084,0
2096921,2096921,224466,589631,0
2096921,2096921,222171,588011,0
2096921,2096921,221391,586875,0
2096921,2096921,221075,586773,0
2096921,2096921,219093,586510,0
2096921,2096921,219533,585375,0
2096921,2096921,221058,586647,0
2096921,2096921,221936,587776,0
2096921,2096921,222748,587963,0
2096921,2096921,224855,587979,0
2096921,2096921,224263,589385,0
2096921,2096921,222165,587850,0
2096921,2096921,221370,586979,0
2096921,2096921,221357,586893,0
2096921,2096921,218976,586691,0
2096921,2096921,219111,585471,0
2096921,2096921,220859,586502,0
2096921,2096921,221966,587780,0
2096921,2096921,222299,588025,0
2096921,2096921,224520,588175,0
2096921,2096921,224198,589449,0
2096921,2096921,222529,588197,0
2096921,2096921,221554,587602,0
2096921,2096921,221444,586854,0
2096921,2096921,219524,586963,0
2096921,2096921,219680,585809,0
2096921,2096921,221348,586896,0
2096921,2096921,222194,587794,0
2096921,2096921,222614,587993,0
2096921,2096921,224380,588421,0
2096921,2096921,224134,589898,0
2096921,2096921,222246,588095,0
2096921,2096921,221477,587472,0
2096921,2096921,221355,587312,0
2096921,2096921,219043,586973,0
2096921,2096921,219427,585951,0
2096921,2096921,221113,586691,0
2096921,2096921,222184,587950,0
2096921,2096921,222700,588192,0
2096921,2096921,224412,588264,0
2096921,2096921,224321,589473,0
2096921,2096921,222284,588293,0
2096921,2096921,221501,587129,0
2096921,2096921,221466,587096,0
2096921,2096921,219233,587096,0
2096921,2096921,219777,586022,0
2096921,2096921,221185,587029,0
2096921,2096921,222132,587958,0
2096921,2096921,222546,588220,0
2096921,2096921,224272,588173,0
2096921,2096921,224226,589564,0
2096921,2096921,222365,588338,0
2096921,2096921,221733,587553,0
2096921,2096921,221734,587179,0
2096921,2096921,219349,587238,0
2096921,2096921,219727,585974,0
2096921,2096921,221740,587311,0
2096921,2096921,222227,587897,0
2096921,2096921,222791,588492,0
2096921,2096921,224676,588541,0
2096921,2096921,224559,589856,0
2096921,2096921,222473,588363,0
2096921,2096921,221624,587572,0
2096921,2096921,221301,587275,0
2096921,2096921,219226,587047,0
2096921,2096921,219700,586024,0
2096921,2096921,221361,587317,0
2096921,2096921,222353,588071,0
2096921,2096921,222400,588363,0
2096921,2096921,224682,588301,0
2096921,2096921,224274,589404,0
2096921,2096921,222332,588386,0
2096921,2096921,221584,587579,0
2096921,2096921,221578,587406,0
2096921,2096921,219529,587097,0
2096921,2096921,219886,586124,0
2096921,2096921,221526,587271,0
2096921,2096921,222623,588297,0
2096921,2096921,222599,588440,0
2096921,2096921,224639,588590,0
2096921,2096921,224316,589494,0
2096921,2096921,222470,588381,0
2096921,2096921,222149,587573,0
2096921,2096921,221368,587374,0
2096921,2096921,219575,587342,0
2096921,2096921,219714,586282,0
2096921,2096921,221771,587229,0
2096921,2096921,222669,588106,0
2096921,2096921,222740,588259,0
2096921,2096921,224595,588441,0
2096921,2096921,224581,589271,0
2096921,2096921,222345,588014,0
2096921,2096921,221388,587476,0
2096921,2096921,221454,587400,0
2096921,2096921,219710,587088,0
2096921,2096921,219639,586314,0
2096921,2096921,221122,587096,0
2096921,2096921,222224,587834,0
2096921,2096921,222617,588489,0
2096921,2096921,224869,588543,0
2096921,2096921,224248,589480,0
2096921,2096921,222507,588107,0
2096921,2096921,221563,587651,0
2096921,2096921,221433,587295,0
2096921,2096921,219493,586901,0
2096921,2096921,219467,586030,0
2096921,2096921,221216,586978,0
2096921,2096921,222242,587860,0
2096921,2096921,222489,588161,0
2096921,2096921,224452,588097,0
2096921,2096921,224153,588953,0
2096921,2096921,222273,588154,0
2096921,2096921,221513,587077,0
2096921,2096921,220966,586910,0
2096921,2096921,219016,586306,0
2096921,2096921,218966,585539,0
2096921,2096921,220786,586119,0
2096921,2096921,221620,587308,0
2096921,2096921,221894,587412,0
2096921,2096921,223661,587016,0
2096921,2096921,223369,587773,0
2096921,2096921,221420,586938,0
2096921,2096921,220428,585904,0
2096921,2096921,219956,585740,0
2096921,2096921,218058,584921,0
2096921,2096921,218462,584025,0
2096921,2096921,220015,584859,0
2096921,2096921,220865,585889,0
2096921,2096921,220380,586123,0
2096921,2096921,222196,585327,0
2096921,2096921,222021,586097,0
2096921,2096921,220226,584692,0
2096921,2096921,219348,584146,0
2096921,2096921,217695,583650,0
2096921,2096921,215845,582139,0
2096921,2096921,216186,581145,0
2096921,2096921,217524,582118,0
2096921,2096921,218704,582728,0
2096921,2096921,218046,582925,0
2096921,2096921,219994,581901,0
2096921,2096921,219780,582484,0
2096921,2096921,217787,581336,0
2096921,2096921,216857,580735,0
2096921,2096921,216025,580654,0
2096921,2096921,214159,579365,0
2096921,2096921,214478,578374,0
2096921,2096921,216175,578842,0
2096921,2096921,217104,579912,0
2096921,2096921,216727,580332,0
2096921,2096921,218423,579708,0
2096921,2096921,218463,580418,0
2096921,2096921,215894,579310,0
2096921,2096921,215431,578553,0
2096921,2096921,215114,578090,0
2096921,2096921,213199,577415,0
2096921,2096921,213142,576669,0
2096921,2096921,215010,577759,0
2096921,2096921,216067,578431,0
2096921,2096921,216100,578840,0
2096921,2096921,218010,578580,0
2096921,2096921,217442,579302,0
2096921,2096921,215713,577941,0
2096921,2096921,215083,577398,0
2096921,2096921,214591,576905,0
2096921,2096921,212505,576858,0
2096921,2096921,213115,576249,0
2096921,2096921,214797,576985,0
2096921,2096921,215302,577810,0
2096921,2096921,215745,578194,0
2096921,2096921,217288,578425,0
2096921,2096921,217369,579018,0
2096921,2096921,215351,577886,0
2096921,2096921,214761,577047,0
2096921,2096921,214536,576696,0
2096921,2096921,212227,576699,0
2096921,2096921,212754,576174,0
2096921,2096921,214573,576886,0
2096921,2096921,215181,577703,0
2096921,2096921,215647,578132,0
2096921,2096921,217660,578357,0
2096921,2096921,217224,578930,0
2096921,2096921,215743,578064,0
2096921,2096921,214821,577081,0
2096921,2096921,214873,577199,0
2096921,2096921,212911,576913,0
2096921,2096921,213014,576435,0
2096921,2096921,214614,577041,0
2096921,2096921,215365,577827,0
2096921,2096921,215426,578473,0
2096921,2096921,217802,578374,0
2096921,2096921,217428,578948,0
2096921,2096921,215694,578132,0
2096921,2096921,214981,577565,0
2096921,2096921,214631,577032,0
2096921,2096921,212866,577023,0
2096921,2096921,213239,576345,0
2096921,2096921,214924,577256,0
2096921,2096921,215961,578149,0
2096921,2096921,216192,578227,0
2096921,2096921,217946,578712,0
2096921,2096921,217628,579692,0
2096921,2096921,216073,578800,0
2096921,2096921,215389,577706,0
2096921,2096921,215247,577625,0
2096921,2096921,213626,577928,0
2096921,2096921,213881,577528,0
2096921,2096921,215424,578220,0
2096921,2096921,216190,579258,0
2096921,2096921,216599,579394,0
2096921,2096921,218707,579419,0
2096921,2096921,218384,580135,0
2096921,2096921,216557,579237,0
2096921,2096921,215863,578617,0
2096921,2096921,215593,578772,0
2096921,2096921,213880,578511,0
2096921,2096921,214129,578233,0
2096921,2096921,215792,578514,0
2096921,2096921,216606,579444,0
2096921,2096921,216961,579740,0
2096921,2096921,218856,580197,0
2096921,2096921,218539,581102,0
2096921,2096921,216741,579913,0
2096921,2096921,216097,579443,0
2096921,2096921,215889,579293,0
2096921,2096921,214264,579266,0
2096921,2096921,214533,578670,0
2096921,2096921,216647,579316,0
2096921,2096921,217188,580408,0
2096921,2096921,217718,580753,0
2096921,2096921,219489,581031,0
2096921,2096921,219331,581466,0
2096921,2096921,217573,580508,0
2096921,2096921,216745,580195,0
2096921,2096921,216730,579747,0
2096921,2096921,215052,579618,0
2096921,2096921,215269,579556,0
2096921,2096921,216468,580449,0
2096921,2096921,217551,580842,0
2096921,2096921,217796,581442,0
2096921,2096921,220012,581522,0
2096921,2096921,219846,582278,0
2096921,2096921,217983,581363,0
2096921,2096921,216953,580597,0
2096921,2096921,216962,580575,0
2096921,2096921,215437,580613,0
2096921,2096921,215700,580128,0
2096921,2096921,217469,581171,0
2096921,2096921,217935,581731,0
2096921,2096921,218466,582263,0
2096921,2096921,220425,582309,0
2096921,2096921,220085,582869,0
2096921,2096921,218258,581972,0
2096921,2096921,217666,581730,0
2096921,2096921,217335,581631,0
2096921,2096921,215940,581320,0
2096921,2096921,216127,580663,0
2096921,2096921,217588,581672,0
2096921,2096921,218531,582399,0
2096921,2096921,218639,582761,0
2096921,2096921,220519,583122,0
2096921,2096921,220062,583613,0
2096921,2096921,218607,582719,0
2096921,2096921,218014,581721,0
2096921,2096921,217868,582050,0
2096921,2096921,215961,582119,0
2096921,2096921,216330,581699,0
2096921,2096921,217920,581800,0
2096921,2096921,218930,583009,0
2096921,2096921,219343,583276,0
2096921,2096921,221207,583404,0
2096921,2096921,220527,584098,0
2096921,2096921,219079,583097,0
2096921,2096921,218455,582425,0
2096921,2096921,218459,582270,0
2096921,2096921,216384,582328,0
2096921,2096921,216478,582038,0
2096921,2096921,218479,582659,0
2096921,2096921,219152,583040,0
2096921,2096921,219328,583614,0
2096921,2096921,220999,583790,0
2096921,2096921,220757,584174,0
2096921,2096921,218993,583544,0
2096921,2096921,218284,582975,0
2096921,2096921,218203,582485,0
2096921,2096921,216200,582129,0
2096921,2096921,216702,581737,0
2096921,2096921,218026,582501,0
2096921,2096921,218957,583447,0
2096921,2096921,219210,583541,0
2096921,2096921,220928,583839,0
2096921,2096921,220721,584302,0
2096921,2096921,219157,583367,0
2096921,2096921,218290,582882,0
2096921,2096921,218192,582600,0
2096921,2096921,216365,582150,0
2096921,2096921,216694,581909,0
2096921,2096921,218291,582565,0
2096921,2096921,218798,583061,0
2096921,2096921,219265,583804,0
2096921,2096921,220797,583795,0
2096921,2096921,220454,584094,0
2096921,2096921,218793,583098,0
2096921,2096921,218077,582522,0
2096921,2096921,217916,582500,0
2096921,2096921,216145,582150,0
2096921,2096921,216305,581553,0
2096921,2096921,218400,582418,0
2096921,2096921,218827,582893,0
2096921,2096921,219092,583239,0
2096921,2096921,220673,583585,0
2096921,2096921,220350,584095,0
2096921,2096921,218510,583099,0
2096921,2096921,218122,582341,0
2096921,2096921,217799,582180,0
2096921,2096921,216247,581948,0
2096921,2096921,216506,581738,0
2096921,2096921,218049,582248,0
2096921,2096921,218741,583206,0
2096921,2096921,219046,583401,0
2096921,2096921,220894,583444,0
2096921,2096921,220652,584108,0
2096921,2096921,218874,583088,0
2096921,2096921,218190,582592,0
2096921,2096921,218071,582285,0
2096921,2096921,216305,582036,0
2096921,2096921,216567,581707,0
2096921,2096921,218255,582289,0
2096921,2096921,218911,583065,0
2096921,2096921,219245,583765,0
2096921,2096921,221193,583508,0
2096921,2096921,220466,584136,0
2096921,2096921,218770,583309,0
2096921,2096921,217960,582635,0
2096921,2096921,217965,582519,0
2096921,2096921,216182,581945,0
2096921,2096921,216337,581875,0
2096921,2096921,218252,582728,0
2096921,2096921,219177,583274,0
2096921,2096921,219425,583683,0
2096921,2096921,220985,583827,0
2096921,2096921,220964,584408,0
2096921,2096921,219135,583268,0
2096921,2096921,218673,583059,0
2096921,2096921,218496,583014,0
2096921,2096921,216699,582935,0
2096921,2096921,217000,582729,0
2096921,2096921,218872,583296,0
2096921,2096921,219379,584072,0
2096921,2096921,219796,584365,0
2096921,2096921,221469,584778,0
2096921,2096921,221102,585369,0
2096921,2096921,219714,584207,0
2096921,2096921,218833,583744,0
2096921,2096921,218466,583498,0
2096921,2096921,216853,583155,0
2096921,2096921,217531,583043,0
2096921,2096921,219216,583973,0
2096921,2096921,219745,584642,0
2096921,2096921,220180,585240,0
2096921,2096921,222137,585218,0
2096921,2096921,221280,585708,0
2096921,2096921,219908,584795,0
2096921,2096921,219357,584617,0
2096921,2096921,219273,584198,0
2096921,2096921,217621,583476,0
2096921,2096921,217627,583533,0
2096921,2096921,219208,584013,0
2096921,2096921,220064,584858,0
2096921,2096921,220377,585355,0
2096921,2096921,222078,585789,0
2096921,2096921,221556,586540,0
2096921,2096921,219897,585554,0
2096921,2096921,219493,584823,0
2096921,2096921,219317,584409,0
2096921,2096921,217573,584056,0
2096921,2096921,218378,584122,0
2096921,2096921,219790,584862,0
2096921,2096921,220402,585473,0
2096921,2096921,220951,585614,0
2096921,2096921,222876,585877,0
2096921,2096921,222171,586487,0
2096921,2096921,220223,586200,0
2096921,2096921,219718,585389,0
2096921,2096921,219467,585043,0
2096921,2096921,218093,584881,0
2096921,2096921,218656,584909,0
2096921,2096921,219841,585770,0
2096921,2096921,220563,586090,0
2096921,2096921,220884,586372,0
2096921,2096921,222832,586742,0
2096921,2096921,222269,587402,0
2096921,2096921,220701,586595,0
2096921,2096921,219963,585843,0
2096921,2096921,219827,585385,0
2096921,2096921,218089,584963,0
2096921,2096921,218627,585027,0
2096921,2096921,220244,585808,0
2096921,2096921,220776,586652,0
2096921,2096921,221267,586963,0
2096921,2096921,223214,587486,0
2096921,2096921,222609,587894,0
2096921,2096921,221134,586990,0
2096921,2096921,220529,586099,0
2096921,2096921,220188,586299,0
2096921,2096921,218425,585508,0
2096921,2096921,219037,585622,0
2096921,2096921,220773,586121,0
2096921,2096921,221320,586978,0
