2096921,2096921,157955,660681,0
2096921,2096921,157937,660329,0
2096921,2096921,158118,660336,0
2096921,2096921,158053,660571,0
2096921,2096921,157891,660463,0
2096921,2096921,157624,659643,0
2096921,2096921,157342,659597,0
2096921,2096921,157565,659391,0
2096921,2096921,157448,659165,0
2096921,2096921,157392,659315,0
2096921,2096921,156982,657858,0
2096921,2096921,156779,657429,0
2096921,2096921,156968,657157,0
2096921,2096921,157009,657019,0
2096921,2096921,156823,657277,0
2096921,2096921,156208,654732,0
2096921,2096921,156109,654684,0
2096921,2096921,155940,654513,0
2096921,2096921,156113,654139,0
2096921,2096921,156229,654401,0
2096921,2096921,155441,652801,0
2096921,2096921,155329,652568,0
2096921,2096921,155278,651929,0
2096921,2096921,155231,652465,0
2096921,2096921,155235,652023,0
2096921,2096921,154662,650910,0
2096921,2096921,154802,650554,0
2096921,2096921,154781,650376,0
2096921,2096921,154727,650462,0
2096921,2096921,154644,650439,0
2096921,2096921,154157,649407,0
2096921,2096921,154148,649270,0
2096921,2096921,154424,649580,0
2096921,2096921,154500,649600,0
2096921,2096921,154132,649498,0
2096921,2096921,154272,648853,0
2096921,2096921,154251,648720,0
2096921,2096921,153943,648728,0
2096921,2096921,154341,648701,0
2096921,2096921,154121,648537,0
2096921,2096921,153862,648197,0
2096921,2096921,153924,648202,0
2096921,2096921,153910,648036,0
2096921,2096921,153872,648114,0
2096921,2096921,153849,647780,0
2096921,2096921,154063,647710,0
2096921,2096921,154034,647349,0
2096921,2096921,153728,647468,0
2096921,2096921,153883,647428,0
2096921,2096921,153997,647603,0
2096921,2096921,154038,647595,0
2096921,2096921,153893,647729,0
2096921,2096921,153929,647527,0
2096921,2096921,153796,647694,0
2096921,2096921,153910,647462,0
2096921,2096921,153472,647426,0
2096921,2096921,153656,647596,0
2096921,2096921,153768,647496,0
2096921,2096921,153625,647457,0
2096921,2096921,153645,647676,0
2096921,2096921,153870,647673,0
2096921,2096921,153653,647737,0
2096921,2096921,153714,647494,0
2096921,2096921,153672,647841,0
2096921,2096921,153798,647817,0
2096921,2096921,153838,647915,0
2096921,2096921,153896,648001,0
2096921,2096921,153815,648028,0
2096921,2096921,153691,647911,0
2096921,2096921,154018,647994,0
2096921,2096921,153996,647927,0
2096921,2096921,154006,648089,0
2096921,2096921,153920,648024,0
2096921,2096921,153840,648166,0
2096921,2096921,153739,648259,0
2096921,2096921,154135,648456,0
2096921,2096921,153779,648534,0
2096921,2096921,154063,648256,0
2096921,2096921,154014,648712,0
2096921,2096921,154001,648508,0
2096921,2096921,154195,648932,0
2096921,2096921,154041,649145,0
2096921,2096921,154100,649037,0
2096921,2096921,154000,648683,0
2096921,2096921,154424,648984,0
2096921,2096921,154535,649111,0
2096921,2096921,154464,649524,0
2096921,2096921,154326,649554,0
2096921,2096921,154337,649429,0
2096921,2096921,154266,649883,0
2096921,2096921,154625,650006,0
2096921,2096921,154630,649784,0
2096921,2096921,154521,649437,0
2096921,2096921,154726,649985,0
2096921,2096921,154445,649828,0
2096921,2096921,154681,650716,0
2096921,2096921,154526,650326,0
2096921,2096921,154609,650351,0
2096921,2096921,154728,650634,0
2096921,2096921,154623,650406,0
2096921,2096921,154556,651016,0
2096921,2096921,155036,650991,0
2096921,2096921,154951,650989,0
2096921,2096921,155016,651045,0
2096921,2096921,154843,651154,0
2096921,2096921,155073,651046,0
2096921,2096921,154870,651128,0
2096921,2096921,154925,651082,0
2096921,2096921,155038,651433,0
2096921,2096921,154912,651381,0
2096921,2096921,155002,651715,0
2096921,2096921,155155,652000,0
2096921,2096921,154901,651926,0
2096921,2096921,155232,651841,0
2096921,2096921,155364,652015,0
2096921,2096921,155482,652241,0
2096921,2096921,155325,652250,0
2096921,2096921,155408,652412,0
2096921,2096921,155321,652480,0
2096921,2096921,155156,652397,0
2096921,2096921,155444,652779,0
2096921,2096921,155529,652909,0
2096921,2096921,155314,652872,0
2096921,2096921,155542,652941,0
2096921,2096921,155365,652780,0
2096921,2096921,155490,653533,0
2096921,2096921,155595,653420,0
2096921,2096921,155838,653563,0
2096921,2096921,155854,653102,0
2096921,2096921,155495,653472,0
2096921,2096921,155883,653730,0
2096921,2096921,155927,653916,0
2096921,2096921,155947,653999,0
2096921,2096921,156128,653981,0
2096921,2096921,155760,653831,0
2096921,2096921,155886,654109,0
2096921,2096921,155860,654017,0
2096921,2096921,156044,654185,0
2096921,2096921,155679,654161,0
2096921,2096921,155876,654200,0
2096921,2096921,156076,654563,0
2096921,2096921,155942,654644,0
2096921,2096921,156027,654843,0
2096921,2096921,156054,654487,0
2096921,2096921,156179,654505,0
2096921,2096921,156124,654982,0
2096921,2096921,155989,654629,0
2096921,2096921,156260,654815,0
2096921,2096921,155892,654684,0
2096921,2096921,156095,654921,0
2096921,2096921,156145,654965,0
2096921,2096921,156194,655397,0
2096921,2096921,156335,654971,0
2096921,2096921,156231,655182,0
2096921,2096921,156045,655336,0
2096921,2096921,156253,655427,0
2096921,2096921,156323,655349,0
2096921,2096921,156272,655278,0
2096921,2096921,156146,655592,0
2096921,2096921,156515,655401,0
2096921,2096921,156500,654963,0
2096921,2096921,156315,655408,0
2096921,2096921,156098,655363,0
2096921,2096921,156272,655389,0
2096921,2096921,156212,655080,0
2096921,2096921,156444,655330,0
2096921,2096921,156151,654981,0
2096921,2096921,156130,654968,0
2096921,2096921,156176,655194,0
2096921,2096921,156375,655196,0
2096921,2096921,156344,654836,0
2096921,2096921,156366,655156,0
2096921,2096921,156500,655377,0
2096921,2096921,156612,655405,0
2096921,2096921,156305,655451,0
2096921,2096921,155946,655329,0
2096921,2096921,156144,655137,0
2096921,2096921,155869,654860,0
2096921,2096921,156089,655168,0
2096921,2096921,156200,654924,0
2096921,2096921,156136,654682,0
2096921,2096921,156221,654942,0
2096921,2096921,155959,655185,0
2096921,2096921,156038,654971,0
2096921,2096921,156368,655053,0
2096921,2096921,156160,655120,0
2096921,2096921,156136,654744,0
2096921,2096921,156017,654744,0
2096921,2096921,156044,654825,0
2096921,2096921,156355,654777,0
2096921,2096921,156302,654929,0
2096921,2096921,156088,655142,0
2096921,2096921,156057,655054,0
2096921,2096921,156070,654952,0
2096921,2096921,156290,654975,0
2096921,2096921,155975,655053,0
2096921,2096921,156028,654748,0
2096921,2096921,156173,654746,0
2096921,2096921,156080,654686,0
2096921,2096921,156294,655032,0
2096921,2096921,155848,654814,0
2096921,2096921,156049,655118,0
2096921,2096921,156260,654989,0
2096921,2096921,156106,654992,0
2096921,2096921,155875,654958,0
2096921,2096921,156373,655211,0
2096921,2096921,155909,655107,0
2096921,2096921,156265,655208,0
2096921,2096921,156124,655119,0
2096921,2096921,156283,655050,0
2096921,2096921,156385,655358,0
2096921,2096921,156264,655207,0
2096921,2096921,156251,655379,0
2096921,2096921,156218,655087,0
2096921,2096921,156282,655153,0
2096921,2096921,156007,655283,0
2096921,2096921,156208,655332,0
2096921,2096921,156090,655343,0
2096921,2096921,156122,655491,0
2096921,2096921,156455,655690,0
2096921,2096921,156493,656153,0
2096921,2096921,156305,656210,0
2096921,2096921,156656,656065,0
2096921,2096921,156458,655962,0
2096921,2096921,156306,656276,0
2096921,2096921,156539,656570,0
2096921,2096921,156625,656323,0
2096921,2096921,156364,656447,0
2096921,2096921,156622,656716,0
2096921,2096921,156473,656424,0
2096921,2096921,156894,657111,0
2096921,2096921,156636,657051,0
2096921,2096921,156685,657145,0
2096921,2096921,156784,657303,0
2096921,2096921,156732,657188,0
2096921,2096921,157017,657318,0
2096921,2096921,157109,657005,0
2096921,2096921,157017,657462,0
2096921,2096921,157021,657476,0
2096921,2096921,156784,657393,0
2096921,2096921,156673,657962,0
2096921,2096921,156736,657779,0
2096921,2096921,157106,657672,0
2096921,2096921,157359,657669,0
2096921,2096921,156993,657841,0
2096921,2096921,157240,657999,0
2096921,2096921,157023,658234,0
2096921,2096921,157185,658442,0
2096921,2096921,157148,658507,0
2096921,2096921,157223,658119,0
2096921,2096921,157070,658461,0
2096921,2096921,157320,658300,0
2096921,2096921,157146,658435,0
2096921,2096921,156994,658388,0
2096921,2096921,157126,658667,0
2096921,2096921,157045,659087,0
2096921,2096921,156982,659029,0
2096921,2096921,157294,658922,0
2096921,2096921,157527,659067,0
2096921,2096921,157461,659047,0
2096921,2096921,157798,659465,0
2096921,2096921,157347,659630,0
2096921,2096921,157514,659649,0
2096921,2096921,157357,659602,0
2096921,2096921,157444,659578,0
2096921,2096921,157626,659948,0
2096921,2096921,157845,660074,0
2096921,2096921,157575,660239,0
2096921,2096921,157508,659935,0
2096921,2096921,157459,660086,0
2096921,2096921,157994,660244,0
2096921,2096921,157948,660291,0
2096921,2096921,157465,660303,0
2096921,2096921,157819,660282,0
2096921,2096921,157583,660344,0
2096921,2096921,157838,660576,0
2096921,2096921,157801,660855,0
2096921,2096921,157617,660918,0
2096921,2096921,157777,660729,0
2096921,2096921,157733,660978,0
2096921,2096921,158009,660980,0
2096921,2096921,158090,661165,0
2096921,2096921,157715,661366,0
2096921,2096921,157938,661230,0
2096921,2096921,157718,661371,0
2096921,2096921,158313,661542,0
2096921,2096921,158013,661511,0
2096921,2096921,158210,661403,0
2096921,2096921,158198,661548,0
2096921,2096921,158196,661494,0
2096921,2096921,158228,662040,0
2096921,2096921,158499,662173,0
2096921,2096921,158498,662291,0
2096921,2096921,158314,662421,0
2096921,2096921,158313,662108,0
2096921,2096921,158201,662637,0
2096921,2096921,158464,662525,0
2096921,2096921,158437,662678,0
2096921,2096921,158437,662351,0
2096921,2096921,158243,662430,0
2096921,2096921,158607,662892,0
2096921,2096921,158453,662841,0
2096921,2096921,158138,662881,0
2096921,2096921,158905,662586,0
2096921,2096921,158516,662761,0
2096921,2096921,158546,663375,0
2096921,2096921,158544,663606,0
2096921,2096921,158755,663257,0
2096921,2096921,158715,663543,0
2096921,2096921,158829,663056,0
2096921,2096921,158701,663720,0
2096921,2096921,158949,663705,0
2096921,2096921,158608,663674,0
2096921,2096921,158809,663625,0
2096921,2096921,159031,663807,0
2096921,2096921,158949,663971,0
2096921,2096921,158935,663884,0
2096921,2096921,158601,664129,0
2096921,2096921,158815,664048,0
2096921,2096921,158983,664012,0
2096921,2096921,158845,664439,0
2096921,2096921,159096,664417,0
2096921,2096921,158790,664654,0
2096921,2096921,158910,664425,0
2096921,2096921,159141,664798,0
2096921,2096921,159028,665096,0
2096921,2096921,159371,665104,0
2096921,2096921,159272,665050,0
2096921,2096921,159283,665047,0
2096921,2096921,159059,664693,0
2096921,2096921,159409,665116,0
2096921,2096921,159349,665493,0
2096921,2096921,159229,665365,0
2096921,2096921,159062,665412,0
2096921,2096921,159230,665459,0
2096921,2096921,159456,665745,0
2096921,2096921,159361,665927,0
2096921,2096921,159323,666124,0
2096921,2096921,159377,665843,0
2096921,2096921,159532,665929,0
2096921,2096921,159399,666021,0
2096921,2096921,159551,666111,0
2096921,2096921,159414,666158,0
2096921,2096921,159426,665907,0
2096921,2096921,159322,666103,0
2096921,2096921,159522,666020,0
2096921,2096921,159487,666036,0
2096921,2096921,159600,666195,0
2096921,2096921,159507,666603,0
2096921,2096921,159679,666421,0
2096921,2096921,159559,666741,0
2096921,2096921,159799,666858,0
2096921,2096921,159712,666887,0
2096921,2096921,159882,666635,0
2096921,2096921,159770,667004,0
2096921,2096921,159675,667225,0
2096921,2096921,159781,667005,0
2096921,2096921,159730,667157,0
2096921,2096921,159838,667404,0
2096921,2096921,159578,667240,0
2096921,2096921,160021,667443,0
2096921,2096921,159792,667367,0
2096921,2096921,159589,667566,0
2096921,2096921,159804,667762,0
2096921,2096921,159781,667883,0
2096921,2096921,159914,667868,0
2096921,2096921,159845,667824,0
2096921,2096921,159792,667813,0
2096921,2096921,159827,667775,0
2096921,2096921,159827,667819,0
2096921,2096921,160073,668067,0
2096921,2096921,159926,668286,0
2096921,2096921,160053,668063,0
2096921,2096921,159863,668440,0
2096921,2096921,159846,668222,0
2096921,2096921,159946,668322,0
2096921,2096921,160162,668406,0
2096921,2096921,160372,668418,0
2096921,2096921,160218,668500,0
2096921,2096921,160270,668528,0
2096921,2096921,160135,668836,0
2096921,2096921,160355,669010,0
2096921,2096921,159987,669098,0
2096921,2096921,160309,668776,0
2096921,2096921,160202,668857,0
2096921,2096921,160483,669404,0
2096921,2096921,160564,669601,0
2096921,2096921,160561,669460,0
2096921,2096921,160448,669327,0
2096921,2096921,160578,668961,0
2096921,2096921,160534,669339,0
2096921,2096921,160493,669646,0
2096921,2096921,160404,669450,0
2096921,2096921,160582,669998,0
2096921,2096921,160662,669739,0
2096921,2096921,160271,669995,0
2096921,2096921,160433,669978,0
2096921,2096921,160261,670121,0
2096921,2096921,160291,669867,0
2096921,2096921,160235,670000,0
2096921,2096921,160620,670195,0
2096921,2096921,160538,670440,0
2096921,2096921,160784,670421,0
2096921,2096921,160707,670500,0
2096921,2096921,160469,670391,0
2096921,2096921,160828,670614,0
2096921,2096921,160818,670733,0
2096921,2096921,160804,670491,0
2096921,2096921,160844,670593,0
2096921,2096921,160678,670946,0
2096921,2096921,160567,670872,0
2096921,2096921,160797,671196,0
2096921,2096921,160793,670887,0
2096921,2096921,160829,670906,0
2096921,2096921,160536,670851,0
2096921,2096921,160867,671106,0
2096921,2096921,160811,671053,0
2096921,2096921,160929,671513,0
2096921,2096921,160592,671275,0
2096921,2096921,160948,671427,0
2096921,2096921,160816,671742,0
2096921,2096921,160925,671832,0
2096921,2096921,160905,671826,0
2096921,2096921,160937,671703,0
2096921,2096921,161018,672068,0
2096921,2096921,161030,671811,0
2096921,2096921,161117,672023,0
2096921,2096921,161200,671859,0
2096921,2096921,160927,671997,0
2096921,2096921,160878,672087,0
2096921,2096921,161224,672487,0
2096921,2096921,161130,672298,0
2096921,2096921,161055,672399,0
2096921,2096921,161032,672318,0
2096921,2096921,161088,672638,0
2096921,2096921,160845,672708,0
2096921,2096921,161219,672712,0
2096921,2096921,160961,672728,0
2096921,2096921,161237,672566,0
2096921,2096921,161132,672920,0
2096921,2096921,161297,672842,0
2096921,2096921,161129,672825,0
2096921,2096921,161189,672781,0
2096921,2096921,161182,672628,0
2096921,2096921,161050,672697,0
2096921,2096921,161303,673106,0
2096921,2096921,161132,672906,0
2096921,2096921,161431,673118,0
2096921,2096921,161124,672908,0
2096921,2096921,161220,673049,0
2096921,2096921,161344,673150,0
2096921,2096921,161673,673412,0
2096921,2096921,161616,673187,0
2096921,2096921,161702,673300,0
2096921,2096921,161078,673136,0
2096921,2096921,161214,673439,0
2096921,2096921,161318,673569,0
2096921,2096921,161624,673536,0
2096921,2096921,161592,673521,0
2096921,2096921,161547,673246,0
2096921,2096921,161816,673924,0
2096921,2096921,161651,673978,0
2096921,2096921,161600,674011,0
2096921,2096921,161524,673710,0
2096921,2096921,161467,673817,0
2096921,2096921,161459,673913,0
2096921,2096921,161558,673816,0
2096921,2096921,161581,674011,0
2096921,2096921,161295,673969,0
2096921,2096921,161327,674242,0
2096921,2096921,161806,674459,0
2096921,2096921,161573,674349,0
2096921,2096921,161586,674379,0
2096921,2096921,161442,674548,0
2096921,2096921,161547,674401,0
2096921,2096921,161539,674680,0
2096921,2096921,161633,674632,0
2096921,2096921,161522,674693,0
2096921,2096921,161915,674736,0
2096921,2096921,161782,674506,0
2096921,2096921,161854,674727,0
2096921,2096921,161810,674827,0
2096921,2096921,161867,674894,0
2096921,2096921,161902,674659,0
2096921,2096921,161636,674772,0
2096921,2096921,161455,674680,0
2096921,2096921,161520,674417,0
2096921,2096921,161519,674834,0
2096921,2096921,161828,674298,0
2096921,2096921,161864,674662,0
2096921,2096921,161566,674460,0
2096921,2096921,161690,674283,0
2096921,2096921,161437,674670,0
2096921,2096921,161757,674372,0
2096921,2096921,161954,674648,0
2096921,2096921,161689,674133,0
2096921,2096921,161507,673870,0
2096921,2096921,161486,673902,0
2096921,2096921,161320,674167,0
2096921,2096921,161491,673813,0
2096921,2096921,161368,673521,0
2096921,2096921,161262,673389,0
2096921,2096921,161250,673192,0
2096921,2096921,161218,673028,0
2096921,2096921,161561,673435,0
2096921,2096921,161202,672639,0
2096921,2096921,160837,672337,0
2096921,2096921,160894,672612,0
2096921,2096921,160836,672539,0
2096921,2096921,160700,672777,0
2096921,2096921,160283,671006,0
2096921,2096921,160289,670782,0
2096921,2096921,160230,670331,0
2096921,2096921,160173,670621,0
2096921,2096921,160185,670529,0
2096921,2096921,159538,668466,0
2096921,2096921,159216,668143,0
2096921,2096921,159432,667831,0
2096921,2096921,159298,667785,0
2096921,2096921,159502,667834,0
2096921,2096921,158735,666311,0
2096921,2096921,158809,665956,0
2096921,2096921,158821,665601,0
2096921,2096921,158756,665800,0
2096921,2096921,158529,665935,0
2096921,2096921,158405,665086,0
2096921,2096921,158191,664271,0
2096921,2096921,158088,664657,0
2096921,2096921,157822,664586,0
2096921,2096921,158247,664182,0
2096921,2096921,157660,663721,0
2096921,2096921,157635,663602,0
2096921,2096921,157686,663598,0
2096921,2096921,158024,663637,0
2096921,2096921,157835,663342,0
2096921,2096921,157630,662848,0
2096921,2096921,157564,662966,0
2096921,2096921,157789,662828,0
2096921,2096921,157860,663045,0
2096921,2096921,157889,663106,0
2096921,2096921,157893,662674,0
2096921,2096921,157441,662508,0
2096921,2096921,157556,662730,0
2096921,2096921,157538,662627,0
2096921,2096921,157531,662315,0
2096921,2096921,157525,662571,0
2096921,2096921,157426,662454,0
2096921,2096921,157317,662566,0
2096921,2096921,157372,662182,0
2096921,2096921,157277,662507,0
2096921,2096921,157476,662567,0
2096921,2096921,157313,662447,0
2096921,2096921,157467,662536,0
2096921,2096921,157437,662469,0
2096921,2096921,157448,662715,0
2096921,2096921,157467,662491,0
2096921,2096921,157401,662588,0
2096921,2096921,157880,662579,0
2096921,2096921,157678,662563,0
2096921,2096921,157501,662644,0
2096921,2096921,157494,663092,0
2096921,2096921,157685,663187,0
2096921,2096921,157634,663125,0
2096921,2096921,157569,663089,0
2096921,2096921,157851,663123,0
2096921,2096921,157786,663425,0
2096921,2096921,157821,663622,0
2096921,2096921,157692,663402,0
2096921,2096921,157821,663558,0
2096921,2096921,157653,663445,0
2096921,2096921,157743,663929,0
2096921,2096921,158009,664059,0
2096921,2096921,157842,664079,0
2096921,2096921,158022,663677,0
2096921,2096921,158002,663881,0
2096921,2096921,157917,664687,0
2096921,2096921,158058,664562,0
2096921,2096921,157960,664823,0
2096921,2096921,157856,664647,0
2096921,2096921,158193,664530,0
2096921,2096921,158283,664980,0
2096921,2096921,158343,665386,0
2096921,2096921,158478,665117,0
2096921,2096921,158371,665211,0
2096921,2096921,158460,665041,0
2096921,2096921,158513,666009,0
2096921,2096921,158497,665804,0
2096921,2096921,158693,665758,0
2096921,2096921,158515,665975,0
2096921,2096921,158686,665909,0
2096921,2096921,158548,666442,0
2096921,2096921,158677,666302,0
2096921,2096921,158541,666727,0
2096921,2096921,158772,666679,0
2096921,2096921,158870,666847,0
2096921,2096921,158582,667194,0
2096921,2096921,158819,667272,0
2096921,2096921,158876,667106,0
2096921,2096921,159018,667368,0
2096921,2096921,158808,667370,0
2096921,2096921,159383,667741,0
2096921,2096921,159119,667855,0
2096921,2096921,159168,668035,0
2096921,2096921,159105,668044,0
2096921,2096921,159203,668114,0
2096921,2096921,159268,668669,0
2096921,2096921,159250,668630,0
2096921,2096921,159139,668455,0
2096921,2096921,159420,668617,0
2096921,2096921,159665,668671,0
2096921,2096921,159481,669331,0
2096921,2096921,159622,669234,0
2096921,2096921,159645,669255,0
2096921,2096921,159734,669592,0
2096921,2096921,159515,669421,0
2096921,2096921,159944,669699,0
2096921,2096921,159895,669794,0
2096921,2096921,159889,670030,0
2096921,2096921,159827,669963,0
2096921,2096921,159827,669980,0
2096921,2096921,159851,670259,0
2096921,2096921,160065,670575,0
2096921,2096921,159982,671052,0
2096921,2096921,160081,670748,0
2096921,2096921,159993,670564,0
2096921,2096921,160107,671277,0
2096921,2096921,160229,671375,0
2096921,2096921,160190,671233,0
2096921,2096921,160076,671446,0
2096921,2096921,160160,671767,0
2096921,2096921,160339,671921,0
2096921,2096921,160461,672204,0
2096921,2096921,160491,672105,0
2096921,2096921,160465,671987,0
2096921,2096921,160526,672096,0
2096921,2096921,160585,672330,0
2096921,2096921,160305,672408,0
2096921,2096921,160678,672257,0
2096921,2096921,160573,672707,0
2096921,2096921,160765,672669,0
2096921,2096921,161003,673007,0
2096921,2096921,160780,673062,0
2096921,2096921,160511,672876,0
2096921,2096921,160692,673137,0
2096921,2096921,160974,673110,0
2096921,2096921,161025,673608,0
2096921,2096921,161091,673662,0
2096921,2096921,160503,673275,0
2096921,2096921,160907,673505,0
2096921,2096921,160799,673673,0
2096921,2096921,160794,673727,0
2096921,2096921,160579,673953,0
2096921,2096921,160768,673936,0
2096921,2096921,160770,673940,0
2096921,2096921,161077,673920,0
2096921,2096921,160948,674095,0
2096921,2096921,160809,674232,0
2096921,2096921,161087,674020,0
2096921,2096921,160978,674092,0
2096921,2096921,161412,674008,0
2096921,2096921,160982,674417,0
2096921,2096921,160931,674402,0
2096921,2096921,161101,674393,0
2096921,2096921,160988,674123,0
2096921,2096921,160845,674382,0
2096921,2096921,160907,674771,0
2096921,2096921,161018,674566,0
2096921,2096921,161009,674420,0
2096921,2096921,161210,674589,0
2096921,2096921,161374,674523,0
2096921,2096921,161115,674393,0
2096921,2096921,160972,674501,0
2096921,2096921,161082,674368,0
2096921,2096921,161127,674334,0
2096921,2096921,161238,674387,0
2096921,2096921,160984,674219,0
2096921,2096921,160843,673972,0
2096921,2096921,161071,674220,0
2096921,2096921,160965,674208,0
2096921,2096921,160993,674568,0
2096921,2096921,161168,674204,0
2096921,2096921,161180,674436,0
2096921,2096921,160961,674405,0
2096921,2096921,160863,674217,0
2096921,2096921,160843,674275,0
2096921,2096921,160851,674268,0
2096921,2096921,161033,674221,0
2096921,2096921,160968,674030,0
2096921,2096921,161196,673932,0
2096921,2096921,161574,674357,0
2096921,2096921,161105,674316,0
2096921,2096921,160929,674261,0
2096921,2096921,161122,674107,0
2096921,2096921,160997,674237,0
2096921,2096921,161080,674114,0
2096921,2096921,161106,674260,0
2096921,2096921,160917,674224,0
2096921,2096921,160765,674315,0
2096921,2096921,160585,674057,0
2096921,2096921,160963,673755,0
2096921,2096921,161064,674247,0
2096921,2096921,160959,673954,0
2096921,2096921,160929,674385,0
2096921,2096921,161044,674185,0
2096921,2096921,161067,674332,0
2096921,2096921,161048,674285,0
2096921,2096921,160902,674548,0
2096921,2096921,160759,674235,0
2096921,2096921,161174,674186,0
2096921,2096921,161016,674124,0
2096921,2096921,161135,674269,0
2096921,2096921,160904,674683,0
2096921,2096921,160951,674652,0
2096921,2096921,160824,674552,0
2096921,2096921,160927,674768,0
2096921,2096921,161402,675064,0
2096921,2096921,161250,674852,0
2096921,2096921,161115,674745,0
2096921,2096921,161253,674592,0
2096921,2096921,161142,674643,0
2096921,2096921,161356,675429,0
2096921,2096921,161237,675552,0
2096921,2096921,161397,675280,0
2096921,2096921,161331,675501,0
2096921,2096921,161627,675428,0
2096921,2096921,161351,675678,0
2096921,2096921,161681,675444,0
2096921,2096921,161598,675836,0
2096921,2096921,161365,675700,0
2096921,2096921,161366,675526,0
2096921,2096921,161500,676206,0
2096921,2096921,161635,676405,0
2096921,2096921,161657,676061,0
2096921,2096921,161643,675828,0
2096921,2096921,161479,675923,0
2096921,2096921,161624,676206,0
2096921,2096921,161625,676588,0
2096921,2096921,162023,676327,0
2096921,2096921,161858,676181,0
2096921,2096921,161657,676618,0
2096921,2096921,161693,676746,0
2096921,2096921,161726,676709,0
2096921,2096921,161827,677123,0
2096921,2096921,161893,677228,0
2096921,2096921,161772,677098,0
2096921,2096921,161766,677135,0
2096921,2096921,161750,677270,0
2096921,2096921,161774,676971,0
2096921,2096921,161960,677033,0
2096921,2096921,161776,677211,0
2096921,2096921,161976,677456,0
2096921,2096921,162128,677518,0
2096921,2096921,162330,677528,0
2096921,2096921,161951,677586,0
2096921,2096921,161832,677315,0
2096921,2096921,162201,677667,0
2096921,2096921,162256,677771,0
2096921,2096921,161970,678055,0
2096921,2096921,162082,677785,0
2096921,2096921,161876,677652,0
2096921,2096921,162022,677888,0
2096921,2096921,162646,678234,0
2096921,2096921,162206,678085,0
2096921,2096921,162223,677883,0
2096921,2096921,162057,678093,0
2096921,2096921,162338,678419,0
2096921,2096921,162320,678241,0
2096921,2096921,162524,678211,0
2096921,2096921,162155,678456,0
2096921,2096921,162374,678449,0
2096921,2096921,162518,678461,0
2096921,2096921,162463,678361,0
2096921,2096921,162462,678405,0
2096921,2096921,162541,678368,0
2096921,2096921,162594,678416,0
2096921,2096921,162355,678870,0
2096921,2096921,162414,679135,0
2096921,2096921,162583,678846,0
2096921,2096921,162627,678803,0
2096921,2096921,162256,678966,0
2096921,2096921,162788,679061,0
2096921,2096921,162535,679369,0
2096921,2096921,162727,679388,0
2096921,2096921,162721,679195,0
2096921,2096921,162628,679039,0
2096921,2096921,162740,679381,0
2096921,2096921,162639,679369,0
2096921,2096921,162626,679309,0
2096921,2096921,162437,679489,0
2096921,2096921,162652,679281,0
2096921,2096921,162718,679485,0
2096921,2096921,162823,679981,0
2096921,2096921,162647,679935,0
2096921,2096921,162773,679793,0
2096921,2096921,162677,679601,0
2096921,2096921,162815,679918,0
2096921,2096921,162819,679882,0
2096921,2096921,162939,680018,0
2096921,2096921,163171,679861,0
2096921,2096921,162845,679792,0
2096921,2096921,163056,680096,0
2096921,2096921,162847,680385,0
2096921,2096921,162755,680180,0
2096921,2096921,162872,680107,0
2096921,2096921,162766,680051,0
2096921,2096921,162691,680473,0
2096921,2096921,162738,680344,0
2096921,2096921,162851,680671,0
2096921,2096921,162786,680595,0
2096921,2096921,162937,680379,0
2096921,2096921,163026,680759,0
2096921,2096921,162951,680625,0
2096921,2096921,163120,680701,0
2096921,2096921,163123,680356,0
2096921,2096921,163236,680563,0
2096921,2096921,162993,680744,0
2096921,2096921,162931,680346,0
2096921,2096921,162748,680500,0
2096921,2096921,162883,680593,0
2096921,2096921,162859,680732,0
2096921,2096921,162995,680817,0
2096921,2096921,162902,680970,0
2096921,2096921,163273,680836,0
2096921,2096921,163250,680967,0
2096921,2096921,163180,680918,0
2096921,2096921,163251,681267,0
2096921,2096921,163103,681035,0
2096921,2096921,163171,681217,0
2096921,2096921,163431,681308,0
2096921,2096921,163331,681148,0
2096921,2096921,163230,681547,0
2096921,2096921,163488,681195,0
2096921,2096921,163100,681294,0
2096921,2096921,163209,681207,0
2096921,2096921,163197,681227,0
2096921,2096921,163286,681324,0
2096921,2096921,163212,681663,0
2096921,2096921,163231,681418,0
2096921,2096921,163234,681759,0
2096921,2096921,163348,681606,0
2096921,2096921,163368,682024,0
2096921,2096921,163359,682018,0
2096921,2096921,163217,681910,0
2096921,2096921,163292,681908,0
2096921,2096921,163204,681938,0
2096921,2096921,163442,681840,0
2096921,2096921,163606,681763,0
2096921,2096921,163375,681774,0
2096921,2096921,163456,681664,0
2096921,2096921,163148,681895,0
2096921,2096921,163478,681981,0
2096921,2096921,163408,681630,0
2096921,2096921,163625,681616,0
2096921,2096921,163347,682142,0
2096921,2096921,163658,681967,0
2096921,2096921,163664,682035,0
2096921,2096921,163589,681931,0
2096921,2096921,163637,682190,0
2096921,2096921,163532,681956,0
2096921,2096921,163495,682159,0
2096921,2096921,163576,682023,0
2096921,2096921,163766,682150,0
2096921,2096921,163864,681996,0
2096921,2096921,163334,682303,0
2096921,2096921,163821,682040,0
2096921,2096921,163771,682296,0
2096921,2096921,163540,682369,0
2096921,2096921,163369,682247,0
2096921,2096921,163689,682215,0
2096921,2096921,163496,682175,0
2096921,2096921,163397,682532,0
2096921,2096921,163580,682548,0
2096921,2096921,163606,682406,0
2096921,2096921,163652,682517,0
2096921,2096921,163454,682679,0
2096921,2096921,163540,682384,0
2096921,2096921,163682,682456,0
2096921,2096921,163822,682468,0
2096921,2096921,163533,682278,0
2096921,2096921,163401,682597,0
2096921,2096921,163886,682829,0
2096921,2096921,163598,682560,0
2096921,2096921,163727,682769,0
2096921,2096921,163644,682631,0
2096921,2096921,163653,682596,0
2096921,2096921,163490,682385,0
2096921,2096921,163734,682564,0
2096921,2096921,163403,682636,0
2096921,2096921,163894,682697,0
2096921,2096921,163762,682833,0
2096921,2096921,163472,682782,0
2096921,2096921,163691,683121,0
2096921,2096921,163607,682952,0
2096921,2096921,163831,683053,0
2096921,2096921,163783,682843,0
2096921,2096921,164035,682845,0
2096921,2096921,163973,682755,0
2096921,2096921,163845,683000,0
2096921,2096921,163494,682947,0
2096921,2096921,163627,682765,0
2096921,2096921,163719,683016,0
2096921,2096921,164107,682988,0
2096921,2096921,163887,683041,0
2096921,2096921,163954,683128,0
2096921,2096921,163737,683078,0
2096921,2096921,163706,682923,0
2096921,2096921,163769,682893,0
2096921,2096921,163843,682869,0
2096921,2096921,164017,683413,0
2096921,2096921,164221,683035,0
2096921,2096921,164001,683223,0
2096921,2096921,163779,683119,0
2096921,2096921,163981,683314,0
2096921,2096921,163999,683197,0
2096921,2096921,163802,683150,0
2096921,2096921,163567,683169,0
2096921,2096921,163888,683095,0
2096921,2096921,163932,683214,0
2096921,2096921,164027,682975,0
2096921,2096921,163703,683104,0
2096921,2096921,163966,683373,0
2096921,2096921,163753,682953,0
2096921,2096921,163865,683172,0
2096921,2096921,163977,683240,0
2096921,2096921,164063,683053,0
2096921,2096921,163876,682935,0
2096921,2096921,163661,683226,0
2096921,2096921,163828,683055,0
2096921,2096921,164035,683159,0
2096921,2096921,163889,683182,0
2096921,2096921,163725,683092,0
2096921,2096921,164239,683327,0
2096921,2096921,163871,683354,0
2096921,2096921,163789,683220,0
2096921,2096921,163717,683087,0
2096921,2096921,163989,683053,0
2096921,2096921,163851,683110,0
2096921,2096921,163876,682977,0
2096921,2096921,163786,682828,0
2096921,2096921,163857,683202,0
2096921,2096921,163975,683087,0
2096921,2096921,164156,683170,0
2096921,2096921,164085,683367,0
2096921,2096921,163843,683072,0
2096921,2096921,163659,683099,0
2096921,2096921,163841,683065,0
2096921,2096921,163738,682820,0
2096921,2096921,163550,683020,0
2096921,2096921,163697,683111,0
2096921,2096921,163902,683255,0
2096921,2096921,163897,682953,0
2096921,2096921,163829,683127,0
2096921,2096921,164001,683033,0
2096921,2096921,163768,683116,0
2096921,2096921,163894,683151,0
2096921,2096921,163840,683291,0
2096921,2096921,163985,682604,0
2096921,2096921,163801,682913,0
2096921,2096921,163789,682968,0
2096921,2096921,163939,683080,0
2096921,2096921,163814,683127,0
2096921,2096921,163742,683047,0
2096921,2096921,163897,682728,0
2096921,2096921,163599,682941,0
2096921,2096921,163703,682841,0
2096921,2096921,163908,682655,0
2096921,2096921,163502,682927,0
2096921,2096921,163604,682726,0
2096921,2096921,163767,682808,0
2096921,2096921,163795,682884,0
2096921,2096921,163853,682890,0
2096921,2096921,164023,682564,0
2096921,2096921,163966,682633,0
2096921,2096921,163695,682390,0
2096921,2096921,163608,682629,0
2096921,2096921,163609,682656,0
2096921,2096921,163625,682534,0
2096921,2096921,163621,682646,0
2096921,2096921,163993,682484,0
2096921,2096921,163595,682506,0
2096921,2096921,163436,682544,0
2096921,2096921,163574,682706,0
2096921,2096921,163570,682407,0
2096921,2096921,163726,682606,0
2096921,2096921,163562,682313,0
2096921,2096921,163363,681689,0
2096921,2096921,163395,681886,0
2096921,2096921,163493,681726,0
2096921,2096921,163559,681990,0
2096921,2096921,163436,681622,0
2096921,2096921,163289,681380,0
2096921,2096921,163539,681530,0
2096921,2096921,163392,681319,0
2096921,2096921,163374,681247,0
2096921,2096921,163397,681213,0
2096921,2096921,163412,680580,0
2096921,2096921,163092,680488,0
2096921,2096921,162973,680647,0
2096921,2096921,163111,680532,0
2096921,2096921,162991,680487,0
2096921,2096921,162861,679897,0
2096921,2096921,162831,679307,0
2096921,2096921,162757,679486,0
2096921,2096921,162846,679353,0
2096921,2096921,162651,679494,0
2096921,2096921,162363,678355,0
2096921,2096921,162373,678225,0
2096921,2096921,162600,678396,0
2096921,2096921,162327,678314,0
2096921,2096921,162295,678240,0
2096921,2096921,161869,676178,0
2096921,2096921,161647,675657,0
2096921,2096921,161639,675690,0
2096921,2096921,161521,675634,0
2096921,2096921,161727,675279,0
2096921,2096921,160866,673299,0
2096921,2096921,160671,672407,0
2096921,2096921,160646,672516,0
2096921,2096921,160451,672305,0
2096921,2096921,160566,672765,0
2096921,2096921,159970,670730,0
2096921,2096921,159853,670535,0
2096921,2096921,159713,670188,0
2096921,2096921,159650,670605,0
2096921,2096921,159597,670419,0
2096921,2096921,159437,668792,0
2096921,2096921,159414,668591,0
2096921,2096921,159476,668621,0
2096921,2096921,159340,668485,0
2096921,2096921,159179,668480,0
2096921,2096921,159119,667372,0
2096921,2096921,158926,666961,0
2096921,2096921,158913,667088,0
2096921,2096921,158876,667322,0
2096921,2096921,158524,666934,0
2096921,2096921,158286,666000,0
2096921,2096921,158474,665868,0
2096921,2096921,158602,666041,0
2096921,2096921,158277,665979,0
2096921,2096921,158271,666243,0
2096921,2096921,158192,665523,0
2096921,2096921,158369,665311,0
2096921,2096921,158422,665676,0
2096921,2096921,158317,665707,0
2096921,2096921,158132,665801,0
2096921,2096921,158184,665176,0
2096921,2096921,158179,664985,0
2096921,2096921,158140,664681,0
2096921,2096921,157896,664706,0
2096921,2096921,157943,664733,0
2096921,2096921,157897,664185,0
2096921,2096921,157920,664370,0
2096921,2096921,157932,664527,0
2096921,2096921,158046,664601,0
2096921,2096921,157910,664342,0
2096921,2096921,157940,664261,0
2096921,2096921,157764,664036,0
2096921,2096921,157972,664218,0
2096921,2096921,157970,664424,0
2096921,2096921,157877,664324,0
2096921,2096921,157957,664471,0
2096921,2096921,157987,664237,0
2096921,2096921,157936,664221,0
2096921,2096921,157931,664251,0
2096921,2096921,158043,664505,0
2096921,2096921,158092,664323,0
2096921,2096921,157873,664194,0
2096921,2096921,157821,664109,0
2096921,2096921,158056,664347,0
2096921,2096921,158087,664326,0
2096921,2096921,157859,664478,0
2096921,2096921,157990,664326,0
2096921,2096921,157975,664255,0
2096921,2096921,157886,664392,0
2096921,2096921,157971,664373,0
2096921,2096921,158093,664387,0
2096921,2096921,157854,664421,0
2096921,2096921,157887,664636,0
2096921,2096921,158022,664592,0
2096921,2096921,158000,664492,0
2096921,2096921,158212,664906,0
2096921,2096921,158275,664605,0
2096921,2096921,158120,664800,0
2096921,2096921,158090,664592,0
2096921,2096921,158029,664794,0
2096921,2096921,158280,664942,0
2096921,2096921,158291,665139,0
2096921,2096921,158362,665171,0
2096921,2096921,158501,665170,0
2096921,2096921,158442,664653,0
2096921,2096921,158826,665374,0
2096921,2096921,158345,665213,0
2096921,2096921,158331,665241,0
2096921,2096921,158310,665435,0
2096921,2096921,158334,665360,0
2096921,2096921,158501,665941,0
2096921,2096921,158589,665840,0
2096921,2096921,158425,665593,0
2096921,2096921,158417,665838,0
2096921,2096921,158628,665913,0
2096921,2096921,158547,665530,0
2096921,2096921,158421,666024,0
2096921,2096921,158570,665981,0
2096921,2096921,158633,665817,0
2096921,2096921,158706,666009,0
2096921,2096921,158631,665944,0
2096921,2096921,158818,666176,0
2096921,2096921,158764,666040,0
2096921,2096921,158992,666077,0
2096921,2096921,158753,665778,0
2096921,2096921,158819,666133,0
2096921,2096921,158783,666583,0
2096921,2096921,158938,666620,0
2096921,2096921,158842,666208,0
2096921,2096921,158773,666322,0
2096921,2096921,159095,666518,0
2096921,2096921,158934,666627,0
2096921,2096921,158895,666672,0
2096921,2096921,158694,666585,0
2096921,2096921,158817,666566,0
2096921,2096921,158975,666988,0
2096921,2096921,158835,666843,0
2096921,2096921,159078,667169,0
2096921,2096921,159085,666945,0
2096921,2096921,158876,666926,0
2096921,2096921,159148,667367,0
2096921,2096921,159323,667346,0
2096921,2096921,159066,667617,0
2096921,2096921,158917,667230,0
2096921,2096921,159064,667065,0
2096921,2096921,159103,667615,0
2096921,2096921,159382,667759,0
2096921,2096921,159227,667507,0
2096921,2096921,159244,667649,0
2096921,2096921,159239,667519,0
2096921,2096921,159571,667461,0
2096921,2096921,159301,667696,0
2096921,2096921,159235,667749,0
2096921,2096921,159206,667818,0
2096921,2096921,159213,667937,0
2096921,2096921,159085,667816,0
2096921,2096921,159233,667929,0
2096921,2096921,159485,668143,0
2096921,2096921,159642,667945,0
2096921,2096921,159331,667957,0
2096921,2096921,159422,667800,0
2096921,2096921,159240,667891,0
2096921,2096921,159250,667880,0
2096921,2096921,159323,668092,0
2096921,2096921,159366,667691,0
2096921,2096921,159444,667723,0
2096921,2096921,159382,667711,0
2096921,2096921,159359,667985,0
2096921,2096921,159329,668216,0
2096921,2096921,159449,667932,0
2096921,2096921,159356,667787,0
2096921,2096921,159438,667564,0
2096921,2096921,159508,667581,0
2096921,2096921,159654,667710,0
2096921,2096921,159386,667664,0
2096921,2096921,159331,667672,0
2096921,2096921,159326,667567,0
2096921,2096921,159636,667418,0
2096921,2096921,159471,667494,0
2096921,2096921,159041,667732,0
2096921,2096921,159231,667541,0
2096921,2096921,159236,667160,0
2096921,2096921,159237,667441,0
2096921,2096921,159279,667294,0
2096921,2096921,159506,667167,0
2096921,2096921,159171,666862,0
2096921,2096921,159358,667188,0
2096921,2096921,159326,667181,0
2096921,2096921,158982,667035,0
2096921,2096921,159326,666848,0
2096921,2096921,159085,666615,0
2096921,2096921,158881,666365,0
2096921,2096921,159299,666522,0
2096921,2096921,159015,666463,0
2096921,2096921,159137,666561,0
2096921,2096921,158935,666117,0
2096921,2096921,159418,666104,0
2096921,2096921,159062,666052,0
2096921,2096921,158968,666363,0
2096921,2096921,158739,666250,0
2096921,2096921,158894,665749,0
2096921,2096921,158768,665783,0
2096921,2096921,158669,665671,0
2096921,2096921,158921,665491,0
2096921,2096921,158915,665339,0
2096921,2096921,158597,665124,0
2096921,2096921,158512,665105,0
2096921,2096921,158785,665179,0
2096921,2096921,158703,665281,0
2096921,2096921,158588,665634,0
2096921,2096921,158493,664686,0
2096921,2096921,158375,664986,0
2096921,2096921,158446,664813,0
2096921,2096921,158709,664670,0
2096921,2096921,158481,665134,0
2096921,2096921,158377,664509,0
2096921,2096921,158565,664462,0
2096921,2096921,158507,664518,0
2096921,2096921,158706,664424,0
2096921,2096921,158476,664454,0
2096921,2096921,158301,664699,0
2096921,2096921,158300,664555,0
2096921,2096921,158523,664335,0
2096921,2096921,158297,664530,0
2096921,2096921,158910,664724,0
2096921,2096921,158943,664269,0
2096921,2096921,158688,664386,0
2096921,2096921,158451,664482,0
2096921,2096921,158518,664503,0
2096921,2096921,158529,664690,0
2096921,2096921,158431,664113,0
2096921,2096921,158481,664222,0
2096921,2096921,158550,664303,0
2096921,2096921,159007,664359,0
2096921,2096921,158489,664232,0
2096921,2096921,158638,664471,0
2096921,2096921,158628,664455,0
2096921,2096921,158516,664374,0
2096921,2096921,158607,664217,0
2096921,2096921,158535,664422,0
2096921,2096921,159026,664687,0
2096921,2096921,158842,664586,0
2096921,2096921,158396,664418,0
2096921,2096921,158645,664506,0
2096921,2096921,158686,664466,0
2096921,2096921,158901,664544,0
2096921,2096921,158725,664577,0
2096921,2096921,158794,664496,0
2096921,2096921,158707,664684,0
2096921,2096921,158824,664536,0
2096921,2096921,158654,664659,0
2096921,2096921,158533,664518,0
2096921,2096921,158837,664691,0
2096921,2096921,158932,664474,0
2096921,2096921,158655,664706,0
2096921,2096921,159029,664760,0
2096921,2096921,159002,664701,0
2096921,2096921,158754,664614,0
2096921,2096921,158532,665172,0
2096921,2096921,158451,665014,0
2096921,2096921,158686,665118,0
2096921,2096921,158761,664964,0
2096921,2096921,158873,664811,0
2096921,2096921,158725,665055,0
2096921,2096921,158912,665001,0
2096921,2096921,158639,665054,0
2096921,2096921,158742,664889,0
2096921,2096921,158838,664812,0
2096921,2096921,158679,664591,0
2096921,2096921,159019,665039,0
2096921,2096921,158954,664570,0
2096921,2096921,159006,664636,0
2096921,2096921,158651,665069,0
2096921,2096921,159073,665155,0
2096921,2096921,159083,664942,0
2096921,2096921,159031,664999,0
2096921,2096921,158847,665099,0
2096921,2096921,158887,664900,0
2096921,2096921,159052,665047,0
2096921,2096921,158930,665002,0
2096921,2096921,158804,665068,0
2096921,2096921,159018,665047,0
2096921,2096921,159071,665086,0
2096921,2096921,159198,664849,0
2096921,2096921,159096,664871,0
2096921,2096921,158980,665165,0
2096921,2096921,159133,665125,0
2096921,2096921,158976,664909,0
2096921,2096921,158728,664948,0
2096921,2096921,158700,665073,0
2096921,2096921,158923,665094,0
2096921,2096921,158692,664967,0
2096921,2096921,159001,664792,0
2096921,2096921,159131,664977,0
2096921,2096921,159286,665212,0
2096921,2096921,158965,665204,0
2096921,2096921,158912,665301,0
2096921,2096921,158985,665023,0
2096921,2096921,158781,665337,0
2096921,2096921,158830,665371,0
2096921,2096921,158853,665030,0
2096921,2096921,159009,665420,0
2096921,2096921,158883,665024,0
2096921,2096921,158955,665222,0
2096921,2096921,159172,665152,0
2096921,2096921,159334,665155,0
2096921,2096921,158797,664965,0
2096921,2096921,159045,665189,0
2096921,2096921,159009,665407,0
2096921,2096921,158882,665042,0
2096921,2096921,158829,665244,0
2096921,2096921,158942,665002,0
2096921,2096921,158807,664913,0
2096921,2096921,159139,665232,0
2096921,2096921,159252,665018,0
2096921,2096921,159188,664879,0
2096921,2096921,159110,665094,0
2096921,2096921,158877,664850,0
2096921,2096921,159233,665000,0
2096921,2096921,158945,665139,0
2096921,2096921,158798,664785,0
2096921,2096921,159249,665168,0
2096921,2096921,158989,664870,0
2096921,2096921,159230,664983,0
2096921,2096921,158975,664968,0
2096921,2096921,159321,665064,0
2096921,2096921,159473,664942,0
2096921,2096921,159016,665021,0
2096921,2096921,159043,665153,0
2096921,2096921,159099,665079,0
2096921,2096921,159128,665151,0
2096921,2096921,159026,664953,0
2096921,2096921,158813,665051,0
2096921,2096921,158892,665397,0
2096921,2096921,159088,664945,0
2096921,2096921,158914,665024,0
2096921,2096921,159376,665102,0
2096921,2096921,159421,665209,0
2096921,2096921,159366,664980,0
2096921,2096921,159124,665275,0
2096921,2096921,159159,664828,0
2096921,2096921,159319,664922,0
2096921,2096921,159201,664888,0
2096921,2096921,159322,664789,0
2096921,2096921,159251,664987,0
2096921,2096921,159141,665085,0
2096921,2096921,159235,665406,0
2096921,2096921,159324,665102,0
2096921,2096921,159295,665183,0
2096921,2096921,159115,665150,0
2096921,2096921,159410,665002,0
2096921,2096921,158964,664716,0
2096921,2096921,159124,664832,0
2096921,2096921,159174,665076,0
2096921,2096921,159065,665032,0
2096921,2096921,158912,665099,0
2096921,2096921,159019,664848,0
2096921,2096921,159073,664957,0
2096921,2096921,159189,664594,0
2096921,2096921,159079,665105,0
2096921,2096921,159318,664746,0
2096921,2096921,158960,664964,0
2096921,2096921,159166,664678,0
2096921,2096921,159183,664824,0
2096921,2096921,159145,665032,0
2096921,2096921,159176,664802,0
2096921,2096921,159003,664725,0
2096921,2096921,159085,664809,0
2096921,2096921,158982,664857,0
2096921,2096921,159160,664849,0
2096921,2096921,159139,664921,0
2096921,2096921,159369,664572,0
2096921,2096921,159212,664620,0
2096921,2096921,159105,664884,0
2096921,2096921,159162,664658,0
2096921,2096921,159147,664525,0
2096921,2096921,159086,664824,0
2096921,2096921,158951,664787,0
2096921,2096921,159025,664971,0
2096921,2096921,159145,664900,0
2096921,2096921,159035,664667,0
2096921,2096921,159189,664789,0
2096921,2096921,158788,664630,0
2096921,2096921,158898,664835,0
2096921,2096921,158990,664516,0
2096921,2096921,159053,664575,0
2096921,2096921,159177,664524,0
2096921,2096921,159101,664449,0
2096921,2096921,159064,664524,0
2096921,2096921,158918,664354,0
2096921,2096921,158878,664092,0
2096921,2096921,158928,663891,0
2096921,2096921,159195,664248,0
2096921,2096921,158889,664383,0
2096921,2096921,159161,664267,0
2096921,2096921,159235,663949,0
2096921,2096921,159160,664368,0
2096921,2096921,158774,664354,0
2096921,2096921,158951,664399,0
2096921,2096921,158586,664557,0
2096921,2096921,159024,664248,0
2096921,2096921,159080,664415,0
2096921,2096921,159173,664279,0
2096921,2096921,159026,664317,0
2096921,2096921,158964,664394,0
2096921,2096921,159078,664321,0
2096921,2096921,159058,663745,0
2096921,2096921,159248,664290,0
2096921,2096921,159036,664425,0
2096921,2096921,159234,664460,0
2096921,2096921,158750,664167,0
2096921,2096921,159322,663895,0
2096921,2096921,158954,664103,0
2096921,2096921,159033,663892,0
2096921,2096921,159168,664272,0
2096921,2096921,159165,664136,0
2096921,2096921,159174,664284,0
2096921,2096921,158908,664140,0
2096921,2096921,158934,663936,0
2096921,2096921,158956,664124,0
2096921,2096921,159008,663822,0
2096921,2096921,159107,663949,0
2096921,2096921,159099,664302,0
2096921,2096921,159323,664312,0
2096921,2096921,159015,664222,0
2096921,2096921,159235,664042,0
2096921,2096921,159059,664001,0
2096921,2096921,159051,663760,0
2096921,2096921,159059,664299,0
2096921,2096921,159161,663991,0
2096921,2096921,159202,664289,0
2096921,2096921,158944,663911,0
2096921,2096921,158985,664305,0
2096921,2096921,158933,663857,0
2096921,2096921,159035,663740,0
2096921,2096921,159092,663984,0
2096921,2096921,158824,663988,0
2096921,2096921,158791,663711,0
2096921,2096921,158836,664009,0
2096921,2096921,158889,663876,0
2096921,2096921,159121,664018,0
2096921,2096921,158973,663760,0
2096921,2096921,158755,664041,0
2096921,2096921,158931,663915,0
2096921,2096921,158774,663773,0
2096921,2096921,159118,663919,0
2096921,2096921,158829,663893,0
2096921,2096921,159018,663769,0
2096921,2096921,159006,663897,0
2096921,2096921,159283,663939,0
2096921,2096921,159207,663803,0
2096921,2096921,158941,663994,0
2096921,2096921,158869,663561,0
2096921,2096921,158786,663793,0
2096921,2096921,158946,663706,0
2096921,2096921,158785,663737,0
2096921,2096921,158709,663817,0
2096921,2096921,158957,663652,0
2096921,2096921,159137,663699,0
2096921,2096921,159113,663569,0
2096921,2096921,159104,663427,0
2096921,2096921,158818,663366,0
2096921,2096921,159098,663555,0
2096921,2096921,159170,663497,0
2096921,2096921,159090,663704,0
2096921,2096921,159025,663700,0
2096921,2096921,158985,663459,0
2096921,2096921,158819,663075,0
2096921,2096921,159009,663418,0
2096921,2096921,158847,663594,0
2096921,2096921,158923,663262,0
2096921,2096921,158823,663351,0
2096921,2096921,159122,663319,0
2096921,2096921,159068,663488,0
2096921,2096921,158974,663590,0
2096921,2096921,159178,663472,0
2096921,2096921,159085,663359,0
2096921,2096921,159031,663356,0
2096921,2096921,158789,663302,0
2096921,2096921,159005,663256,0
2096921,2096921,158846,663431,0
2096921,2096921,159027,663600,0
2096921,2096921,158835,663120,0
2096921,2096921,159007,662793,0
2096921,2096921,158769,663296,0
2096921,2096921,158744,663362,0
2096921,2096921,158738,663230,0
2096921,2096921,158807,663173,0
2096921,2096921,158861,663325,0
2096921,2096921,158876,663181,0
2096921,2096921,158800,663430,0
2096921,2096921,158533,662923,0
2096921,2096921,158831,663118,0
2096921,2096921,158954,663137,0
2096921,2096921,158853,663134,0
2096921,2096921,158643,663083,0
2096921,2096921,158738,662884,0
2096921,2096921,158811,663181,0
2096921,2096921,158790,663067,0
2096921,2096921,158795,663362,0
2096921,2096921,158824,662698,0
2096921,2096921,158614,662858,0
2096921,2096921,158812,662444,0
2096921,2096921,158657,662478,0
2096921,2096921,158515,662853,0
2096921,2096921,158328,662306,0
2096921,2096921,158536,662306,0
2096921,2096921,158361,662268,0
2096921,2096921,158605,662197,0
2096921,2096921,158350,662250,0
2096921,2096921,158559,661521,0
2096921,2096921,158392,661349,0
2096921,2096921,158334,661481,0
2096921,2096921,158232,661363,0
2096921,2096921,158136,661463,0
2096921,2096921,157910,660257,0
2096921,2096921,158034,660313,0
2096921,2096921,158184,660510,0
2096921,2096921,158011,660359,0
2096921,2096921,157986,660199,0
2096921,2096921,157679,659783,0
2096921,2096921,157628,659344,0
2096921,2096921,157575,659178,0
2096921,2096921,157452,659344,0
2096921,2096921,157685,659290,0
2096921,2096921,157049,657786,0
2096921,2096921,156959,657325,0
2096921,2096921,156772,657232,0
2096921,2096921,156712,657086,0
2096921,2096921,156694,657042,0
2096921,2096921,156296,654913,0
2096921,2096921,155734,654599,0
2096921,2096921,156025,654210,0
2096921,2096921,156048,654125,0
2096921,2096921,155892,654236,0
2096921,2096921,155407,652667,0
2096921,2096921,155262,652492,0
2096921,2096921,154946,652500,0
2096921,2096921,155343,652391,0
2096921,2096921,155034,652165,0
2096921,2096921,154844,651145,0
2096921,2096921,154668,650920,0
2096921,2096921,154811,650588,0
2096921,2096921,154809,650491,0
2096921,2096921,154650,650432,0
2096921,2096921,154473,649678,0
2096921,2096921,154545,649692,0
2096921,2096921,154529,649521,0
2096921,2096921,154426,649600,0
2096921,2096921,154290,649493,0
2096921,2096921,153938,648577,0
2096921,2096921,154294,648611,0
2096921,2096921,153781,648694,0
2096921,2096921,154092,648614,0
2096921,2096921,153778,648586,0
2096921,2096921,153976,648156,0
2096921,2096921,153837,648136,0
2096921,2096921,154034,647999,0
2096921,2096921,153952,647797,0
2096921,2096921,154078,647851,0
2096921,2096921,153908,647914,0
2096921,2096921,153598,647791,0
2096921,2096921,153893,647724,0
2096921,2096921,153644,647769,0
2096921,2096921,153681,647525,0
2096921,2096921,153717,647518,0
2096921,2096921,153662,647733,0
2096921,2096921,153782,647492,0
2096921,2096921,153694,647336,0
2096921,2096921,153596,647355,0
2096921,2096921,153620,647678,0
2096921,2096921,153359,647202,0
2096921,2096921,153827,647388,0
2096921,2096921,153735,647707,0
2096921,2096921,153761,647666,0
2096921,2096921,153735,647802,0
2096921,2096921,153846,648102,0
2096921,2096921,153990,648212,0
2096921,2096921,153811,647761,0
2096921,2096921,153714,647777,0
2096921,2096921,153819,647648,0
2096921,2096921,154026,647996,0
2096921,2096921,153712,647918,0
2096921,2096921,153903,647988,0
2096921,2096921,153884,647984,0
2096921,2096921,154017,647942,0
2096921,2096921,153824,648246,0
2096921,2096921,153880,648087,0
2096921,2096921,154074,648257,0
2096921,2096921,153773,648309,0
2096921,2096921,154217,648524,0
2096921,2096921,154305,648509,0
2096921,2096921,154066,648458,0
2096921,2096921,154077,648331,0
2096921,2096921,154178,648338,0
2096921,2096921,154268,648808,0
2096921,2096921,154378,649083,0
2096921,2096921,153954,649027,0
2096921,2096921,154381,649064,0
2096921,2096921,154567,648997,0
2096921,2096921,154399,649143,0
2096921,2096921,154405,649424,0
2096921,2096921,154584,649366,0
2096921,2096921,154583,649469,0
2096921,2096921,154583,649479,0
2096921,2096921,154354,649751,0
2096921,2096921,154300,650017,0
2096921,2096921,154306,650030,0
2096921,2096921,154556,649884,0
2096921,2096921,154493,650096,0
2096921,2096921,154919,650087,0
2096921,2096921,154810,650585,0
2096921,2096921,154769,650617,0
2096921,2096921,154541,650787,0
2096921,2096921,154754,650467,0
2096921,2096921,154773,650840,0
2096921,2096921,154883,650866,0
2096921,2096921,154877,651004,0
2096921,2096921,154783,651049,0
2096921,2096921,154827,650960,0
2096921,2096921,155273,650991,0
2096921,2096921,154761,651400,0
2096921,2096921,154963,651326,0
2096921,2096921,154883,651433,0
2096921,2096921,154956,651331,0
2096921,2096921,155183,651485,0
2096921,2096921,155192,651895,0
2096921,2096921,155391,651910,0
2096921,2096921,155264,652058,0
2096921,2096921,155297,652066,0
2096921,2096921,155413,652246,0
2096921,2096921,155466,652322,0
2096921,2096921,155142,652538,0
2096921,2096921,155279,652579,0
2096921,2096921,155533,652311,0
2096921,2096921,155507,652839,0
2096921,2096921,155724,652720,0
2096921,2096921,155589,652967,0
2096921,2096921,155524,652818,0
2096921,2096921,155400,652652,0
2096921,2096921,155526,653022,0
2096921,2096921,155666,653099,0
2096921,2096921,155690,653184,0
2096921,2096921,155666,653427,0
2096921,2096921,155615,653582,0
2096921,2096921,155904,653972,0
2096921,2096921,155705,653606,0
2096921,2096921,155637,653944,0
2096921,2096921,155968,653967,0
2096921,2096921,155901,653894,0
2096921,2096921,155971,653892,0
2096921,2096921,155850,654332,0
2096921,2096921,155719,654223,0
2096921,2096921,155863,654268,0
2096921,2096921,155951,654063,0
2096921,2096921,156108,654542,0
2096921,2096921,156042,654853,0
2096921,2096921,156109,654899,0
2096921,2096921,155995,654773,0
2096921,2096921,156165,654916,0
2096921,2096921,156176,655251,0
2096921,2096921,156345,655110,0
2096921,2096921,155963,655144,0
2096921,2096921,155914,655006,0
2096921,2096921,156097,654932,0
2096921,2096921,156170,655560,0
2096921,2096921,156620,655106,0
2096921,2096921,156475,655165,0
2096921,2096921,156347,655237,0
2096921,2096921,156116,655306,0
2096921,2096921,156043,655468,0
2096921,2096921,156033,655410,0
2096921,2096921,156159,655271,0
2096921,2096921,156218,655228,0
2096921,2096921,156494,655373,0
2096921,2096921,156349,655585,0
2096921,2096921,156276,655201,0
2096921,2096921,156338,655445,0
2096921,2096921,156536,655326,0
2096921,2096921,156477,655490,0
2096921,2096921,156253,655300,0
2096921,2096921,156228,655510,0
2096921,2096921,156481,655258,0
2096921,2096921,156159,655412,0
2096921,2096921,156480,655533,0
2096921,2096921,156404,655456,0
2096921,2096921,156232,655139,0
2096921,2096921,156273,655054,0
2096921,2096921,156012,655007,0
2096921,2096921,156208,655378,0
2096921,2096921,156180,655139,0
2096921,2096921,156339,654870,0
2096921,2096921,156117,655024,0
2096921,2096921,156447,655364,0
2096921,2096921,156319,655444,0
2096921,2096921,156221,655241,0
2096921,2096921,156191,655287,0
2096921,2096921,156112,655073,0
2096921,2096921,156338,655271,0
2096921,2096921,156457,655238,0
2096921,2096921,156167,654986,0
2096921,2096921,155797,654756,0
2096921,2096921,155924,655069,0
2096921,2096921,155910,654449,0
2096921,2096921,156133,654588,0
2096921,2096921,155981,654631,0
2096921,2096921,156082,654776,0
2096921,2096921,156141,654945,0
2096921,2096921,156280,654656,0
2096921,2096921,155945,654820,0
2096921,2096921,156065,654931,0
2096921,2096921,156048,654906,0
2096921,2096921,156326,654775,0
2096921,2096921,156183,654944,0
2096921,2096921,156184,654836,0
2096921,2096921,156022,655086,0
2096921,2096921,156148,654999,0
2096921,2096921,156084,655129,0
2096921,2096921,156165,654991,0
2096921,2096921,156080,655038,0
2096921,2096921,156333,654915,0
2096921,2096921,156165,654808,0
2096921,2096921,155997,654933,0
2096921,2096921,156092,654969,0
2096921,2096921,156062,655148,0
2096921,2096921,156167,655337,0
2096921,2096921,156269,655142,0
2096921,2096921,156355,655173,0
2096921,2096921,156324,654968,0
2096921,2096921,156192,655073,0
2096921,2096921,156251,655279,0
2096921,2096921,156442,655387,0
2096921,2096921,156412,655491,0
2096921,2096921,156287,655291,0
2096921,2096921,156152,655234,0
2096921,2096921,156400,655667,0
2096921,2096921,156458,656164,0
2096921,2096921,156413,655988,0
2096921,2096921,156727,656106,0
2096921,2096921,156539,655948,0
2096921,2096921,156931,656466,0
2096921,2096921,156518,656366,0
2096921,2096921,156635,656289,0
2096921,2096921,156335,656336,0
2096921,2096921,156579,656658,0
2096921,2096921,156776,656779,0
2096921,2096921,156753,657172,0
2096921,2096921,156794,656948,0
2096921,2096921,156570,657105,0
2096921,2096921,156808,656907,0
2096921,2096921,156767,657313,0
2096921,2096921,156805,657172,0
2096921,2096921,156913,656894,0
2096921,2096921,156876,657134,0
2096921,2096921,156619,657107,0
2096921,2096921,156952,657603,0
2096921,2096921,157067,657629,0
2096921,2096921,157179,657497,0
2096921,2096921,156796,657495,0
2096921,2096921,157108,657667,0
2096921,2096921,156998,658076,0
2096921,2096921,157094,657890,0
2096921,2096921,157182,658123,0
2096921,2096921,157168,657773,0
2096921,2096921,156978,657800,0
2096921,2096921,157250,658449,0
2096921,2096921,157248,658452,0
2096921,2096921,157302,658460,0
2096921,2096921,157321,658493,0
2096921,2096921,157365,658651,0
2096921,2096921,157467,658394,0
2096921,2096921,157292,658751,0
2096921,2096921,157169,658776,0
2096921,2096921,157172,659092,0
2096921,2096921,157531,658882,0
2096921,2096921,157543,659393,0
2096921,2096921,157548,659629,0
2096921,2096921,157419,659596,0
2096921,2096921,157280,659714,0
2096921,2096921,157633,659599,0
2096921,2096921,157727,659679,0
2096921,2096921,157813,660120,0
2096921,2096921,157748,659663,0
2096921,2096921,157650,659592,0
2096921,2096921,157674,659716,0
2096921,2096921,157680,660178,0
2096921,2096921,157694,660203,0
2096921,2096921,157641,660072,0
2096921,2096921,157998,660242,0
2096921,2096921,158019,660476,0
2096921,2096921,157828,660284,0
2096921,2096921,157566,660575,0
2096921,2096921,157815,660534,0
2096921,2096921,157833,660542,0
2096921,2096921,157937,660802,0
2096921,2096921,158007,661088,0
2096921,2096921,158146,661269,0
2096921,2096921,158294,661135,0
2096921,2096921,158027,661055,0
2096921,2096921,158150,660925,0
2096921,2096921,158146,661395,0
2096921,2096921,158074,661309,0
2096921,2096921,158076,661255,0
2096921,2096921,158239,661395,0
2096921,2096921,157820,661603,0
2096921,2096921,158187,661621,0
2096921,2096921,158455,661740,0
2096921,2096921,158056,661482,0
2096921,2096921,158159,661865,0
2096921,2096921,158245,661774,0
2096921,2096921,158500,662142,0
2096921,2096921,158375,662319,0
2096921,2096921,158606,662206,0
2096921,2096921,158183,662391,0
2096921,2096921,158244,662317,0
2096921,2096921,158443,662633,0
2096921,2096921,158376,662385,0
2096921,2096921,158621,662817,0
2096921,2096921,158406,662858,0
2096921,2096921,158464,662916,0
2096921,2096921,158739,662987,0
2096921,2096921,158738,663166,0
2096921,2096921,158538,662863,0
2096921,2096921,158571,663110,0
2096921,2096921,158830,663003,0
2096921,2096921,158974,663358,0
2096921,2096921,158929,663702,0
2096921,2096921,158840,663515,0
2096921,2096921,158641,663598,0
2096921,2096921,158718,663547,0
2096921,2096921,158753,663865,0
2096921,2096921,158849,664076,0
2096921,2096921,158815,663732,0
2096921,2096921,158794,663791,0
2096921,2096921,158632,663865,0
2096921,2096921,159130,664125,0
2096921,2096921,159014,664379,0
2096921,2096921,158937,664418,0
2096921,2096921,158999,664349,0
2096921,2096921,159139,664210,0
2096921,2096921,159133,664766,0
2096921,2096921,158932,664587,0
2096921,2096921,159143,664655,0
2096921,2096921,158745,664886,0
2096921,2096921,159044,664855,0
2096921,2096921,159207,665008,0
2096921,2096921,159215,665147,0
2096921,2096921,159255,665312,0
2096921,2096921,159292,665020,0
2096921,2096921,158903,665111,0
2096921,2096921,159240,665239,0
2096921,2096921,159282,665310,0
2096921,2096921,159259,665439,0
2096921,2096921,159014,665298,0
2096921,2096921,159218,665412,0
2096921,2096921,159146,665679,0
2096921,2096921,159160,665829,0
2096921,2096921,159247,665705,0
2096921,2096921,159443,665766,0
2096921,2096921,159168,665780,0
2096921,2096921,159436,666070,0
2096921,2096921,159418,665909,0
2096921,2096921,159690,666046,0
2096921,2096921,159372,666145,0
2096921,2096921,159415,666236,0
2096921,2096921,159898,666474,0
2096921,2096921,159619,666595,0
2096921,2096921,159657,666778,0
2096921,2096921,159665,666598,0
2096921,2096921,159451,666486,0
2096921,2096921,159679,666929,0
2096921,2096921,159895,666710,0
2096921,2096921,159717,666843,0
2096921,2096921,159504,666683,0
2096921,2096921,159811,666890,0
2096921,2096921,159952,666916,0
2096921,2096921,159787,667177,0
2096921,2096921,159753,667493,0
2096921,2096921,159834,667163,0
2096921,2096921,160134,667249,0
2096921,2096921,160077,667440,0
2096921,2096921,160086,667568,0
2096921,2096921,159903,667405,0
2096921,2096921,159841,667508,0
2096921,2096921,160009,667379,0
2096921,2096921,159924,668067,0
2096921,2096921,160169,667925,0
2096921,2096921,159905,667933,0
2096921,2096921,159694,668032,0
2096921,2096921,159757,667843,0
2096921,2096921,159939,668129,0
2096921,2096921,160242,668365,0
2096921,2096921,160067,668006,0
2096921,2096921,159819,668160,0
2096921,2096921,159952,668386,0
2096921,2096921,160084,668942,0
2096921,2096921,160342,668843,0
2096921,2096921,160183,668393,0
2096921,2096921,160097,668595,0
2096921,2096921,160489,668559,0
2096921,2096921,160401,668608,0
2096921,2096921,160254,668512,0
2096921,2096921,160068,668683,0
2096921,2096921,160230,669112,0
2096921,2096921,160261,669009,0
2096921,2096921,160417,669108,0
2096921,2096921,160500,669460,0
2096921,2096921,160199,668991,0
2096921,2096921,160271,669236,0
2096921,2096921,160239,669089,0
2096921,2096921,160393,669577,0
2096921,2096921,160605,669251,0
2096921,2096921,160687,669311,0
2096921,2096921,160145,669528,0
2096921,2096921,160503,669415,0
2096921,2096921,160616,669801,0
2096921,2096921,160670,669758,0
2096921,2096921,160616,669797,0
2096921,2096921,160511,669691,0
2096921,2096921,160411,670253,0
2096921,2096921,160814,669962,0
2096921,2096921,160533,670281,0
2096921,2096921,160545,670056,0
2096921,2096921,160601,670349,0
2096921,2096921,160609,670123,0
2096921,2096921,160509,670302,0
2096921,2096921,160654,670594,0
2096921,2096921,160836,670821,0
2096921,2096921,160781,670769,0
2096921,2096921,160543,670614,0
2096921,2096921,160780,670888,0
2096921,2096921,160989,670808,0
2096921,2096921,160950,670940,0
2096921,2096921,160835,670920,0
2096921,2096921,160860,670715,0
2096921,2096921,160967,670801,0
2096921,2096921,161013,671257,0
2096921,2096921,161114,671214,0
2096921,2096921,160746,671278,0
2096921,2096921,160876,671142,0
2096921,2096921,161071,671404,0
2096921,2096921,161048,671747,0
2096921,2096921,161153,671573,0
2096921,2096921,161020,671046,0
2096921,2096921,160895,671370,0
2096921,2096921,161210,672030,0
2096921,2096921,161101,672163,0
2096921,2096921,160961,672161,0
2096921,2096921,161201,671922,0
2096921,2096921,160871,672082,0
2096921,2096921,161319,671991,0
2096921,2096921,160988,672250,0
2096921,2096921,161258,672019,0
2096921,2096921,161133,671806,0
2096921,2096921,161117,671994,0
2096921,2096921,161208,672066,0
2096921,2096921,161249,672617,0
2096921,2096921,160981,672628,0
2096921,2096921,161180,672481,0
2096921,2096921,161227,672424,0
2096921,2096921,161252,672693,0
2096921,2096921,160908,673003,0
2096921,2096921,161430,672903,0
2096921,2096921,161464,672757,0
2096921,2096921,161446,672806,0
2096921,2096921,161327,672668,0
2096921,2096921,161457,672755,0
2096921,2096921,161528,673210,0
2096921,2096921,161721,672882,0
2096921,2096921,161409,672641,0
2096921,2096921,161372,672899,0
2096921,2096921,161489,672957,0
2096921,2096921,161263,673059,0
2096921,2096921,161306,673151,0
2096921,2096921,161135,673304,0
2096921,2096921,161265,673384,0
2096921,2096921,161530,673551,0
2096921,2096921,161298,673415,0
2096921,2096921,161383,673566,0
2096921,2096921,161617,673283,0
2096921,2096921,161213,673511,0
2096921,2096921,161347,673474,0
2096921,2096921,161616,673345,0
2096921,2096921,161383,673566,0
2096921,2096921,161401,673727,0
2096921,2096921,161581,673697,0
2096921,2096921,161472,673805,0
2096921,2096921,161293,673897,0
2096921,2096921,161622,674160,0
2096921,2096921,161607,674004,0
2096921,2096921,161651,674201,0
2096921,2096921,161638,674346,0
2096921,2096921,161401,674136,0
2096921,2096921,161364,674119,0
2096921,2096921,161333,674391,0
2096921,2096921,161855,674506,0
2096921,2096921,161686,674550,0
2096921,2096921,161664,674498,0
2096921,2096921,161723,674322,0
2096921,2096921,161849,674527,0
2096921,2096921,161309,674184,0
2096921,2096921,161864,673949,0
2096921,2096921,161560,673990,0
2096921,2096921,161496,673680,0
2096921,2096921,161675,674075,0
2096921,2096921,161602,673963,0
2096921,2096921,161735,674058,0
2096921,2096921,161736,674067,0
2096921,2096921,161390,674116,0
2096921,2096921,161533,673921,0
2096921,2096921,161466,673727,0
2096921,2096921,161460,673396,0
2096921,2096921,161241,673444,0
2096921,2096921,161252,673516,0
2096921,2096921,161428,673756,0
2096921,2096921,161242,672851,0
2096921,2096921,161075,672931,0
2096921,2096921,161196,672778,0
2096921,2096921,161065,672938,0
2096921,2096921,161127,672898,0
2096921,2096921,161104,672565,0
2096921,2096921,160751,671929,0
2096921,2096921,160937,672099,0
2096921,2096921,160696,672060,0
2096921,2096921,160696,671976,0
2096921,2096921,160219,670212,0
2096921,2096921,160136,669972,0
2096921,2096921,160004,670109,0
2096921,2096921,160483,669884,0
2096921,2096921,160220,670003,0
2096921,2096921,159373,667864,0
2096921,2096921,159166,667250,0
2096921,2096921,159350,667240,0
2096921,2096921,159456,667440,0
2096921,2096921,159133,667200,0
2096921,2096921,158723,665772,0
2096921,2096921,158586,665258,0
2096921,2096921,158544,665447,0
2096921,2096921,158562,665486,0
2096921,2096921,158634,665439,0
2096921,2096921,157795,664534,0
2096921,2096921,157973,664247,0
2096921,2096921,158013,663795,0
2096921,2096921,157876,664048,0
2096921,2096921,158064,663927,0
2096921,2096921,158127,663231,0
2096921,2096921,157739,663465,0
2096921,2096921,157764,663139,0
2096921,2096921,157761,663168,0
2096921,2096921,157698,663298,0
2096921,2096921,157804,662883,0
2096921,2096921,157839,662432,0
2096921,2096921,157847,662374,0
2096921,2096921,157600,662694,0
2096921,2096921,157618,662589,0
2096921,2096921,157471,661949,0
2096921,2096921,157288,662396,0
2096921,2096921,157501,662463,0
2096921,2096921,157627,662227,0
2096921,2096921,157528,662084,0
2096921,2096921,157382,661756,0
2096921,2096921,157154,661876,0
2096921,2096921,157133,662003,0
2096921,2096921,157377,661924,0
2096921,2096921,157346,661820,0
2096921,2096921,157379,662020,0
2096921,2096921,157222,662180,0
2096921,2096921,157380,661983,0
2096921,2096921,157241,662186,0
2096921,2096921,157679,662362,0
2096921,2096921,157509,662301,0
2096921,2096921,157681,662343,0
2096921,2096921,157472,662162,0
2096921,2096921,157514,662035,0
2096921,2096921,157531,662121,0
2096921,2096921,157563,662554,0
2096921,2096921,157569,662735,0
2096921,2096921,157382,662947,0
2096921,2096921,157454,662806,0
2096921,2096921,157358,662867,0
2096921,2096921,157529,662970,0
2096921,2096921,157672,662858,0
2096921,2096921,157822,663369,0
2096921,2096921,157547,663324,0
2096921,2096921,157594,663323,0
2096921,2096921,157630,663591,0
2096921,2096921,158073,663479,0
2096921,2096921,157761,663595,0
2096921,2096921,157894,663567,0
2096921,2096921,157903,663358,0
2096921,2096921,157966,664044,0
2096921,2096921,157942,663977,0
2096921,2096921,158342,664157,0
2096921,2096921,157825,664096,0
2096921,2096921,158112,664123,0
2096921,2096921,158114,664614,0
2096921,2096921,157974,664756,0
2096921,2096921,158148,664790,0
2096921,2096921,157955,664914,0
2096921,2096921,157835,664838,0
2096921,2096921,158305,665337,0
2096921,2096921,158335,665558,0
2096921,2096921,158518,665628,0
2096921,2096921,158401,665689,0
2096921,2096921,158508,665320,0
2096921,2096921,158606,666248,0
2096921,2096921,158563,666203,0
2096921,2096921,158821,666334,0
2096921,2096921,158541,666480,0
2096921,2096921,158397,666428,0
2096921,2096921,158700,666958,0
2096921,2096921,158825,667212,0
2096921,2096921,158835,666909,0
2096921,2096921,158609,666676,0
2096921,2096921,158723,666990,0
2096921,2096921,158811,667407,0
2096921,2096921,159023,667667,0
2096921,2096921,159145,667395,0
2096921,2096921,158979,667574,0
2096921,2096921,158997,667630,0
2096921,2096921,159141,668100,0
2096921,2096921,158983,668279,0
2096921,2096921,159110,668247,0
2096921,2096921,159083,668130,0
2096921,2096921,159327,668219,0
2096921,2096921,159210,668886,0
2096921,2096921,159393,668989,0
2096921,2096921,159812,669158,0
2096921,2096921,159627,669188,0
2096921,2096921,159642,669233,0
2096921,2096921,159605,669581,0
2096921,2096921,159889,669767,0
2096921,2096921,159818,669636,0
2096921,2096921,159799,669693,0
2096921,2096921,159673,669483,0
2096921,2096921,159928,670123,0
2096921,2096921,159996,670488,0
2096921,2096921,159680,670610,0
2096921,2096921,159777,670390,0
2096921,2096921,159727,670489,0
2096921,2096921,159887,670982,0
2096921,2096921,160098,671028,0
2096921,2096921,160060,670758,0
2096921,2096921,160115,671251,0
2096921,2096921,159625,671185,0
2096921,2096921,160265,671637,0
2096921,2096921,160644,671748,0
2096921,2096921,160594,671879,0
2096921,2096921,160350,671745,0
2096921,2096921,160172,671478,0
2096921,2096921,160374,672270,0
2096921,2096921,160585,672330,0
2096921,2096921,160478,672212,0
2096921,2096921,160536,672097,0
2096921,2096921,160633,672507,0
2096921,2096921,160723,672700,0
2096921,2096921,160709,672732,0
2096921,2096921,160482,672921,0
2096921,2096921,160561,672862,0
2096921,2096921,160606,672846,0
2096921,2096921,160733,673276,0
2096921,2096921,160366,673132,0
2096921,2096921,160793,672975,0
2096921,2096921,160695,673293,0
2096921,2096921,160680,673342,0
2096921,2096921,160754,673695,0
2096921,2096921,160935,673697,0
2096921,2096921,160823,673836,0
2096921,2096921,161035,673717,0
2096921,2096921,160887,673907,0
2096921,2096921,160873,673815,0
2096921,2096921,160717,673799,0
2096921,2096921,160829,673955,0
2096921,2096921,161164,674191,0
2096921,2096921,160751,673918,0
2096921,2096921,160964,674114,0
2096921,2096921,161050,674164,0
2096921,2096921,160845,674117,0
2096921,2096921,160801,674204,0
2096921,2096921,160981,673707,0
2096921,2096921,161031,674105,0
2096921,2096921,160862,674281,0
2096921,2096921,161070,674444,0
2096921,2096921,160957,674348,0
2096921,2096921,161025,674244,0
2096921,2096921,160927,674243,0
2096921,2096921,160846,674277,0
2096921,2096921,161195,674265,0
2096921,2096921,160840,674109,0
2096921,2096921,160845,673943,0
2096921,2096921,160798,674016,0
2096921,2096921,161196,674446,0
2096921,2096921,160984,674350,0
2096921,2096921,161010,674002,0
2096921,2096921,161167,674069,0
2096921,2096921,161042,673910,0
2096921,2096921,161347,674252,0
2096921,2096921,161097,674453,0
2096921,2096921,161087,674426,0
2096921,2096921,161100,674317,0
2096921,2096921,160911,674054,0
2096921,2096921,160680,674261,0
2096921,2096921,160827,674183,0
2096921,2096921,160974,674306,0
2096921,2096921,161014,673866,0
2096921,2096921,160857,674255,0
2096921,2096921,160753,674026,0
2096921,2096921,160677,674096,0
2096921,2096921,161157,673810,0
2096921,2096921,160814,674017,0
2096921,2096921,160859,674105,0
2096921,2096921,160703,674027,0
2096921,2096921,160867,674007,0
2096921,2096921,161194,674059,0
2096921,2096921,160764,673894,0
2096921,2096921,161318,674242,0
2096921,2096921,161207,673957,0
2096921,2096921,161038,674193,0
2096921,2096921,161175,674444,0
2096921,2096921,161099,674231,0
2096921,2096921,161160,674218,0
2096921,2096921,161061,674144,0
2096921,2096921,160968,674318,0
2096921,2096921,160899,674160,0
2096921,2096921,160984,674413,0
2096921,2096921,161209,674585,0
2096921,2096921,160997,674682,0
2096921,2096921,160970,674565,0
2096921,2096921,161198,674728,0
2096921,2096921,161115,674604,0
2096921,2096921,161368,674504,0
2096921,2096921,160946,674562,0
2096921,2096921,161296,674543,0
2096921,2096921,161314,674622,0
2096921,2096921,161140,674662,0
2096921,2096921,161020,675479,0
2096921,2096921,161022,675551,0
2096921,2096921,161110,675680,0
2096921,2096921,160988,675415,0
2096921,2096921,161100,675367,0
2096921,2096921,161275,675526,0
2096921,2096921,161568,675758,0
2096921,2096921,160989,675629,0
2096921,2096921,161266,675693,0
2096921,2096921,161557,675809,0
2096921,2096921,161745,675954,0
2096921,2096921,161805,676011,0
2096921,2096921,161659,676150,0
2096921,2096921,161385,676504,0
2096921,2096921,161492,676345,0
2096921,2096921,161621,676567,0
2096921,2096921,161585,676539,0
2096921,2096921,161804,676554,0
2096921,2096921,161551,676480,0
2096921,2096921,161590,676417,0
2096921,2096921,161538,676509,0
2096921,2096921,161586,676639,0
2096921,2096921,161898,676589,0
2096921,2096921,161607,676938,0
2096921,2096921,161758,676745,0
2096921,2096921,161920,677024,0
2096921,2096921,162187,677061,0
2096921,2096921,161874,677008,0
2096921,2096921,162137,676863,0
2096921,2096921,161741,677202,0
2096921,2096921,162113,677391,0
2096921,2096921,162052,677342,0
2096921,2096921,162043,677495,0
2096921,2096921,162173,677582,0
2096921,2096921,162040,677438,0
2096921,2096921,162009,677869,0
2096921,2096921,162159,678052,0
2096921,2096921,162112,677831,0
2096921,2096921,162203,678108,0
2096921,2096921,162102,677627,0
2096921,2096921,162113,678273,0
2096921,2096921,161972,677927,0
2096921,2096921,162110,678207,0
2096921,2096921,161826,678218,0
2096921,2096921,162264,677940,0
2096921,2096921,162142,678302,0
2096921,2096921,162187,678526,0
2096921,2096921,162203,678296,0
2096921,2096921,162265,678361,0
2096921,2096921,162244,678500,0
2096921,2096921,162540,678567,0
2096921,2096921,162510,678806,0
2096921,2096921,162405,678451,0
2096921,2096921,162520,678736,0
2096921,2096921,162403,678581,0
2096921,2096921,162376,678957,0
2096921,2096921,162510,678953,0
2096921,2096921,162303,678644,0
2096921,2096921,162423,678606,0
2096921,2096921,162230,678663,0
2096921,2096921,162548,679200,0
2096921,2096921,162781,678947,0
2096921,2096921,162644,679229,0
2096921,2096921,162784,679315,0
2096921,2096921,162528,679183,0
2096921,2096921,162443,679521,0
2096921,2096921,162465,679281,0
2096921,2096921,162303,679445,0
2096921,2096921,162653,679549,0
2096921,2096921,162591,679502,0
2096921,2096921,162660,679773,0
2096921,2096921,162807,679736,0
2096921,2096921,162795,679721,0
2096921,2096921,162891,679697,0
2096921,2096921,162777,679483,0
2096921,2096921,162880,679828,0
2096921,2096921,162767,679896,0
2096921,2096921,162677,679773,0
2096921,2096921,163077,679909,0
2096921,2096921,163078,679903,0
2096921,2096921,163135,680389,0
2096921,2096921,162772,680190,0
2096921,2096921,163066,680091,0
2096921,2096921,162685,680311,0
2096921,2096921,163130,680100,0
2096921,2096921,162960,680227,0
2096921,2096921,162787,680316,0
2096921,2096921,163072,680402,0
2096921,2096921,163022,680422,0
2096921,2096921,162620,680611,0
2096921,2096921,163024,680303,0
2096921,2096921,162952,680667,0
2096921,2096921,163072,680350,0
2096921,2096921,163078,680701,0
2096921,2096921,162773,680432,0
2096921,2096921,162759,680718,0
2096921,2096921,162935,680651,0
2096921,2096921,163059,680805,0
2096921,2096921,162829,680694,0
2096921,2096921,162659,680713,0
2096921,2096921,162964,681144,0
2096921,2096921,163161,680935,0
2096921,2096921,163246,681142,0
2096921,2096921,163220,680983,0
2096921,2096921,163237,681046,0
2096921,2096921,163395,681136,0
2096921,2096921,163307,680993,0
2096921,2096921,163427,681208,0
2096921,2096921,163093,681103,0
2096921,2096921,163076,681293,0
2096921,2096921,163276,681474,0
2096921,2096921,163226,681360,0
2096921,2096921,163465,681641,0
2096921,2096921,163169,681482,0
2096921,2096921,163538,681367,0
2096921,2096921,163285,681647,0
2096921,2096921,163425,681404,0
2096921,2096921,163217,681544,0
2096921,2096921,163380,681797,0
2096921,2096921,163056,681273,0
2096921,2096921,163469,681399,0
2096921,2096921,163211,681565,0
2096921,2096921,163335,682051,0
2096921,2096921,163479,681768,0
2096921,2096921,163349,681652,0
2096921,2096921,163483,682047,0
2096921,2096921,163593,681962,0
2096921,2096921,163496,681844,0
2096921,2096921,163680,681997,0
2096921,2096921,163367,681809,0
2096921,2096921,163473,682036,0
2096921,2096921,163279,681975,0
2096921,2096921,163334,681755,0
2096921,2096921,163251,681923,0
2096921,2096921,163553,681805,0
2096921,2096921,163855,682082,0
2096921,2096921,163312,682268,0
2096921,2096921,163343,682252,0
2096921,2096921,163257,682355,0
2096921,2096921,163134,681965,0
2096921,2096921,163241,682040,0
2096921,2096921,163529,682148,0
2096921,2096921,163481,682105,0
2096921,2096921,163572,681821,0
2096921,2096921,163462,681973,0
2096921,2096921,163366,681862,0
2096921,2096921,163409,682378,0
2096921,2096921,163661,682095,0
2096921,2096921,163965,682275,0
2096921,2096921,163390,682297,0
2096921,2096921,163516,682599,0
2096921,2096921,163698,682286,0
2096921,2096921,163501,682292,0
2096921,2096921,163454,682503,0
2096921,2096921,163559,682856,0
2096921,2096921,163515,682378,0
2096921,2096921,163497,682104,0
2096921,2096921,163599,682505,0
2096921,2096921,163395,682511,0
2096921,2096921,163519,682773,0
2096921,2096921,163511,682520,0
2096921,2096921,163692,682612,0
2096921,2096921,163648,682462,0
2096921,2096921,163800,682807,0
2096921,2096921,163821,682839,0
2096921,2096921,163858,682699,0
2096921,2096921,163466,682602,0
2096921,2096921,163635,682621,0
2096921,2096921,163671,682907,0
2096921,2096921,163752,682665,0
2096921,2096921,163630,682812,0
2096921,2096921,163845,682781,0
2096921,2096921,163587,682602,0
2096921,2096921,163335,682767,0
2096921,2096921,163420,683081,0
2096921,2096921,163540,682803,0
2096921,2096921,163666,682762,0
2096921,2096921,163818,682597,0
2096921,2096921,163590,682449,0
2096921,2096921,163762,682991,0
2096921,2096921,163738,683108,0
2096921,2096921,163974,682776,0
2096921,2096921,163836,682683,0
2096921,2096921,163646,682881,0
2096921,2096921,164155,683140,0
2096921,2096921,163631,683268,0
2096921,2096921,163875,683186,0
2096921,2096921,163783,683030,0
2096921,2096921,164065,683125,0
2096921,2096921,163876,683071,0
2096921,2096921,164127,682879,0
2096921,2096921,163862,683226,0
2096921,2096921,163775,682967,0
2096921,2096921,163666,683267,0
2096921,2096921,163931,683176,0
2096921,2096921,163870,683457,0
2096921,2096921,163677,683107,0
2096921,2096921,163832,682999,0
2096921,2096921,163716,682938,0
2096921,2096921,163633,683310,0
2096921,2096921,163853,683584,0
2096921,2096921,163811,683434,0
2096921,2096921,163761,683315,0
2096921,2096921,163738,683327,0
2096921,2096921,163858,683204,0
2096921,2096921,163912,683091,0
2096921,2096921,163573,683377,0
2096921,2096921,163675,683211,0
2096921,2096921,163763,683224,0
2096921,2096921,163962,683100,0
2096921,2096921,163893,683293,0
2096921,2096921,163939,683441,0
2096921,2096921,164082,683187,0
2096921,2096921,164010,683338,0
2096921,2096921,164040,683120,0
2096921,2096921,164114,683272,0
2096921,2096921,163902,683087,0
2096921,2096921,163947,683342,0
2096921,2096921,163961,683178,0
2096921,2096921,163736,682990,0
2096921,2096921,163899,683392,0
2096921,2096921,163542,682934,0
2096921,2096921,163965,683274,0
2096921,2096921,163876,683090,0
2096921,2096921,163721,683210,0
2096921,2096921,163800,683406,0
2096921,2096921,163900,683099,0
2096921,2096921,163987,683388,0
2096921,2096921,163510,683345,0
2096921,2096921,163678,683381,0
2096921,2096921,163437,683149,0
2096921,2096921,163690,683268,0
2096921,2096921,163499,683006,0
2096921,2096921,163590,683197,0
2096921,2096921,163944,683377,0
2096921,2096921,163791,682923,0
2096921,2096921,163814,683084,0
2096921,2096921,164179,683038,0
2096921,2096921,163776,682967,0
2096921,2096921,163960,683148,0
2096921,2096921,163971,683282,0
2096921,2096921,164005,682843,0
2096921,2096921,163854,682930,0
2096921,2096921,163960,682751,0
2096921,2096921,163757,682954,0
2096921,2096921,163778,683172,0
2096921,2096921,163622,682988,0
2096921,2096921,163927,683076,0
2096921,2096921,164004,683015,0
2096921,2096921,163749,682684,0
2096921,2096921,163823,682673,0
2096921,2096921,163880,682853,0
2096921,2096921,163953,682911,0
2096921,2096921,163700,682636,0
2096921,2096921,163908,683295,0
2096921,2096921,163812,682856,0
2096921,2096921,163973,682897,0
2096921,2096921,164126,683084,0
2096921,2096921,163855,682952,0
2096921,2096921,163579,682807,0
2096921,2096921,163669,682742,0
2096921,2096921,164026,682821,0
2096921,2096921,163800,682682,0
2096921,2096921,164175,682780,0
2096921,2096921,163978,682548,0
2096921,2096921,163706,682234,0
2096921,2096921,163533,682170,0
2096921,2096921,163995,682190,0
2096921,2096921,163745,682283,0
2096921,2096921,163618,682329,0
2096921,2096921,163715,681604,0
2096921,2096921,163452,681499,0
2096921,2096921,163550,681709,0
2096921,2096921,163454,681687,0
2096921,2096921,163449,681914,0
2096921,2096921,163110,681041,0
2096921,2096921,163022,680649,0
2096921,2096921,163352,680727,0
2096921,2096921,163134,680712,0
2096921,2096921,163085,680825,0
2096921,2096921,162823,679928,0
2096921,2096921,163076,679774,0
2096921,2096921,162692,679652,0
2096921,2096921,162669,679515,0
2096921,2096921,162749,679800,0
2096921,2096921,162598,678616,0
2096921,2096921,162503,678634,0
2096921,2096921,162071,678419,0
2096921,2096921,162417,678551,0
2096921,2096921,162247,678314,0
2096921,2096921,161798,676721,0
2096921,2096921,161612,676258,0
2096921,2096921,161809,675999,0
2096921,2096921,161492,676109,0
2096921,2096921,161630,675911,0
2096921,2096921,160974,673752,0
2096921,2096921,160569,673206,0
2096921,2096921,160526,673274,0
2096921,2096921,160589,672972,0
2096921,2096921,160627,672754,0
2096921,2096921,159904,671247,0
2096921,2096921,159849,670813,0
2096921,2096921,159818,670646,0
2096921,2096921,160076,670797,0
2096921,2096921,160064,670603,0
2096921,2096921,159588,669119,0
2096921,2096921,159281,668835,0
2096921,2096921,159165,668735,0
2096921,2096921,159301,668540,0
2096921,2096921,159293,668939,0
2096921,2096921,158903,667835,0
2096921,2096921,158920,667526,0
2096921,2096921,158943,667503,0
2096921,2096921,158910,667717,0
2096921,2096921,158979,667566,0
2096921,2096921,158610,666977,0
2096921,2096921,158550,666809,0
2096921,2096921,158668,666430,0
2096921,2096921,158607,666458,0
2096921,2096921,158408,666758,0
2096921,2096921,158312,665973,0
2096921,2096921,158388,665644,0
2096921,2096921,158548,665697,0
2096921,2096921,157988,665960,0
2096921,2096921,158285,665867,0
2096921,2096921,158131,665490,0
2096921,2096921,158013,665446,0
2096921,2096921,158397,665297,0
2096921,2096921,158263,665084,0
2096921,2096921,158074,665031,0
2096921,2096921,158225,664673,0
2096921,2096921,157777,664881,0
2096921,2096921,157973,664911,0
2096921,2096921,157932,665008,0
2096921,2096921,158276,664933,0
2096921,2096921,158073,664712,0
2096921,2096921,157753,664740,0
2096921,2096921,158094,664943,0
2096921,2096921,157899,664772,0
2096921,2096921,158389,664712,0
2096921,2096921,158112,664745,0
2096921,2096921,158115,664660,0
2096921,2096921,158136,664756,0
2096921,2096921,158268,664901,0
2096921,2096921,158197,664733,0
2096921,2096921,158299,664674,0
2096921,2096921,158200,664730,0
2096921,2096921,158012,664489,0
2096921,2096921,158157,664737,0
2096921,2096921,158101,664724,0
2096921,2096921,158101,664691,0
2096921,2096921,157870,664493,0
2096921,2096921,157984,664749,0
2096921,2096921,158074,664636,0
2096921,2096921,158140,664663,0
2096921,2096921,157886,664862,0
2096921,2096921,158012,664989,0
2096921,2096921,157977,664989,0
2096921,2096921,157886,665262,0
2096921,2096921,157938,665176,0
2096921,2096921,158245,665399,0
2096921,2096921,158414,665127,0
2096921,2096921,158050,665307,0
2096921,2096921,158308,665202,0
2096921,2096921,158567,665342,0
2096921,2096921,158418,665651,0
2096921,2096921,158182,665890,0
2096921,2096921,158379,665923,0
2096921,2096921,158474,665690,0
2096921,2096921,158433,665927,0
2096921,2096921,158439,665780,0
2096921,2096921,158469,666026,0
2096921,2096921,158387,666103,0
2096921,2096921,158540,665899,0
2096921,2096921,158483,665808,0
2096921,2096921,158752,666154,0
2096921,2096921,158565,666486,0
2096921,2096921,158551,666063,0
2096921,2096921,158444,665895,0
2096921,2096921,158698,665847,0
2096921,2096921,158723,666366,0
2096921,2096921,158932,666497,0
2096921,2096921,158968,666371,0
2096921,2096921,158630,666250,0
2096921,2096921,158676,666301,0
2096921,2096921,158935,666616,0
2096921,2096921,158821,666503,0
2096921,2096921,158875,666501,0
2096921,2096921,158454,666671,0
2096921,2096921,158649,666879,0
2096921,2096921,158925,667066,0
2096921,2096921,158927,666933,0
2096921,2096921,158978,667335,0
2096921,2096921,158842,666850,0
2096921,2096921,158721,667231,0
2096921,2096921,158682,667209,0
2096921,2096921,158827,667328,0
2096921,2096921,158861,667088,0
2096921,2096921,158915,667232,0
2096921,2096921,159248,667065,0
2096921,2096921,159167,667595,0
2096921,2096921,159177,667723,0
2096921,2096921,159180,667587,0
2096921,2096921,159092,667341,0
2096921,2096921,159017,667890,0
2096921,2096921,159291,667950,0
2096921,2096921,159043,667869,0
2096921,2096921,159343,668145,0
2096921,2096921,159213,667962,0
2096921,2096921,159195,667728,0
2096921,2096921,159306,667750,0
2096921,2096921,159457,668045,0
2096921,2096921,159570,668077,0
2096921,2096921,159651,667919,0
2096921,2096921,159587,668225,0
2096921,2096921,159297,668198,0
2096921,2096921,159602,668105,0
2096921,2096921,159374,668241,0
2096921,2096921,159473,668394,0
2096921,2096921,159405,668536,0
2096921,2096921,159389,668424,0
2096921,2096921,159295,668460,0
2096921,2096921,159469,668334,0
2096921,2096921,159518,668387,0
2096921,2096921,159536,668420,0
2096921,2096921,159349,668205,0
2096921,2096921,159542,668419,0
2096921,2096921,159357,668189,0
2096921,2096921,159546,668130,0
2096921,2096921,159661,668755,0
2096921,2096921,159683,668519,0
2096921,2096921,159678,668867,0
2096921,2096921,159563,668390,0
2096921,2096921,159612,668674,0
2096921,2096921,159600,668529,0
2096921,2096921,159711,668435,0
2096921,2096921,159623,668518,0
2096921,2096921,159756,668424,0
2096921,2096921,159485,668544,0
2096921,2096921,159529,668276,0
2096921,2096921,159460,667990,0
2096921,2096921,159607,668058,0
2096921,2096921,159437,668049,0
2096921,2096921,159739,668054,0
2096921,2096921,159372,668010,0
2096921,2096921,159352,667887,0
2096921,2096921,159348,667653,0
2096921,2096921,159229,667761,0
2096921,2096921,159575,667618,0
2096921,2096921,159404,667783,0
2096921,2096921,159272,667782,0
2096921,2096921,159525,667342,0
2096921,2096921,159214,667488,0
2096921,2096921,159323,667783,0
2096921,2096921,159394,667445,0
2096921,2096921,159233,667153,0
2096921,2096921,158969,666952,0
2096921,2096921,159275,667101,0
2096921,2096921,159342,666857,0
2096921,2096921,159156,667075,0
2096921,2096921,159204,666905,0
2096921,2096921,159199,666628,0
2096921,2096921,159031,666769,0
2096921,2096921,159149,667053,0
2096921,2096921,158932,667104,0
2096921,2096921,159039,666544,0
2096921,2096921,158923,666006,0
2096921,2096921,158854,666303,0
2096921,2096921,158817,666102,0
2096921,2096921,158847,666339,0
2096921,2096921,158957,666049,0
2096921,2096921,159121,666128,0
2096921,2096921,158917,666141,0
2096921,2096921,158700,666015,0
2096921,2096921,158795,665963,0
2096921,2096921,159029,665429,0
2096921,2096921,158774,665320,0
2096921,2096921,158534,665485,0
2096921,2096921,158539,665622,0
2096921,2096921,159082,665278,0
2096921,2096921,158745,665398,0
2096921,2096921,158901,665238,0
2096921,2096921,158760,665355,0
2096921,2096921,158812,665295,0
2096921,2096921,158926,665224,0
2096921,2096921,158434,665024,0
2096921,2096921,158928,665273,0
2096921,2096921,158752,664970,0
2096921,2096921,158445,664911,0
2096921,2096921,158318,665193,0
2096921,2096921,158830,664786,0
2096921,2096921,158841,664726,0
2096921,2096921,158771,664774,0
2096921,2096921,158633,664645,0
2096921,2096921,158506,664925,0
2096921,2096921,158473,664789,0
2096921,2096921,158595,665060,0
2096921,2096921,158415,664927,0
2096921,2096921,158803,664886,0
2096921,2096921,158469,664823,0
2096921,2096921,158812,664963,0
2096921,2096921,158826,664819,0
2096921,2096921,159096,664946,0
2096921,2096921,158933,664971,0
2096921,2096921,158911,664940,0
2096921,2096921,158841,665094,0
2096921,2096921,158766,665412,0
2096921,2096921,158580,665346,0
2096921,2096921,158576,665273,0
2096921,2096921,158643,665056,0
2096921,2096921,158712,665457,0
2096921,2096921,158775,665310,0
2096921,2096921,158751,665207,0
2096921,2096921,158649,665238,0
2096921,2096921,158724,665145,0
2096921,2096921,158854,665395,0
2096921,2096921,159044,665552,0
2096921,2096921,159007,665301,0
2096921,2096921,158821,665352,0
2096921,2096921,159148,664964,0
2096921,2096921,158995,665374,0
2096921,2096921,158781,665437,0
2096921,2096921,158984,665432,0
2096921,2096921,158908,665261,0
2096921,2096921,159339,665587,0
2096921,2096921,158802,665226,0
2096921,2096921,158901,665221,0
2096921,2096921,158934,665335,0
2096921,2096921,158901,665150,0
2096921,2096921,158566,665183,0
2096921,2096921,159322,665187,0
2096921,2096921,159324,665353,0
2096921,2096921,159198,665165,0
2096921,2096921,158988,665559,0
2096921,2096921,159104,665145,0
2096921,2096921,159258,665518,0
2096921,2096921,159035,665302,0
2096921,2096921,159025,665517,0
2096921,2096921,159353,665289,0
2096921,2096921,159262,665391,0
2096921,2096921,159222,665659,0
2096921,2096921,159269,665339,0
2096921,2096921,159024,665399,0
2096921,2096921,158924,665404,0
2096921,2096921,158929,665174,0
2096921,2096921,158933,665286,0
2096921,2096921,158642,665182,0
2096921,2096921,158913,665323,0
2096921,2096921,158933,665703,0
2096921,2096921,159155,665270,0
2096921,2096921,159207,665796,0
2096921,2096921,159168,665463,0
2096921,2096921,159065,665554,0
2096921,2096921,158959,665367,0
2096921,2096921,159189,665563,0
2096921,2096921,158939,665448,0
2096921,2096921,159215,665729,0
2096921,2096921,159110,665516,0
2096921,2096921,158962,665500,0
2096921,2096921,159215,665135,0
2096921,2096921,158983,665405,0
2096921,2096921,159113,665523,0
2096921,2096921,159266,665491,0
2096921,2096921,159180,665413,0
2096921,2096921,159207,665598,0
2096921,2096921,159186,665530,0
2096921,2096921,159412,665499,0
2096921,2096921,159172,665458,0
2096921,2096921,159249,665601,0
2096921,2096921,159170,665725,0
2096921,2096921,158976,665532,0
2096921,2096921,159191,665632,0
2096921,2096921,159185,665227,0
2096921,2096921,159254,665255,0
2096921,2096921,159129,665301,0
2096921,2096921,159510,665359,0
2096921,2096921,159104,665439,0
2096921,2096921,159176,665525,0
2096921,2096921,158909,665593,0
2096921,2096921,159307,665644,0
2096921,2096921,159245,665339,0
2096921,2096921,159031,665761,0
2096921,2096921,159393,665812,0
2096921,2096921,159191,665791,0
2096921,2096921,159282,665815,0
2096921,2096921,159093,665567,0
2096921,2096921,159174,665522,0
2096921,2096921,159248,665350,0
2096921,2096921,159074,665729,0
2096921,2096921,159169,665747,0
2096921,2096921,159213,665480,0
2096921,2096921,159152,665544,0
2096921,2096921,159150,665473,0
2096921,2096921,159331,665355,0
2096921,2096921,159268,665655,0
2096921,2096921,159284,665375,0
2096921,2096921,159284,665384,0
2096921,2096921,159341,665458,0
2096921,2096921,159456,665535,0
2096921,2096921,158967,665541,0
2096921,2096921,159295,665567,0
2096921,2096921,159288,665375,0
2096921,2096921,159583,665557,0
2096921,2096921,159302,665720,0
2096921,2096921,159370,665410,0
2096921,2096921,159164,665481,0
2096921,2096921,159259,665542,0
2096921,2096921,159306,665447,0
2096921,2096921,159048,665348,0
2096921,2096921,159288,665013,0
2096921,2096921,159455,665486,0
2096921,2096921,159307,665674,0
2096921,2096921,159388,665569,0
2096921,2096921,159518,665514,0
2096921,2096921,158965,665730,0
2096921,2096921,159349,665398,0
2096921,2096921,159486,665604,0
2096921,2096921,159397,665490,0
2096921,2096921,159067,665382,0
2096921,2096921,159237,665554,0
2096921,2096921,159316,665449,0
2096921,2096921,159515,665517,0
2096921,2096921,159315,665337,0
2096921,2096921,159201,665489,0
2096921,2096921,159047,665483,0
2096921,2096921,159244,665234,0
2096921,2096921,159595,664942,0
2096921,2096921,159372,665278,0
2096921,2096921,159205,665437,0
2096921,2096921,159174,665244,0
2096921,2096921,159170,665230,0
2096921,2096921,159224,665307,0
2096921,2096921,159404,665201,0
2096921,2096921,159206,665259,0
2096921,2096921,158855,665237,0
2096921,2096921,158997,665411,0
2096921,2096921,158926,665030,0
2096921,2096921,159281,665085,0
2096921,2096921,159149,665249,0
2096921,2096921,159136,665230,0
2096921,2096921,159199,664859,0
2096921,2096921,159364,664823,0
2096921,2096921,159557,664820,0
2096921,2096921,159304,665022,0
2096921,2096921,159429,665176,0
2096921,2096921,159408,664776,0
2096921,2096921,159359,665013,0
2096921,2096921,159361,664742,0
2096921,2096921,159340,664826,0
2096921,2096921,159183,664963,0
2096921,2096921,159129,664955,0
2096921,2096921,159419,664943,0
2096921,2096921,159281,664828,0
2096921,2096921,159229,665165,0
2096921,2096921,159370,664867,0
2096921,2096921,159119,664963,0
2096921,2096921,159203,664942,0
2096921,2096921,159099,664639,0
2096921,2096921,159202,664862,0
2096921,2096921,159318,664767,0
2096921,2096921,159390,664841,0
2096921,2096921,159131,665023,0
2096921,2096921,159415,664863,0
2096921,2096921,159063,664739,0
2096921,2096921,159321,664632,0
2096921,2096921,158969,664219,0
2096921,2096921,159224,664640,0
2096921,2096921,159232,664638,0
2096921,2096921,159078,664623,0
2096921,2096921,158925,664607,0
2096921,2096921,159023,664644,0
2096921,2096921,159234,664510,0
2096921,2096921,158666,664497,0
2096921,2096921,159256,664808,0
2096921,2096921,159024,664585,0
2096921,2096921,158907,664633,0
2096921,2096921,159077,664496,0
2096921,2096921,159086,664459,0
2096921,2096921,159020,664592,0
2096921,2096921,159231,664514,0
2096921,2096921,159015,664536,0
2096921,2096921,159065,664579,0
2096921,2096921,159170,664511,0
2096921,2096921,159147,664335,0
2096921,2096921,159087,664399,0
2096921,2096921,158988,664500,0
2096921,2096921,158993,664268,0
2096921,2096921,159105,664271,0
2096921,2096921,159444,664426,0
2096921,2096921,159065,664656,0
2096921,2096921,159378,664760,0
2096921,2096921,159234,664265,0
2096921,2096921,159254,664655,0
2096921,2096921,158993,664410,0
2096921,2096921,159028,664322,0
2096921,2096921,159351,664072,0
2096921,2096921,159265,664129,0
2096921,2096921,158823,664198,0
2096921,2096921,158929,664280,0
2096921,2096921,159035,664120,0
2096921,2096921,159223,664029,0
2096921,2096921,159230,664235,0
2096921,2096921,159189,664399,0
2096921,2096921,159036,664043,0
2096921,2096921,159058,664049,0
2096921,2096921,159112,663973,0
2096921,2096921,159221,663759,0
2096921,2096921,159165,664074,0
2096921,2096921,159208,663768,0
2096921,2096921,159261,663908,0
2096921,2096921,159027,663865,0
2096921,2096921,159308,664147,0
2096921,2096921,159182,663945,0
2096921,2096921,159049,664109,0
2096921,2096921,159186,663875,0
2096921,2096921,159064,664150,0
2096921,2096921,159225,664058,0
2096921,2096921,159077,664144,0
2096921,2096921,159014,663786,0
2096921,2096921,159403,663693,0
2096921,2096921,159030,663788,0
2096921,2096921,159052,663975,0
2096921,2096921,159199,663856,0
2096921,2096921,159148,663787,0
2096921,2096921,159110,664021,0
2096921,2096921,158988,663708,0
2096921,2096921,158891,663391,0
2096921,2096921,159189,663634,0
2096921,2096921,158654,663964,0
2096921,2096921,159079,663649,0
2096921,2096921,159188,663711,0
2096921,2096921,158887,663510,0
2096921,2096921,158856,663840,0
2096921,2096921,159122,663739,0
2096921,2096921,159102,663912,0
2096921,2096921,158994,663568,0
2096921,2096921,159105,663629,0
2096921,2096921,158918,663657,0
2096921,2096921,159084,663575,0
2096921,2096921,159002,663409,0
2096921,2096921,159051,663383,0
2096921,2096921,158918,663394,0
2096921,2096921,158952,663264,0
2096921,2096921,159058,663500,0
2096921,2096921,158933,663301,0
2096921,2096921,158975,663262,0
2096921,2096921,158900,663466,0
2096921,2096921,159136,663471,0
2096921,2096921,158798,663428,0
2096921,2096921,158703,663283,0
2096921,2096921,158812,663294,0
2096921,2096921,158960,663282,0
2096921,2096921,158871,663325,0
2096921,2096921,158942,663203,0
2096921,2096921,158763,663470,0
2096921,2096921,158959,663037,0
2096921,2096921,158786,663213,0
2096921,2096921,158931,663237,0
2096921,2096921,158935,663383,0
2096921,2096921,158805,663220,0
2096921,2096921,158668,663212,0
2096921,2096921,158840,663174,0
2096921,2096921,158846,663070,0
2096921,2096921,158823,663140,0
2096921,2096921,158947,663338,0
2096921,2096921,159034,662547,0
2096921,2096921,158599,662594,0
2096921,2096921,158539,662700,0
2096921,2096921,158694,662486,0
2096921,2096921,158436,662522,0
2096921,2096921,158391,662216,0
2096921,2096921,158624,662307,0
2096921,2096921,158519,662258,0
2096921,2096921,158559,662421,0
2096921,2096921,158567,662345,0
2096921,2096921,158255,661629,0
2096921,2096921,158284,661645,0
2096921,2096921,157982,661516,0
2096921,2096921,158170,661305,0
2096921,2096921,158119,661360,0
2096921,2096921,158201,660643,0
2096921,2096921,158141,660410,0
2096921,2096921,158057,660311,0
2096921,2096921,158071,660496,0
2096921,2096921,158010,660212,0
2096921,2096921,157723,659204,0
2096921,2096921,157463,659706,0
2096921,2096921,157465,659677,0
2096921,2096921,157662,659527,0
2096921,2096921,157469,659279,0
2096921,2096921,156792,657571,0
2096921,2096921,157018,657315,0
2096921,2096921,156915,657193,0
2096921,2096921,156693,657141,0
2096921,2096921,156589,657033,0
2096921,2096921,155886,654694,0
2096921,2096921,155785,654247,0
2096921,2096921,155822,654166,0
2096921,2096921,155782,654322,0
2096921,2096921,155851,654200,0
2096921,2096921,155824,652752,0
2096921,2096921,155520,652218,0
2096921,2096921,155598,652001,0
2096921,2096921,155292,652288,0
2096921,2096921,155174,652188,0
2096921,2096921,155109,651112,0
2096921,2096921,154888,650616,0
2096921,2096921,154618,650765,0
2096921,2096921,154747,650539,0
2096921,2096921,154387,650541,0
2096921,2096921,154220,649626,0
2096921,2096921,154355,649580,0
2096921,2096921,154331,649463,0
2096921,2096921,154248,649545,0
2096921,2096921,154230,649467,0
2096921,2096921,154074,648781,0
2096921,2096921,153922,648507,0
2096921,2096921,154046,648625,0
2096921,2096921,154043,648524,0
2096921,2096921,153792,648684,0
2096921,2096921,153881,648187,0
2096921,2096921,154055,647912,0
2096921,2096921,154004,647962,0
2096921,2096921,154075,648007,0
2096921,2096921,153906,647993,0
2096921,2096921,153941,647649,0
2096921,2096921,153625,647960,0
2096921,2096921,153556,647399,0
2096921,2096921,153827,647808,0
2096921,2096921,153793,647714,0
2096921,2096921,153729,647757,0
2096921,2096921,153556,647411,0
2096921,2096921,153588,647406,0
2096921,2096921,153650,647835,0
2096921,2096921,154019,647774,0
2096921,2096921,153841,647618,0
2096921,2096921,153672,647553,0
2096921,2096921,153888,647587,0
2096921,2096921,153704,647532,0
2096921,2096921,153648,647749,0
2096921,2096921,153820,647726,0
2096921,2096921,153784,647711,0
2096921,2096921,153689,647973,0
2096921,2096921,153893,647631,0
2096921,2096921,153826,647718,0
2096921,2096921,153856,647730,0
2096921,2096921,153947,647836,0
2096921,2096921,153802,648048,0
2096921,2096921,153857,648039,0
2096921,2096921,153856,647901,0
2096921,2096921,153869,647959,0
2096921,2096921,153654,648047,0
2096921,2096921,153870,648184,0
2096921,2096921,153984,647941,0
2096921,2096921,154115,648244,0
2096921,2096921,154200,648522,0
2096921,2096921,154352,648311,0
2096921,2096921,154302,648259,0
2096921,2096921,154004,648335,0
2096921,2096921,154087,648357,0
2096921,2096921,154222,648809,0
2096921,2096921,154241,648818,0
2096921,2096921,154145,649080,0
2096921,2096921,154096,648844,0
2096921,2096921,153981,648956,0
2096921,2096921,154182,649417,0
2096921,2096921,154221,649605,0
2096921,2096921,154228,649477,0
2096921,2096921,154139,649374,0
2096921,2096921,154504,649233,0
2096921,2096921,154696,649744,0
2096921,2096921,154529,649843,0
2096921,2096921,154798,649996,0
2096921,2096921,154700,650084,0
2096921,2096921,154462,649983,0
2096921,2096921,154592,650278,0
2096921,2096921,154920,650077,0
2096921,2096921,154545,650241,0
2096921,2096921,154728,650220,0
2096921,2096921,154693,650166,0
2096921,2096921,154767,650670,0
2096921,2096921,154866,650960,0
2096921,2096921,154816,650983,0
2096921,2096921,154682,650954,0
2096921,2096921,154864,650890,0
2096921,2096921,154917,651310,0
2096921,2096921,155178,651181,0
2096921,2096921,154714,651302,0
2096921,2096921,154785,651277,0
2096921,2096921,154982,651239,0
2096921,2096921,155134,651809,0
2096921,2096921,154967,651937,0
2096921,2096921,154880,652107,0
2096921,2096921,155470,651857,0
2096921,2096921,155143,651762,0
2096921,2096921,155215,652039,0
2096921,2096921,155252,652154,0
2096921,2096921,155451,652177,0
2096921,2096921,155242,652389,0
2096921,2096921,155554,652293,0
2096921,2096921,155407,653086,0
2096921,2096921,155408,652367,0
2096921,2096921,155524,652816,0
2096921,2096921,155452,652931,0
2096921,2096921,155484,653121,0
2096921,2096921,155463,653040,0
2096921,2096921,155877,653391,0
2096921,2096921,155657,653413,0
2096921,2096921,155631,653118,0
2096921,2096921,155534,653383,0
2096921,2096921,155809,653712,0
2096921,2096921,155636,654066,0
2096921,2096921,155780,653916,0
2096921,2096921,155560,653998,0
2096921,2096921,155793,653940,0
2096921,2096921,155938,654184,0
2096921,2096921,156089,654230,0
2096921,2096921,155977,654189,0
2096921,2096921,156208,654001,0
2096921,2096921,155956,654118,0
2096921,2096921,155992,654799,0
2096921,2096921,156011,654774,0
2096921,2096921,156096,654574,0
2096921,2096921,156073,654504,0
2096921,2096921,156245,654739,0
2096921,2096921,156287,654996,0
2096921,2096921,155939,654744,0
2096921,2096921,155917,654968,0
2096921,2096921,155763,654759,0
2096921,2096921,155885,654982,0
2096921,2096921,156135,654660,0
2096921,2096921,156278,654884,0
2096921,2096921,156007,654999,0
2096921,2096921,156185,655165,0
2096921,2096921,155991,655223,0
2096921,2096921,156306,655520,0
2096921,2096921,156272,655155,0
2096921,2096921,156162,655182,0
2096921,2096921,156060,655531,0
2096921,2096921,156229,655466,0
2096921,2096921,156150,655293,0
2096921,2096921,156214,655136,0
2096921,2096921,156254,654915,0
2096921,2096921,156279,655515,0
2096921,2096921,156349,655502,0
2096921,2096921,156307,655428,0
2096921,2096921,156380,655423,0
2096921,2096921,155988,655495,0
2096921,2096921,156098,655302,0
2096921,2096921,155920,655237,0
2096921,2096921,156111,655257,0
2096921,2096921,155940,655148,0
2096921,2096921,156127,655132,0
2096921,2096921,156268,655280,0
2096921,2096921,156204,655367,0
2096921,2096921,156333,655143,0
2096921,2096921,155981,655206,0
2096921,2096921,156422,655074,0
2096921,2096921,156595,655066,0
2096921,2096921,156106,655050,0
2096921,2096921,156299,655146,0
2096921,2096921,156237,655026,0
2096921,2096921,155760,654785,0
2096921,2096921,156248,654756,0
2096921,2096921,155968,654869,0
2096921,2096921,155931,654727,0
2096921,2096921,156293,655023,0
2096921,2096921,156439,654982,0
2096921,2096921,156181,654722,0
2096921,2096921,156312,654649,0
2096921,2096921,156312,654676,0
2096921,2096921,156307,654668,0
2096921,2096921,156095,655000,0
2096921,2096921,155911,654544,0
2096921,2096921,155875,654657,0
2096921,2096921,156226,654428,0
2096921,2096921,156105,654556,0
2096921,2096921,155996,654582,0
2096921,2096921,156178,654791,0
2096921,2096921,156193,654691,0
2096921,2096921,156211,654661,0
2096921,2096921,156236,654464,0
2096921,2096921,156228,654595,0
2096921,2096921,155838,654861,0
2096921,2096921,156162,654678,0
2096921,2096921,155670,655044,0
2096921,2096921,155770,654907,0
2096921,2096921,156025,654894,0
2096921,2096921,155954,654858,0
2096921,2096921,156003,655019,0
2096921,2096921,156011,654974,0
2096921,2096921,155925,655029,0
2096921,2096921,155995,654948,0
2096921,2096921,156123,655218,0
2096921,2096921,156097,655155,0
2096921,2096921,156181,655422,0
2096921,2096921,156318,655467,0
2096921,2096921,156176,655377,0
2096921,2096921,156044,655780,0
2096921,2096921,156024,655249,0
2096921,2096921,156019,655605,0
2096921,2096921,156450,655753,0
2096921,2096921,156498,655689,0
2096921,2096921,156296,656055,0
2096921,2096921,156288,655750,0
2096921,2096921,156558,655951,0
2096921,2096921,156629,656197,0
2096921,2096921,156703,656201,0
2096921,2096921,156546,656212,0
2096921,2096921,156477,656141,0
2096921,2096921,156802,656280,0
2096921,2096921,156755,656621,0
2096921,2096921,156748,656619,0
2096921,2096921,156751,656637,0
2096921,2096921,156669,656633,0
2096921,2096921,156594,657128,0
2096921,2096921,156712,657118,0
2096921,2096921,156870,657040,0
2096921,2096921,156793,657210,0
2096921,2096921,156963,657043,0
2096921,2096921,156755,657099,0
2096921,2096921,156728,657507,0
2096921,2096921,156708,657369,0
2096921,2096921,156904,657635,0
2096921,2096921,156893,657563,0
2096921,2096921,157116,657852,0
2096921,2096921,157140,657718,0
2096921,2096921,157125,657514,0
2096921,2096921,156924,657478,0
2096921,2096921,156799,657759,0
2096921,2096921,157078,658163,0
2096921,2096921,157287,658371,0
2096921,2096921,157130,658388,0
2096921,2096921,157142,658259,0
2096921,2096921,157038,658315,0
2096921,2096921,157333,658673,0
2096921,2096921,157065,658829,0
2096921,2096921,157345,658688,0
2096921,2096921,157210,658794,0
2096921,2096921,157422,658746,0
2096921,2096921,157483,658921,0
2096921,2096921,157245,658975,0
2096921,2096921,156989,659090,0
2096921,2096921,157409,659011,0
2096921,2096921,157512,658776,0
2096921,2096921,157818,659526,0
2096921,2096921,157601,659477,0
2096921,2096921,157386,659505,0
2096921,2096921,157533,659523,0
2096921,2096921,157518,659441,0
2096921,2096921,157628,659719,0
2096921,2096921,157235,659852,0
2096921,2096921,157322,660060,0
2096921,2096921,157615,660040,0
2096921,2096921,157695,660062,0
2096921,2096921,157843,660433,0
2096921,2096921,157789,660427,0
2096921,2096921,157630,660417,0
2096921,2096921,157767,660554,0
2096921,2096921,157436,660576,0
2096921,2096921,158019,660337,0
2096921,2096921,158026,660637,0
2096921,2096921,157732,660484,0
2096921,2096921,157681,660789,0
2096921,2096921,157796,661031,0
2096921,2096921,157982,661186,0
2096921,2096921,158000,660828,0
2096921,2096921,157954,660601,0
2096921,2096921,157983,661224,0
2096921,2096921,158180,661197,0
2096921,2096921,157989,661329,0
2096921,2096921,158412,661408,0
2096921,2096921,158273,661395,0
2096921,2096921,158367,661384,0
2096921,2096921,158108,661476,0
2096921,2096921,158167,661708,0
2096921,2096921,158045,662008,0
2096921,2096921,158122,661784,0
2096921,2096921,158379,661945,0
2096921,2096921,157911,661661,0
2096921,2096921,158249,662104,0
2096921,2096921,158479,662352,0
2096921,2096921,158211,662325,0
2096921,2096921,158204,662332,0
2096921,2096921,158418,662350,0
2096921,2096921,158448,662560,0
2096921,2096921,158437,662688,0
2096921,2096921,158601,662855,0
2096921,2096921,158301,662856,0
2096921,2096921,158700,662803,0
2096921,2096921,158576,662915,0
2096921,2096921,158518,662974,0
2096921,2096921,158674,662876,0
2096921,2096921,158701,662964,0
2096921,2096921,158695,663055,0
2096921,2096921,158681,663333,0
2096921,2096921,158876,663552,0
2096921,2096921,158837,663227,0
2096921,2096921,158682,663470,0
2096921,2096921,158853,662976,0
2096921,2096921,158929,663564,0
2096921,2096921,159009,663603,0
2096921,2096921,159006,663756,0
2096921,2096921,158610,663956,0
2096921,2096921,158664,664201,0
2096921,2096921,158878,664274,0
2096921,2096921,158778,664201,0
2096921,2096921,158927,664388,0
2096921,2096921,158757,664453,0
2096921,2096921,158754,664223,0
2096921,2096921,158935,664519,0
2096921,2096921,159306,664698,0
2096921,2096921,159161,664737,0
2096921,2096921,159052,664692,0
2096921,2096921,159048,664757,0
2096921,2096921,159242,664825,0
2096921,2096921,159027,664906,0
2096921,2096921,159147,664759,0
2096921,2096921,159110,664991,0
2096921,2096921,159419,664851,0
2096921,2096921,159303,665071,0
2096921,2096921,159037,664900,0
2096921,2096921,159155,664944,0
2096921,2096921,159099,665283,0
2096921,2096921,159291,665145,0
2096921,2096921,159486,665559,0
2096921,2096921,159476,665564,0
2096921,2096921,159165,665752,0
2096921,2096921,159141,665562,0
2096921,2096921,159288,665744,0
2096921,2096921,159341,665766,0
2096921,2096921,159486,665803,0
2096921,2096921,159507,666001,0
2096921,2096921,159484,665786,0
2096921,2096921,159385,665889,0
2096921,2096921,159527,666199,0
2096921,2096921,159432,666273,0
2096921,2096921,159380,666302,0
2096921,2096921,159472,666497,0
2096921,2096921,159467,666351,0
2096921,2096921,159693,666259,0
2096921,2096921,159681,666667,0
2096921,2096921,159649,666988,0
2096921,2096921,159663,666951,0
2096921,2096921,159493,666843,0
2096921,2096921,159843,667152,0
2096921,2096921,159708,667050,0
2096921,2096921,159654,667039,0
2096921,2096921,159766,667081,0
2096921,2096921,159560,666981,0
2096921,2096921,159634,667121,0
2096921,2096921,159876,667180,0
2096921,2096921,160075,667416,0
2096921,2096921,159758,667372,0
2096921,2096921,159892,667566,0
2096921,2096921,160075,667567,0
2096921,2096921,159879,667718,0
2096921,2096921,159833,667829,0
2096921,2096921,159878,667683,0
2096921,2096921,160104,667864,0
2096921,2096921,160083,667857,0
2096921,2096921,159783,667731,0
2096921,2096921,159951,667759,0
2096921,2096921,160153,668266,0
2096921,2096921,159995,668045,0
2096921,2096921,160007,668387,0
2096921,2096921,160007,668318,0
2096921,2096921,160035,668252,0
2096921,2096921,159872,668042,0
2096921,2096921,160010,668213,0
2096921,2096921,160299,668676,0
2096921,2096921,160061,668580,0
2096921,2096921,159975,668740,0
2096921,2096921,160438,668754,0
2096921,2096921,160341,668744,0
2096921,2096921,160183,669020,0
2096921,2096921,160313,669157,0
2096921,2096921,160394,668961,0
2096921,2096921,160204,669124,0
2096921,2096921,160206,669227,0
2096921,2096921,160246,669551,0
2096921,2096921,160316,669443,0
2096921,2096921,160298,669492,0
2096921,2096921,160444,669354,0
2096921,2096921,160529,669206,0
2096921,2096921,160117,669552,0
2096921,2096921,160289,669844,0
2096921,2096921,160348,669561,0
2096921,2096921,160183,669973,0
2096921,2096921,160378,669726,0
2096921,2096921,160683,669735,0
2096921,2096921,160627,669664,0
2096921,2096921,160546,669999,0
2096921,2096921,160724,669903,0
2096921,2096921,160388,670141,0
2096921,2096921,160716,669946,0
2096921,2096921,160863,670200,0
2096921,2096921,160513,670140,0
2096921,2096921,160364,670445,0
2096921,2096921,160390,670598,0
2096921,2096921,160518,670409,0
2096921,2096921,160374,670752,0
2096921,2096921,160916,670765,0
2096921,2096921,160803,670682,0
2096921,2096921,160631,670332,0
2096921,2096921,160755,671064,0
2096921,2096921,160658,671024,0
2096921,2096921,160649,670675,0
2096921,2096921,160452,670872,0
2096921,2096921,160769,671234,0
2096921,2096921,161004,671353,0
2096921,2096921,160563,671420,0
2096921,2096921,160878,671631,0
2096921,2096921,161193,671250,0
2096921,2096921,160907,671206,0
2096921,2096921,161025,671167,0
2096921,2096921,160804,671557,0
2096921,2096921,160767,671308,0
2096921,2096921,160775,671667,0
2096921,2096921,160737,671497,0
2096921,2096921,160752,671818,0
2096921,2096921,161053,671830,0
2096921,2096921,161030,672019,0
2096921,2096921,161049,671754,0
2096921,2096921,160923,671841,0
2096921,2096921,160907,672366,0
2096921,2096921,161187,672074,0
2096921,2096921,160810,672034,0
2096921,2096921,160992,672098,0
2096921,2096921,161010,671995,0
2096921,2096921,161244,672246,0
2096921,2096921,161313,672552,0
2096921,2096921,161363,672318,0
2096921,2096921,161301,672412,0
2096921,2096921,160988,672456,0
2096921,2096921,161070,672393,0
2096921,2096921,160825,672339,0
2096921,2096921,161274,672558,0
2096921,2096921,161291,672620,0
2096921,2096921,161232,672681,0
2096921,2096921,161285,672853,0
2096921,2096921,161354,672967,0
2096921,2096921,161300,672818,0
2096921,2096921,161645,673087,0
2096921,2096921,161565,673093,0
2096921,2096921,161078,673284,0
2096921,2096921,161463,672878,0
2096921,2096921,161180,672980,0
2096921,2096921,161590,673093,0
2096921,2096921,161348,673213,0
2096921,2096921,161295,673378,0
2096921,2096921,161285,673497,0
2096921,2096921,161496,673417,0
2096921,2096921,161248,673133,0
2096921,2096921,161242,673237,0
2096921,2096921,161487,673409,0
2096921,2096921,161384,673703,0
2096921,2096921,161347,673597,0
2096921,2096921,161490,673459,0
2096921,2096921,161587,673338,0
2096921,2096921,161603,673480,0
2096921,2096921,161475,673697,0
2096921,2096921,161564,673994,0
2096921,2096921,161506,673958,0
2096921,2096921,161578,673739,0
2096921,2096921,161438,673502,0
2096921,2096921,161467,673485,0
2096921,2096921,161386,673537,0
2096921,2096921,161327,673556,0
2096921,2096921,161090,673664,0
2096921,2096921,161233,673468,0
2096921,2096921,161380,673209,0
2096921,2096921,161634,673622,0
2096921,2096921,161423,673369,0
2096921,2096921,161452,673373,0
2096921,2096921,161606,673010,0
2096921,2096921,161007,672794,0
2096921,2096921,161489,672921,0
2096921,2096921,161101,672803,0
2096921,2096921,161344,673035,0
2096921,2096921,160903,672411,0
2096921,2096921,161176,672212,0
2096921,2096921,161042,672160,0
2096921,2096921,160929,672175,0
2096921,2096921,161026,672305,0
2096921,2096921,160960,671207,0
2096921,2096921,160872,671528,0
2096921,2096921,160507,671367,0
2096921,2096921,160649,671209,0
2096921,2096921,160242,671601,0
2096921,2096921,159873,669698,0
2096921,2096921,160016,669615,0
2096921,2096921,159830,669474,0
2096921,2096921,159830,669261,0
2096921,2096921,160019,669286,0
2096921,2096921,158985,667246,0
2096921,2096921,158954,666690,0
2096921,2096921,158913,666882,0
2096921,2096921,158853,666246,0
2096921,2096921,158965,666583,0
2096921,2096921,158238,665131,0
2096921,2096921,158190,664955,0
2096921,2096921,158299,664859,0
2096921,2096921,158576,664905,0
2096921,2096921,158362,664552,0
2096921,2096921,158099,664001,0
2096921,2096921,158169,663452,0
2096921,2096921,158006,663332,0
2096921,2096921,158226,663402,0
2096921,2096921,157918,663489,0
2096921,2096921,157731,662686,0
2096921,2096921,157739,662525,0
2096921,2096921,157650,662312,0
2096921,2096921,157595,662611,0
2096921,2096921,157360,662395,0
2096921,2096921,157382,662101,0
2096921,2096921,157342,661924,0
2096921,2096921,157658,661952,0
2096921,2096921,156911,661799,0
2096921,2096921,157466,661779,0
2096921,2096921,157527,661686,0
2096921,2096921,157463,661610,0
2096921,2096921,157207,661668,0
2096921,2096921,157409,661641,0
2096921,2096921,157271,661602,0
2096921,2096921,157100,661421,0
2096921,2096921,157260,661340,0
2096921,2096921,157038,661308,0
2096921,2096921,157078,661560,0
2096921,2096921,156999,661603,0
2096921,2096921,157040,661509,0
2096921,2096921,157147,661660,0
2096921,2096921,157234,661549,0
2096921,2096921,157213,661610,0
2096921,2096921,157061,661560,0
2096921,2096921,156986,661545,0
2096921,2096921,157160,661897,0
2096921,2096921,157398,661619,0
2096921,2096921,157196,661779,0
2096921,2096921,157249,661633,0
2096921,2096921,157223,662263,0
2096921,2096921,157215,662087,0
2096921,2096921,157532,662145,0
2096921,2096921,157498,662073,0
2096921,2096921,157425,662081,0
2096921,2096921,157239,662482,0
2096921,2096921,157427,662775,0
2096921,2096921,157343,662769,0
2096921,2096921,157430,662611,0
2096921,2096921,157380,662504,0
2096921,2096921,157355,662914,0
2096921,2096921,157475,662786,0
2096921,2096921,157443,663107,0
2096921,2096921,157592,663070,0
2096921,2096921,157915,662828,0
2096921,2096921,157816,663614,0
2096921,2096921,157819,663478,0
2096921,2096921,157802,663589,0
2096921,2096921,157619,663691,0
2096921,2096921,157800,663686,0
2096921,2096921,157957,664272,0
2096921,2096921,158013,664393,0
2096921,2096921,158160,664216,0
2096921,2096921,158002,664201,0
2096921,2096921,157995,664542,0
2096921,2096921,158084,664730,0
2096921,2096921,158246,664926,0
2096921,2096921,158091,665084,0
2096921,2096921,158532,664889,0
2096921,2096921,158354,664882,0
2096921,2096921,158448,665622,0
2096921,2096921,158297,665934,0
2096921,2096921,158329,665689,0
2096921,2096921,158411,666089,0
2096921,2096921,158573,665808,0
2096921,2096921,158906,666616,0
2096921,2096921,158591,666574,0
2096921,2096921,158853,666574,0
2096921,2096921,158430,666449,0
2096921,2096921,158628,666444,0
2096921,2096921,158984,666809,0
2096921,2096921,158802,667171,0
2096921,2096921,158855,667194,0
2096921,2096921,158999,666907,0
2096921,2096921,159006,667107,0
2096921,2096921,158931,667550,0
2096921,2096921,159104,667332,0
2096921,2096921,158894,667891,0
2096921,2096921,159167,667681,0
2096921,2096921,158962,667754,0
2096921,2096921,159274,668305,0
2096921,2096921,159341,668643,0
2096921,2096921,159253,668738,0
2096921,2096921,159530,668743,0
2096921,2096921,159456,668581,0
2096921,2096921,159468,668869,0
2096921,2096921,159648,669172,0
2096921,2096921,159217,668942,0
2096921,2096921,159481,669090,0
2096921,2096921,159284,669264,0
2096921,2096921,159568,669742,0
2096921,2096921,159440,669766,0
2096921,2096921,159802,669845,0
2096921,2096921,159402,669790,0
2096921,2096921,159668,670195,0
2096921,2096921,159933,670713,0
2096921,2096921,159894,670638,0
2096921,2096921,159941,670588,0
2096921,2096921,159767,670563,0
2096921,2096921,160108,670545,0
2096921,2096921,160090,671255,0
2096921,2096921,159865,671208,0
2096921,2096921,160223,671268,0
2096921,2096921,160217,671397,0
2096921,2096921,160160,671590,0
2096921,2096921,160203,671486,0
2096921,2096921,160280,672051,0
2096921,2096921,160385,671846,0
2096921,2096921,160337,671724,0
2096921,2096921,160400,671872,0
2096921,2096921,160342,672443,0
2096921,2096921,160615,672473,0
2096921,2096921,160496,672411,0
2096921,2096921,160633,672336,0
2096921,2096921,160450,672638,0
2096921,2096921,160824,672716,0
2096921,2096921,160482,672986,0
2096921,2096921,160485,673019,0
2096921,2096921,160560,672836,0
2096921,2096921,160342,672905,0
2096921,2096921,160410,673239,0
2096921,2096921,160748,673257,0
2096921,2096921,160722,673105,0
2096921,2096921,160803,673478,0
2096921,2096921,160667,673407,0
2096921,2096921,160843,673449,0
2096921,2096921,160945,673701,0
2096921,2096921,160739,673838,0
2096921,2096921,160957,673502,0
2096921,2096921,161053,673682,0
2096921,2096921,160836,673647,0
2096921,2096921,160857,673949,0
2096921,2096921,160952,673959,0
2096921,2096921,160790,673568,0
2096921,2096921,160816,673924,0
2096921,2096921,160788,673895,0
2096921,2096921,160616,673935,0
2096921,2096921,160564,673542,0
2096921,2096921,160785,673976,0
2096921,2096921,160670,673769,0
2096921,2096921,160862,673786,0
2096921,2096921,160723,673889,0
2096921,2096921,160853,673988,0
2096921,2096921,160829,673980,0
2096921,2096921,160809,674068,0
2096921,2096921,160929,673771,0
2096921,2096921,160916,673866,0
2096921,2096921,160783,673939,0
2096921,2096921,160653,673914,0
2096921,2096921,160705,673830,0
2096921,2096921,160663,673801,0
2096921,2096921,160930,673648,0
2096921,2096921,160590,673875,0
2096921,2096921,160612,673690,0
2096921,2096921,160838,673633,0
2096921,2096921,160621,673334,0
2096921,2096921,160601,673462,0
2096921,2096921,160620,673534,0
2096921,2096921,160974,673862,0
2096921,2096921,160965,673685,0
2096921,2096921,160961,673460,0
2096921,2096921,160919,673495,0
2096921,2096921,160703,673804,0
2096921,2096921,160749,673523,0
2096921,2096921,160822,673551,0
2096921,2096921,160827,673710,0
2096921,2096921,160956,673799,0
2096921,2096921,160760,673617,0
2096921,2096921,160861,673889,0
2096921,2096921,160733,673654,0
2096921,2096921,160817,673761,0
2096921,2096921,161212,673930,0
2096921,2096921,161204,673838,0
2096921,2096921,160740,673919,0
2096921,2096921,160759,673835,0
2096921,2096921,160788,674082,0
2096921,2096921,160667,673844,0
2096921,2096921,160743,673757,0
2096921,2096921,160729,673756,0
2096921,2096921,160922,673920,0
2096921,2096921,160937,674443,0
2096921,2096921,160990,674315,0
2096921,2096921,160957,674381,0
2096921,2096921,161001,674146,0
2096921,2096921,161145,674492,0
2096921,2096921,161339,674495,0
2096921,2096921,161174,674712,0
2096921,2096921,161001,674198,0
2096921,2096921,160902,674157,0
2096921,2096921,160957,674541,0
2096921,2096921,161050,674612,0
2096921,2096921,160976,674704,0
2096921,2096921,161134,674901,0
2096921,2096921,161079,674860,0
2096921,2096921,161048,674719,0
2096921,2096921,161090,675325,0
2096921,2096921,161050,675248,0
2096921,2096921,161209,675170,0
2096921,2096921,160937,675083,0
2096921,2096921,161434,675326,0
2096921,2096921,161504,675822,0
2096921,2096921,161474,675914,0
2096921,2096921,161757,676025,0
2096921,2096921,161429,675501,0
2096921,2096921,161554,675808,0
2096921,2096921,161578,676012,0
2096921,2096921,161726,676085,0
2096921,2096921,161639,676262,0
2096921,2096921,161460,676325,0
2096921,2096921,161665,676190,0
2096921,2096921,161702,676311,0
2096921,2096921,161810,676723,0
2096921,2096921,161840,676701,0
2096921,2096921,161674,676611,0
2096921,2096921,161569,676589,0
2096921,2096921,161504,676928,0
2096921,2096921,161656,676726,0
2096921,2096921,161879,676586,0
2096921,2096921,161850,676976,0
2096921,2096921,161736,676915,0
