2096921,2096921,157374,661067,0
2096921,2096921,157327,660993,0
2096921,2096921,157258,660618,0
2096921,2096921,157041,660841,0
2096921,2096921,157181,660827,0
2096921,2096921,157256,661348,0
2096921,2096921,157275,661521,0
2096921,2096921,157186,661535,0
2096921,2096921,157176,661644,0
2096921,2096921,157277,661486,0
2096921,2096921,157231,661822,0
2096921,2096921,157225,662064,0
2096921,2096921,157295,662030,0
2096921,2096921,157283,661556,0
2096921,2096921,157238,661657,0
2096921,2096921,157429,662061,0
2096921,2096921,157257,662227,0
2096921,2096921,157539,662078,0
2096921,2096921,157236,662094,0
2096921,2096921,157202,662104,0
2096921,2096921,157509,661950,0
2096921,2096921,157239,662059,0
2096921,2096921,157324,662097,0
2096921,2096921,157233,662249,0
2096921,2096921,157561,662311,0
2096921,2096921,157419,662280,0
2096921,2096921,157267,662321,0
2096921,2096921,157456,662242,0
2096921,2096921,157623,662159,0
2096921,2096921,157278,662358,0
2096921,2096921,157380,662159,0
2096921,2096921,157416,662435,0
2096921,2096921,157394,662172,0
2096921,2096921,157409,662332,0
2096921,2096921,157464,662405,0
2096921,2096921,157365,662013,0
2096921,2096921,157422,662482,0
2096921,2096921,157407,662420,0
2096921,2096921,157731,662627,0
2096921,2096921,157466,662381,0
2096921,2096921,157391,662498,0
2096921,2096921,157291,662386,0
2096921,2096921,157465,662255,0
2096921,2096921,157447,662358,0
2096921,2096921,157436,662330,0
2096921,2096921,157238,662509,0
2096921,2096921,157176,662357,0
2096921,2096921,157561,662434,0
2096921,2096921,157459,662540,0
2096921,2096921,157601,662602,0
2096921,2096921,157692,662679,0
2096921,2096921,157511,662651,0
2096921,2096921,157293,662618,0
2096921,2096921,157316,662608,0
2096921,2096921,157356,662540,0
2096921,2096921,157456,662601,0
2096921,2096921,157644,662926,0
2096921,2096921,157736,662861,0
2096921,2096921,157492,663045,0
2096921,2096921,157380,663069,0
2096921,2096921,157757,663113,0
2096921,2096921,157750,663265,0
2096921,2096921,157324,663284,0
2096921,2096921,157593,663274,0
2096921,2096921,157596,662930,0
2096921,2096921,157618,663111,0
2096921,2096921,157573,663617,0
2096921,2096921,157850,663619,0
2096921,2096921,157756,663906,0
2096921,2096921,157996,663645,0
2096921,2096921,157542,664041,0
2096921,2096921,157780,663958,0
2096921,2096921,157719,664034,0
2096921,2096921,157712,663956,0
2096921,2096921,157936,664145,0
2096921,2096921,157902,664588,0
2096921,2096921,157866,664690,0
2096921,2096921,158156,664735,0
2096921,2096921,158060,664785,0
2096921,2096921,158359,664718,0
2096921,2096921,158361,665325,0
2096921,2096921,158279,665547,0
2096921,2096921,158488,665440,0
2096921,2096921,158222,665365,0
2096921,2096921,158636,665446,0
2096921,2096921,158870,665955,0
2096921,2096921,158529,665913,0
2096921,2096921,158523,666270,0
2096921,2096921,158451,666141,0
2096921,2096921,158781,666509,0
2096921,2096921,158662,666527,0
2096921,2096921,158553,666811,0
2096921,2096921,158527,666610,0
2096921,2096921,158631,666735,0
2096921,2096921,158883,666513,0
2096921,2096921,158930,667286,0
2096921,2096921,158847,667436,0
2096921,2096921,158862,667548,0
2096921,2096921,158767,667502,0
2096921,2096921,158890,667615,0
2096921,2096921,159267,667742,0
2096921,2096921,159251,668266,0
2096921,2096921,158986,667858,0
2096921,2096921,158954,668187,0
2096921,2096921,159240,667800,0
2096921,2096921,159373,668384,0
2096921,2096921,159306,668565,0
2096921,2096921,159411,668396,0
2096921,2096921,159233,668664,0
2096921,2096921,159498,668571,0
2096921,2096921,159354,669264,0
2096921,2096921,159302,669210,0
2096921,2096921,159410,669348,0
2096921,2096921,159420,669201,0
2096921,2096921,159680,669302,0
2096921,2096921,159521,669681,0
2096921,2096921,159709,669922,0
2096921,2096921,159592,670215,0
2096921,2096921,159555,670091,0
2096921,2096921,159711,669835,0
2096921,2096921,159734,670223,0
2096921,2096921,159894,670342,0
2096921,2096921,159967,670289,0
2096921,2096921,159788,670329,0
2096921,2096921,160020,670437,0
2096921,2096921,160058,670902,0
2096921,2096921,160199,671255,0
2096921,2096921,159949,671028,0
2096921,2096921,160286,670894,0
2096921,2096921,160516,671213,0
2096921,2096921,160297,671514,0
2096921,2096921,160166,671496,0
2096921,2096921,160351,671195,0
2096921,2096921,160172,671313,0
2096921,2096921,160156,671475,0
2096921,2096921,160100,672009,0
2096921,2096921,160566,672059,0
2096921,2096921,160222,672162,0
2096921,2096921,160426,672336,0
2096921,2096921,160429,672304,0
2096921,2096921,160368,672644,0
2096921,2096921,160649,672419,0
2096921,2096921,160532,672980,0
2096921,2096921,160275,673052,0
2096921,2096921,160455,672608,0
2096921,2096921,160734,673020,0
2096921,2096921,160736,673260,0
2096921,2096921,160579,673263,0
2096921,2096921,160861,673293,0
2096921,2096921,160883,673501,0
2096921,2096921,160987,674236,0
2096921,2096921,161057,674011,0
2096921,2096921,160910,674055,0
2096921,2096921,161088,673717,0
2096921,2096921,160776,673927,0
2096921,2096921,161059,674454,0
2096921,2096921,161143,674282,0
2096921,2096921,161223,674407,0
2096921,2096921,161317,674567,0
2096921,2096921,161361,674565,0
2096921,2096921,161165,674847,0
2096921,2096921,161398,675024,0
2096921,2096921,161167,674795,0
2096921,2096921,160900,674954,0
2096921,2096921,161110,674816,0
2096921,2096921,161223,675339,0
2096921,2096921,161260,675518,0
2096921,2096921,161378,675326,0
2096921,2096921,161420,675228,0
2096921,2096921,161441,675474,0
2096921,2096921,161556,675850,0
2096921,2096921,161396,675924,0
2096921,2096921,161398,676090,0
2096921,2096921,161544,675918,0
2096921,2096921,161885,675679,0
2096921,2096921,161619,676329,0
2096921,2096921,161571,676582,0
2096921,2096921,161584,676647,0
2096921,2096921,161862,676446,0
2096921,2096921,161972,676331,0
2096921,2096921,161954,676602,0
2096921,2096921,161643,676687,0
2096921,2096921,161980,676812,0
2096921,2096921,161928,676707,0
2096921,2096921,161663,676820,0
2096921,2096921,161903,677364,0
2096921,2096921,162328,677437,0
2096921,2096921,162142,677466,0
2096921,2096921,161932,677587,0
2096921,2096921,162071,677712,0
2096921,2096921,162122,677900,0
2096921,2096921,161855,678072,0
2096921,2096921,162077,677787,0
2096921,2096921,162110,677856,0
2096921,2096921,162068,677576,0
2096921,2096921,161915,678236,0
2096921,2096921,162110,678317,0
2096921,2096921,162136,678097,0
2096921,2096921,162350,678411,0
2096921,2096921,162460,678334,0
2096921,2096921,162684,678683,0
2096921,2096921,162617,678555,0
2096921,2096921,162277,678534,0
2096921,2096921,162344,678543,0
2096921,2096921,162357,678541,0
2096921,2096921,162530,678817,0
2096921,2096921,162822,679106,0
2096921,2096921,162644,679049,0
2096921,2096921,162705,678933,0
2096921,2096921,162510,678739,0
2096921,2096921,162697,679153,0
2096921,2096921,162469,679374,0
2096921,2096921,162345,679454,0
2096921,2096921,162650,679646,0
2096921,2096921,162634,679498,0
2096921,2096921,162858,679765,0
2096921,2096921,162774,679511,0
2096921,2096921,162798,679704,0
2096921,2096921,162614,679663,0
2096921,2096921,162650,679816,0
2096921,2096921,162742,680174,0
2096921,2096921,162940,680201,0
2096921,2096921,163136,680206,0
2096921,2096921,162907,680274,0
2096921,2096921,162974,680184,0
2096921,2096921,162779,680601,0
2096921,2096921,162833,680599,0
2096921,2096921,163053,680437,0
2096921,2096921,162920,680421,0
2096921,2096921,162990,680650,0
2096921,2096921,163055,680808,0
2096921,2096921,162664,680944,0
2096921,2096921,162842,680433,0
2096921,2096921,162939,680469,0
2096921,2096921,163174,680883,0
2096921,2096921,163325,680905,0
2096921,2096921,163450,680970,0
2096921,2096921,163168,681100,0
2096921,2096921,163183,681459,0
2096921,2096921,163054,681218,0
2096921,2096921,163123,681561,0
2096921,2096921,163303,681451,0
2096921,2096921,163032,681466,0
2096921,2096921,163174,681324,0
2096921,2096921,163162,681383,0
2096921,2096921,163017,681681,0
2096921,2096921,163216,681623,0
2096921,2096921,163069,681601,0
2096921,2096921,163223,681447,0
2096921,2096921,163188,681610,0
2096921,2096921,163296,682061,0
2096921,2096921,163055,681849,0
2096921,2096921,163453,681860,0
2096921,2096921,163366,681929,0
2096921,2096921,163516,681547,0
2096921,2096921,163514,682179,0
2096921,2096921,163520,682204,0
2096921,2096921,163296,682440,0
2096921,2096921,163360,682247,0
2096921,2096921,163656,682522,0
2096921,2096921,163553,682565,0
2096921,2096921,163640,682628,0
2096921,2096921,163443,682408,0
2096921,2096921,163527,682597,0
2096921,2096921,163403,682697,0
2096921,2096921,163417,682778,0
2096921,2096921,163726,683115,0
2096921,2096921,163439,682852,0
2096921,2096921,163327,682759,0
2096921,2096921,163593,682816,0
2096921,2096921,163762,682696,0
2096921,2096921,163565,682724,0
2096921,2096921,163589,682761,0
2096921,2096921,163716,682918,0
2096921,2096921,163897,683221,0
2096921,2096921,163382,683512,0
2096921,2096921,163542,683377,0
2096921,2096921,163620,683167,0
2096921,2096921,164028,683350,0
2096921,2096921,163772,683614,0
2096921,2096921,163759,683476,0
2096921,2096921,163629,683607,0
2096921,2096921,163658,683963,0
2096921,2096921,163639,683592,0
2096921,2096921,163738,683865,0
2096921,2096921,163592,683859,0
2096921,2096921,164013,683767,0
2096921,2096921,163849,684074,0
2096921,2096921,163707,683836,0
2096921,2096921,163810,683788,0
2096921,2096921,164070,683641,0
2096921,2096921,163760,683826,0
2096921,2096921,163978,683906,0
2096921,2096921,164030,684087,0
2096921,2096921,163717,684126,0
2096921,2096921,163979,684510,0
2096921,2096921,163589,684089,0
2096921,2096921,163893,684412,0
2096921,2096921,163941,683978,0
2096921,2096921,163860,684487,0
2096921,2096921,163841,684126,0
2096921,2096921,163868,684488,0
2096921,2096921,163953,684357,0
2096921,2096921,164117,684363,0
2096921,2096921,164254,684053,0
2096921,2096921,164112,684356,0
2096921,2096921,164319,684349,0
2096921,2096921,164190,684547,0
2096921,2096921,164009,684733,0
2096921,2096921,164007,684488,0
2096921,2096921,164038,684564,0
2096921,2096921,164030,684696,0
2096921,2096921,164109,684685,0
2096921,2096921,163960,684813,0
2096921,2096921,164067,684788,0
2096921,2096921,164176,684435,0
2096921,2096921,164190,684525,0
2096921,2096921,164164,684627,0
2096921,2096921,164034,684621,0
2096921,2096921,163983,684679,0
2096921,2096921,164221,684798,0
2096921,2096921,163951,684576,0
2096921,2096921,164103,684786,0
2096921,2096921,163950,684679,0
2096921,2096921,164361,684448,0
2096921,2096921,164281,684624,0
2096921,2096921,164680,684915,0
2096921,2096921,164488,684725,0
2096921,2096921,164069,684863,0
2096921,2096921,164119,684524,0
2096921,2096921,163971,684851,0
2096921,2096921,164097,684642,0
2096921,2096921,164311,684918,0
2096921,2096921,164083,684442,0
2096921,2096921,164082,684632,0
2096921,2096921,164092,684863,0
2096921,2096921,164144,685124,0
2096921,2096921,164215,684995,0
2096921,2096921,164245,685149,0
2096921,2096921,163928,685224,0
2096921,2096921,164073,684513,0
2096921,2096921,163774,684611,0
2096921,2096921,163990,684370,0
2096921,2096921,164088,684799,0
2096921,2096921,163856,684483,0
2096921,2096921,163754,684214,0
2096921,2096921,163700,684135,0
2096921,2096921,164079,684054,0
2096921,2096921,163844,683910,0
2096921,2096921,163493,684168,0
2096921,2096921,163507,683280,0
2096921,2096921,163402,683076,0
2096921,2096921,163449,683228,0
2096921,2096921,163479,683238,0
2096921,2096921,163070,682989,0
2096921,2096921,163148,682439,0
2096921,2096921,163219,682376,0
2096921,2096921,163053,682194,0
2096921,2096921,163108,681928,0
2096921,2096921,162560,682213,0
2096921,2096921,162632,681221,0
2096921,2096921,162690,680874,0
2096921,2096921,162616,680608,0
2096921,2096921,162184,680629,0
2096921,2096921,161832,680526,0
2096921,2096921,161462,678191,0
2096921,2096921,161498,677941,0
2096921,2096921,161562,677749,0
2096921,2096921,161333,677930,0
2096921,2096921,160726,677800,0
2096921,2096921,160514,674978,0
2096921,2096921,160411,674423,0
2096921,2096921,160040,674203,0
2096921,2096921,160224,674139,0
2096921,2096921,159740,674359,0
2096921,2096921,159525,672117,0
2096921,2096921,159412,671837,0
2096921,2096921,159245,671623,0
2096921,2096921,159613,671829,0
2096921,2096921,159167,671806,0
2096921,2096921,158700,670424,0
2096921,2096921,158571,670041,0
2096921,2096921,158616,669879,0
2096921,2096921,158687,669634,0
2096921,2096921,158374,669717,0
2096921,2096921,157857,668753,0
2096921,2096921,158035,668432,0
2096921,2096921,158378,668298,0
2096921,2096921,158104,668053,0
2096921,2096921,158078,668061,0
2096921,2096921,158241,667427,0
2096921,2096921,157796,667138,0
2096921,2096921,157787,667283,0
2096921,2096921,157618,667348,0
2096921,2096921,157416,667137,0
2096921,2096921,157599,666464,0
2096921,2096921,157271,666419,0
2096921,2096921,157551,666458,0
2096921,2096921,157814,666253,0
2096921,2096921,157619,666268,0
2096921,2096921,157414,666301,0
2096921,2096921,157405,665838,0
2096921,2096921,157517,666020,0
2096921,2096921,157347,666278,0
2096921,2096921,157384,666023,0
2096921,2096921,157414,665679,0
2096921,2096921,157399,665477,0
2096921,2096921,157404,665729,0
2096921,2096921,157418,666012,0
2096921,2096921,157422,665502,0
2096921,2096921,157325,666003,0
2096921,2096921,157257,665919,0
2096921,2096921,157590,665865,0
2096921,2096921,157041,665919,0
2096921,2096921,157432,666017,0
2096921,2096921,157119,666124,0
2096921,2096921,157414,666334,0
2096921,2096921,157685,666010,0
2096921,2096921,157165,666197,0
2096921,2096921,157476,666299,0
2096921,2096921,157343,666319,0
2096921,2096921,157360,666212,0
2096921,2096921,157193,666024,0
2096921,2096921,157088,666143,0
2096921,2096921,157311,665913,0
2096921,2096921,157444,666508,0
2096921,2096921,157361,666368,0
2096921,2096921,157677,666590,0
2096921,2096921,157449,666355,0
2096921,2096921,157514,666472,0
2096921,2096921,157734,666876,0
2096921,2096921,157927,666734,0
2096921,2096921,157872,666959,0
2096921,2096921,157764,667085,0
2096921,2096921,157955,666785,0
2096921,2096921,157838,667352,0
2096921,2096921,157653,667564,0
2096921,2096921,158142,667568,0
2096921,2096921,157857,667621,0
2096921,2096921,158271,667649,0
2096921,2096921,158067,668094,0
2096921,2096921,157948,668116,0
2096921,2096921,158262,668287,0
2096921,2096921,157879,668082,0
2096921,2096921,158241,668414,0
2096921,2096921,158440,668565,0
2096921,2096921,158518,668844,0
2096921,2096921,158450,668753,0
2096921,2096921,158371,668809,0
2096921,2096921,158370,668758,0
2096921,2096921,158614,669488,0
2096921,2096921,158528,669505,0
2096921,2096921,158786,669799,0
2096921,2096921,158556,669691,0
2096921,2096921,158538,669554,0
2096921,2096921,158849,670055,0
2096921,2096921,158968,670268,0
2096921,2096921,158864,670132,0
2096921,2096921,158806,670315,0
2096921,2096921,158976,670148,0
2096921,2096921,158972,670756,0
2096921,2096921,159156,670611,0
2096921,2096921,158895,670632,0
2096921,2096921,159151,670988,0
2096921,2096921,159268,670370,0
2096921,2096921,159176,671187,0
2096921,2096921,159313,671234,0
2096921,2096921,159386,671329,0
2096921,2096921,159330,671309,0
2096921,2096921,159408,671358,0
2096921,2096921,159383,671919,0
2096921,2096921,159670,671650,0
2096921,2096921,159514,671608,0
2096921,2096921,159485,671829,0
2096921,2096921,159730,671972,0
2096921,2096921,159866,672314,0
2096921,2096921,159828,672406,0
2096921,2096921,159670,672698,0
2096921,2096921,159481,672901,0
2096921,2096921,159881,672322,0
2096921,2096921,159715,673056,0
2096921,2096921,159899,673371,0
2096921,2096921,159984,673261,0
2096921,2096921,159982,673290,0
2096921,2096921,159983,673225,0
2096921,2096921,160116,673704,0
2096921,2096921,160298,673653,0
2096921,2096921,160117,673843,0
2096921,2096921,160034,673948,0
2096921,2096921,160139,673747,0
2096921,2096921,160322,674319,0
2096921,2096921,160170,674324,0
2096921,2096921,160392,674102,0
2096921,2096921,160297,674282,0
2096921,2096921,160261,674632,0
2096921,2096921,160573,674776,0
2096921,2096921,160331,675146,0
2096921,2096921,160650,674933,0
2096921,2096921,160463,675074,0
2096921,2096921,160333,675132,0
2096921,2096921,160862,675149,0
2096921,2096921,160701,675236,0
2096921,2096921,160752,675137,0
2096921,2096921,160593,675549,0
2096921,2096921,160577,675341,0
2096921,2096921,160748,675189,0
2096921,2096921,160562,675429,0
2096921,2096921,160546,675412,0
2096921,2096921,160804,675193,0
2096921,2096921,160850,675558,0
2096921,2096921,160630,675522,0
2096921,2096921,161031,675370,0
2096921,2096921,160689,675753,0
2096921,2096921,160582,675774,0
2096921,2096921,160683,675668,0
2096921,2096921,160860,675643,0
2096921,2096921,161182,675667,0
2096921,2096921,160880,675763,0
2096921,2096921,160657,675630,0
2096921,2096921,160840,675451,0
2096921,2096921,160818,675908,0
2096921,2096921,160766,675951,0
2096921,2096921,160678,675859,0
2096921,2096921,160984,675481,0
2096921,2096921,160567,675700,0
2096921,2096921,160714,675368,0
2096921,2096921,161044,675505,0
2096921,2096921,160724,675440,0
2096921,2096921,160755,675570,0
2096921,2096921,160502,675683,0
2096921,2096921,160631,675458,0
2096921,2096921,160904,675343,0
2096921,2096921,160810,675353,0
2096921,2096921,160589,675385,0
2096921,2096921,160726,675448,0
2096921,2096921,160436,675261,0
2096921,2096921,160432,675095,0
2096921,2096921,160845,675114,0
2096921,2096921,160771,675167,0
2096921,2096921,160492,675202,0
2096921,2096921,160359,674884,0
2096921,2096921,160222,675003,0
2096921,2096921,160493,675004,0
2096921,2096921,160424,675170,0
2096921,2096921,160289,675186,0
2096921,2096921,160596,674736,0
2096921,2096921,160668,674617,0
2096921,2096921,160450,675030,0
2096921,2096921,160588,674845,0
2096921,2096921,160515,674778,0
2096921,2096921,160259,674733,0
2096921,2096921,160256,674572,0
2096921,2096921,160428,674559,0
2096921,2096921,160647,674586,0
2096921,2096921,160316,674770,0
2096921,2096921,160347,674540,0
2096921,2096921,160264,674658,0
2096921,2096921,160493,674389,0
2096921,2096921,160459,674508,0
2096921,2096921,160415,674600,0
2096921,2096921,160627,674705,0
2096921,2096921,160330,674793,0
2096921,2096921,160336,674817,0
2096921,2096921,160304,674671,0
2096921,2096921,160400,674590,0
2096921,2096921,160580,674552,0
2096921,2096921,160406,674663,0
2096921,2096921,160445,674563,0
2096921,2096921,160469,674167,0
2096921,2096921,160647,674764,0
2096921,2096921,160333,674799,0
2096921,2096921,160617,674635,0
2096921,2096921,160561,674804,0
2096921,2096921,160367,674996,0
2096921,2096921,160459,674948,0
2096921,2096921,160592,675434,0
2096921,2096921,160703,674893,0
2096921,2096921,160906,675240,0
2096921,2096921,160939,675101,0
2096921,2096921,161035,675164,0
2096921,2096921,161195,675701,0
2096921,2096921,161079,675775,0
2096921,2096921,160885,675732,0
2096921,2096921,160816,675492,0
2096921,2096921,161080,675614,0
2096921,2096921,160835,675881,0
2096921,2096921,160882,676035,0
2096921,2096921,161155,676176,0
2096921,2096921,161014,676111,0
2096921,2096921,161131,675967,0
2096921,2096921,161056,676383,0
2096921,2096921,161196,676317,0
2096921,2096921,160938,676304,0
2096921,2096921,160808,676251,0
2096921,2096921,161072,676263,0
2096921,2096921,161027,676908,0
2096921,2096921,161178,676883,0
2096921,2096921,161118,676898,0
2096921,2096921,161430,676770,0
2096921,2096921,161405,676816,0
2096921,2096921,161169,677003,0
2096921,2096921,161388,676981,0
2096921,2096921,161228,677132,0
2096921,2096921,161316,676620,0
2096921,2096921,161466,676814,0
2096921,2096921,161283,676852,0
2096921,2096921,161481,677150,0
2096921,2096921,161321,677287,0
2096921,2096921,161264,677463,0
2096921,2096921,161297,677290,0
2096921,2096921,161516,677470,0
2096921,2096921,161363,677436,0
2096921,2096921,161856,677586,0
2096921,2096921,161482,677426,0
2096921,2096921,161737,677376,0
2096921,2096921,161523,677724,0
2096921,2096921,161611,677964,0
2096921,2096921,161723,677690,0
2096921,2096921,161569,677844,0
2096921,2096921,161660,677810,0
2096921,2096921,161852,677913,0
2096921,2096921,161581,678099,0
2096921,2096921,161589,677799,0
2096921,2096921,161449,677890,0
2096921,2096921,161729,677911,0
2096921,2096921,161957,678268,0
2096921,2096921,162000,678252,0
2096921,2096921,161740,678176,0
2096921,2096921,162032,678252,0
2096921,2096921,161946,678167,0
2096921,2096921,161805,678415,0
2096921,2096921,162275,678568,0
2096921,2096921,162415,678133,0
2096921,2096921,162089,678293,0
2096921,2096921,161850,678123,0
2096921,2096921,162005,678491,0
2096921,2096921,161937,678686,0
2096921,2096921,161992,678687,0
2096921,2096921,161804,678609,0
2096921,2096921,162115,678444,0
2096921,2096921,162154,678730,0
2096921,2096921,162201,678843,0
2096921,2096921,162260,679077,0
2096921,2096921,162258,678627,0
2096921,2096921,162133,678691,0
2096921,2096921,162191,679024,0
2096921,2096921,162207,679200,0
2096921,2096921,162081,678648,0
2096921,2096921,162231,678768,0
2096921,2096921,162177,678894,0
2096921,2096921,162017,679047,0
2096921,2096921,162070,679076,0
2096921,2096921,161972,679158,0
2096921,2096921,162149,678995,0
2096921,2096921,162501,679051,0
2096921,2096921,162517,679406,0
2096921,2096921,162398,678876,0
2096921,2096921,162361,679317,0
2096921,2096921,162190,679049,0
2096921,2096921,162111,679307,0
2096921,2096921,162100,679567,0
2096921,2096921,162450,679603,0
2096921,2096921,162392,679485,0
2096921,2096921,162294,679573,0
2096921,2096921,162251,679693,0
2096921,2096921,162310,679521,0
2096921,2096921,162289,679225,0
2096921,2096921,162179,679629,0
2096921,2096921,162343,679396,0
2096921,2096921,162381,679487,0
2096921,2096921,162417,679644,0
2096921,2096921,162409,679644,0
2096921,2096921,162402,679465,0
2096921,2096921,162421,679333,0
2096921,2096921,162697,679281,0
2096921,2096921,162449,679487,0
2096921,2096921,162347,679484,0
2096921,2096921,162664,679207,0
2096921,2096921,162607,679580,0
2096921,2096921,162719,679732,0
2096921,2096921,162624,679771,0
2096921,2096921,162520,679690,0
2096921,2096921,162247,679708,0
2096921,2096921,162609,679655,0
2096921,2096921,162544,679617,0
2096921,2096921,162556,679545,0
2096921,2096921,162559,679617,0
2096921,2096921,162642,679932,0
2096921,2096921,162641,679859,0
2096921,2096921,162664,679760,0
2096921,2096921,162693,679934,0
2096921,2096921,162649,679776,0
2096921,2096921,162785,679957,0
2096921,2096921,162651,679859,0
2096921,2096921,162410,679789,0
2096921,2096921,162328,679610,0
2096921,2096921,162458,680039,0
2096921,2096921,162760,679874,0
2096921,2096921,162574,679929,0
2096921,2096921,162494,679693,0
2096921,2096921,162486,679788,0
2096921,2096921,162353,679935,0
2096921,2096921,162478,679504,0
2096921,2096921,162343,679435,0
2096921,2096921,162371,679694,0
2096921,2096921,162786,679758,0
2096921,2096921,162458,679807,0
2096921,2096921,162596,679948,0
2096921,2096921,162432,679925,0
2096921,2096921,162346,679862,0
2096921,2096921,162656,679658,0
2096921,2096921,162471,679677,0
2096921,2096921,162428,679580,0
2096921,2096921,162590,679742,0
2096921,2096921,162833,679475,0
2096921,2096921,162740,679557,0
2096921,2096921,162326,679679,0
2096921,2096921,162630,679658,0
2096921,2096921,162722,679862,0
2096921,2096921,162668,679601,0
2096921,2096921,162268,679370,0
2096921,2096921,162573,679424,0
2096921,2096921,162633,679541,0
2096921,2096921,162778,679466,0
2096921,2096921,162695,679526,0
2096921,2096921,162682,679284,0
2096921,2096921,162529,679261,0
2096921,2096921,162559,679089,0
2096921,2096921,162564,679443,0
2096921,2096921,162881,679453,0
2096921,2096921,162931,679476,0
2096921,2096921,162749,679467,0
2096921,2096921,162319,679450,0
2096921,2096921,162318,679289,0
2096921,2096921,162896,679221,0
2096921,2096921,162318,678965,0
2096921,2096921,162541,679302,0
2096921,2096921,162610,679088,0
2096921,2096921,162799,679277,0
2096921,2096921,162522,679387,0
2096921,2096921,162397,679156,0
2096921,2096921,162513,679039,0
2096921,2096921,162585,679254,0
2096921,2096921,162262,679373,0
2096921,2096921,162513,679082,0
2096921,2096921,162448,678883,0
2096921,2096921,162676,678753,0
2096921,2096921,162718,679109,0
2096921,2096921,162377,679082,0
2096921,2096921,162627,679047,0
2096921,2096921,162360,678852,0
2096921,2096921,162284,678905,0
2096921,2096921,162906,678670,0
2096921,2096921,162728,678788,0
2096921,2096921,162820,679003,0
2096921,2096921,162659,678737,0
2096921,2096921,162281,678583,0
2096921,2096921,162422,678799,0
2096921,2096921,162421,678563,0
2096921,2096921,162461,678800,0
2096921,2096921,162459,678585,0
2096921,2096921,162639,678660,0
2096921,2096921,162499,678551,0
2096921,2096921,162772,678612,0
2096921,2096921,162888,678571,0
2096921,2096921,162619,678465,0
2096921,2096921,162398,678644,0
2096921,2096921,162449,678672,0
2096921,2096921,162492,678512,0
2096921,2096921,162381,678526,0
2096921,2096921,162321,678545,0
2096921,2096921,162584,678282,0
2096921,2096921,162658,678331,0
2096921,2096921,162479,678255,0
2096921,2096921,162384,678513,0
2096921,2096921,162291,678454,0
2096921,2096921,162437,678188,0
2096921,2096921,162332,678519,0
2096921,2096921,162495,678469,0
2096921,2096921,162412,678171,0
2096921,2096921,162659,678192,0
2096921,2096921,162651,678072,0
2096921,2096921,162455,678192,0
2096921,2096921,162515,678137,0
2096921,2096921,162390,677932,0
2096921,2096921,162323,677805,0
2096921,2096921,162378,677831,0
2096921,2096921,162445,677787,0
2096921,2096921,162542,677841,0
2096921,2096921,162303,677854,0
2096921,2096921,162418,677399,0
2096921,2096921,162189,677842,0
2096921,2096921,162032,677451,0
2096921,2096921,161962,677627,0
2096921,2096921,162157,677379,0
2096921,2096921,162294,677057,0
2096921,2096921,162366,677167,0
2096921,2096921,162189,677133,0
2096921,2096921,162335,677307,0
2096921,2096921,162284,677247,0
2096921,2096921,162122,677031,0
2096921,2096921,162063,676905,0
2096921,2096921,162114,677166,0
2096921,2096921,162171,676906,0
2096921,2096921,161924,677155,0
2096921,2096921,161998,677019,0
2096921,2096921,162017,676776,0
2096921,2096921,161930,676990,0
2096921,2096921,162093,676967,0
2096921,2096921,162051,677061,0
2096921,2096921,162244,676499,0
2096921,2096921,161995,676665,0
2096921,2096921,161688,676641,0
2096921,2096921,161931,676632,0
2096921,2096921,162194,676455,0
2096921,2096921,162142,676021,0
2096921,2096921,161583,676415,0
2096921,2096921,161934,676432,0
2096921,2096921,162269,676700,0
2096921,2096921,161914,676298,0
2096921,2096921,161934,676362,0
2096921,2096921,161980,676181,0
2096921,2096921,161826,675891,0
2096921,2096921,161794,675874,0
2096921,2096921,161690,675884,0
2096921,2096921,161677,675941,0
2096921,2096921,161594,675617,0
2096921,2096921,161829,675789,0
2096921,2096921,161680,675796,0
2096921,2096921,161657,675840,0
2096921,2096921,161818,675707,0
2096921,2096921,161793,675572,0
2096921,2096921,161554,675563,0
2096921,2096921,161533,675849,0
2096921,2096921,161490,675456,0
2096921,2096921,161446,675375,0
2096921,2096921,161508,675610,0
2096921,2096921,161569,675569,0
2096921,2096921,161602,675463,0
2096921,2096921,161835,675379,0
2096921,2096921,161394,675041,0
2096921,2096921,161558,674742,0
2096921,2096921,161373,674363,0
2096921,2096921,161352,674299,0
2096921,2096921,161232,674219,0
2096921,2096921,161143,673988,0
2096921,2096921,161303,673870,0
2096921,2096921,161437,674034,0
2096921,2096921,161454,674181,0
2096921,2096921,160872,674181,0
2096921,2096921,160849,673248,0
2096921,2096921,160791,673219,0
2096921,2096921,160930,673062,0
2096921,2096921,160889,672836,0
2096921,2096921,160451,672801,0
2096921,2096921,160469,671539,0
2096921,2096921,160347,671297,0
2096921,2096921,160464,671525,0
2096921,2096921,160468,671543,0
2096921,2096921,160146,671430,0
2096921,2096921,160072,669996,0
2096921,2096921,159866,669774,0
2096921,2096921,159879,669898,0
2096921,2096921,159890,669883,0
2096921,2096921,159070,669684,0
2096921,2096921,158798,667551,0
2096921,2096921,158733,666879,0
2096921,2096921,158787,666840,0
2096921,2096921,158728,666829,0
2096921,2096921,157853,666877,0
2096921,2096921,157458,663731,0
2096921,2096921,157474,663161,0
2096921,2096921,157231,662854,0
2096921,2096921,157763,663040,0
2096921,2096921,156891,662668,0
2096921,2096921,156595,660592,0
2096921,2096921,156932,660284,0
2096921,2096921,156714,659943,0
2096921,2096921,156630,660314,0
2096921,2096921,156186,660123,0
2096921,2096921,155679,658505,0
2096921,2096921,155794,657922,0
2096921,2096921,155852,657567,0
2096921,2096921,155803,657852,0
2096921,2096921,155292,657873,0
2096921,2096921,155368,656464,0
2096921,2096921,155192,656320,0
2096921,2096921,155194,656260,0
2096921,2096921,155357,656293,0
2096921,2096921,154919,655973,0
2096921,2096921,154662,655167,0
2096921,2096921,154723,655054,0
2096921,2096921,154930,654757,0
2096921,2096921,155036,654711,0
2096921,2096921,154505,654734,0
2096921,2096921,154446,653982,0
2096921,2096921,154510,653630,0
2096921,2096921,154275,654077,0
2096921,2096921,154156,653855,0
2096921,2096921,154547,653991,0
2096921,2096921,154519,653241,0
2096921,2096921,154099,653325,0
2096921,2096921,154331,653230,0
2096921,2096921,154037,653112,0
2096921,2096921,154029,653320,0
2096921,2096921,153777,653128,0
2096921,2096921,153814,653050,0
2096921,2096921,153994,652833,0
2096921,2096921,154020,652680,0
2096921,2096921,153985,653138,0
2096921,2096921,154148,652493,0
2096921,2096921,154066,652711,0
2096921,2096921,153871,652855,0
2096921,2096921,154318,652811,0
2096921,2096921,153753,652600,0
2096921,2096921,154017,652727,0
2096921,2096921,153883,652807,0
2096921,2096921,153931,652597,0
2096921,2096921,154057,652587,0
2096921,2096921,154135,652499,0
2096921,2096921,154326,652719,0
2096921,2096921,154222,652587,0
2096921,2096921,153984,652474,0
2096921,2096921,154172,652723,0
2096921,2096921,153889,652626,0
2096921,2096921,154017,652704,0
2096921,2096921,154023,652865,0
2096921,2096921,154071,652372,0
2096921,2096921,154287,652490,0
2096921,2096921,154224,652466,0
2096921,2096921,154007,652974,0
2096921,2096921,154213,652755,0
2096921,2096921,154321,652706,0
2096921,2096921,154060,652775,0
2096921,2096921,154309,652889,0
2096921,2096921,154262,653135,0
2096921,2096921,154427,652904,0
2096921,2096921,154495,653242,0
2096921,2096921,154607,653388,0
2096921,2096921,154709,653172,0
2096921,2096921,154748,653474,0
2096921,2096921,154531,653562,0
2096921,2096921,154786,653929,0
2096921,2096921,154375,653837,0
2096921,2096921,154404,653278,0
2096921,2096921,154490,653819,0
2096921,2096921,154630,654008,0
2096921,2096921,154674,654069,0
2096921,2096921,154707,653783,0
2096921,2096921,154700,653948,0
2096921,2096921,154953,653994,0
2096921,2096921,155016,654523,0
2096921,2096921,155129,654271,0
2096921,2096921,154991,654404,0
2096921,2096921,154907,654256,0
2096921,2096921,155100,654409,0
2096921,2096921,154945,654682,0
2096921,2096921,154997,654716,0
2096921,2096921,155125,654586,0
2096921,2096921,155256,654825,0
2096921,2096921,155043,654984,0
2096921,2096921,155215,654844,0
2096921,2096921,155432,655002,0
2096921,2096921,155253,654839,0
2096921,2096921,155263,655210,0
2096921,2096921,155369,655317,0
2096921,2096921,155457,655525,0
2096921,2096921,155308,655666,0
2096921,2096921,155481,655657,0
2096921,2096921,155223,655401,0
2096921,2096921,155749,655912,0
2096921,2096921,155229,655982,0
2096921,2096921,155727,655634,0
2096921,2096921,155692,655855,0
2096921,2096921,155434,655857,0
2096921,2096921,155726,656050,0
2096921,2096921,155735,656253,0
2096921,2096921,155722,656378,0
2096921,2096921,156053,656543,0
2096921,2096921,155836,656107,0
2096921,2096921,155965,656451,0
2096921,2096921,155628,656576,0
2096921,2096921,155876,656730,0
2096921,2096921,155726,656594,0
2096921,2096921,156142,656908,0
2096921,2096921,155820,657010,0
2096921,2096921,156100,657185,0
2096921,2096921,155975,657203,0
2096921,2096921,156152,657141,0
2096921,2096921,156449,657345,0
2096921,2096921,156187,657628,0
2096921,2096921,156192,657660,0
2096921,2096921,156321,657421,0
2096921,2096921,156100,657333,0
2096921,2096921,156491,657303,0
2096921,2096921,156464,657425,0
2096921,2096921,156365,657601,0
2096921,2096921,156202,657582,0
2096921,2096921,156432,657534,0
2096921,2096921,156611,657531,0
2096921,2096921,156621,657649,0
2096921,2096921,156422,657813,0
2096921,2096921,156457,658010,0
2096921,2096921,156383,657804,0
2096921,2096921,156185,657954,0
2096921,2096921,156430,658033,0
2096921,2096921,156409,658124,0
2096921,2096921,156356,658036,0
2096921,2096921,156245,657815,0
2096921,2096921,156416,657902,0
2096921,2096921,156232,657883,0
2096921,2096921,156141,657962,0
2096921,2096921,156010,658061,0
2096921,2096921,156224,657693,0
2096921,2096921,156314,657936,0
2096921,2096921,156287,657721,0
2096921,2096921,156402,657961,0
2096921,2096921,156500,657829,0
2096921,2096921,156408,657644,0
2096921,2096921,156126,657939,0
2096921,2096921,156518,657786,0
2096921,2096921,156558,657672,0
2096921,2096921,156501,657603,0
2096921,2096921,156157,657799,0
2096921,2096921,156483,657599,0
2096921,2096921,156314,657384,0
2096921,2096921,156249,657208,0
2096921,2096921,156351,657443,0
2096921,2096921,156242,657573,0
2096921,2096921,156112,657362,0
2096921,2096921,156068,657252,0
2096921,2096921,156192,657177,0
2096921,2096921,156078,656841,0
2096921,2096921,156182,656706,0
2096921,2096921,156275,656901,0
2096921,2096921,156123,656758,0
2096921,2096921,156038,656729,0
2096921,2096921,156033,656534,0
2096921,2096921,155896,656882,0
2096921,2096921,155989,656559,0
2096921,2096921,155869,656532,0
2096921,2096921,156060,656106,0
2096921,2096921,156005,656236,0
2096921,2096921,155989,656544,0
2096921,2096921,155828,656392,0
2096921,2096921,155838,656481,0
2096921,2096921,155809,656055,0
2096921,2096921,155876,655848,0
2096921,2096921,155749,655958,0
2096921,2096921,155642,655952,0
2096921,2096921,155605,655999,0
2096921,2096921,155778,655865,0
2096921,2096921,155756,655567,0
2096921,2096921,155763,655850,0
2096921,2096921,156023,655792,0
2096921,2096921,155776,655868,0
2096921,2096921,155825,655810,0
2096921,2096921,155644,655596,0
2096921,2096921,156037,655669,0
2096921,2096921,155940,655899,0
2096921,2096921,155934,655737,0
2096921,2096921,155846,655639,0
2096921,2096921,156015,655595,0
2096921,2096921,155838,655425,0
2096921,2096921,155809,655544,0
2096921,2096921,155599,655703,0
2096921,2096921,155739,655992,0
2096921,2096921,155721,655680,0
2096921,2096921,155754,655583,0
2096921,2096921,155639,655539,0
2096921,2096921,156004,655698,0
2096921,2096921,155861,655607,0
2096921,2096921,155995,655522,0
2096921,2096921,155785,655679,0
2096921,2096921,156136,655631,0
2096921,2096921,155973,656163,0
2096921,2096921,156042,655919,0
2096921,2096921,155449,655824,0
2096921,2096921,155726,656081,0
2096921,2096921,156063,656050,0
2096921,2096921,155843,656306,0
2096921,2096921,155811,656151,0
2096921,2096921,155644,656382,0
2096921,2096921,156099,656420,0
2096921,2096921,155870,656425,0
2096921,2096921,155930,656486,0
2096921,2096921,156205,656920,0
2096921,2096921,156272,656627,0
2096921,2096921,156279,656965,0
2096921,2096921,156295,656803,0
2096921,2096921,156414,657312,0
2096921,2096921,156348,657052,0
2096921,2096921,156186,656918,0
2096921,2096921,156179,657352,0
2096921,2096921,156183,657080,0
2096921,2096921,156387,657216,0
2096921,2096921,156320,657196,0
2096921,2096921,156573,657426,0
2096921,2096921,156580,657476,0
2096921,2096921,156464,657463,0
2096921,2096921,156431,657427,0
2096921,2096921,156493,657597,0
2096921,2096921,156630,657677,0
2096921,2096921,156684,657891,0
2096921,2096921,156397,657609,0
2096921,2096921,156425,657717,0
2096921,2096921,156519,657945,0
2096921,2096921,156688,657773,0
2096921,2096921,156487,657956,0
2096921,2096921,156744,658046,0
2096921,2096921,156741,658511,0
2096921,2096921,156540,658279,0
2096921,2096921,156754,658435,0
2096921,2096921,156736,658257,0
2096921,2096921,156859,657959,0
2096921,2096921,156690,658234,0
2096921,2096921,156815,658551,0
2096921,2096921,156925,658358,0
2096921,2096921,156817,658435,0
2096921,2096921,156798,658652,0
2096921,2096921,157100,658823,0
2096921,2096921,157219,659065,0
2096921,2096921,157123,658909,0
2096921,2096921,157146,659019,0
2096921,2096921,156977,658982,0
2096921,2096921,157020,659440,0
2096921,2096921,157032,659367,0
2096921,2096921,156981,659303,0
2096921,2096921,156887,659113,0
2096921,2096921,157051,659325,0
2096921,2096921,156947,659422,0
2096921,2096921,157167,659455,0
2096921,2096921,157094,659588,0
2096921,2096921,157167,659525,0
2096921,2096921,157219,659528,0
2096921,2096921,157252,660064,0
2096921,2096921,157384,660069,0
2096921,2096921,157649,660007,0
2096921,2096921,157375,659804,0
2096921,2096921,157307,659906,0
2096921,2096921,157455,660183,0
2096921,2096921,157396,660067,0
2096921,2096921,157350,659937,0
2096921,2096921,157346,660140,0
2096921,2096921,157476,659992,0
2096921,2096921,157321,660236,0
2096921,2096921,157683,660377,0
2096921,2096921,157531,660381,0
2096921,2096921,157560,660223,0
2096921,2096921,157719,660071,0
2096921,2096921,157525,660517,0
2096921,2096921,157834,660356,0
2096921,2096921,157418,660563,0
2096921,2096921,157647,660817,0
2096921,2096921,157527,660418,0
2096921,2096921,157955,660909,0
2096921,2096921,157789,660986,0
2096921,2096921,157637,660943,0
2096921,2096921,157959,661028,0
2096921,2096921,157860,660943,0
2096921,2096921,157575,661314,0
2096921,2096921,157617,661463,0
2096921,2096921,157703,661385,0
2096921,2096921,157904,660996,0
2096921,2096921,157930,661128,0
2096921,2096921,157785,661413,0
2096921,2096921,157772,661500,0
2096921,2096921,157914,661538,0
2096921,2096921,157584,661373,0
2096921,2096921,157838,661618,0
2096921,2096921,157824,661852,0
2096921,2096921,157867,661773,0
2096921,2096921,157756,661795,0
2096921,2096921,157762,661574,0
2096921,2096921,157772,661464,0
2096921,2096921,157766,661847,0
2096921,2096921,157941,661760,0
2096921,2096921,158183,661829,0
2096921,2096921,157904,662161,0
2096921,2096921,158007,661854,0
2096921,2096921,158012,662442,0
2096921,2096921,157943,662147,0
2096921,2096921,158205,662135,0
2096921,2096921,158170,661975,0
2096921,2096921,158469,661763,0
2096921,2096921,158131,661893,0
2096921,2096921,158008,662215,0
2096921,2096921,158032,662292,0
2096921,2096921,158453,662392,0
2096921,2096921,158193,662326,0
2096921,2096921,158372,662565,0
2096921,2096921,158220,662664,0
2096921,2096921,158187,662395,0
2096921,2096921,158239,662738,0
2096921,2096921,158197,662826,0
2096921,2096921,158455,662737,0
2096921,2096921,158400,662665,0
2096921,2096921,158501,662516,0
2096921,2096921,158408,662790,0
2096921,2096921,158385,662763,0
2096921,2096921,158440,662747,0
2096921,2096921,158299,662980,0
2096921,2096921,158172,662875,0
2096921,2096921,158561,662782,0
2096921,2096921,158565,662811,0
2096921,2096921,158678,662709,0
2096921,2096921,158517,662916,0
2096921,2096921,158520,663231,0
2096921,2096921,158310,663034,0
2096921,2096921,158527,663159,0
2096921,2096921,158535,663122,0
2096921,2096921,158488,663194,0
2096921,2096921,158749,663355,0
2096921,2096921,158508,662910,0
2096921,2096921,158230,663124,0
2096921,2096921,158367,663070,0
2096921,2096921,158523,663646,0
2096921,2096921,158688,663372,0
2096921,2096921,158486,663407,0
2096921,2096921,158964,663312,0
2096921,2096921,158952,663907,0
2096921,2096921,158702,663709,0
2096921,2096921,158781,663539,0
2096921,2096921,158516,663487,0
2096921,2096921,158746,663454,0
2096921,2096921,158627,663639,0
2096921,2096921,158674,663547,0
2096921,2096921,158329,663805,0
2096921,2096921,158744,663740,0
2096921,2096921,158575,663726,0
2096921,2096921,158779,663410,0
2096921,2096921,158709,663560,0
2096921,2096921,158580,663524,0
2096921,2096921,158796,663539,0
2096921,2096921,158660,663513,0
2096921,2096921,158595,663847,0
2096921,2096921,158711,663973,0
2096921,2096921,158803,664053,0
2096921,2096921,158768,663982,0
2096921,2096921,158613,664039,0
2096921,2096921,158825,663981,0
2096921,2096921,158562,663912,0
2096921,2096921,158786,664039,0
2096921,2096921,158818,663991,0
2096921,2096921,158678,663577,0
2096921,2096921,158751,663691,0
2096921,2096921,158670,664046,0
2096921,2096921,158553,664204,0
2096921,2096921,158819,664127,0
2096921,2096921,158836,664047,0
2096921,2096921,158605,664279,0
2096921,2096921,158794,664199,0
2096921,2096921,158812,664185,0
2096921,2096921,159068,663987,0
2096921,2096921,158977,664206,0
2096921,2096921,158908,664437,0
2096921,2096921,159119,664326,0
2096921,2096921,158712,664161,0
2096921,2096921,158818,664506,0
2096921,2096921,158896,664304,0
2096921,2096921,158950,664430,0
2096921,2096921,158778,664427,0
2096921,2096921,158759,664525,0
2096921,2096921,158788,664492,0
2096921,2096921,158798,664445,0
2096921,2096921,158777,664388,0
2096921,2096921,159176,664546,0
2096921,2096921,159105,664792,0
2096921,2096921,159119,664503,0
2096921,2096921,158881,664669,0
2096921,2096921,159220,664826,0
2096921,2096921,159023,664615,0
2096921,2096921,159112,664587,0
2096921,2096921,158835,664439,0
2096921,2096921,159008,664548,0
2096921,2096921,158943,664483,0
2096921,2096921,158932,664514,0
2096921,2096921,158960,664881,0
2096921,2096921,159023,665039,0
2096921,2096921,158941,664849,0
2096921,2096921,158940,664794,0
2096921,2096921,158811,664815,0
2096921,2096921,159195,664826,0
2096921,2096921,159203,664789,0
2096921,2096921,159131,664832,0
2096921,2096921,159156,664962,0
2096921,2096921,158943,664940,0
2096921,2096921,159022,664847,0
2096921,2096921,159007,664762,0
2096921,2096921,159070,664738,0
2096921,2096921,159169,665029,0
2096921,2096921,159105,664965,0
2096921,2096921,158811,664818,0
2096921,2096921,159086,664952,0
2096921,2096921,159189,664517,0
2096921,2096921,158894,665031,0
2096921,2096921,159098,664826,0
2096921,2096921,159039,664814,0
2096921,2096921,159188,664820,0
2096921,2096921,158935,664884,0
2096921,2096921,159037,665164,0
2096921,2096921,159217,664575,0
2096921,2096921,158823,664791,0
2096921,2096921,159168,664882,0
2096921,2096921,158968,664917,0
2096921,2096921,159296,664886,0
2096921,2096921,159459,664974,0
2096921,2096921,159228,664899,0
2096921,2096921,158826,665288,0
2096921,2096921,159119,664998,0
2096921,2096921,159210,665048,0
2096921,2096921,158957,664945,0
2096921,2096921,158985,665056,0
2096921,2096921,158920,664980,0
2096921,2096921,159381,664801,0
2096921,2096921,159200,664870,0
2096921,2096921,158914,665047,0
2096921,2096921,159060,665066,0
2096921,2096921,159144,664885,0
2096921,2096921,159067,665120,0
2096921,2096921,159008,665394,0
2096921,2096921,159252,665290,0
2096921,2096921,159266,664892,0
2096921,2096921,159125,665356,0
2096921,2096921,159099,665468,0
2096921,2096921,159199,665145,0
2096921,2096921,159316,665076,0
2096921,2096921,159124,665096,0
2096921,2096921,159228,665075,0
2096921,2096921,159382,665404,0
2096921,2096921,159252,665249,0
2096921,2096921,159185,665363,0
2096921,2096921,159271,665287,0
2096921,2096921,159433,665259,0
2096921,2096921,159241,665281,0
2096921,2096921,159189,665316,0
2096921,2096921,158961,665411,0
2096921,2096921,159231,665412,0
2096921,2096921,159203,665563,0
2096921,2096921,158755,665145,0
2096921,2096921,159091,664569,0
2096921,2096921,159207,664789,0
2096921,2096921,158802,664991,0
2096921,2096921,158982,664803,0
2096921,2096921,158941,664806,0
2096921,2096921,159036,664360,0
2096921,2096921,159188,664322,0
2096921,2096921,158709,664198,0
2096921,2096921,159036,664499,0
2096921,2096921,158762,664601,0
2096921,2096921,158337,663970,0
2096921,2096921,158854,663720,0
2096921,2096921,158647,663716,0
2096921,2096921,158401,663429,0
2096921,2096921,158199,663694,0
2096921,2096921,158199,662451,0
2096921,2096921,158138,662475,0
2096921,2096921,158247,662750,0
2096921,2096921,158491,662536,0
2096921,2096921,157897,662379,0
2096921,2096921,157776,661493,0
2096921,2096921,157680,661417,0
2096921,2096921,157721,661471,0
2096921,2096921,157899,661770,0
2096921,2096921,157220,661203,0
2096921,2096921,157016,659232,0
2096921,2096921,156694,658531,0
2096921,2096921,156746,658496,0
2096921,2096921,156739,658616,0
2096921,2096921,155871,658446,0
2096921,2096921,155391,655871,0
2096921,2096921,155510,655286,0
2096921,2096921,155603,655494,0
2096921,2096921,155747,655151,0
2096921,2096921,154673,655046,0
2096921,2096921,154953,653229,0
2096921,2096921,154957,652757,0
2096921,2096921,154784,652734,0
2096921,2096921,154777,652855,0
2096921,2096921,154057,652925,0
2096921,2096921,154086,651259,0
2096921,2096921,154097,650817,0
2096921,2096921,154195,650947,0
2096921,2096921,154013,650907,0
2096921,2096921,153622,650937,0
2096921,2096921,153813,649627,0
2096921,2096921,153659,649746,0
2096921,2096921,153752,649734,0
2096921,2096921,153803,649504,0
2096921,2096921,153299,649595,0
2096921,2096921,153349,648984,0
2096921,2096921,153102,648593,0
2096921,2096921,153178,648635,0
2096921,2096921,153192,648692,0
2096921,2096921,153023,648660,0
2096921,2096921,152956,648218,0
2096921,2096921,153024,648061,0
2096921,2096921,152973,647869,0
2096921,2096921,153079,648312,0
2096921,2096921,152719,648170,0
2096921,2096921,152956,647976,0
2096921,2096921,152939,647732,0
2096921,2096921,152705,647491,0
2096921,2096921,152666,647542,0
2096921,2096921,152612,647737,0
2096921,2096921,152800,647859,0
2096921,2096921,152993,647818,0
2096921,2096921,153044,647779,0
2096921,2096921,152857,648053,0
2096921,2096921,152800,647892,0
2096921,2096921,152915,647959,0
2096921,2096921,152874,648014,0
2096921,2096921,152883,647931,0
2096921,2096921,152978,647872,0
2096921,2096921,152775,647813,0
2096921,2096921,153014,648316,0
2096921,2096921,152971,648352,0
2096921,2096921,153147,648300,0
2096921,2096921,152976,648349,0
2096921,2096921,153068,648231,0
2096921,2096921,153102,648684,0
2096921,2096921,153132,648603,0
2096921,2096921,153193,648603,0
2096921,2096921,153317,648788,0
2096921,2096921,153282,648716,0
2096921,2096921,153511,648884,0
2096921,2096921,153150,649003,0
2096921,2096921,153350,649026,0
2096921,2096921,153233,649088,0
2096921,2096921,153076,649359,0
2096921,2096921,153770,649611,0
2096921,2096921,153555,649931,0
2096921,2096921,153764,649836,0
2096921,2096921,153571,649777,0
2096921,2096921,153652,649906,0
2096921,2096921,153729,650125,0
2096921,2096921,153413,650444,0
2096921,2096921,153893,650381,0
2096921,2096921,153994,650371,0
2096921,2096921,154031,650403,0
2096921,2096921,154048,650920,0
2096921,2096921,153846,651230,0
2096921,2096921,154036,651510,0
2096921,2096921,153950,651204,0
2096921,2096921,154134,651066,0
2096921,2096921,154106,652118,0
2096921,2096921,154222,652041,0
2096921,2096921,154320,652319,0
2096921,2096921,154230,652193,0
2096921,2096921,154436,652054,0
2096921,2096921,154216,652607,0
2096921,2096921,154307,652881,0
2096921,2096921,154282,652770,0
2096921,2096921,154251,652539,0
2096921,2096921,154663,652831,0
2096921,2096921,154964,653367,0
2096921,2096921,154803,653706,0
2096921,2096921,155091,653440,0
2096921,2096921,154630,653461,0
2096921,2096921,154851,653440,0
2096921,2096921,154978,654114,0
2096921,2096921,155375,654313,0
2096921,2096921,154930,654365,0
2096921,2096921,154919,654432,0
2096921,2096921,154803,654438,0
2096921,2096921,155208,655161,0
2096921,2096921,155396,655186,0
2096921,2096921,155266,655340,0
2096921,2096921,155311,655311,0
2096921,2096921,155310,655378,0
2096921,2096921,155720,655934,0
2096921,2096921,155531,655965,0
2096921,2096921,155531,655858,0
2096921,2096921,155524,655943,0
2096921,2096921,155664,656159,0
2096921,2096921,155658,656804,0
2096921,2096921,155877,656899,0
2096921,2096921,155799,656921,0
2096921,2096921,155946,657050,0
2096921,2096921,155792,656936,0
2096921,2096921,155938,657799,0
2096921,2096921,156059,657955,0
2096921,2096921,155907,657936,0
2096921,2096921,155914,657682,0
2096921,2096921,156149,657800,0
2096921,2096921,156379,658756,0
2096921,2096921,156392,658232,0
2096921,2096921,156289,658190,0
2096921,2096921,156323,658367,0
2096921,2096921,156492,658817,0
2096921,2096921,156570,658811,0
2096921,2096921,156590,658999,0
2096921,2096921,156562,659319,0
2096921,2096921,156560,659581,0
2096921,2096921,156680,659049,0
2096921,2096921,156806,659928,0
2096921,2096921,156663,660017,0
2096921,2096921,156641,660016,0
2096921,2096921,156825,659810,0
2096921,2096921,156920,659834,0
2096921,2096921,157019,660589,0
2096921,2096921,157082,660583,0
2096921,2096921,156761,660701,0
2096921,2096921,157009,660402,0
2096921,2096921,156985,660448,0
2096921,2096921,157259,660592,0
2096921,2096921,157222,660775,0
2096921,2096921,156847,660692,0
2096921,2096921,156913,660881,0
2096921,2096921,157146,660838,0
2096921,2096921,157438,661230,0
2096921,2096921,157529,661336,0
2096921,2096921,157565,661447,0
2096921,2096921,157336,661287,0
2096921,2096921,157563,661380,0
2096921,2096921,157555,661308,0
2096921,2096921,157294,661436,0
2096921,2096921,157491,661745,0
2096921,2096921,157253,661729,0
2096921,2096921,157082,661684,0
2096921,2096921,157265,662043,0
2096921,2096921,157238,661886,0
2096921,2096921,157344,661791,0
2096921,2096921,157631,661679,0
2096921,2096921,157504,661609,0
2096921,2096921,157491,661906,0
2096921,2096921,157320,662060,0
2096921,2096921,157359,661855,0
2096921,2096921,157459,661677,0
2096921,2096921,157507,662313,0
2096921,2096921,157215,662082,0
2096921,2096921,157601,661872,0
2096921,2096921,157562,661902,0
2096921,2096921,157702,661884,0
2096921,2096921,157235,662021,0
2096921,2096921,157341,662132,0
2096921,2096921,157177,661933,0
2096921,2096921,157503,662192,0
2096921,2096921,157341,662088,0
2096921,2096921,157471,662110,0
2096921,2096921,157288,661843,0
2096921,2096921,157275,662174,0
2096921,2096921,157227,661968,0
2096921,2096921,157157,662274,0
2096921,2096921,157237,662637,0
2096921,2096921,157296,662208,0
2096921,2096921,157174,662259,0
2096921,2096921,157205,662137,0
2096921,2096921,157408,662225,0
2096921,2096921,157466,662349,0
2096921,2096921,157564,662814,0
2096921,2096921,157447,662637,0
2096921,2096921,157394,662540,0
2096921,2096921,157386,662495,0
2096921,2096921,157524,662456,0
2096921,2096921,157380,662630,0
2096921,2096921,157318,662836,0
2096921,2096921,157269,662657,0
2096921,2096921,157416,662675,0
2096921,2096921,157354,663054,0
2096921,2096921,157387,662965,0
2096921,2096921,157353,662974,0
2096921,2096921,157541,662846,0
2096921,2096921,157706,662847,0
2096921,2096921,157710,662629,0
2096921,2096921,157933,663276,0
2096921,2096921,157868,663431,0
2096921,2096921,157450,663444,0
2096921,2096921,157671,663290,0
2096921,2096921,157755,663438,0
2096921,2096921,157514,663695,0
2096921,2096921,157566,663923,0
2096921,2096921,157675,663760,0
2096921,2096921,157814,663774,0
2096921,2096921,157921,663716,0
2096921,2096921,157733,664426,0
2096921,2096921,158139,664536,0
2096921,2096921,158314,664729,0
2096921,2096921,158021,664628,0
2096921,2096921,158425,664616,0
2096921,2096921,158450,665132,0
2096921,2096921,158392,665167,0
2096921,2096921,158453,665382,0
2096921,2096921,158396,665264,0
2096921,2096921,158291,665259,0
2096921,2096921,158464,666028,0
2096921,2096921,158478,665601,0
2096921,2096921,158267,666025,0
2096921,2096921,158443,665840,0
2096921,2096921,158567,666066,0
2096921,2096921,158627,666590,0
2096921,2096921,158737,666497,0
2096921,2096921,158558,666608,0
2096921,2096921,158844,666671,0
2096921,2096921,158980,666385,0
2096921,2096921,158853,666925,0
2096921,2096921,158888,667163,0
2096921,2096921,159018,667307,0
2096921,2096921,158763,667513,0
2096921,2096921,158876,667143,0
2096921,2096921,159130,667663,0
2096921,2096921,159027,667560,0
2096921,2096921,158975,667860,0
2096921,2096921,158927,667609,0
2096921,2096921,158685,667775,0
2096921,2096921,158973,668110,0
2096921,2096921,159149,668213,0
2096921,2096921,158895,668431,0
2096921,2096921,158840,668054,0
2096921,2096921,159492,668343,0
2096921,2096921,159438,668520,0
2096921,2096921,159321,668894,0
2096921,2096921,159369,668957,0
2096921,2096921,159326,668912,0
2096921,2096921,159547,669037,0
2096921,2096921,159438,669571,0
2096921,2096921,159664,669379,0
2096921,2096921,159739,669749,0
2096921,2096921,159647,669651,0
2096921,2096921,159763,669723,0
2096921,2096921,159645,669930,0
2096921,2096921,159731,670191,0
2096921,2096921,159511,670209,0
2096921,2096921,159882,670341,0
2096921,2096921,160121,670522,0
2096921,2096921,160091,670513,0
2096921,2096921,160217,670797,0
2096921,2096921,160132,670916,0
2096921,2096921,160135,670903,0
2096921,2096921,160040,670906,0
2096921,2096921,159849,671550,0
2096921,2096921,159955,671481,0
2096921,2096921,160020,671706,0
2096921,2096921,160143,671529,0
2096921,2096921,160188,671231,0
2096921,2096921,160355,671807,0
2096921,2096921,160312,671721,0
2096921,2096921,160364,671858,0
2096921,2096921,160343,671993,0
2096921,2096921,160527,672116,0
2096921,2096921,160509,672291,0
2096921,2096921,160605,672528,0
2096921,2096921,160623,672701,0
2096921,2096921,160260,672561,0
2096921,2096921,160556,672487,0
2096921,2096921,160777,673027,0
2096921,2096921,160760,673060,0
2096921,2096921,160650,673426,0
2096921,2096921,160905,673135,0
2096921,2096921,160682,673386,0
2096921,2096921,160924,673911,0
2096921,2096921,161018,673893,0
2096921,2096921,161092,674100,0
2096921,2096921,160728,674128,0
2096921,2096921,160883,673907,0
2096921,2096921,160993,674094,0
2096921,2096921,161420,674323,0
2096921,2096921,161237,674388,0
2096921,2096921,161263,674259,0
2096921,2096921,161325,674271,0
2096921,2096921,161207,674795,0
2096921,2096921,161278,674657,0
2096921,2096921,161109,674873,0
2096921,2096921,161323,674591,0
2096921,2096921,161351,674795,0
2096921,2096921,161299,675069,0
2096921,2096921,161056,674896,0
2096921,2096921,161257,675372,0
2096921,2096921,161271,675203,0
2096921,2096921,161558,675532,0
2096921,2096921,161595,675535,0
2096921,2096921,161421,675768,0
2096921,2096921,161395,676005,0
2096921,2096921,161480,675637,0
2096921,2096921,161681,675727,0
2096921,2096921,161197,675988,0
2096921,2096921,161321,676634,0
2096921,2096921,161507,676294,0
2096921,2096921,161619,676101,0
2096921,2096921,161740,676340,0
2096921,2096921,161710,676201,0
2096921,2096921,161509,676252,0
2096921,2096921,161503,676522,0
2096921,2096921,162042,676430,0
2096921,2096921,162052,676423,0
2096921,2096921,162027,676657,0
2096921,2096921,161978,676551,0
2096921,2096921,162043,676971,0
2096921,2096921,161809,676958,0
2096921,2096921,161961,676845,0
2096921,2096921,161792,677097,0
2096921,2096921,161958,677304,0
2096921,2096921,161820,677047,0
2096921,2096921,162002,677266,0
2096921,2096921,161769,677715,0
2096921,2096921,162031,677882,0
2096921,2096921,162159,677703,0
2096921,2096921,162294,678175,0
2096921,2096921,162044,677837,0
2096921,2096921,162218,677769,0
2096921,2096921,162376,678235,0
2096921,2096921,162226,678226,0
2096921,2096921,162317,678524,0
2096921,2096921,162339,678109,0
2096921,2096921,162105,678221,0
2096921,2096921,162197,678366,0
2096921,2096921,162465,678738,0
2096921,2096921,162367,678593,0
2096921,2096921,162423,678938,0
2096921,2096921,162373,678541,0
2096921,2096921,162490,678973,0
2096921,2096921,162692,678866,0
2096921,2096921,162559,678893,0
2096921,2096921,162608,679170,0
2096921,2096921,162590,679254,0
2096921,2096921,162372,679282,0
2096921,2096921,162628,679411,0
2096921,2096921,162716,679227,0
2096921,2096921,162895,679475,0
2096921,2096921,162776,679395,0
2096921,2096921,162988,679646,0
2096921,2096921,162876,679556,0
2096921,2096921,162890,679845,0
2096921,2096921,162639,679651,0
2096921,2096921,162727,679567,0
2096921,2096921,162629,679647,0
2096921,2096921,162613,680014,0
2096921,2096921,163052,680009,0
2096921,2096921,162716,679934,0
2096921,2096921,162788,679909,0
2096921,2096921,162816,680192,0
2096921,2096921,162976,680764,0
2096921,2096921,162863,680580,0
2096921,2096921,162767,680650,0
2096921,2096921,162811,680577,0
2096921,2096921,162696,680863,0
2096921,2096921,162725,680755,0
2096921,2096921,163074,680810,0
2096921,2096921,162939,680491,0
2096921,2096921,162998,680531,0
2096921,2096921,163162,680824,0
2096921,2096921,163214,680983,0
2096921,2096921,163010,681123,0
2096921,2096921,162957,680918,0
2096921,2096921,163191,680885,0
2096921,2096921,163299,680949,0
2096921,2096921,163183,681335,0
2096921,2096921,162956,681145,0
2096921,2096921,163134,681286,0
2096921,2096921,163309,681283,0
2096921,2096921,163415,681504,0
2096921,2096921,163466,681454,0
2096921,2096921,162994,681402,0
2096921,2096921,163394,681474,0
2096921,2096921,163503,681548,0
2096921,2096921,163190,681745,0
2096921,2096921,163094,681940,0
2096921,2096921,163268,681795,0
2096921,2096921,163055,681830,0
2096921,2096921,163236,681864,0
2096921,2096921,163409,682069,0
2096921,2096921,163175,682166,0
2096921,2096921,163428,682128,0
2096921,2096921,163703,682241,0
2096921,2096921,163219,682606,0
2096921,2096921,163563,682761,0
2096921,2096921,163470,682427,0
2096921,2096921,163238,682571,0
2096921,2096921,163484,682523,0
2096921,2096921,163785,682468,0
2096921,2096921,163934,682996,0
2096921,2096921,163752,682694,0
2096921,2096921,163633,682892,0
2096921,2096921,163337,682596,0
2096921,2096921,163401,682562,0
2096921,2096921,163343,683123,0
2096921,2096921,163486,682830,0
2096921,2096921,163715,683426,0
2096921,2096921,163681,682935,0
2096921,2096921,164019,683093,0
2096921,2096921,163945,683200,0
2096921,2096921,163688,683361,0
2096921,2096921,163950,683034,0
2096921,2096921,163581,683316,0
2096921,2096921,163600,683244,0
2096921,2096921,163863,683082,0
2096921,2096921,163523,683262,0
2096921,2096921,163877,683473,0
2096921,2096921,163633,683463,0
2096921,2096921,163722,683582,0
2096921,2096921,163726,683793,0
2096921,2096921,163728,683674,0
2096921,2096921,163535,683797,0
2096921,2096921,163761,683617,0
2096921,2096921,163717,683443,0
2096921,2096921,163670,683823,0
2096921,2096921,163998,683910,0
2096921,2096921,163828,683872,0
2096921,2096921,164056,684066,0
2096921,2096921,164098,683750,0
2096921,2096921,164224,684052,0
2096921,2096921,163902,683965,0
2096921,2096921,164124,684189,0
2096921,2096921,164010,683992,0
2096921,2096921,163881,683931,0
2096921,2096921,163699,684098,0
2096921,2096921,163634,684161,0
2096921,2096921,163908,684274,0
2096921,2096921,163753,684145,0
2096921,2096921,163994,684106,0
2096921,2096921,163900,684282,0
2096921,2096921,163720,684183,0
2096921,2096921,163673,683923,0
2096921,2096921,163558,684140,0
2096921,2096921,163702,684107,0
2096921,2096921,164017,684368,0
2096921,2096921,164233,684288,0
2096921,2096921,163950,684304,0
2096921,2096921,163857,684308,0
2096921,2096921,163964,684323,0
2096921,2096921,163823,684153,0
2096921,2096921,164012,684615,0
2096921,2096921,163995,684776,0
2096921,2096921,164200,684861,0
2096921,2096921,163704,684504,0
2096921,2096921,163936,684571,0
2096921,2096921,164053,684639,0
2096921,2096921,164094,684674,0
2096921,2096921,163872,684561,0
2096921,2096921,164008,684803,0
2096921,2096921,164193,684889,0
2096921,2096921,164289,684866,0
2096921,2096921,163880,684644,0
2096921,2096921,163685,684583,0
2096921,2096921,163932,684635,0
2096921,2096921,164368,684702,0
2096921,2096921,164142,684752,0
2096921,2096921,164256,684659,0
2096921,2096921,164303,684959,0
2096921,2096921,164279,684687,0
2096921,2096921,164044,684523,0
2096921,2096921,164004,684144,0
2096921,2096921,163874,684527,0
2096921,2096921,163944,684030,0
2096921,2096921,163688,684146,0
2096921,2096921,163659,683551,0
2096921,2096921,163913,683622,0
2096921,2096921,163977,683941,0
2096921,2096921,163805,683910,0
2096921,2096921,163606,684109,0
2096921,2096921,163587,683238,0
2096921,2096921,163533,683225,0
2096921,2096921,163535,683330,0
2096921,2096921,163468,683399,0
2096921,2096921,163194,683076,0
2096921,2096921,162892,682142,0
2096921,2096921,163186,681969,0
2096921,2096921,162969,681908,0
2096921,2096921,162966,681845,0
2096921,2096921,162718,682097,0
2096921,2096921,162501,681056,0
2096921,2096921,162643,680800,0
2096921,2096921,162543,680733,0
2096921,2096921,162473,680574,0
2096921,2096921,161752,680668,0
2096921,2096921,161385,678313,0
2096921,2096921,161676,677842,0
2096921,2096921,161484,677705,0
2096921,2096921,161351,677966,0
2096921,2096921,160616,677617,0
2096921,2096921,160326,674897,0
2096921,2096921,160618,674687,0
2096921,2096921,160597,674281,0
2096921,2096921,160226,674128,0
2096921,2096921,159373,673884,0
2096921,2096921,159424,672240,0
2096921,2096921,159364,671975,0
2096921,2096921,159442,671674,0
2096921,2096921,159389,671926,0
2096921,2096921,158829,671827,0
2096921,2096921,158712,670229,0
2096921,2096921,158841,669764,0
2096921,2096921,158890,669716,0
2096921,2096921,158861,669745,0
2096921,2096921,158091,669640,0
2096921,2096921,157640,668301,0
2096921,2096921,157779,668553,0
2096921,2096921,158293,668383,0
2096921,2096921,158348,668144,0
2096921,2096921,158125,668323,0
2096921,2096921,157677,667336,0
2096921,2096921,157987,667417,0
2096921,2096921,157591,667254,0
2096921,2096921,157628,667263,0
2096921,2096921,157389,667112,0
2096921,2096921,157443,666759,0
2096921,2096921,157359,666732,0
2096921,2096921,157472,666243,0
2096921,2096921,157650,666263,0
2096921,2096921,157317,666473,0
2096921,2096921,157427,666048,0
2096921,2096921,157545,666378,0
2096921,2096921,157396,666074,0
2096921,2096921,157405,665844,0
2096921,2096921,157347,665838,0
2096921,2096921,157359,666130,0
2096921,2096921,157365,666148,0
2096921,2096921,157358,666028,0
2096921,2096921,157101,665840,0
2096921,2096921,157330,665901,0
2096921,2096921,157141,665933,0
2096921,2096921,157288,665826,0
2096921,2096921,157128,665642,0
2096921,2096921,157489,665524,0
2096921,2096921,157337,665621,0
2096921,2096921,157116,665802,0
2096921,2096921,157306,666058,0
2096921,2096921,157592,666097,0
2096921,2096921,157422,666072,0
2096921,2096921,157306,665949,0
2096921,2096921,157359,665979,0
2096921,2096921,157358,666174,0
2096921,2096921,157356,666202,0
2096921,2096921,157626,666168,0
2096921,2096921,157720,666172,0
2096921,2096921,157664,666473,0
2096921,2096921,157534,666570,0
2096921,2096921,157524,666698,0
2096921,2096921,157420,666425,0
2096921,2096921,157599,666567,0
2096921,2096921,157908,666893,0
2096921,2096921,157894,666982,0
2096921,2096921,158119,667298,0
2096921,2096921,157655,667133,0
2096921,2096921,157860,666827,0
2096921,2096921,157887,667503,0
2096921,2096921,157967,667424,0
2096921,2096921,157919,667524,0
2096921,2096921,157896,667772,0
2096921,2096921,158039,667846,0
2096921,2096921,157993,668155,0
2096921,2096921,158082,668294,0
2096921,2096921,158349,668380,0
2096921,2096921,158402,668195,0
2096921,2096921,158427,668114,0
2096921,2096921,158149,668504,0
2096921,2096921,158457,668779,0
2096921,2096921,158457,669072,0
2096921,2096921,158456,668830,0
2096921,2096921,158639,669175,0
2096921,2096921,158913,669535,0
2096921,2096921,158876,669622,0
2096921,2096921,158675,669840,0
2096921,2096921,158738,669618,0
2096921,2096921,158887,669590,0
2096921,2096921,158677,670105,0
2096921,2096921,158533,670163,0
2096921,2096921,158735,670130,0
2096921,2096921,158916,670161,0
2096921,2096921,158894,670069,0
2096921,2096921,158881,670718,0
2096921,2096921,159128,670807,0
2096921,2096921,158761,670908,0
2096921,2096921,158805,670898,0
2096921,2096921,158834,670826,0
2096921,2096921,159148,671300,0
2096921,2096921,159501,671164,0
2096921,2096921,159097,671264,0
2096921,2096921,159411,671543,0
2096921,2096921,159498,671295,0
2096921,2096921,159327,672082,0
2096921,2096921,159671,672108,0
2096921,2096921,159768,672030,0
2096921,2096921,159437,672240,0
2096921,2096921,159687,672054,0
2096921,2096921,159844,672443,0
2096921,2096921,159712,672447,0
2096921,2096921,159599,672510,0
2096921,2096921,159734,672648,0
2096921,2096921,159972,672925,0
2096921,2096921,160176,673151,0
2096921,2096921,159862,673045,0
2096921,2096921,159988,673088,0
2096921,2096921,159780,673119,0
2096921,2096921,160185,672928,0
2096921,2096921,160095,673561,0
2096921,2096921,160091,673912,0
2096921,2096921,160377,673781,0
2096921,2096921,160447,673675,0
2096921,2096921,160599,674017,0
2096921,2096921,160309,674363,0
2096921,2096921,160664,674177,0
2096921,2096921,160395,674062,0
2096921,2096921,160587,674471,0
2096921,2096921,160609,674354,0
2096921,2096921,160565,674665,0
2096921,2096921,160353,674678,0
2096921,2096921,160708,674961,0
2096921,2096921,160366,674876,0
2096921,2096921,160588,675137,0
2096921,2096921,160459,675149,0
2096921,2096921,160685,675362,0
2096921,2096921,160777,675322,0
2096921,2096921,160794,675202,0
2096921,2096921,160552,675253,0
2096921,2096921,160683,675395,0
2096921,2096921,161061,675362,0
2096921,2096921,160825,675457,0
2096921,2096921,160612,675688,0
2096921,2096921,160767,675668,0
2096921,2096921,160978,675608,0
2096921,2096921,160770,675747,0
2096921,2096921,160561,675680,0
2096921,2096921,160634,675819,0
2096921,2096921,160755,675351,0
2096921,2096921,160582,675791,0
2096921,2096921,160755,675547,0
2096921,2096921,160843,675719,0
2096921,2096921,160883,675990,0
2096921,2096921,160517,675718,0
2096921,2096921,161053,676034,0
2096921,2096921,161060,675961,0
2096921,2096921,160900,675838,0
2096921,2096921,160603,675825,0
2096921,2096921,160738,675500,0
2096921,2096921,160758,675668,0
2096921,2096921,160690,675582,0
2096921,2096921,160720,675546,0
2096921,2096921,161141,675359,0
2096921,2096921,160880,675918,0
2096921,2096921,160767,675578,0
2096921,2096921,160521,675625,0
2096921,2096921,160567,675636,0
2096921,2096921,160689,675659,0
2096921,2096921,160611,675266,0
2096921,2096921,160478,675169,0
2096921,2096921,160805,675210,0
2096921,2096921,160524,675135,0
2096921,2096921,160701,675295,0
2096921,2096921,160753,675437,0
2096921,2096921,160655,675199,0
2096921,2096921,160823,675054,0
2096921,2096921,160245,674902,0
2096921,2096921,160406,674955,0
2096921,2096921,160764,675229,0
2096921,2096921,160714,674888,0
2096921,2096921,160572,674787,0
2096921,2096921,160436,674589,0
2096921,2096921,160446,674727,0
2096921,2096921,160423,674670,0
2096921,2096921,160348,674797,0
2096921,2096921,160333,674683,0
2096921,2096921,160600,674760,0
2096921,2096921,160427,674657,0
2096921,2096921,160348,674543,0
2096921,2096921,160585,674435,0
2096921,2096921,160503,674682,0
2096921,2096921,160246,674743,0
2096921,2096921,160496,674621,0
2096921,2096921,160294,674643,0
2096921,2096921,160622,674740,0
2096921,2096921,160418,674747,0
2096921,2096921,160239,674968,0
2096921,2096921,160093,674572,0
2096921,2096921,160236,674502,0
2096921,2096921,160325,674864,0
2096921,2096921,160546,674962,0
2096921,2096921,160569,674805,0
2096921,2096921,160365,674863,0
2096921,2096921,160426,674979,0
2096921,2096921,160544,674851,0
2096921,2096921,160647,675004,0
2096921,2096921,160564,674590,0
2096921,2096921,160356,674963,0
2096921,2096921,160618,675117,0
2096921,2096921,160838,675156,0
2096921,2096921,160733,675050,0
2096921,2096921,160546,675390,0
2096921,2096921,160492,675495,0
2096921,2096921,160994,675304,0
2096921,2096921,160946,675574,0
2096921,2096921,161062,675807,0
2096921,2096921,160931,675768,0
2096921,2096921,160959,675771,0
2096921,2096921,160900,675926,0
2096921,2096921,160958,675990,0
2096921,2096921,160940,676241,0
2096921,2096921,160804,676282,0
2096921,2096921,160956,676283,0
2096921,2096921,161001,676343,0
2096921,2096921,161127,676551,0
2096921,2096921,161260,676596,0
2096921,2096921,161269,676726,0
2096921,2096921,161470,676457,0
2096921,2096921,161462,676508,0
2096921,2096921,161101,676625,0
2096921,2096921,161076,676855,0
2096921,2096921,161397,676519,0
2096921,2096921,161551,676763,0
2096921,2096921,161394,676814,0
2096921,2096921,161470,676945,0
2096921,2096921,161407,676901,0
2096921,2096921,161287,677343,0
2096921,2096921,161312,676837,0
2096921,2096921,161508,676827,0
2096921,2096921,161520,677218,0
2096921,2096921,161320,677377,0
2096921,2096921,161424,677637,0
2096921,2096921,161520,677603,0
2096921,2096921,161476,677472,0
2096921,2096921,161488,677703,0
2096921,2096921,161297,677656,0
2096921,2096921,161482,677487,0
2096921,2096921,161528,677830,0
2096921,2096921,161659,677481,0
2096921,2096921,161772,677884,0
2096921,2096921,161743,677557,0
2096921,2096921,161710,678137,0
2096921,2096921,161588,678190,0
2096921,2096921,161984,678081,0
2096921,2096921,162090,678319,0
2096921,2096921,162068,678291,0
2096921,2096921,162327,678380,0
2096921,2096921,162082,678418,0
2096921,2096921,161897,678354,0
2096921,2096921,161782,678255,0
2096921,2096921,161958,678457,0
2096921,2096921,161910,678170,0
2096921,2096921,162036,678689,0
2096921,2096921,161728,678577,0
2096921,2096921,162066,678606,0
2096921,2096921,162027,678575,0
2096921,2096921,161983,678942,0
2096921,2096921,161803,678819,0
2096921,2096921,161944,678661,0
2096921,2096921,162047,678737,0
2096921,2096921,161749,678597,0
2096921,2096921,162240,679033,0
2096921,2096921,162276,678834,0
2096921,2096921,161918,678836,0
2096921,2096921,162147,678996,0
2096921,2096921,161929,679148,0
2096921,2096921,162233,679180,0
2096921,2096921,162114,678982,0
2096921,2096921,162016,679036,0
2096921,2096921,162218,679361,0
2096921,2096921,162008,679321,0
2096921,2096921,162218,679303,0
2096921,2096921,162177,679207,0
2096921,2096921,162324,679078,0
2096921,2096921,162287,679473,0
2096921,2096921,162209,679593,0
2096921,2096921,162064,679545,0
2096921,2096921,162211,679668,0
2096921,2096921,162172,679355,0
2096921,2096921,162464,679553,0
2096921,2096921,162216,679544,0
2096921,2096921,162385,679673,0
2096921,2096921,162364,679722,0
2096921,2096921,162264,679689,0
2096921,2096921,162254,679562,0
2096921,2096921,162680,679875,0
2096921,2096921,162405,679987,0
2096921,2096921,162492,679724,0
2096921,2096921,162682,679674,0
2096921,2096921,162372,679780,0
2096921,2096921,162531,679886,0
2096921,2096921,162569,679762,0
2096921,2096921,162507,679819,0
2096921,2096921,162448,679704,0
2096921,2096921,162671,680187,0
2096921,2096921,162762,679859,0
2096921,2096921,162571,679983,0
2096921,2096921,162625,680146,0
2096921,2096921,162607,679940,0
2096921,2096921,162713,679867,0
2096921,2096921,162743,680156,0
2096921,2096921,162508,680052,0
2096921,2096921,162394,680044,0
2096921,2096921,162574,679954,0
2096921,2096921,162993,679996,0
2096921,2096921,162602,680448,0
2096921,2096921,162617,680182,0
2096921,2096921,162266,680213,0
2096921,2096921,162390,680096,0
2096921,2096921,162594,679908,0
2096921,2096921,162851,679985,0
2096921,2096921,162676,680047,0
2096921,2096921,162439,680027,0
2096921,2096921,162810,680141,0
2096921,2096921,162919,679843,0
2096921,2096921,162913,680182,0
2096921,2096921,162699,680193,0
2096921,2096921,162731,680149,0
2096921,2096921,162643,679940,0
2096921,2096921,162585,680175,0
2096921,2096921,162571,680228,0
2096921,2096921,162806,680043,0
2096921,2096921,162715,679982,0
2096921,2096921,162960,680087,0
2096921,2096921,162845,680208,0
2096921,2096921,162647,680058,0
2096921,2096921,162650,680150,0
2096921,2096921,162674,679969,0
2096921,2096921,162594,679995,0
2096921,2096921,162864,679846,0
2096921,2096921,162557,680163,0
2096921,2096921,162556,679974,0
2096921,2096921,162594,680124,0
2096921,2096921,162899,680009,0
2096921,2096921,162890,680166,0
2096921,2096921,162990,680165,0
2096921,2096921,162793,680134,0
2096921,2096921,162757,679993,0
2096921,2096921,162555,680069,0
2096921,2096921,162517,679639,0
2096921,2096921,162837,680102,0
2096921,2096921,162682,679934,0
2096921,2096921,162546,680163,0
2096921,2096921,162480,680033,0
2096921,2096921,162912,679979,0
2096921,2096921,162695,680000,0
2096921,2096921,163007,680068,0
2096921,2096921,162743,680033,0
2096921,2096921,162925,679805,0
2096921,2096921,162749,679787,0
2096921,2096921,162738,679925,0
2096921,2096921,162651,679676,0
2096921,2096921,162687,679857,0
2096921,2096921,162512,679986,0
2096921,2096921,162705,680101,0
2096921,2096921,162663,679657,0
2096921,2096921,162824,679553,0
2096921,2096921,162681,679862,0
2096921,2096921,162646,679849,0
2096921,2096921,162827,679606,0
2096921,2096921,162505,679720,0
2096921,2096921,162511,679604,0
2096921,2096921,162612,679718,0
2096921,2096921,162774,679429,0
2096921,2096921,162578,679249,0
2096921,2096921,162573,679614,0
2096921,2096921,162858,679732,0
2096921,2096921,162764,679783,0
2096921,2096921,162474,679695,0
2096921,2096921,162887,679243,0
2096921,2096921,162573,679460,0
2096921,2096921,162597,679574,0
2096921,2096921,162498,679381,0
2096921,2096921,162789,679509,0
2096921,2096921,162554,679596,0
2096921,2096921,162796,679460,0
2096921,2096921,162760,679309,0
2096921,2096921,162679,679146,0
2096921,2096921,162534,679361,0
2096921,2096921,162428,679150,0
2096921,2096921,162357,679227,0
2096921,2096921,162609,679340,0
2096921,2096921,162547,679450,0
2096921,2096921,162878,679017,0
2096921,2096921,162906,679288,0
2096921,2096921,162862,679175,0
2096921,2096921,162541,679192,0
2096921,2096921,162759,679050,0
2096921,2096921,162354,679046,0
2096921,2096921,162404,678883,0
2096921,2096921,162810,678882,0
2096921,2096921,162207,678960,0
2096921,2096921,162563,678930,0
2096921,2096921,162647,679216,0
2096921,2096921,162619,679012,0
2096921,2096921,162441,679033,0
2096921,2096921,162356,679071,0
2096921,2096921,162552,678833,0
2096921,2096921,162559,679083,0
2096921,2096921,162594,678732,0
2096921,2096921,162669,678739,0
2096921,2096921,162668,678797,0
2096921,2096921,162760,678703,0
2096921,2096921,162605,678849,0
2096921,2096921,162527,678748,0
2096921,2096921,162441,678605,0
2096921,2096921,162844,678435,0
2096921,2096921,162355,678563,0
2096921,2096921,162456,678155,0
2096921,2096921,162403,678412,0
2096921,2096921,162552,678312,0
2096921,2096921,162311,678432,0
2096921,2096921,162309,678616,0
2096921,2096921,162477,678487,0
2096921,2096921,162467,678332,0
2096921,2096921,162713,678433,0
2096921,2096921,162501,678402,0
2096921,2096921,162596,678481,0
2096921,2096921,162158,678122,0
2096921,2096921,162165,677971,0
2096921,2096921,162179,677820,0
2096921,2096921,162235,678090,0
2096921,2096921,162354,678189,0
2096921,2096921,162352,678323,0
2096921,2096921,162177,677571,0
2096921,2096921,162362,677700,0
2096921,2096921,162235,677639,0
2096921,2096921,162239,677620,0
2096921,2096921,162052,677955,0
2096921,2096921,162372,677467,0
2096921,2096921,162009,677603,0
2096921,2096921,162341,677266,0
2096921,2096921,162438,677577,0
2096921,2096921,162117,677528,0
2096921,2096921,162372,676917,0
2096921,2096921,162176,676997,0
2096921,2096921,162159,677128,0
2096921,2096921,162431,677061,0
2096921,2096921,162156,677251,0
2096921,2096921,162204,676959,0
2096921,2096921,161931,676890,0
2096921,2096921,162139,676704,0
2096921,2096921,162078,676809,0
2096921,2096921,161874,676833,0
2096921,2096921,162219,676436,0
2096921,2096921,161835,676526,0
2096921,2096921,162027,676658,0
2096921,2096921,161839,676908,0
2096921,2096921,162149,676514,0
2096921,2096921,161941,676519,0
2096921,2096921,161970,676344,0
2096921,2096921,162004,676331,0
2096921,2096921,161948,676284,0
2096921,2096921,161977,676388,0
2096921,2096921,162050,676196,0
2096921,2096921,161871,676154,0
2096921,2096921,161633,676284,0
2096921,2096921,161900,676074,0
2096921,2096921,161640,675791,0
2096921,2096921,161942,675709,0
2096921,2096921,162051,675737,0
2096921,2096921,161739,675989,0
2096921,2096921,161831,675787,0
2096921,2096921,161329,675538,0
2096921,2096921,161712,675219,0
2096921,2096921,161430,675122,0
2096921,2096921,161425,675158,0
2096921,2096921,161638,675262,0
2096921,2096921,161306,675171,0
2096921,2096921,161262,674363,0
2096921,2096921,161390,674156,0
2096921,2096921,161457,674295,0
2096921,2096921,161697,674237,0
2096921,2096921,161252,674384,0
2096921,2096921,160894,673377,0
2096921,2096921,161067,673289,0
2096921,2096921,160976,673032,0
2096921,2096921,160732,672940,0
2096921,2096921,160718,673391,0
2096921,2096921,160315,672111,0
2096921,2096921,160351,671488,0
2096921,2096921,160453,671802,0
2096921,2096921,160777,671743,0
2096921,2096921,160100,671612,0
2096921,2096921,160064,670340,0
2096921,2096921,160148,670387,0
2096921,2096921,160235,670105,0
2096921,2096921,160094,670051,0
2096921,2096921,158897,670066,0
2096921,2096921,159122,667778,0
2096921,2096921,158941,667179,0
2096921,2096921,159037,667328,0
2096921,2096921,159019,666964,0
2096921,2096921,158063,667127,0
2096921,2096921,157737,664193,0
2096921,2096921,157503,663270,0
2096921,2096921,157291,663309,0
2096921,2096921,157608,663063,0
2096921,2096921,157080,663398,0
2096921,2096921,156678,661122,0
2096921,2096921,156695,660520,0
2096921,2096921,156383,660524,0
2096921,2096921,156655,660383,0
2096921,2096921,155911,660367,0
2096921,2096921,156012,658862,0
2096921,2096921,155935,658264,0
2096921,2096921,155752,657961,0
2096921,2096921,155623,658268,0
2096921,2096921,155156,658237,0
2096921,2096921,155477,656608,0
2096921,2096921,155108,656450,0
2096921,2096921,155142,656560,0
2096921,2096921,155427,656552,0
2096921,2096921,154966,656181,0
2096921,2096921,154810,655183,0
2096921,2096921,154633,655218,0
2096921,2096921,155120,655142,0
2096921,2096921,154634,655209,0
2096921,2096921,154630,655321,0
2096921,2096921,154633,654400,0
2096921,2096921,154537,654233,0
2096921,2096921,154422,654159,0
2096921,2096921,154437,654025,0
2096921,2096921,154500,654050,0
2096921,2096921,154196,653604,0
2096921,2096921,154153,653395,0
2096921,2096921,154166,653570,0
2096921,2096921,154171,653510,0
2096921,2096921,154396,653587,0
2096921,2096921,154257,653206,0
2096921,2096921,154222,652911,0
2096921,2096921,154200,652971,0
2096921,2096921,154137,652894,0
2096921,2096921,154177,652967,0
2096921,2096921,154306,652711,0
2096921,2096921,154096,652797,0
2096921,2096921,154023,652871,0
2096921,2096921,154178,653013,0
2096921,2096921,154045,652587,0
2096921,2096921,153933,652925,0
2096921,2096921,153853,652846,0
2096921,2096921,154231,652592,0
2096921,2096921,154112,652358,0
2096921,2096921,154038,652755,0
2096921,2096921,154217,653099,0
2096921,2096921,154103,653055,0
2096921,2096921,153931,652933,0
2096921,2096921,153965,652662,0
2096921,2096921,154164,652794,0
2096921,2096921,153757,652847,0
2096921,2096921,153916,652774,0
2096921,2096921,154435,652592,0
2096921,2096921,154279,652998,0
2096921,2096921,154245,652711,0
2096921,2096921,154025,652908,0
2096921,2096921,154361,652925,0
2096921,2096921,154355,652883,0
2096921,2096921,154184,653167,0
2096921,2096921,154068,652919,0
2096921,2096921,154372,653397,0
2096921,2096921,154478,653372,0
2096921,2096921,153981,653158,0
2096921,2096921,154376,653548,0
2096921,2096921,154606,653602,0
2096921,2096921,154667,653480,0
2096921,2096921,154415,653740,0
2096921,2096921,154684,654025,0
2096921,2096921,154425,653652,0
2096921,2096921,154623,653683,0
2096921,2096921,154703,653965,0
2096921,2096921,154917,654279,0
2096921,2096921,154898,654169,0
2096921,2096921,155000,653990,0
2096921,2096921,154798,654316,0
2096921,2096921,154974,654649,0
2096921,2096921,154800,654713,0
2096921,2096921,154974,654596,0
2096921,2096921,155047,654544,0
2096921,2096921,154834,654383,0
2096921,2096921,154916,655024,0
2096921,2096921,154779,654869,0
2096921,2096921,155185,654711,0
2096921,2096921,155074,654941,0
2096921,2096921,155313,654961,0
2096921,2096921,155252,655172,0
2096921,2096921,155146,655309,0
2096921,2096921,155218,655243,0
2096921,2096921,155432,655401,0
2096921,2096921,155271,655505,0
2096921,2096921,155487,655515,0
2096921,2096921,155415,655234,0
2096921,2096921,155424,655440,0
2096921,2096921,155474,655658,0
2096921,2096921,155539,655496,0
2096921,2096921,155629,656249,0
2096921,2096921,155628,656230,0
2096921,2096921,155991,656453,0
2096921,2096921,155682,655940,0
2096921,2096921,155641,656058,0
2096921,2096921,155718,656413,0
2096921,2096921,155907,656465,0
2096921,2096921,155922,656689,0
2096921,2096921,155902,657104,0
2096921,2096921,155659,656509,0
2096921,2096921,155858,656860,0
2096921,2096921,155611,657042,0
2096921,2096921,155890,656712,0
2096921,2096921,155908,656761,0
2096921,2096921,155952,656823,0
2096921,2096921,156044,657219,0
2096921,2096921,156121,657206,0
2096921,2096921,156093,657099,0
2096921,2096921,155995,657134,0
2096921,2096921,155795,657554,0
2096921,2096921,156081,657545,0
2096921,2096921,156439,657689,0
2096921,2096921,156289,657899,0
2096921,2096921,155927,657748,0
2096921,2096921,156016,657408,0
2096921,2096921,156204,657634,0
2096921,2096921,156379,658246,0
2096921,2096921,156107,658170,0
2096921,2096921,156272,657998,0
2096921,2096921,156667,657943,0
2096921,2096921,156398,658114,0
2096921,2096921,156160,658301,0
2096921,2096921,156220,658015,0
2096921,2096921,156191,658045,0
2096921,2096921,156225,658140,0
2096921,2096921,156234,658098,0
2096921,2096921,156299,658138,0
2096921,2096921,156447,658489,0
2096921,2096921,156540,658368,0
2096921,2096921,156579,658102,0
2096921,2096921,156527,658333,0
2096921,2096921,156373,658021,0
2096921,2096921,156545,658502,0
2096921,2096921,156411,658517,0
2096921,2096921,156285,658604,0
2096921,2096921,156612,658119,0
2096921,2096921,156563,658143,0
2096921,2096921,156296,658379,0
2096921,2096921,156646,658117,0
2096921,2096921,156411,658228,0
2096921,2096921,156693,658125,0
2096921,2096921,156388,658022,0
2096921,2096921,156476,658055,0
2096921,2096921,156224,658020,0
2096921,2096921,156241,657769,0
2096921,2096921,156057,657583,0
2096921,2096921,156070,657542,0
2096921,2096921,156254,657477,0
2096921,2096921,156484,657606,0
2096921,2096921,156134,657867,0
2096921,2096921,156088,657616,0
2096921,2096921,156369,657177,0
2096921,2096921,156331,657315,0
2096921,2096921,156216,657467,0
2096921,2096921,156084,657215,0
2096921,2096921,155962,657086,0
2096921,2096921,155995,657000,0
2096921,2096921,156075,656907,0
2096921,2096921,155661,656861,0
2096921,2096921,155947,656929,0
2096921,2096921,156078,656881,0
2096921,2096921,156227,656473,0
2096921,2096921,155895,656696,0
2096921,2096921,155862,656737,0
2096921,2096921,155604,656673,0
2096921,2096921,156002,656255,0
2096921,2096921,155689,656215,0
2096921,2096921,155812,656321,0
2096921,2096921,155730,656432,0
2096921,2096921,155809,656416,0
2096921,2096921,155684,656251,0
2096921,2096921,155803,656080,0
2096921,2096921,156016,656371,0
2096921,2096921,155945,655787,0
2096921,2096921,155725,656024,0
2096921,2096921,155708,655895,0
2096921,2096921,155641,656058,0
2096921,2096921,156101,655718,0
2096921,2096921,155800,655887,0
2096921,2096921,156038,656238,0
2096921,2096921,155970,656063,0
2096921,2096921,155832,655792,0
2096921,2096921,156072,655738,0
2096921,2096921,155543,656215,0
2096921,2096921,155742,655894,0
2096921,2096921,155860,655975,0
2096921,2096921,155906,655960,0
2096921,2096921,155714,656003,0
2096921,2096921,155628,655899,0
2096921,2096921,155793,656076,0
2096921,2096921,155990,656020,0
2096921,2096921,155891,656019,0
2096921,2096921,155850,655939,0
2096921,2096921,155879,656079,0
2096921,2096921,155701,655665,0
2096921,2096921,155859,656159,0
2096921,2096921,156142,656340,0
2096921,2096921,156061,656229,0
2096921,2096921,155774,656298,0
2096921,2096921,156184,655944,0
2096921,2096921,156169,656601,0
2096921,2096921,156309,656806,0
2096921,2096921,156219,657057,0
2096921,2096921,156176,656928,0
2096921,2096921,156130,656682,0
2096921,2096921,156322,657061,0
2096921,2096921,155922,656903,0
2096921,2096921,156063,656901,0
2096921,2096921,156153,657321,0
2096921,2096921,156497,657155,0
2096921,2096921,156277,657444,0
2096921,2096921,156406,657076,0
2096921,2096921,156318,657514,0
2096921,2096921,156525,657253,0
2096921,2096921,156434,657319,0
2096921,2096921,156390,657448,0
2096921,2096921,156536,657588,0
2096921,2096921,156529,657549,0
2096921,2096921,156560,657714,0
2096921,2096921,156585,657671,0
2096921,2096921,156855,657807,0
2096921,2096921,156670,657699,0
2096921,2096921,156466,657697,0
2096921,2096921,156711,658049,0
2096921,2096921,156765,657969,0
2096921,2096921,156420,658090,0
2096921,2096921,156526,658366,0
2096921,2096921,156658,658027,0
2096921,2096921,156590,657973,0
2096921,2096921,156810,658091,0
2096921,2096921,156836,658260,0
2096921,2096921,156755,658336,0
2096921,2096921,156771,658489,0
2096921,2096921,156719,658197,0
2096921,2096921,156579,658436,0
2096921,2096921,156785,658499,0
2096921,2096921,157078,658659,0
2096921,2096921,157007,658753,0
2096921,2096921,156984,658534,0
2096921,2096921,156908,658711,0
2096921,2096921,157184,659049,0
2096921,2096921,157181,658853,0
2096921,2096921,156972,659088,0
2096921,2096921,157259,659027,0
2096921,2096921,157154,659005,0
2096921,2096921,157190,659435,0
2096921,2096921,157021,659128,0
2096921,2096921,157158,659173,0
2096921,2096921,157131,659037,0
2096921,2096921,157197,659144,0
2096921,2096921,157329,659398,0
2096921,2096921,157138,659348,0
2096921,2096921,157100,659729,0
2096921,2096921,157193,659594,0
2096921,2096921,157079,659369,0
2096921,2096921,157242,659682,0
2096921,2096921,157422,659599,0
2096921,2096921,157473,659644,0
2096921,2096921,157527,659991,0
2096921,2096921,157467,659896,0
2096921,2096921,157254,660035,0
2096921,2096921,157419,659644,0
2096921,2096921,157408,660195,0
2096921,2096921,157033,660455,0
2096921,2096921,157324,659964,0
2096921,2096921,157651,659957,0
2096921,2096921,157688,660222,0
2096921,2096921,157096,660533,0
2096921,2096921,157448,660581,0
2096921,2096921,157626,660722,0
2096921,2096921,157223,660509,0
2096921,2096921,157518,660754,0
2096921,2096921,157481,660469,0
2096921,2096921,157533,660738,0
2096921,2096921,157826,660545,0
2096921,2096921,157923,660927,0
2096921,2096921,157567,660891,0
2096921,2096921,157568,661073,0
2096921,2096921,157679,661309,0
2096921,2096921,157881,661020,0
2096921,2096921,157714,660989,0
2096921,2096921,157857,661310,0
2096921,2096921,157877,661311,0
2096921,2096921,157770,661019,0
2096921,2096921,157436,661057,0
2096921,2096921,157684,661432,0
2096921,2096921,157667,661394,0
2096921,2096921,157765,661558,0
2096921,2096921,157805,661192,0
2096921,2096921,157887,661263,0
2096921,2096921,157970,661801,0
2096921,2096921,158017,661581,0
2096921,2096921,158120,661771,0
2096921,2096921,158052,661720,0
2096921,2096921,158035,661575,0
2096921,2096921,157794,661610,0
2096921,2096921,157973,661713,0
2096921,2096921,158053,661732,0
2096921,2096921,158052,661999,0
2096921,2096921,158115,661738,0
2096921,2096921,158348,662127,0
2096921,2096921,158198,661849,0
2096921,2096921,158007,662344,0
2096921,2096921,158084,662200,0
2096921,2096921,158434,662404,0
2096921,2096921,158150,662146,0
2096921,2096921,158167,662182,0
2096921,2096921,158189,662302,0
2096921,2096921,158318,662196,0
2096921,2096921,158290,662583,0
2096921,2096921,158215,662619,0
2096921,2096921,158477,662846,0
2096921,2096921,158419,662698,0
2096921,2096921,158284,662563,0
2096921,2096921,158176,662688,0
2096921,2096921,158212,662582,0
2096921,2096921,158175,662571,0
2096921,2096921,158239,663085,0
2096921,2096921,158318,662869,0
2096921,2096921,158278,662922,0
2096921,2096921,158583,662801,0
2096921,2096921,158536,663024,0
2096921,2096921,158496,662830,0
2096921,2096921,158616,662857,0
2096921,2096921,158529,662921,0
2096921,2096921,158640,663061,0
2096921,2096921,158662,663049,0
2096921,2096921,158696,663082,0
2096921,2096921,158433,663006,0
2096921,2096921,158817,663069,0
2096921,2096921,158768,663282,0
2096921,2096921,158365,663035,0
2096921,2096921,158207,663263,0
2096921,2096921,158451,663009,0
2096921,2096921,158567,663443,0
2096921,2096921,158550,663172,0
2096921,2096921,158418,663197,0
2096921,2096921,158352,663467,0
2096921,2096921,158619,663548,0
2096921,2096921,158684,663496,0
2096921,2096921,158471,663507,0
2096921,2096921,158436,663614,0
2096921,2096921,158461,663450,0
2096921,2096921,158658,663343,0
2096921,2096921,158576,663465,0
2096921,2096921,158496,663499,0
2096921,2096921,158832,663504,0
2096921,2096921,158760,663790,0
2096921,2096921,158660,663569,0
2096921,2096921,158700,663715,0
2096921,2096921,158774,663766,0
2096921,2096921,158537,663690,0
2096921,2096921,158367,663862,0
2096921,2096921,158581,663581,0
2096921,2096921,158853,663552,0
2096921,2096921,158737,663826,0
2096921,2096921,158822,663836,0
2096921,2096921,158667,663812,0
2096921,2096921,158872,663797,0
2096921,2096921,158634,664167,0
2096921,2096921,158711,664181,0
2096921,2096921,159035,663898,0
2096921,2096921,158780,663745,0
2096921,2096921,158903,664013,0
2096921,2096921,158871,664232,0
2096921,2096921,158811,664179,0
2096921,2096921,158829,663970,0
2096921,2096921,158626,663972,0
2096921,2096921,158900,664115,0
2096921,2096921,158666,664243,0
2096921,2096921,158645,664197,0
2096921,2096921,158678,664035,0
2096921,2096921,158764,664125,0
2096921,2096921,158690,664159,0
2096921,2096921,158999,664316,0
2096921,2096921,158934,664339,0
2096921,2096921,158974,663976,0
2096921,2096921,158907,664116,0
2096921,2096921,158926,664204,0
2096921,2096921,158879,664220,0
2096921,2096921,158981,664415,0
2096921,2096921,158954,664440,0
2096921,2096921,158939,664514,0
2096921,2096921,159128,664294,0
2096921,2096921,158889,664579,0
2096921,2096921,159080,664311,0
2096921,2096921,158975,664588,0
2096921,2096921,159126,664249,0
2096921,2096921,159116,664416,0
2096921,2096921,159059,664466,0
2096921,2096921,159217,664673,0
2096921,2096921,159009,664797,0
2096921,2096921,158975,664595,0
2096921,2096921,158917,664654,0
2096921,2096921,158863,664643,0
2096921,2096921,159092,664492,0
2096921,2096921,159110,664450,0
2096921,2096921,159074,664786,0
2096921,2096921,158972,664906,0
2096921,2096921,159155,664796,0
2096921,2096921,158971,664838,0
2096921,2096921,159154,664896,0
2096921,2096921,159061,664801,0
2096921,2096921,159266,664696,0
2096921,2096921,159050,664578,0
2096921,2096921,158934,665083,0
2096921,2096921,159025,664983,0
2096921,2096921,159162,664984,0
2096921,2096921,159295,664920,0
2096921,2096921,159207,664861,0
2096921,2096921,158967,665229,0
2096921,2096921,159059,665039,0
2096921,2096921,158860,664847,0
2096921,2096921,159280,664914,0
2096921,2096921,159131,665098,0
2096921,2096921,159235,664808,0
2096921,2096921,159127,664648,0
2096921,2096921,159138,664575,0
2096921,2096921,158853,665037,0
2096921,2096921,159010,665059,0
2096921,2096921,158979,664790,0
2096921,2096921,159008,664777,0
2096921,2096921,159018,665081,0
2096921,2096921,159262,664862,0
2096921,2096921,159256,664955,0
2096921,2096921,159022,664777,0
2096921,2096921,159092,664921,0
2096921,2096921,159080,664756,0
2096921,2096921,159173,664723,0
2096921,2096921,159186,664868,0
2096921,2096921,159169,665090,0
2096921,2096921,159423,665307,0
2096921,2096921,159167,664920,0
2096921,2096921,159270,664770,0
2096921,2096921,159342,665161,0
2096921,2096921,159050,664765,0
2096921,2096921,159181,664935,0
2096921,2096921,159086,664850,0
2096921,2096921,159193,664836,0
2096921,2096921,159050,665023,0
2096921,2096921,159529,665015,0
2096921,2096921,159166,664943,0
2096921,2096921,159160,665213,0
2096921,2096921,159184,665152,0
2096921,2096921,159029,665239,0
2096921,2096921,158950,665333,0
2096921,2096921,158887,665137,0
2096921,2096921,159188,665151,0
2096921,2096921,159346,665311,0
2096921,2096921,159224,665241,0
2096921,2096921,159269,665331,0
2096921,2096921,159387,665288,0
2096921,2096921,158983,665510,0
2096921,2096921,159119,665090,0
2096921,2096921,159108,664913,0
2096921,2096921,159070,665189,0
2096921,2096921,159007,665373,0
2096921,2096921,159314,665213,0
2096921,2096921,159215,664934,0
2096921,2096921,159119,665361,0
2096921,2096921,159119,664778,0
2096921,2096921,159390,664552,0
2096921,2096921,159094,664673,0
2096921,2096921,158870,664524,0
2096921,2096921,159015,665005,0
2096921,2096921,158715,664268,0
2096921,2096921,158618,664115,0
2096921,2096921,158725,664388,0
2096921,2096921,159113,664414,0
2096921,2096921,158734,664162,0
2096921,2096921,158677,663577,0
2096921,2096921,158454,663444,0
2096921,2096921,158610,663642,0
2096921,2096921,158402,663317,0
2096921,2096921,158012,663266,0
2096921,2096921,158234,662646,0
2096921,2096921,157990,662008,0
2096921,2096921,157890,662371,0
2096921,2096921,158351,662266,0
2096921,2096921,157700,662384,0
2096921,2096921,157751,661461,0
2096921,2096921,157781,661214,0
2096921,2096921,157715,661327,0
2096921,2096921,157645,661108,0
2096921,2096921,156992,661237,0
2096921,2096921,156508,659014,0
2096921,2096921,156563,658521,0
2096921,2096921,156834,658199,0
2096921,2096921,156592,658407,0
2096921,2096921,155707,658317,0
2096921,2096921,155597,655739,0
2096921,2096921,155704,655365,0
2096921,2096921,155495,655161,0
2096921,2096921,155293,655228,0
2096921,2096921,154658,655068,0
2096921,2096921,154853,653166,0
2096921,2096921,154493,652630,0
2096921,2096921,154471,652466,0
2096921,2096921,154956,652581,0
2096921,2096921,154413,652371,0
2096921,2096921,154224,651150,0
2096921,2096921,153965,650923,0
2096921,2096921,153947,650528,0
2096921,2096921,153861,650833,0
2096921,2096921,153583,650394,0
2096921,2096921,153559,649504,0
2096921,2096921,153314,649306,0
2096921,2096921,153382,649167,0
2096921,2096921,153411,649604,0
2096921,2096921,153047,649422,0
2096921,2096921,152961,648405,0
2096921,2096921,153110,648524,0
2096921,2096921,153153,648176,0
2096921,2096921,153350,648330,0
2096921,2096921,152831,648431,0
2096921,2096921,152641,647834,0
2096921,2096921,153170,648099,0
2096921,2096921,152766,647954,0
2096921,2096921,152916,648092,0
2096921,2096921,152907,647953,0
2096921,2096921,153138,647531,0
2096921,2096921,152849,647698,0
2096921,2096921,153002,647379,0
2096921,2096921,152911,647498,0
2096921,2096921,152920,647346,0
2096921,2096921,152811,647345,0
2096921,2096921,152766,647517,0
2096921,2096921,152582,647442,0
2096921,2096921,152946,647315,0
2096921,2096921,152914,647342,0
2096921,2096921,152701,647518,0
2096921,2096921,152703,647655,0
2096921,2096921,152731,647374,0
2096921,2096921,152784,647523,0
2096921,2096921,152757,647715,0
2096921,2096921,152675,647780,0
2096921,2096921,152718,648206,0
2096921,2096921,152833,647846,0
2096921,2096921,152958,648078,0
2096921,2096921,152921,648080,0
2096921,2096921,152922,648279,0
2096921,2096921,153382,648267,0
2096921,2096921,153127,648197,0
2096921,2096921,153042,648249,0
2096921,2096921,153287,648497,0
2096921,2096921,153243,648858,0
2096921,2096921,153196,648520,0
2096921,2096921,153133,648703,0
2096921,2096921,153051,648682,0
2096921,2096921,153138,648692,0
2096921,2096921,153385,649365,0
2096921,2096921,153228,649314,0
2096921,2096921,153319,649620,0
2096921,2096921,153292,649189,0
2096921,2096921,153445,649355,0
2096921,2096921,153503,650194,0
2096921,2096921,153647,650515,0
2096921,2096921,153777,650098,0
2096921,2096921,153652,650186,0
2096921,2096921,153643,650068,0
2096921,2096921,154092,650649,0
2096921,2096921,154051,650999,0
2096921,2096921,154045,650910,0
2096921,2096921,153760,650874,0
2096921,2096921,154377,651108,0
2096921,2096921,153933,651600,0
2096921,2096921,154083,651663,0
2096921,2096921,154072,651612,0
2096921,2096921,154091,651546,0
2096921,2096921,154224,651806,0
2096921,2096921,154298,652292,0
2096921,2096921,154383,652607,0
2096921,2096921,154336,652245,0
2096921,2096921,154254,652620,0
2096921,2096921,154549,652518,0
2096921,2096921,154341,652855,0
2096921,2096921,154644,652944,0
2096921,2096921,154583,653395,0
2096921,2096921,154709,653065,0
2096921,2096921,154793,653340,0
2096921,2096921,154802,653803,0
2096921,2096921,154920,653900,0
2096921,2096921,154931,653985,0
2096921,2096921,154741,654065,0
2096921,2096921,154876,653699,0
2096921,2096921,155223,654561,0
2096921,2096921,155111,654614,0
2096921,2096921,155317,654930,0
2096921,2096921,155246,655234,0
2096921,2096921,155483,655080,0
2096921,2096921,155224,655579,0
2096921,2096921,155292,656006,0
2096921,2096921,155710,655623,0
2096921,2096921,155505,655901,0
2096921,2096921,155689,655871,0
2096921,2096921,155690,656183,0
2096921,2096921,155604,656358,0
2096921,2096921,155785,656483,0
2096921,2096921,155795,656479,0
2096921,2096921,156261,656611,0
2096921,2096921,156141,656934,0
2096921,2096921,155904,657174,0
2096921,2096921,155972,657291,0
2096921,2096921,155908,657342,0
2096921,2096921,156310,657626,0
2096921,2096921,156166,658098,0
2096921,2096921,155853,658018,0
2096921,2096921,156229,658318,0
2096921,2096921,156487,658235,0
2096921,2096921,156270,658308,0
2096921,2096921,156520,658678,0
2096921,2096921,156708,658832,0
2096921,2096921,156863,658929,0
2096921,2096921,156486,658835,0
2096921,2096921,156712,658710,0
2096921,2096921,156779,659339,0
2096921,2096921,156640,659441,0
2096921,2096921,156901,659486,0
2096921,2096921,157044,659539,0
2096921,2096921,156998,659383,0
2096921,2096921,156799,659638,0
2096921,2096921,156994,660190,0
2096921,2096921,156746,659964,0
2096921,2096921,156759,660008,0
2096921,2096921,156875,660149,0
2096921,2096921,157148,660381,0
2096921,2096921,156921,660297,0
2096921,2096921,156787,660605,0
2096921,2096921,156878,660560,0
2096921,2096921,157053,660464,0
2096921,2096921,157116,660874,0
2096921,2096921,157177,660899,0
2096921,2096921,157073,661226,0
2096921,2096921,157244,660917,0
2096921,2096921,157395,661355,0
2096921,2096921,157239,661398,0
2096921,2096921,157036,661220,0
2096921,2096921,157218,661227,0
2096921,2096921,157176,661088,0
2096921,2096921,157401,661199,0
2096921,2096921,157363,661397,0
2096921,2096921,157324,661565,0
2096921,2096921,157325,661462,0
2096921,2096921,157324,661585,0
2096921,2096921,157038,661162,0
2096921,2096921,157114,661401,0
2096921,2096921,157369,661550,0
2096921,2096921,157133,661535,0
2096921,2096921,157552,661553,0
2096921,2096921,157374,661561,0
2096921,2096921,157346,661817,0
2096921,2096921,157679,661739,0
2096921,2096921,157480,661616,0
2096921,2096921,157413,661403,0
2096921,2096921,157053,661485,0
2096921,2096921,157495,661786,0
2096921,2096921,157193,661510,0
2096921,2096921,157300,661401,0
2096921,2096921,157265,661396,0
2096921,2096921,157290,661507,0
2096921,2096921,157028,661539,0
2096921,2096921,157179,661942,0
2096921,2096921,156903,661687,0
2096921,2096921,157215,661558,0
2096921,2096921,156942,661482,0
2096921,2096921,156935,661858,0
2096921,2096921,157074,661628,0
2096921,2096921,157285,661770,0
2096921,2096921,157325,661841,0
2096921,2096921,157295,661718,0
2096921,2096921,157407,662059,0
2096921,2096921,157242,661841,0
2096921,2096921,157171,661743,0
2096921,2096921,156949,661933,0
2096921,2096921,156914,661936,0
2096921,2096921,157101,662037,0
2096921,2096921,157227,662084,0
2096921,2096921,157280,662105,0
2096921,2096921,157303,662407,0
2096921,2096921,157739,662385,0
2096921,2096921,157663,662717,0
2096921,2096921,157817,662580,0
2096921,2096921,157662,662597,0
2096921,2096921,157558,662354,0
2096921,2096921,157534,662612,0
2096921,2096921,157600,662739,0
2096921,2096921,157455,662679,0
2096921,2096921,157524,662943,0
2096921,2096921,157541,663085,0
2096921,2096921,157679,662971,0
2096921,2096921,157786,663309,0
2096921,2096921,157661,663352,0
2096921,2096921,157687,663216,0
2096921,2096921,157481,663517,0
2096921,2096921,157917,663451,0
2096921,2096921,157914,663856,0
2096921,2096921,157890,664024,0
2096921,2096921,157933,664061,0
2096921,2096921,157719,663936,0
2096921,2096921,158034,664183,0
2096921,2096921,158388,664691,0
2096921,2096921,158120,664939,0
2096921,2096921,158141,664935,0
2096921,2096921,158292,664900,0
2096921,2096921,158561,664721,0
2096921,2096921,158254,665173,0
2096921,2096921,158182,665274,0
2096921,2096921,158336,665426,0
2096921,2096921,158087,665481,0
2096921,2096921,158374,665425,0
2096921,2096921,158772,666130,0
2096921,2096921,158857,666130,0
2096921,2096921,158267,665832,0
2096921,2096921,158496,665994,0
2096921,2096921,158555,665864,0
2096921,2096921,158715,666839,0
2096921,2096921,158621,666912,0
2096921,2096921,158923,666933,0
2096921,2096921,158722,667000,0
2096921,2096921,158968,666798,0
2096921,2096921,158652,667183,0
2096921,2096921,158966,667235,0
2096921,2096921,158950,667237,0
2096921,2096921,158960,667233,0
2096921,2096921,159013,667314,0
2096921,2096921,159073,667653,0
2096921,2096921,159196,667657,0
2096921,2096921,159063,667670,0
2096921,2096921,159102,667836,0
2096921,2096921,159213,668147,0
2096921,2096921,159767,668288,0
2096921,2096921,159196,668539,0
2096921,2096921,159464,668702,0
2096921,2096921,159315,668548,0
2096921,2096921,159674,668210,0
2096921,2096921,159634,669234,0
2096921,2096921,159591,669354,0
2096921,2096921,159583,668976,0
2096921,2096921,159464,668920,0
2096921,2096921,159650,669049,0
2096921,2096921,159911,669636,0
2096921,2096921,159930,669721,0
2096921,2096921,159734,669704,0
2096921,2096921,159653,670002,0
2096921,2096921,159930,669641,0
2096921,2096921,159531,670178,0
2096921,2096921,159466,670240,0
2096921,2096921,159689,670141,0
2096921,2096921,159872,670172,0
2096921,2096921,160030,670132,0
2096921,2096921,160104,670987,0
2096921,2096921,160066,671066,0
2096921,2096921,159984,670975,0
2096921,2096921,159886,670958,0
2096921,2096921,160217,670990,0
2096921,2096921,160281,671456,0
2096921,2096921,159992,671507,0
2096921,2096921,159979,671570,0
2096921,2096921,160068,671433,0
2096921,2096921,160419,671421,0
2096921,2096921,160769,672051,0
2096921,2096921,160635,672195,0
2096921,2096921,160750,672120,0
2096921,2096921,160545,672213,0
2096921,2096921,160358,672153,0
2096921,2096921,160442,672860,0
2096921,2096921,160347,672803,0
2096921,2096921,160542,672640,0
2096921,2096921,160593,672893,0
2096921,2096921,160553,672656,0
2096921,2096921,160801,672830,0
2096921,2096921,160860,673317,0
2096921,2096921,160677,673467,0
2096921,2096921,160449,673259,0
2096921,2096921,160874,673021,0
2096921,2096921,161026,673610,0
2096921,2096921,160928,673724,0
2096921,2096921,160857,673799,0
2096921,2096921,160836,673734,0
2096921,2096921,161126,673935,0
2096921,2096921,160965,674197,0
2096921,2096921,160883,674217,0
2096921,2096921,160933,674337,0
2096921,2096921,161166,674795,0
2096921,2096921,160893,674284,0
2096921,2096921,161259,674838,0
2096921,2096921,161124,674665,0
2096921,2096921,161029,674936,0
2096921,2096921,161111,675078,0
2096921,2096921,161432,674705,0
2096921,2096921,161312,675289,0
2096921,2096921,161446,675348,0
2096921,2096921,161240,675393,0
2096921,2096921,161408,675121,0
2096921,2096921,161690,674979,0
2096921,2096921,161627,675367,0
2096921,2096921,161282,675760,0
2096921,2096921,161417,675842,0
2096921,2096921,161664,675828,0
2096921,2096921,161852,675642,0
2096921,2096921,162023,676384,0
2096921,2096921,161498,676086,0
2096921,2096921,161426,676013,0
2096921,2096921,161209,676123,0
2096921,2096921,161564,676238,0
2096921,2096921,161646,676605,0
2096921,2096921,162005,676814,0
2096921,2096921,161832,676605,0
2096921,2096921,161639,676738,0
2096921,2096921,161938,676890,0
2096921,2096921,161965,677053,0
2096921,2096921,162031,676983,0
2096921,2096921,162091,676801,0
2096921,2096921,161896,677036,0
2096921,2096921,162326,677177,0
2096921,2096921,162186,677487,0
2096921,2096921,162063,677684,0
2096921,2096921,161971,677814,0
2096921,2096921,162241,677753,0
2096921,2096921,162302,677649,0
2096921,2096921,162052,678133,0
2096921,2096921,162270,678150,0
2096921,2096921,162241,678073,0
2096921,2096921,162069,677959,0
2096921,2096921,162180,677837,0
2096921,2096921,162192,678226,0
2096921,2096921,162252,678177,0
2096921,2096921,162345,678323,0
2096921,2096921,162288,678261,0
2096921,2096921,162231,678394,0
2096921,2096921,162325,678863,0
2096921,2096921,162419,678916,0
2096921,2096921,162367,678824,0
2096921,2096921,162699,678957,0
2096921,2096921,162771,678933,0
2096921,2096921,162578,679121,0
2096921,2096921,162284,679231,0
2096921,2096921,162534,679063,0
2096921,2096921,162288,679242,0
2096921,2096921,162648,679184,0
2096921,2096921,162551,679289,0
2096921,2096921,162810,679685,0
2096921,2096921,163039,679520,0
2096921,2096921,162424,679435,0
2096921,2096921,162598,679268,0
2096921,2096921,162679,679546,0
2096921,2096921,162827,679730,0
2096921,2096921,162467,679645,0
2096921,2096921,162663,679775,0
2096921,2096921,162731,679775,0
2096921,2096921,162825,680173,0
2096921,2096921,162878,680245,0
2096921,2096921,162754,680584,0
2096921,2096921,162650,680054,0
2096921,2096921,162918,680115,0
2096921,2096921,163020,680463,0
2096921,2096921,163051,680435,0
2096921,2096921,163161,680389,0
2096921,2096921,162920,680637,0
2096921,2096921,162982,680374,0
2096921,2096921,163067,680886,0
2096921,2096921,162899,680725,0
2096921,2096921,163006,680828,0
2096921,2096921,162914,680996,0
2096921,2096921,163109,681115,0
2096921,2096921,163158,681177,0
2096921,2096921,163057,681010,0
2096921,2096921,163162,681140,0
2096921,2096921,163067,681190,0
2096921,2096921,163097,680892,0
2096921,2096921,163085,681300,0
2096921,2096921,163129,681378,0
2096921,2096921,163212,681567,0
2096921,2096921,163596,681409,0
2096921,2096921,163454,681550,0
2096921,2096921,163290,681720,0
2096921,2096921,163450,681557,0
2096921,2096921,163300,681640,0
2096921,2096921,163054,681650,0
2096921,2096921,163453,681640,0
2096921,2096921,163189,681974,0
2096921,2096921,163633,682219,0
2096921,2096921,163268,681830,0
2096921,2096921,163364,682217,0
2096921,2096921,163310,682124,0
2096921,2096921,163348,682155,0
2096921,2096921,163299,682166,0
2096921,2096921,163369,681866,0
2096921,2096921,163413,682465,0
2096921,2096921,163647,682715,0
2096921,2096921,163691,682658,0
2096921,2096921,163880,682667,0
2096921,2096921,163709,682574,0
2096921,2096921,163755,682448,0
2096921,2096921,163625,682531,0
2096921,2096921,163384,682440,0
2096921,2096921,163462,682962,0
2096921,2096921,163475,683132,0
2096921,2096921,163568,682866,0
2096921,2096921,163475,682883,0
2096921,2096921,163667,682949,0
2096921,2096921,163626,683024,0
2096921,2096921,163768,683094,0
2096921,2096921,163603,683072,0
2096921,2096921,163941,683229,0
2096921,2096921,163893,683569,0
2096921,2096921,163563,683647,0
2096921,2096921,163663,683654,0
2096921,2096921,163940,683460,0
2096921,2096921,163643,683511,0
2096921,2096921,163954,683432,0
2096921,2096921,163881,683840,0
2096921,2096921,163648,683465,0
2096921,2096921,164010,683711,0
2096921,2096921,163947,683527,0
2096921,2096921,163830,683638,0
2096921,2096921,163785,683328,0
2096921,2096921,163955,683775,0
2096921,2096921,163692,683570,0
2096921,2096921,163736,683547,0
2096921,2096921,163703,683830,0
2096921,2096921,163990,683708,0
2096921,2096921,163635,683953,0
2096921,2096921,163876,683855,0
2096921,2096921,164114,683831,0
2096921,2096921,163805,683960,0
2096921,2096921,163805,683995,0
2096921,2096921,163701,683895,0
2096921,2096921,163790,684145,0
2096921,2096921,163982,684071,0
2096921,2096921,163818,684182,0
2096921,2096921,163931,683838,0
2096921,2096921,164146,683853,0
2096921,2096921,163842,684174,0
2096921,2096921,163857,684226,0
2096921,2096921,163729,684170,0
2096921,2096921,164094,684170,0
2096921,2096921,164139,684311,0
2096921,2096921,163844,684272,0
2096921,2096921,163921,684232,0
2096921,2096921,164343,684200,0
2096921,2096921,163946,684515,0
2096921,2096921,164068,684502,0
2096921,2096921,163992,684178,0
2096921,2096921,164013,684323,0
2096921,2096921,163874,684532,0
2096921,2096921,164004,684304,0
2096921,2096921,163851,684237,0
2096921,2096921,164016,684387,0
2096921,2096921,164126,684737,0
2096921,2096921,164234,684624,0
2096921,2096921,164264,684739,0
2096921,2096921,164085,684381,0
2096921,2096921,164009,684620,0
2096921,2096921,163892,684667,0
2096921,2096921,164122,684910,0
2096921,2096921,164101,684704,0
2096921,2096921,163998,684920,0
2096921,2096921,164359,684792,0
2096921,2096921,163705,684975,0
2096921,2096921,163808,684117,0
2096921,2096921,164085,684033,0
2096921,2096921,163977,683841,0
2096921,2096921,163979,683783,0
2096921,2096921,163600,683965,0
2096921,2096921,163619,683816,0
2096921,2096921,163478,683670,0
2096921,2096921,163695,683832,0
2096921,2096921,163736,683402,0
2096921,2096921,163396,683387,0
2096921,2096921,163435,683177,0
2096921,2096921,163563,682824,0
2096921,2096921,163374,683256,0
2096921,2096921,163487,682668,0
2096921,2096921,162961,682797,0
2096921,2096921,162685,681907,0
2096921,2096921,162732,681251,0
2096921,2096921,162754,681506,0
2096921,2096921,162734,681741,0
2096921,2096921,162768,681794,0
2096921,2096921,162495,681030,0
2096921,2096921,162478,680761,0
2096921,2096921,162454,680664,0
2096921,2096921,162472,680744,0
2096921,2096921,161841,680568,0
2096921,2096921,161718,678398,0
2096921,2096921,161882,677749,0
2096921,2096921,161584,677709,0
2096921,2096921,161582,677844,0
2096921,2096921,160886,677606,0
2096921,2096921,160272,674959,0
2096921,2096921,160317,674657,0
2096921,2096921,160464,674416,0
2096921,2096921,160580,674348,0
2096921,2096921,159752,674030,0
2096921,2096921,159320,672154,0
2096921,2096921,159341,671758,0
2096921,2096921,159287,671594,0
2096921,2096921,159306,671477,0
2096921,2096921,158654,671619,0
2096921,2096921,158656,670028,0
2096921,2096921,158723,669566,0
2096921,2096921,158437,669585,0
2096921,2096921,158760,669735,0
2096921,2096921,158352,669337,0
2096921,2096921,157991,668173,0
2096921,2096921,157730,668147,0
2096921,2096921,158332,668171,0
2096921,2096921,157911,668403,0
2096921,2096921,157718,668379,0
2096921,2096921,157818,667166,0
2096921,2096921,157879,667214,0
2096921,2096921,157761,667254,0
2096921,2096921,157711,667161,0
2096921,2096921,157744,667356,0
2096921,2096921,157718,666453,0
2096921,2096921,157583,666641,0
2096921,2096921,157661,666313,0
2096921,2096921,157643,666417,0
2096921,2096921,157603,666205,0
2096921,2096921,157457,666363,0
2096921,2096921,157291,666072,0
2096921,2096921,157445,665968,0
2096921,2096921,157437,665952,0
2096921,2096921,157348,665879,0
2096921,2096921,157330,665974,0
2096921,2096921,157626,665942,0
2096921,2096921,157438,665848,0
2096921,2096921,157456,666211,0
2096921,2096921,157143,665952,0
2096921,2096921,157335,665833,0
2096921,2096921,157236,665923,0
2096921,2096921,157565,665905,0
2096921,2096921,157360,666156,0
2096921,2096921,157197,665749,0
2096921,2096921,157493,666013,0
2096921,2096921,157405,665820,0
2096921,2096921,157214,666271,0
2096921,2096921,157084,665943,0
2096921,2096921,157354,666218,0
2096921,2096921,157632,666103,0
2096921,2096921,157322,666448,0
2096921,2096921,157250,666375,0
2096921,2096921,157473,666405,0
2096921,2096921,157394,666217,0
2096921,2096921,157201,666256,0
2096921,2096921,157633,666449,0
2096921,2096921,157709,666546,0
2096921,2096921,157405,666598,0
2096921,2096921,157497,666572,0
2096921,2096921,157990,666834,0
2096921,2096921,157914,667174,0
2096921,2096921,157620,667157,0
2096921,2096921,157762,666785,0
2096921,2096921,157820,667101,0
2096921,2096921,157727,667454,0
2096921,2096921,157939,667556,0
2096921,2096921,158042,667345,0
2096921,2096921,158045,667575,0
2096921,2096921,158358,667621,0
2096921,2096921,158214,668145,0
2096921,2096921,157993,668212,0
2096921,2096921,158111,668398,0
2096921,2096921,158206,668265,0
2096921,2096921,158311,668071,0
2096921,2096921,158524,668525,0
2096921,2096921,158561,668764,0
2096921,2096921,158130,668535,0
2096921,2096921,158306,668587,0
2096921,2096921,158643,668987,0
2096921,2096921,158780,669665,0
2096921,2096921,158627,669663,0
2096921,2096921,158640,669609,0
2096921,2096921,158574,669879,0
2096921,2096921,158815,669507,0
2096921,2096921,158772,669848,0
2096921,2096921,158932,670193,0
2096921,2096921,158694,670558,0
2096921,2096921,158837,670255,0
2096921,2096921,158941,670297,0
2096921,2096921,158993,670872,0
2096921,2096921,159365,670937,0
2096921,2096921,158909,670731,0
2096921,2096921,159080,670772,0
2096921,2096921,159031,670737,0
2096921,2096921,159275,671259,0
2096921,2096921,159342,671163,0
2096921,2096921,159502,671091,0
2096921,2096921,159165,671449,0
2096921,2096921,159699,671526,0
2096921,2096921,159535,671982,0
2096921,2096921,159624,671796,0
2096921,2096921,159592,672399,0
2096921,2096921,159466,671731,0
2096921,2096921,159702,671846,0
2096921,2096921,159539,672136,0
2096921,2096921,159691,672490,0
2096921,2096921,159621,672548,0
2096921,2096921,159948,672528,0
2096921,2096921,160074,672891,0
2096921,2096921,159807,673276,0
2096921,2096921,159988,673332,0
2096921,2096921,160283,673357,0
2096921,2096921,159735,673451,0
2096921,2096921,160294,673406,0
2096921,2096921,160077,673945,0
2096921,2096921,160245,673962,0
2096921,2096921,159969,673895,0
2096921,2096921,160293,674010,0
2096921,2096921,160508,674014,0
2096921,2096921,160290,674439,0
2096921,2096921,160075,674149,0
2096921,2096921,160426,674213,0
2096921,2096921,160614,674420,0
2096921,2096921,160601,674216,0
2096921,2096921,160777,674848,0
2096921,2096921,160666,674856,0
2096921,2096921,160391,675223,0
2096921,2096921,160481,674866,0
2096921,2096921,160859,675188,0
2096921,2096921,160803,675190,0
2096921,2096921,160704,675361,0
2096921,2096921,160610,675455,0
2096921,2096921,160750,675174,0
2096921,2096921,160888,675148,0
2096921,2096921,160814,675432,0
2096921,2096921,160856,675463,0
2096921,2096921,160834,675642,0
2096921,2096921,160637,675635,0
2096921,2096921,160889,675456,0
2096921,2096921,160705,675890,0
2096921,2096921,160714,675866,0
2096921,2096921,160680,675774,0
2096921,2096921,160565,675437,0
2096921,2096921,160462,675948,0
2096921,2096921,160685,675749,0
2096921,2096921,160840,675649,0
2096921,2096921,160874,675751,0
2096921,2096921,160842,675813,0
2096921,2096921,160957,675925,0
2096921,2096921,160924,675697,0
2096921,2096921,161081,675651,0
2096921,2096921,161101,675889,0
2096921,2096921,160808,675678,0
2096921,2096921,160708,675862,0
2096921,2096921,160718,675386,0
2096921,2096921,160879,675528,0
2096921,2096921,160776,675524,0
2096921,2096921,160560,675601,0
2096921,2096921,160630,675424,0
2096921,2096921,160877,675161,0
2096921,2096921,160765,675154,0
2096921,2096921,160880,675413,0
2096921,2096921,160707,675563,0
2096921,2096921,160860,675143,0
2096921,2096921,160609,675242,0
2096921,2096921,160535,675102,0
2096921,2096921,160664,675022,0
2096921,2096921,160632,675098,0
2096921,2096921,160344,675238,0
2096921,2096921,160512,674847,0
2096921,2096921,160345,674966,0
2096921,2096921,160283,674852,0
2096921,2096921,160536,674841,0
2096921,2096921,160519,674918,0
2096921,2096921,160312,674719,0
2096921,2096921,160548,674509,0
2096921,2096921,160712,674653,0
2096921,2096921,160689,674771,0
2096921,2096921,160623,674964,0
2096921,2096921,160376,675004,0
2096921,2096921,160472,674861,0
2096921,2096921,160341,674664,0
2096921,2096921,160216,674676,0
2096921,2096921,160188,674730,0
2096921,2096921,160507,674761,0
2096921,2096921,160472,674722,0
2096921,2096921,160532,674822,0
2096921,2096921,160603,674987,0
2096921,2096921,160577,674740,0
2096921,2096921,160550,674546,0
2096921,2096921,160494,674696,0
2096921,2096921,160464,675221,0
2096921,2096921,160680,674748,0
2096921,2096921,160592,674925,0
2096921,2096921,160428,674964,0
2096921,2096921,160511,675055,0
2096921,2096921,160468,675019,0
2096921,2096921,160576,674899,0
2096921,2096921,160709,674626,0
2096921,2096921,160317,674950,0
2096921,2096921,160674,674857,0
2096921,2096921,160680,675022,0
2096921,2096921,160531,675080,0
2096921,2096921,160897,675277,0
2096921,2096921,160435,675491,0
2096921,2096921,160394,675653,0
2096921,2096921,160413,675648,0
2096921,2096921,160670,675665,0
2096921,2096921,160809,675464,0
2096921,2096921,160992,675779,0
2096921,2096921,160947,675949,0
2096921,2096921,161211,676109,0
2096921,2096921,160930,676011,0
2096921,2096921,160869,675809,0
2096921,2096921,160745,676531,0
2096921,2096921,160882,676361,0
2096921,2096921,160943,676211,0
2096921,2096921,160729,676041,0
2096921,2096921,161056,676166,0
2096921,2096921,161232,676845,0
2096921,2096921,161108,676799,0
2096921,2096921,161442,676911,0
2096921,2096921,161422,676708,0
2096921,2096921,161399,676701,0
2096921,2096921,161689,676829,0
2096921,2096921,161157,676915,0
2096921,2096921,161264,677232,0
2096921,2096921,161375,677276,0
2096921,2096921,161249,677024,0
2096921,2096921,161346,677364,0
2096921,2096921,161367,676989,0
2096921,2096921,161471,677411,0
2096921,2096921,161280,677518,0
2096921,2096921,161630,677500,0
2096921,2096921,161381,677757,0
2096921,2096921,161733,677524,0
2096921,2096921,161294,677650,0
2096921,2096921,161452,677613,0
2096921,2096921,161769,677553,0
2096921,2096921,161799,677984,0
2096921,2096921,161622,677750,0
2096921,2096921,161972,677991,0
2096921,2096921,161660,678006,0
2096921,2096921,161552,677718,0
2096921,2096921,161481,678068,0
2096921,2096921,161633,678042,0
2096921,2096921,161536,678229,0
2096921,2096921,161932,678338,0
2096921,2096921,161820,678313,0
2096921,2096921,161923,678559,0
2096921,2096921,161866,678251,0
2096921,2096921,161687,678325,0
2096921,2096921,161881,678395,0
2096921,2096921,162072,678385,0
2096921,2096921,162119,678398,0
2096921,2096921,162114,678529,0
2096921,2096921,162493,678978,0
2096921,2096921,162329,678663,0
2096921,2096921,162261,678559,0
2096921,2096921,161997,678737,0
2096921,2096921,162119,679088,0
2096921,2096921,162180,678994,0
2096921,2096921,161886,678753,0
2096921,2096921,162083,678861,0
2096921,2096921,162241,679235,0
2096921,2096921,162282,679289,0
2096921,2096921,162281,678939,0
2096921,2096921,162012,679344,0
2096921,2096921,162245,679077,0
2096921,2096921,162130,679284,0
2096921,2096921,162474,679523,0
2096921,2096921,162347,679358,0
2096921,2096921,162182,679098,0
2096921,2096921,162206,679333,0
2096921,2096921,162175,679263,0
2096921,2096921,162327,679653,0
2096921,2096921,162572,679378,0
2096921,2096921,162457,679733,0
2096921,2096921,162430,679735,0
2096921,2096921,162633,679785,0
2096921,2096921,162518,679650,0
2096921,2096921,162540,679817,0
2096921,2096921,162813,679742,0
2096921,2096921,162557,679885,0
2096921,2096921,162622,679919,0
2096921,2096921,162428,679795,0
2096921,2096921,162338,679946,0
2096921,2096921,162510,679774,0
2096921,2096921,162617,679748,0
2096921,2096921,162612,679915,0
2096921,2096921,162516,680080,0
2096921,2096921,162564,680052,0
2096921,2096921,162709,680013,0
2096921,2096921,162659,680167,0
2096921,2096921,162666,679791,0
2096921,2096921,162670,679777,0
2096921,2096921,162531,679989,0
2096921,2096921,162285,680011,0
2096921,2096921,162346,680420,0
2096921,2096921,162503,680273,0
2096921,2096921,162800,680097,0
2096921,2096921,162577,680222,0
2096921,2096921,162611,680250,0
2096921,2096921,162605,680308,0
2096921,2096921,162812,680288,0
2096921,2096921,162778,680160,0
2096921,2096921,162730,680402,0
2096921,2096921,162651,680335,0
2096921,2096921,162302,680277,0
2096921,2096921,162804,680143,0
2096921,2096921,162577,680596,0
2096921,2096921,162610,680746,0
2096921,2096921,162407,680596,0
2096921,2096921,162872,680511,0
2096921,2096921,162523,680399,0
2096921,2096921,162927,680658,0
2096921,2096921,162861,680438,0
2096921,2096921,162797,680612,0
2096921,2096921,162606,680488,0
2096921,2096921,162910,680616,0
2096921,2096921,163002,680660,0
2096921,2096921,162938,680716,0
2096921,2096921,162737,680749,0
2096921,2096921,162926,680213,0
2096921,2096921,163089,680537,0
2096921,2096921,162834,680391,0
2096921,2096921,162769,680712,0
2096921,2096921,162684,680526,0
2096921,2096921,162814,680600,0
2096921,2096921,163027,680258,0
2096921,2096921,162965,680309,0
2096921,2096921,162937,680285,0
2096921,2096921,162622,680445,0
2096921,2096921,162804,680577,0
2096921,2096921,163036,680527,0
2096921,2096921,162634,680450,0
2096921,2096921,162871,680524,0
2096921,2096921,162796,680411,0
2096921,2096921,163004,680598,0
2096921,2096921,162828,680304,0
2096921,2096921,162920,680445,0
2096921,2096921,162838,680476,0
2096921,2096921,162648,680285,0
2096921,2096921,162920,680329,0
2096921,2096921,163064,680514,0
2096921,2096921,163152,680590,0
2096921,2096921,162733,680499,0
2096921,2096921,162609,680477,0
2096921,2096921,162798,680269,0
2096921,2096921,162654,680716,0
2096921,2096921,162737,680670,0
2096921,2096921,162916,680494,0
2096921,2096921,162936,680376,0
2096921,2096921,162957,680704,0
2096921,2096921,163028,680457,0
2096921,2096921,163198,680258,0
2096921,2096921,162738,680098,0
2096921,2096921,162890,679957,0
2096921,2096921,162639,680296,0
2096921,2096921,162717,679978,0
2096921,2096921,162802,680013,0
2096921,2096921,162574,680184,0
2096921,2096921,163019,680118,0
2096921,2096921,163037,680166,0
2096921,2096921,162622,679918,0
2096921,2096921,162262,680215,0
2096921,2096921,162413,680039,0
2096921,2096921,162867,680323,0
2096921,2096921,162824,680429,0
2096921,2096921,162747,679974,0
2096921,2096921,162891,680157,0
2096921,2096921,162960,679668,0
2096921,2096921,162823,679984,0
2096921,2096921,162709,680186,0
2096921,2096921,162848,680021,0
2096921,2096921,162896,680039,0
2096921,2096921,162646,679811,0
2096921,2096921,162678,679986,0
2096921,2096921,162868,680022,0
