2096921,2096921,180712,609938,0
2096921,2096921,180974,609735,0
2096921,2096921,181311,610197,0
2096921,2096921,181304,610326,0
2096921,2096921,181425,610704,0
2096921,2096921,181110,610772,0
2096921,2096921,181171,610467,0
2096921,2096921,181244,610736,0
2096921,2096921,181444,611325,0
2096921,2096921,181444,611128,0
2096921,2096921,181370,611216,0
2096921,2096921,181418,611110,0
2096921,2096921,181463,611559,0
2096921,2096921,181614,612261,0
2096921,2096921,181686,612290,0
2096921,2096921,181691,611960,0
2096921,2096921,181603,612032,0
2096921,2096921,181820,612306,0
2096921,2096921,181869,612608,0
2096921,2096921,181624,612564,0
2096921,2096921,181831,612817,0
2096921,2096921,181780,612606,0
2096921,2096921,182074,613026,0
2096921,2096921,181786,613056,0
2096921,2096921,182057,613359,0
2096921,2096921,182179,613348,0
2096921,2096921,182011,613906,0
2096921,2096921,182286,613796,0
2096921,2096921,182511,614286,0
2096921,2096921,182371,614134,0
2096921,2096921,182253,613995,0
2096921,2096921,182429,614020,0
2096921,2096921,182644,614232,0
2096921,2096921,182671,614638,0
2096921,2096921,182711,614859,0
2096921,2096921,182688,614615,0
2096921,2096921,182609,614799,0
2096921,2096921,182744,615009,0
2096921,2096921,182625,615508,0
2096921,2096921,182678,615354,0
2096921,2096921,182638,615445,0
2096921,2096921,182691,615466,0
2096921,2096921,183104,615524,0
2096921,2096921,183205,615736,0
2096921,2096921,183059,616001,0
2096921,2096921,183261,616080,0
2096921,2096921,183261,616259,0
2096921,2096921,183278,616509,0
2096921,2096921,183305,616969,0
2096921,2096921,183471,616815,0
2096921,2096921,183566,616625,0
2096921,2096921,183647,616860,0
2096921,2096921,183544,616532,0
2096921,2096921,183688,617295,0
2096921,2096921,183638,617298,0
2096921,2096921,183739,617546,0
2096921,2096921,183731,617374,0
2096921,2096921,183928,617583,0
2096921,2096921,183770,618032,0
2096921,2096921,184131,618102,0
2096921,2096921,184094,618296,0
2096921,2096921,184128,618090,0
2096921,2096921,184275,618370,0
2096921,2096921,184178,618545,0
2096921,2096921,183838,618499,0
2096921,2096921,184083,618591,0
2096921,2096921,183874,618659,0
2096921,2096921,184254,618718,0
2096921,2096921,184133,619252,0
2096921,2096921,184102,619167,0
2096921,2096921,184315,619014,0
2096921,2096921,184494,619159,0
2096921,2096921,184348,619308,0
2096921,2096921,184494,619952,0
2096921,2096921,184339,619986,0
2096921,2096921,184389,619376,0
2096921,2096921,184326,619853,0
2096921,2096921,184825,619854,0
2096921,2096921,184593,620005,0
2096921,2096921,184827,620293,0
2096921,2096921,184533,620533,0
2096921,2096921,184552,620531,0
2096921,2096921,184903,620871,0
2096921,2096921,185140,620820,0
2096921,2096921,185057,620805,0
2096921,2096921,184999,620965,0
2096921,2096921,184694,620872,0
2096921,2096921,184610,621132,0
2096921,2096921,185047,621530,0
2096921,2096921,184989,621675,0
2096921,2096921,185250,621128,0
2096921,2096921,185322,621403,0
2096921,2096921,185179,621693,0
2096921,2096921,185235,622102,0
2096921,2096921,185441,622264,0
2096921,2096921,185272,622303,0
2096921,2096921,185503,621920,0
2096921,2096921,185473,622350,0
2096921,2096921,185222,622534,0
2096921,2096921,185563,622699,0
2096921,2096921,185215,622982,0
2096921,2096921,185739,623100,0
2096921,2096921,185631,623063,0
2096921,2096921,185817,623224,0
2096921,2096921,185839,622995,0
2096921,2096921,185876,623361,0
2096921,2096921,185643,623193,0
2096921,2096921,186077,623314,0
2096921,2096921,185845,623557,0
2096921,2096921,186017,623592,0
2096921,2096921,185703,623839,0
2096921,2096921,185887,623488,0
2096921,2096921,185970,623768,0
2096921,2096921,186418,624334,0
2096921,2096921,185998,624090,0
2096921,2096921,186032,624178,0
2096921,2096921,186001,624359,0
2096921,2096921,186265,624328,0
2096921,2096921,186364,624462,0
2096921,2096921,186404,624456,0
2096921,2096921,186300,624484,0
2096921,2096921,186421,624613,0
2096921,2096921,186438,624768,0
2096921,2096921,186443,624984,0
2096921,2096921,186558,625118,0
2096921,2096921,186661,625063,0
2096921,2096921,186408,624698,0
2096921,2096921,186491,625192,0
2096921,2096921,186358,625417,0
2096921,2096921,186273,625535,0
2096921,2096921,186384,625462,0
2096921,2096921,186432,625290,0
2096921,2096921,186630,625736,0
2096921,2096921,186708,625679,0
2096921,2096921,186990,625904,0
2096921,2096921,186820,625980,0
2096921,2096921,186873,625666,0
2096921,2096921,186408,625945,0
2096921,2096921,186495,626128,0
2096921,2096921,186870,626587,0
2096921,2096921,186971,626220,0
2096921,2096921,186874,626350,0
2096921,2096921,187418,626412,0
2096921,2096921,187071,626578,0
2096921,2096921,186987,626930,0
2096921,2096921,186826,626656,0
2096921,2096921,186936,626575,0
2096921,2096921,187359,626958,0
2096921,2096921,187300,627311,0
2096921,2096921,186903,627411,0
2096921,2096921,187109,627374,0
2096921,2096921,186916,627402,0
2096921,2096921,187364,627475,0
2096921,2096921,187485,627418,0
2096921,2096921,187402,627378,0
2096921,2096921,187040,627244,0
2096921,2096921,187200,627589,0
2096921,2096921,187358,627649,0
2096921,2096921,187374,627926,0
2096921,2096921,187312,628023,0
2096921,2096921,187335,628060,0
2096921,2096921,187502,628054,0
2096921,2096921,187483,628213,0
2096921,2096921,187530,628453,0
2096921,2096921,187462,628428,0
2096921,2096921,187700,628476,0
2096921,2096921,187517,628357,0
2096921,2096921,187553,628560,0
2096921,2096921,187518,628657,0
2096921,2096921,187711,628684,0
2096921,2096921,187867,628723,0
2096921,2096921,187838,628563,0
2096921,2096921,187886,628925,0
2096921,2096921,187847,629458,0
2096921,2096921,187746,629584,0
2096921,2096921,187807,629302,0
2096921,2096921,187883,629180,0
2096921,2096921,187974,629244,0
2096921,2096921,187664,629319,0
2096921,2096921,187638,629420,0
2096921,2096921,187733,629324,0
2096921,2096921,187999,629413,0
2096921,2096921,188361,629558,0
2096921,2096921,188042,629563,0
2096921,2096921,188006,629677,0
2096921,2096921,188074,629659,0
2096921,2096921,188064,629931,0
2096921,2096921,187967,629907,0
2096921,2096921,187901,630199,0
2096921,2096921,188015,629898,0
2096921,2096921,188158,630099,0
2096921,2096921,188468,630175,0
2096921,2096921,188424,630227,0
2096921,2096921,188441,630243,0
2096921,2096921,188608,630584,0
2096921,2096921,187957,630384,0
2096921,2096921,188210,630454,0
2096921,2096921,188319,630419,0
2096921,2096921,188495,630474,0
2096921,2096921,188131,630571,0
2096921,2096921,188341,630732,0
2096921,2096921,188213,630824,0
2096921,2096921,188325,630836,0
2096921,2096921,188527,630869,0
2096921,2096921,188697,631097,0
2096921,2096921,188326,630872,0
2096921,2096921,188421,631074,0
2096921,2096921,188574,631108,0
2096921,2096921,188340,631116,0
2096921,2096921,188380,631028,0
2096921,2096921,188430,630916,0
2096921,2096921,188194,631037,0
2096921,2096921,188567,631193,0
2096921,2096921,188377,631139,0
2096921,2096921,188274,631422,0
2096921,2096921,188569,631127,0
2096921,2096921,188422,631149,0
2096921,2096921,188472,631638,0
2096921,2096921,188375,631391,0
2096921,2096921,188680,631344,0
2096921,2096921,188634,631537,0
2096921,2096921,188475,631166,0
2096921,2096921,188524,631414,0
2096921,2096921,188826,631557,0
2096921,2096921,188700,631881,0
2096921,2096921,188425,631780,0
2096921,2096921,188537,631638,0
2096921,2096921,188349,631298,0
2096921,2096921,188649,631882,0
2096921,2096921,188785,631707,0
2096921,2096921,188398,631486,0
2096921,2096921,188394,631998,0
2096921,2096921,188502,632023,0
2096921,2096921,188534,632120,0
2096921,2096921,188783,632380,0
2096921,2096921,188937,632032,0
2096921,2096921,188828,631851,0
2096921,2096921,189057,632093,0
2096921,2096921,188480,631969,0
2096921,2096921,188628,632328,0
2096921,2096921,188538,632654,0
2096921,2096921,188858,632632,0
2096921,2096921,188486,632183,0
2096921,2096921,188438,631656,0
2096921,2096921,188724,631622,0
2096921,2096921,188665,631564,0
2096921,2096921,188518,632041,0
2096921,2096921,188118,631625,0
2096921,2096921,188349,631326,0
2096921,2096921,188440,631570,0
2096921,2096921,188367,631337,0
2096921,2096921,188634,631416,0
2096921,2096921,188079,630967,0
2096921,2096921,187952,630989,0
2096921,2096921,188139,631081,0
2096921,2096921,188272,630798,0
2096921,2096921,187888,630797,0
2096921,2096921,187656,630324,0
2096921,2096921,187660,630279,0
2096921,2096921,187690,630144,0
2096921,2096921,187742,630080,0
2096921,2096921,187783,630034,0
2096921,2096921,187332,629457,0
2096921,2096921,187350,629142,0
2096921,2096921,186989,628861,0
2096921,2096921,187074,629014,0
2096921,2096921,187185,629168,0
2096921,2096921,186129,628122,0
2096921,2096921,186005,626802,0
2096921,2096921,186076,626470,0
2096921,2096921,186144,626270,0
2096921,2096921,186178,626697,0
2096921,2096921,185133,624821,0
2096921,2096921,184963,623778,0
2096921,2096921,184656,623341,0
2096921,2096921,184675,623506,0
2096921,2096921,184953,623516,0
2096921,2096921,183801,622294,0
2096921,2096921,183804,621452,0
2096921,2096921,183525,620942,0
2096921,2096921,183466,620983,0
2096921,2096921,183592,621028,0
2096921,2096921,182927,620187,0
2096921,2096921,182980,619502,0
2096921,2096921,182843,619357,0
2096921,2096921,182496,619245,0
2096921,2096921,182658,619406,0
2096921,2096921,181896,618718,0
2096921,2096921,182266,618263,0
2096921,2096921,182234,618045,0
2096921,2096921,182493,617886,0
2096921,2096921,182232,618327,0
2096921,2096921,181917,617783,0
2096921,2096921,181679,617594,0
2096921,2096921,181671,617413,0
2096921,2096921,181857,617363,0
2096921,2096921,181916,617287,0
2096921,2096921,181863,617024,0
2096921,2096921,181361,616744,0
2096921,2096921,181357,616647,0
2096921,2096921,181362,616715,0
2096921,2096921,181355,616584,0
2096921,2096921,181251,616264,0
2096921,2096921,181400,616389,0
2096921,2096921,181377,616236,0
2096921,2096921,181326,616509,0
2096921,2096921,181443,616527,0
2096921,2096921,181353,616356,0
2096921,2096921,181280,616242,0
2096921,2096921,181070,616352,0
2096921,2096921,181295,616185,0
2096921,2096921,181078,616169,0
2096921,2096921,181342,616096,0
2096921,2096921,181249,616121,0
2096921,2096921,181345,616328,0
2096921,2096921,181438,616001,0
2096921,2096921,181233,615953,0
2096921,2096921,181541,616197,0
2096921,2096921,181453,616461,0
2096921,2096921,181525,616438,0
2096921,2096921,181464,616588,0
2096921,2096921,181443,616715,0
2096921,2096921,181880,616466,0
2096921,2096921,181711,616374,0
2096921,2096921,181647,616720,0
2096921,2096921,181541,616570,0
2096921,2096921,181293,616766,0
2096921,2096921,181149,617085,0
2096921,2096921,181130,616902,0
2096921,2096921,181581,616907,0
2096921,2096921,181436,616725,0
2096921,2096921,181369,616655,0
2096921,2096921,181651,616886,0
2096921,2096921,181846,617408,0
2096921,2096921,181992,617232,0
2096921,2096921,181631,617289,0
2096921,2096921,181909,617279,0
2096921,2096921,181980,617487,0
2096921,2096921,182013,617666,0
2096921,2096921,181769,617618,0
2096921,2096921,182065,617425,0
2096921,2096921,181993,617947,0
2096921,2096921,182365,618178,0
2096921,2096921,182148,618403,0
2096921,2096921,182396,618048,0
2096921,2096921,182402,618436,0
2096921,2096921,182108,618524,0
2096921,2096921,182213,618590,0
2096921,2096921,182401,619020,0
2096921,2096921,182443,619100,0
2096921,2096921,182609,619040,0
2096921,2096921,182262,619050,0
2096921,2096921,182776,619372,0
2096921,2096921,182690,619615,0
2096921,2096921,183018,619482,0
2096921,2096921,182896,619468,0
2096921,2096921,182872,619404,0
2096921,2096921,182935,619972,0
2096921,2096921,183074,619939,0
2096921,2096921,182844,620318,0
2096921,2096921,182904,620429,0
2096921,2096921,183165,620213,0
2096921,2096921,183291,620271,0
2096921,2096921,183459,620632,0
2096921,2096921,183618,620352,0
2096921,2096921,183125,620558,0
2096921,2096921,183126,620743,0
2096921,2096921,183499,620866,0
2096921,2096921,183192,621037,0
2096921,2096921,183310,621240,0
2096921,2096921,183419,621018,0
2096921,2096921,183586,620831,0
2096921,2096921,183951,621380,0
2096921,2096921,183732,621335,0
2096921,2096921,184290,621455,0
2096921,2096921,183846,621698,0
2096921,2096921,183726,621624,0
2096921,2096921,183636,621836,0
2096921,2096921,183901,621926,0
2096921,2096921,183939,622168,0
2096921,2096921,184087,622600,0
2096921,2096921,184176,622430,0
2096921,2096921,184405,622446,0
2096921,2096921,184398,622782,0
2096921,2096921,184266,622971,0
2096921,2096921,184402,623205,0
2096921,2096921,184241,622988,0
2096921,2096921,184193,623366,0
2096921,2096921,184382,623465,0
2096921,2096921,184889,622969,0
2096921,2096921,184784,623012,0
2096921,2096921,184587,623358,0
2096921,2096921,184574,623829,0
2096921,2096921,184654,624087,0
2096921,2096921,184481,623964,0
2096921,2096921,184744,623965,0
2096921,2096921,184620,623793,0
2096921,2096921,184862,623764,0
2096921,2096921,184971,624031,0
2096921,2096921,185118,624331,0
2096921,2096921,184882,624254,0
2096921,2096921,184809,624160,0
2096921,2096921,185124,624409,0
2096921,2096921,185139,624508,0
2096921,2096921,185267,624834,0
2096921,2096921,185221,624557,0
2096921,2096921,185126,624681,0
2096921,2096921,185063,624833,0
2096921,2096921,184906,624802,0
2096921,2096921,185126,624709,0
2096921,2096921,184913,624830,0
2096921,2096921,185239,624426,0
2096921,2096921,185150,624633,0
2096921,2096921,185206,625102,0
2096921,2096921,185525,625111,0
2096921,2096921,185427,625189,0
2096921,2096921,185300,625133,0
2096921,2096921,185340,624988,0
2096921,2096921,185244,625063,0
2096921,2096921,185399,624877,0
2096921,2096921,185228,625135,0
2096921,2096921,185410,625150,0
2096921,2096921,185356,625249,0
2096921,2096921,185321,624787,0
2096921,2096921,185171,624943,0
2096921,2096921,185238,624868,0
2096921,2096921,185176,625096,0
2096921,2096921,185273,624902,0
2096921,2096921,185118,624797,0
2096921,2096921,185334,624859,0
2096921,2096921,185215,624545,0
2096921,2096921,185288,624794,0
2096921,2096921,185259,624696,0
2096921,2096921,185304,624593,0
2096921,2096921,185114,624703,0
2096921,2096921,185150,624680,0
2096921,2096921,185027,624833,0
2096921,2096921,185061,624381,0
2096921,2096921,184652,624423,0
2096921,2096921,185009,624300,0
2096921,2096921,184945,624541,0
2096921,2096921,185091,624573,0
2096921,2096921,185125,624381,0
2096921,2096921,185106,624242,0
2096921,2096921,184955,624624,0
2096921,2096921,184779,624542,0
2096921,2096921,184843,624535,0
2096921,2096921,184858,624301,0
2096921,2096921,184532,624039,0
2096921,2096921,184771,623707,0
2096921,2096921,184415,623929,0
2096921,2096921,184832,623993,0
2096921,2096921,184687,624444,0
2096921,2096921,184793,624456,0
2096921,2096921,184706,624166,0
2096921,2096921,184986,623885,0
2096921,2096921,184636,623984,0
2096921,2096921,184913,623761,0
2096921,2096921,185045,623839,0
2096921,2096921,184816,624041,0
2096921,2096921,184800,624222,0
2096921,2096921,184893,624158,0
2096921,2096921,184817,624054,0
2096921,2096921,184874,624223,0
2096921,2096921,185043,623947,0
2096921,2096921,185009,624037,0
2096921,2096921,184831,624126,0
2096921,2096921,184930,624331,0
2096921,2096921,184845,624329,0
2096921,2096921,184979,624300,0
2096921,2096921,185374,624011,0
2096921,2096921,185307,624420,0
2096921,2096921,184914,624509,0
2096921,2096921,185027,624492,0
2096921,2096921,185323,624442,0
2096921,2096921,185063,624459,0
2096921,2096921,185083,624299,0
2096921,2096921,185227,624801,0
2096921,2096921,185071,624852,0
2096921,2096921,184878,624402,0
2096921,2096921,185080,624707,0
2096921,2096921,185230,624757,0
2096921,2096921,185549,624679,0
2096921,2096921,185222,625078,0
2096921,2096921,184971,625454,0
2096921,2096921,185077,625501,0
2096921,2096921,185306,625166,0
2096921,2096921,185459,625126,0
2096921,2096921,185688,625486,0
2096921,2096921,185759,625265,0
2096921,2096921,185806,625320,0
2096921,2096921,185483,625188,0
2096921,2096921,185848,625716,0
2096921,2096921,185730,625957,0
2096921,2096921,185651,625667,0
2096921,2096921,185708,625463,0
2096921,2096921,185785,625573,0
2096921,2096921,185739,625656,0
2096921,2096921,185319,625836,0
2096921,2096921,185628,625873,0
2096921,2096921,185669,625706,0
2096921,2096921,185710,625703,0
2096921,2096921,185801,626047,0
2096921,2096921,185837,626340,0
2096921,2096921,185726,626188,0
2096921,2096921,185701,625722,0
2096921,2096921,186104,626044,0
2096921,2096921,186027,626098,0
2096921,2096921,186060,626075,0
2096921,2096921,186111,626240,0
2096921,2096921,185798,626310,0
2096921,2096921,185712,626212,0
2096921,2096921,185904,626884,0
2096921,2096921,185691,626456,0
2096921,2096921,186121,626398,0
2096921,2096921,186178,626466,0
2096921,2096921,186421,626367,0
2096921,2096921,186110,626427,0
2096921,2096921,186088,626900,0
2096921,2096921,185984,626830,0
2096921,2096921,186224,626855,0
2096921,2096921,186041,626682,0
2096921,2096921,186396,626699,0
2096921,2096921,186494,626985,0
2096921,2096921,186468,626902,0
2096921,2096921,186308,626919,0
2096921,2096921,186715,626915,0
2096921,2096921,186573,627000,0
2096921,2096921,186317,627120,0
2096921,2096921,186348,627126,0
2096921,2096921,186409,626884,0
2096921,2096921,186506,627154,0
2096921,2096921,186558,627068,0
2096921,2096921,186419,627108,0
2096921,2096921,186663,627190,0
2096921,2096921,186479,627242,0
2096921,2096921,186300,627448,0
2096921,2096921,186410,627175,0
2096921,2096921,186532,627194,0
2096921,2096921,186604,627174,0
2096921,2096921,186632,627327,0
2096921,2096921,186626,627124,0
2096921,2096921,186613,627283,0
2096921,2096921,186808,627270,0
2096921,2096921,186928,627820,0
2096921,2096921,186725,627586,0
2096921,2096921,186733,627503,0
2096921,2096921,186595,627416,0
2096921,2096921,186927,627354,0
2096921,2096921,186589,627292,0
2096921,2096921,186721,627368,0
2096921,2096921,186561,627543,0
2096921,2096921,187023,627541,0
2096921,2096921,186702,627842,0
2096921,2096921,187078,627710,0
2096921,2096921,186856,627739,0
2096921,2096921,186724,627663,0
2096921,2096921,186583,627680,0
2096921,2096921,186905,627894,0
2096921,2096921,186566,627599,0
2096921,2096921,186511,628000,0
2096921,2096921,186775,627746,0
2096921,2096921,186864,627842,0
2096921,2096921,187028,627602,0
2096921,2096921,187053,628007,0
2096921,2096921,186917,627995,0
2096921,2096921,186846,627742,0
2096921,2096921,186897,627514,0
2096921,2096921,186894,627680,0
2096921,2096921,186981,627697,0
2096921,2096921,186695,627783,0
2096921,2096921,186994,627852,0
2096921,2096921,186747,627637,0
2096921,2096921,187173,627436,0
2096921,2096921,187182,627870,0
2096921,2096921,186992,627496,0
2096921,2096921,186911,627749,0
2096921,2096921,186698,627706,0
2096921,2096921,186940,627807,0
2096921,2096921,186957,627532,0
2096921,2096921,187154,627664,0
2096921,2096921,187031,627631,0
2096921,2096921,186941,627719,0
2096921,2096921,187044,627710,0
2096921,2096921,187034,627624,0
2096921,2096921,187158,627892,0
2096921,2096921,187037,627948,0
2096921,2096921,187017,627758,0
2096921,2096921,186964,627767,0
2096921,2096921,187007,627471,0
2096921,2096921,187246,627517,0
2096921,2096921,187281,627430,0
2096921,2096921,187085,627753,0
2096921,2096921,186941,627136,0
2096921,2096921,186904,627982,0
2096921,2096921,186870,627869,0
2096921,2096921,186903,627947,0
2096921,2096921,186975,627434,0
2096921,2096921,187287,627142,0
2096921,2096921,187133,627066,0
2096921,2096921,187112,627207,0
2096921,2096921,186914,627498,0
2096921,2096921,186783,627606,0
2096921,2096921,186921,627424,0
2096921,2096921,187270,627457,0
2096921,2096921,187014,627228,0
2096921,2096921,187011,627583,0
2096921,2096921,186987,627444,0
2096921,2096921,186955,627281,0
2096921,2096921,187018,627283,0
2096921,2096921,186996,627201,0
2096921,2096921,187230,627124,0
2096921,2096921,187028,626973,0
2096921,2096921,186865,626638,0
2096921,2096921,186819,626954,0
2096921,2096921,187079,627149,0
2096921,2096921,186983,626999,0
2096921,2096921,187022,626717,0
2096921,2096921,186997,626464,0
2096921,2096921,186925,626423,0
2096921,2096921,186830,626657,0
2096921,2096921,186970,626958,0
2096921,2096921,187070,627017,0
2096921,2096921,186955,626773,0
2096921,2096921,187122,626714,0
2096921,2096921,187041,626542,0
2096921,2096921,186719,626405,0
2096921,2096921,186624,626407,0
2096921,2096921,186545,626435,0
2096921,2096921,185995,626347,0
2096921,2096921,186446,626522,0
2096921,2096921,186912,626268,0
2096921,2096921,186704,626334,0
2096921,2096921,186671,626064,0
2096921,2096921,186661,626250,0
2096921,2096921,186623,626205,0
2096921,2096921,186885,626228,0
2096921,2096921,186990,626214,0
2096921,2096921,186719,625918,0
2096921,2096921,186847,625876,0
2096921,2096921,186583,626164,0
2096921,2096921,186921,626172,0
2096921,2096921,186803,625985,0
2096921,2096921,186905,625811,0
2096921,2096921,186513,625765,0
2096921,2096921,186383,625972,0
2096921,2096921,186569,625792,0
2096921,2096921,186394,625794,0
2096921,2096921,186164,625710,0
2096921,2096921,186579,625810,0
2096921,2096921,186613,625652,0
2096921,2096921,186684,625462,0
2096921,2096921,186770,625426,0
2096921,2096921,186797,625371,0
2096921,2096921,186795,625676,0
2096921,2096921,186498,625828,0
2096921,2096921,186716,625455,0
2096921,2096921,186578,625195,0
2096921,2096921,186555,625068,0
2096921,2096921,186415,625024,0
2096921,2096921,186773,625262,0
2096921,2096921,186699,625182,0
2096921,2096921,186666,625310,0
2096921,2096921,186735,625324,0
2096921,2096921,186593,624908,0
2096921,2096921,186619,624935,0
2096921,2096921,186298,624837,0
2096921,2096921,186206,625048,0
2096921,2096921,186477,624542,0
2096921,2096921,186461,624809,0
2096921,2096921,186510,624792,0
2096921,2096921,186604,624926,0
2096921,2096921,186521,624527,0
2096921,2096921,186384,624354,0
2096921,2096921,186302,624576,0
2096921,2096921,186339,624746,0
2096921,2096921,186352,624185,0
2096921,2096921,186285,624317,0
2096921,2096921,186456,624023,0
2096921,2096921,186087,623998,0
2096921,2096921,186089,623899,0
2096921,2096921,186229,624224,0
2096921,2096921,186203,624269,0
2096921,2096921,185987,624056,0
2096921,2096921,186054,623758,0
2096921,2096921,186285,623593,0
2096921,2096921,186240,623493,0
2096921,2096921,186252,623914,0
2096921,2096921,186147,623714,0
2096921,2096921,186363,623687,0
2096921,2096921,186400,623630,0
2096921,2096921,186053,623412,0
2096921,2096921,185895,623499,0
2096921,2096921,185953,623230,0
2096921,2096921,185908,623353,0
2096921,2096921,186053,623299,0
2096921,2096921,185824,623336,0
2096921,2096921,185948,623089,0
2096921,2096921,186009,622766,0
2096921,2096921,186074,622809,0
2096921,2096921,186095,622666,0
2096921,2096921,185925,623026,0
2096921,2096921,185704,622642,0
2096921,2096921,185694,622651,0
2096921,2096921,185723,622749,0
2096921,2096921,185687,622781,0
2096921,2096921,185586,622662,0
2096921,2096921,185620,622396,0
2096921,2096921,185784,621880,0
2096921,2096921,185475,621797,0
2096921,2096921,185481,622118,0
2096921,2096921,185634,621905,0
2096921,2096921,185446,622022,0
2096921,2096921,185756,621844,0
2096921,2096921,185670,621758,0
2096921,2096921,185711,621816,0
2096921,2096921,185811,621943,0
2096921,2096921,185508,621685,0
2096921,2096921,185328,621564,0
2096921,2096921,185350,621478,0
2096921,2096921,185589,621174,0
2096921,2096921,185424,621140,0
2096921,2096921,185378,621092,0
2096921,2096921,185425,620758,0
2096921,2096921,185612,621046,0
2096921,2096921,185332,620863,0
2096921,2096921,185290,620895,0
2096921,2096921,185275,620784,0
2096921,2096921,185276,620452,0
2096921,2096921,185289,620320,0
2096921,2096921,185155,620532,0
2096921,2096921,185154,620571,0
2096921,2096921,184861,620260,0
2096921,2096921,185034,620034,0
2096921,2096921,185158,619958,0
2096921,2096921,185343,620139,0
2096921,2096921,184857,620080,0
2096921,2096921,185055,620215,0
2096921,2096921,184808,619836,0
2096921,2096921,184985,619662,0
2096921,2096921,184911,619548,0
2096921,2096921,184852,619892,0
2096921,2096921,184588,619403,0
2096921,2096921,184600,618861,0
2096921,2096921,184523,618760,0
2096921,2096921,184490,618588,0
2096921,2096921,184635,618847,0
2096921,2096921,184605,618680,0
2096921,2096921,184357,618676,0
2096921,2096921,184240,618596,0
2096921,2096921,184262,618314,0
2096921,2096921,184149,618015,0
2096921,2096921,183798,617936,0
2096921,2096921,183918,617117,0
2096921,2096921,184087,617382,0
2096921,2096921,183790,616993,0
2096921,2096921,183753,617125,0
2096921,2096921,183073,616169,0
2096921,2096921,183218,615710,0
2096921,2096921,183197,615706,0
2096921,2096921,183240,615388,0
2096921,2096921,183337,615439,0
2096921,2096921,182659,614772,0
2096921,2096921,182600,614125,0
2096921,2096921,182672,614293,0
2096921,2096921,182361,614339,0
2096921,2096921,182514,614308,0
2096921,2096921,181453,612712,0
2096921,2096921,181297,611683,0
2096921,2096921,181345,611042,0
2096921,2096921,180977,611285,0
2096921,2096921,181056,611333,0
2096921,2096921,180426,609585,0
2096921,2096921,180030,608256,0
2096921,2096921,180104,607620,0
2096921,2096921,179893,607812,0
2096921,2096921,179675,607898,0
2096921,2096921,179056,606689,0
2096921,2096921,178902,605528,0
2096921,2096921,178911,605357,0
2096921,2096921,178871,605150,0
2096921,2096921,178761,605302,0
2096921,2096921,177901,604183,0
2096921,2096921,177800,603194,0
2096921,2096921,177798,603383,0
2096921,2096921,177842,603044,0
2096921,2096921,177959,602940,0
2096921,2096921,177411,602121,0
2096921,2096921,176890,601719,0
2096921,2096921,177273,601526,0
2096921,2096921,177224,601587,0
2096921,2096921,176924,601108,0
2096921,2096921,176734,600677,0
2096921,2096921,176642,599885,0
2096921,2096921,176098,599895,0
2096921,2096921,176445,599845,0
2096921,2096921,176501,599903,0
2096921,2096921,176367,599517,0
2096921,2096921,176068,599166,0
2096921,2096921,176092,598904,0
2096921,2096921,176079,598812,0
2096921,2096921,176086,598865,0
2096921,2096921,175901,599032,0
2096921,2096921,175838,598417,0
2096921,2096921,175863,598355,0
2096921,2096921,175847,598332,0
2096921,2096921,175681,598263,0
2096921,2096921,175548,597952,0
2096921,2096921,175504,597504,0
2096921,2096921,175618,597626,0
2096921,2096921,175702,597881,0
2096921,2096921,175676,597703,0
2096921,2096921,175530,597746,0
2096921,2096921,175355,597435,0
2096921,2096921,175276,597332,0
2096921,2096921,175867,597338,0
2096921,2096921,175876,597241,0
2096921,2096921,175491,597165,0
2096921,2096921,175422,597173,0
2096921,2096921,175377,597078,0
2096921,2096921,175086,597200,0
2096921,2096921,175470,597178,0
2096921,2096921,175567,597273,0
2096921,2096921,175431,597046,0
2096921,2096921,175063,597025,0
2096921,2096921,175718,596851,0
2096921,2096921,175567,596928,0
2096921,2096921,175421,596859,0
2096921,2096921,175399,596542,0
2096921,2096921,175441,596706,0
2096921,2096921,175303,596637,0
2096921,2096921,175343,596717,0
2096921,2096921,175770,597056,0
2096921,2096921,175842,596842,0
2096921,2096921,176114,596866,0
2096921,2096921,175780,596897,0
2096921,2096921,175781,597042,0
2096921,2096921,175768,597151,0
2096921,2096921,175638,597214,0
2096921,2096921,175570,597134,0
2096921,2096921,175802,597290,0
2096921,2096921,175667,597077,0
2096921,2096921,175614,597293,0
2096921,2096921,175937,597349,0
2096921,2096921,175914,597231,0
2096921,2096921,175841,597263,0
2096921,2096921,175966,597148,0
2096921,2096921,176021,597660,0
2096921,2096921,175760,597281,0
2096921,2096921,175871,597498,0
2096921,2096921,175883,597383,0
2096921,2096921,175969,597772,0
2096921,2096921,176349,597658,0
2096921,2096921,176042,597744,0
2096921,2096921,176058,597491,0
2096921,2096921,176311,597492,0
2096921,2096921,176019,597492,0
2096921,2096921,176196,597683,0
2096921,2096921,176320,597342,0
2096921,2096921,176308,597618,0
2096921,2096921,176088,597570,0
2096921,2096921,175926,597808,0
2096921,2096921,176139,597861,0
2096921,2096921,176192,598116,0
2096921,2096921,176103,597785,0
2096921,2096921,176246,597623,0
2096921,2096921,175888,597724,0
2096921,2096921,176333,597879,0
2096921,2096921,176386,598127,0
2096921,2096921,176239,598330,0
2096921,2096921,176251,598058,0
2096921,2096921,176417,598215,0
2096921,2096921,176751,598218,0
2096921,2096921,176724,598676,0
2096921,2096921,176580,598388,0
2096921,2096921,176576,598472,0
2096921,2096921,176626,598175,0
2096921,2096921,176812,598279,0
2096921,2096921,176819,598174,0
2096921,2096921,176695,598122,0
2096921,2096921,176807,598752,0
2096921,2096921,176889,598644,0
2096921,2096921,176958,598799,0
2096921,2096921,177030,598764,0
2096921,2096921,177093,598696,0
2096921,2096921,177016,599089,0
2096921,2096921,176720,598911,0
2096921,2096921,176936,598972,0
2096921,2096921,176897,598812,0
2096921,2096921,177044,599088,0
2096921,2096921,177163,598985,0
2096921,2096921,177117,599071,0
2096921,2096921,177179,599145,0
2096921,2096921,177200,599231,0
2096921,2096921,177187,599079,0
2096921,2096921,177271,598890,0
2096921,2096921,177067,598936,0
2096921,2096921,177189,599143,0
2096921,2096921,177522,599178,0
2096921,2096921,177074,599252,0
2096921,2096921,177063,599077,0
2096921,2096921,177180,599378,0
2096921,2096921,177353,599225,0
2096921,2096921,177450,598838,0
2096921,2096921,177206,599002,0
2096921,2096921,177095,599215,0
2096921,2096921,177121,598964,0
2096921,2096921,177436,599207,0
2096921,2096921,177573,599030,0
2096921,2096921,177271,598822,0
2096921,2096921,177348,598945,0
2096921,2096921,177418,599034,0
2096921,2096921,177348,599060,0
2096921,2096921,177146,598958,0
2096921,2096921,177383,598780,0
2096921,2096921,177320,598836,0
2096921,2096921,177484,598728,0
2096921,2096921,176972,598536,0
2096921,2096921,177486,598666,0
2096921,2096921,177064,598461,0
2096921,2096921,177095,598770,0
2096921,2096921,177335,598598,0
2096921,2096921,177315,598448,0
2096921,2096921,177197,598501,0
2096921,2096921,177416,598818,0
2096921,2096921,177215,598678,0
2096921,2096921,177337,598398,0
2096921,2096921,177067,598343,0
2096921,2096921,176767,598456,0
2096921,2096921,176985,598105,0
2096921,2096921,176780,597865,0
2096921,2096921,177081,598095,0
2096921,2096921,177202,597639,0
2096921,2096921,177031,597592,0
2096921,2096921,177053,597492,0
2096921,2096921,176747,597452,0
2096921,2096921,176852,597663,0
2096921,2096921,177105,597192,0
2096921,2096921,176537,597235,0
2096921,2096921,176604,597123,0
2096921,2096921,176690,597285,0
2096921,2096921,176631,597134,0
2096921,2096921,176762,597172,0
2096921,2096921,176358,596633,0
2096921,2096921,176430,597019,0
2096921,2096921,176569,596554,0
2096921,2096921,176558,596488,0
2096921,2096921,176478,596642,0
2096921,2096921,176379,596193,0
2096921,2096921,176314,596455,0
2096921,2096921,176249,596270,0
2096921,2096921,176111,596274,0
2096921,2096921,176012,596105,0
2096921,2096921,176073,596223,0
2096921,2096921,176074,596144,0
2096921,2096921,176046,595962,0
2096921,2096921,175973,596288,0
2096921,2096921,175887,596008,0
2096921,2096921,175948,595679,0
2096921,2096921,176221,595564,0
2096921,2096921,176132,595895,0
2096921,2096921,176396,595880,0
2096921,2096921,176198,596136,0
2096921,2096921,175860,595938,0
2096921,2096921,176107,595758,0
2096921,2096921,176350,595680,0
2096921,2096921,176269,595577,0
2096921,2096921,176043,595547,0
2096921,2096921,175889,595697,0
2096921,2096921,176332,595587,0
2096921,2096921,176352,595321,0
2096921,2096921,176539,595554,0
2096921,2096921,176298,595841,0
2096921,2096921,176171,595697,0
2096921,2096921,176071,595910,0
2096921,2096921,176449,595649,0
2096921,2096921,175975,595515,0
2096921,2096921,176293,595504,0
2096921,2096921,176195,595739,0
2096921,2096921,176199,595727,0
2096921,2096921,176379,595608,0
2096921,2096921,176441,595681,0
2096921,2096921,176368,596080,0
2096921,2096921,176704,596141,0
2096921,2096921,176604,595909,0
2096921,2096921,176451,596022,0
2096921,2096921,176446,596171,0
2096921,2096921,176499,596142,0
2096921,2096921,176245,595928,0
2096921,2096921,176545,596277,0
2096921,2096921,176453,596053,0
2096921,2096921,176706,596314,0
2096921,2096921,176554,596368,0
2096921,2096921,176633,596531,0
2096921,2096921,176568,596396,0
2096921,2096921,176785,596506,0
2096921,2096921,176781,596329,0
2096921,2096921,176720,596344,0
2096921,2096921,176821,596515,0
2096921,2096921,176763,596748,0
2096921,2096921,176563,596562,0
2096921,2096921,176906,596399,0
2096921,2096921,176882,596571,0
2096921,2096921,177036,596772,0
2096921,2096921,176921,596577,0
2096921,2096921,176837,596740,0
2096921,2096921,176620,596726,0
2096921,2096921,176998,596965,0
2096921,2096921,177119,596755,0
2096921,2096921,176910,596787,0
2096921,2096921,176735,596790,0
2096921,2096921,176796,596810,0
2096921,2096921,176899,597026,0
2096921,2096921,177130,596986,0
2096921,2096921,176990,596990,0
2096921,2096921,177025,596992,0
2096921,2096921,177135,596803,0
2096921,2096921,176990,597112,0
2096921,2096921,176900,597102,0
2096921,2096921,177162,597179,0
2096921,2096921,177059,597249,0
2096921,2096921,177075,597349,0
2096921,2096921,177321,597431,0
2096921,2096921,177095,597365,0
2096921,2096921,177130,597504,0
2096921,2096921,177180,597666,0
2096921,2096921,177085,597523,0
2096921,2096921,177223,597538,0
2096921,2096921,177391,597377,0
2096921,2096921,177399,597173,0
2096921,2096921,177293,597284,0
2096921,2096921,177154,597654,0
2096921,2096921,177600,597583,0
2096921,2096921,177615,597866,0
2096921,2096921,177606,597938,0
2096921,2096921,177573,597814,0
2096921,2096921,177887,597627,0
2096921,2096921,177528,597796,0
2096921,2096921,177339,597663,0
2096921,2096921,177287,597819,0
2096921,2096921,177651,597923,0
2096921,2096921,177674,597873,0
2096921,2096921,177961,598068,0
2096921,2096921,177886,598063,0
2096921,2096921,177770,598088,0
2096921,2096921,177546,598186,0
2096921,2096921,177730,597997,0
2096921,2096921,177382,598366,0
2096921,2096921,177637,598248,0
2096921,2096921,177811,598395,0
2096921,2096921,177784,598375,0
2096921,2096921,177398,598599,0
2096921,2096921,177712,598413,0
2096921,2096921,177743,598519,0
2096921,2096921,178005,598635,0
2096921,2096921,178018,598502,0
2096921,2096921,178019,598610,0
2096921,2096921,177949,599047,0
2096921,2096921,178142,598753,0
2096921,2096921,178086,598850,0
2096921,2096921,178019,598609,0
2096921,2096921,178071,598986,0
2096921,2096921,177898,599262,0
2096921,2096921,178206,599137,0
2096921,2096921,178062,599038,0
2096921,2096921,178191,599135,0
2096921,2096921,178086,598976,0
2096921,2096921,178027,599164,0
2096921,2096921,178166,599064,0
2096921,2096921,178076,599204,0
2096921,2096921,178099,599052,0
2096921,2096921,178115,599150,0
2096921,2096921,178224,599078,0
2096921,2096921,178230,599239,0
2096921,2096921,178084,599503,0
2096921,2096921,178420,599366,0
2096921,2096921,178027,599509,0
2096921,2096921,178423,599351,0
2096921,2096921,178322,599494,0
2096921,2096921,178448,599425,0
2096921,2096921,178505,599339,0
2096921,2096921,178440,599141,0
2096921,2096921,178329,599680,0
2096921,2096921,178415,599825,0
2096921,2096921,178556,599649,0
2096921,2096921,178634,599540,0
2096921,2096921,178646,599863,0
2096921,2096921,178363,600065,0
2096921,2096921,178617,599940,0
2096921,2096921,178484,599716,0
2096921,2096921,178500,599898,0
2096921,2096921,178409,599930,0
2096921,2096921,178521,600071,0
2096921,2096921,178624,599799,0
2096921,2096921,178526,599982,0
2096921,2096921,178871,599935,0
2096921,2096921,178604,600031,0
2096921,2096921,178849,600065,0
2096921,2096921,178839,600209,0
2096921,2096921,178410,600297,0
2096921,2096921,178923,600290,0
2096921,2096921,178767,600261,0
2096921,2096921,179003,600546,0
2096921,2096921,178926,600549,0
2096921,2096921,178849,600423,0
2096921,2096921,178740,600353,0
2096921,2096921,178618,600524,0
2096921,2096921,178913,600582,0
2096921,2096921,178707,600312,0
2096921,2096921,178591,600065,0
2096921,2096921,178684,600647,0
2096921,2096921,178645,600749,0
2096921,2096921,178659,601312,0
2096921,2096921,178453,600702,0
2096921,2096921,178623,600542,0
2096921,2096921,178601,600682,0
2096921,2096921,178636,600838,0
2096921,2096921,178973,600619,0
2096921,2096921,178863,601066,0
2096921,2096921,178821,601101,0
2096921,2096921,178763,600873,0
2096921,2096921,179115,600939,0
2096921,2096921,179078,600843,0
2096921,2096921,179158,600699,0
2096921,2096921,179045,601045,0
2096921,2096921,178817,601161,0
2096921,2096921,178923,601210,0
2096921,2096921,178824,600793,0
2096921,2096921,179015,600860,0
2096921,2096921,179029,600884,0
2096921,2096921,178756,600989,0
2096921,2096921,179051,600964,0
2096921,2096921,178951,601190,0
2096921,2096921,179186,601006,0
2096921,2096921,179006,601148,0
2096921,2096921,179362,601125,0
2096921,2096921,178800,601142,0
2096921,2096921,179281,601062,0
2096921,2096921,178947,601119,0
2096921,2096921,178821,601220,0
2096921,2096921,179020,601168,0
2096921,2096921,179558,601382,0
2096921,2096921,179326,601369,0
2096921,2096921,179108,601320,0
2096921,2096921,179048,601212,0
2096921,2096921,179067,601422,0
2096921,2096921,179313,601462,0
2096921,2096921,179140,601454,0
2096921,2096921,179205,601211,0
2096921,2096921,179007,601341,0
2096921,2096921,179105,601402,0
2096921,2096921,179114,601441,0
2096921,2096921,179173,601342,0
2096921,2096921,179389,601365,0
2096921,2096921,179399,601339,0
2096921,2096921,179630,601730,0
2096921,2096921,179395,601508,0
2096921,2096921,179343,601676,0
2096921,2096921,179244,601815,0
2096921,2096921,178993,601679,0
2096921,2096921,179354,601819,0
2096921,2096921,179361,601613,0
2096921,2096921,179215,601859,0
2096921,2096921,179383,601954,0
2096921,2096921,179525,601936,0
2096921,2096921,179209,601958,0
2096921,2096921,179285,601713,0
2096921,2096921,179407,601976,0
2096921,2096921,179255,601850,0
2096921,2096921,179204,601780,0
2096921,2096921,179391,601826,0
2096921,2096921,179059,601997,0
2096921,2096921,179331,601982,0
2096921,2096921,179248,601900,0
2096921,2096921,179495,601917,0
2096921,2096921,179352,601802,0
2096921,2096921,178951,601962,0
2096921,2096921,179346,601845,0
2096921,2096921,179343,602023,0
2096921,2096921,179330,602024,0
2096921,2096921,179537,601808,0
2096921,2096921,179526,601676,0
2096921,2096921,179439,601875,0
2096921,2096921,179382,601997,0
2096921,2096921,179440,602113,0
2096921,2096921,179424,602179,0
2096921,2096921,179549,602006,0
2096921,2096921,179526,601978,0
2096921,2096921,179779,602173,0
2096921,2096921,179283,602095,0
2096921,2096921,179427,602267,0
2096921,2096921,179350,602352,0
2096921,2096921,179602,602592,0
2096921,2096921,179541,602187,0
2096921,2096921,179807,602260,0
2096921,2096921,179645,602136,0
2096921,2096921,179697,602096,0
2096921,2096921,179548,602249,0
2096921,2096921,179580,601976,0
2096921,2096921,179211,602403,0
2096921,2096921,179185,602363,0
2096921,2096921,179525,602263,0
2096921,2096921,179777,602553,0
2096921,2096921,179597,602362,0
2096921,2096921,179690,602245,0
2096921,2096921,179463,602269,0
2096921,2096921,179672,602097,0
2096921,2096921,179567,601957,0
2096921,2096921,179591,602154,0
2096921,2096921,179213,602025,0
2096921,2096921,179231,602087,0
2096921,2096921,179322,602364,0
2096921,2096921,179338,602142,0
2096921,2096921,179427,602069,0
2096921,2096921,179690,602548,0
2096921,2096921,179176,602496,0
2096921,2096921,179566,602398,0
2096921,2096921,179432,602302,0
2096921,2096921,179456,602222,0
2096921,2096921,179442,602278,0
2096921,2096921,179315,602280,0
2096921,2096921,179532,602167,0
2096921,2096921,179563,602469,0
2096921,2096921,179590,602071,0
2096921,2096921,179509,602452,0
2096921,2096921,179557,602529,0
2096921,2096921,179729,602443,0
2096921,2096921,179875,602420,0
2096921,2096921,179590,602071,0
2096921,2096921,179662,602183,0
2096921,2096921,179368,602129,0
2096921,2096921,179596,602174,0
2096921,2096921,179299,602244,0
2096921,2096921,179574,602118,0
2096921,2096921,179468,602357,0
2096921,2096921,179330,602125,0
2096921,2096921,179587,602177,0
2096921,2096921,179712,602155,0
2096921,2096921,179642,602449,0
2096921,2096921,179489,602537,0
2096921,2096921,179672,602311,0
2096921,2096921,179617,602560,0
2096921,2096921,179423,602009,0
2096921,2096921,179451,602010,0
2096921,2096921,179451,602052,0
2096921,2096921,179357,601795,0
2096921,2096921,179686,602141,0
2096921,2096921,179166,601808,0
2096921,2096921,179379,601821,0
2096921,2096921,179070,601564,0
2096921,2096921,179122,601612,0
2096921,2096921,179227,601859,0
2096921,2096921,179135,601549,0
2096921,2096921,179033,601004,0
2096921,2096921,179273,600930,0
2096921,2096921,178829,600731,0
2096921,2096921,178942,600781,0
2096921,2096921,178735,600500,0
2096921,2096921,178096,600429,0
2096921,2096921,178332,600056,0
2096921,2096921,178531,599978,0
2096921,2096921,178467,600183,0
2096921,2096921,178254,599560,0
2096921,2096921,177867,599270,0
2096921,2096921,178107,599205,0
2096921,2096921,178070,599191,0
2096921,2096921,177957,599034,0
2096921,2096921,177304,597941,0
2096921,2096921,176934,596940,0
2096921,2096921,177008,596885,0
2096921,2096921,176931,596770,0
2096921,2096921,177087,596949,0
2096921,2096921,175777,595110,0
2096921,2096921,175699,594032,0
2096921,2096921,175583,593930,0
2096921,2096921,175586,593752,0
2096921,2096921,175278,594078,0
2096921,2096921,174815,592465,0
2096921,2096921,174419,592113,0
2096921,2096921,174534,591946,0
2096921,2096921,174612,591646,0
2096921,2096921,174554,591872,0
2096921,2096921,173734,590937,0
2096921,2096921,173942,590375,0
2096921,2096921,174062,590268,0
2096921,2096921,173963,590300,0
2096921,2096921,173933,590089,0
2096921,2096921,173279,589597,0
2096921,2096921,173301,589116,0
2096921,2096921,173179,589125,0
2096921,2096921,173164,589198,0
2096921,2096921,173298,589142,0
2096921,2096921,172913,588635,0
2096921,2096921,172954,588611,0
2096921,2096921,172904,588412,0
2096921,2096921,173161,588270,0
2096921,2096921,173279,588098,0
2096921,2096921,172981,587998,0
2096921,2096921,172629,587888,0
2096921,2096921,172570,587906,0
2096921,2096921,172682,587875,0
2096921,2096921,172797,587900,0
2096921,2096921,172513,587892,0
2096921,2096921,172507,587594,0
2096921,2096921,172683,587761,0
2096921,2096921,172249,587765,0
2096921,2096921,172486,587841,0
2096921,2096921,172417,587681,0
2096921,2096921,172362,587452,0
2096921,2096921,172371,587652,0
2096921,2096921,172476,587685,0
2096921,2096921,172802,587946,0
2096921,2096921,172794,587727,0
2096921,2096921,173045,587737,0
2096921,2096921,172828,587727,0
2096921,2096921,172775,588030,0
2096921,2096921,172516,587723,0
2096921,2096921,172606,588046,0
2096921,2096921,172889,588443,0
2096921,2096921,172645,588513,0
2096921,2096921,172874,588078,0
2096921,2096921,173150,588564,0
2096921,2096921,172846,588480,0
2096921,2096921,172958,588666,0
2096921,2096921,173033,588305,0
2096921,2096921,172873,588517,0
2096921,2096921,173085,588780,0
2096921,2096921,173140,589037,0
2096921,2096921,172888,589116,0
2096921,2096921,173283,589203,0
2096921,2096921,173139,589258,0
2096921,2096921,173082,589430,0
2096921,2096921,173635,589794,0
2096921,2096921,173382,589666,0
2096921,2096921,173400,589945,0
2096921,2096921,173310,589882,0
2096921,2096921,173170,589981,0
2096921,2096921,173569,590193,0
2096921,2096921,173786,590384,0
2096921,2096921,173747,590575,0
2096921,2096921,173709,590708,0
2096921,2096921,173645,590440,0
2096921,2096921,173930,591124,0
2096921,2096921,174192,591603,0
2096921,2096921,174163,591526,0
2096921,2096921,173936,591703,0
2096921,2096921,174166,591423,0
2096921,2096921,174206,591788,0
2096921,2096921,174245,592060,0
2096921,2096921,174123,591962,0
2096921,2096921,174051,592110,0
2096921,2096921,174381,591989,0
2096921,2096921,174780,592970,0
2096921,2096921,174546,593002,0
2096921,2096921,174841,593223,0
2096921,2096921,174758,592925,0
2096921,2096921,174873,592798,0
2096921,2096921,175063,593100,0
2096921,2096921,174930,593517,0
2096921,2096921,174621,593426,0
2096921,2096921,174983,593763,0
2096921,2096921,174884,593921,0
2096921,2096921,175300,594210,0
2096921,2096921,175445,594331,0
2096921,2096921,175349,594445,0
2096921,2096921,175368,594461,0
2096921,2096921,175441,594242,0
2096921,2096921,175153,594769,0
2096921,2096921,175499,595231,0
2096921,2096921,175556,595199,0
2096921,2096921,175758,595152,0
2096921,2096921,175575,595147,0
2096921,2096921,175880,595888,0
2096921,2096921,176063,595994,0
2096921,2096921,176014,596344,0
2096921,2096921,175939,596040,0
2096921,2096921,175841,596254,0
2096921,2096921,176035,596723,0
2096921,2096921,176188,597166,0
2096921,2096921,176435,597129,0
2096921,2096921,176238,597197,0
2096921,2096921,176264,596878,0
2096921,2096921,176790,597473,0
2096921,2096921,176468,597581,0
2096921,2096921,176423,597905,0
2096921,2096921,176569,598190,0
2096921,2096921,176747,597872,0
2096921,2096921,176877,597960,0
2096921,2096921,176907,598492,0
2096921,2096921,176890,598330,0
2096921,2096921,176898,598703,0
2096921,2096921,177208,598536,0
2096921,2096921,177451,598912,0
2096921,2096921,177422,599520,0
2096921,2096921,177197,599470,0
2096921,2096921,177195,598965,0
2096921,2096921,177313,599124,0
2096921,2096921,177344,599327,0
2096921,2096921,177270,600145,0
2096921,2096921,177147,600022,0
2096921,2096921,177580,600207,0
2096921,2096921,177676,600169,0
2096921,2096921,177764,600298,0
2096921,2096921,177625,600846,0
2096921,2096921,177621,600637,0
2096921,2096921,177863,600811,0
2096921,2096921,177768,600904,0
2096921,2096921,177965,600902,0
2096921,2096921,177733,600996,0
2096921,2096921,177834,601330,0
2096921,2096921,177911,601471,0
2096921,2096921,177914,601509,0
2096921,2096921,177961,601437,0
2096921,2096921,178172,601508,0
2096921,2096921,177931,601712,0
2096921,2096921,178000,602338,0
2096921,2096921,178066,601743,0
2096921,2096921,178214,602167,0
2096921,2096921,178113,602123,0
2096921,2096921,178403,601913,0
2096921,2096921,178301,602085,0
2096921,2096921,178213,602081,0
2096921,2096921,178310,602324,0
2096921,2096921,178512,602701,0
2096921,2096921,178464,602366,0
2096921,2096921,178332,602389,0
2096921,2096921,178306,602179,0
2096921,2096921,178427,602325,0
2096921,2096921,178278,602585,0
2096921,2096921,178426,602613,0
2096921,2096921,178348,603008,0
2096921,2096921,178504,602967,0
2096921,2096921,178465,603057,0
2096921,2096921,178573,603053,0
2096921,2096921,178340,603093,0
2096921,2096921,178492,602854,0
2096921,2096921,178315,603030,0
2096921,2096921,178530,602738,0
2096921,2096921,178466,603000,0
2096921,2096921,178581,602692,0
2096921,2096921,178572,602884,0
2096921,2096921,178695,602883,0
2096921,2096921,178578,602948,0
2096921,2096921,178276,603446,0
2096921,2096921,178361,603537,0
2096921,2096921,178459,603221,0
2096921,2096921,178181,602996,0
2096921,2096921,178278,603196,0
2096921,2096921,178363,603463,0
2096921,2096921,178801,603563,0
2096921,2096921,178756,603576,0
2096921,2096921,178393,603603,0
2096921,2096921,178605,603836,0
2096921,2096921,178577,603844,0
2096921,2096921,178583,603930,0
2096921,2096921,178732,604082,0
2096921,2096921,178778,603905,0
2096921,2096921,178697,604008,0
2096921,2096921,178795,604180,0
2096921,2096921,178514,604306,0
2096921,2096921,178875,604299,0
2096921,2096921,178859,604236,0
2096921,2096921,178995,604531,0
2096921,2096921,179045,604552,0
2096921,2096921,178983,604465,0
2096921,2096921,178818,604572,0
2096921,2096921,178987,604776,0
2096921,2096921,179085,604794,0
2096921,2096921,179125,605183,0
2096921,2096921,179225,605284,0
2096921,2096921,179114,605268,0
2096921,2096921,178912,605236,0
2096921,2096921,179089,605056,0
2096921,2096921,179542,605759,0
2096921,2096921,179630,605769,0
2096921,2096921,179351,605673,0
2096921,2096921,179387,605740,0
2096921,2096921,179543,605907,0
2096921,2096921,179396,606386,0
2096921,2096921,179373,606856,0
2096921,2096921,179758,606698,0
2096921,2096921,179526,606652,0
2096921,2096921,179938,606853,0
2096921,2096921,179732,607203,0
2096921,2096921,179764,607284,0
2096921,2096921,179560,607351,0
2096921,2096921,179891,607419,0
2096921,2096921,179910,607698,0
2096921,2096921,180165,608060,0
2096921,2096921,180236,607911,0
2096921,2096921,180386,608148,0
2096921,2096921,180295,608450,0
2096921,2096921,180470,608608,0
2096921,2096921,180482,608665,0
2096921,2096921,180522,608918,0
2096921,2096921,180595,608843,0
2096921,2096921,180519,608787,0
2096921,2096921,180729,608985,0
2096921,2096921,180693,609170,0
2096921,2096921,180377,609494,0
2096921,2096921,180702,609582,0
2096921,2096921,180938,609485,0
2096921,2096921,181231,609980,0
2096921,2096921,180760,610209,0
2096921,2096921,180763,610296,0
2096921,2096921,180813,610248,0
2096921,2096921,181192,610278,0
2096921,2096921,181547,610535,0
2096921,2096921,181312,610381,0
2096921,2096921,180942,610598,0
2096921,2096921,181059,610550,0
2096921,2096921,181087,610888,0
2096921,2096921,181306,611270,0
2096921,2096921,181358,611451,0
2096921,2096921,181759,611475,0
2096921,2096921,181662,611499,0
2096921,2096921,181675,611341,0
2096921,2096921,181901,611890,0
2096921,2096921,181651,612268,0
2096921,2096921,181687,611925,0
2096921,2096921,181864,612190,0
2096921,2096921,181695,611991,0
2096921,2096921,182009,612682,0
2096921,2096921,182258,612785,0
2096921,2096921,181894,613166,0
2096921,2096921,181949,612994,0
2096921,2096921,182013,613160,0
2096921,2096921,182254,613159,0
2096921,2096921,182358,613295,0
2096921,2096921,182204,613679,0
2096921,2096921,182297,613837,0
2096921,2096921,182346,613895,0
2096921,2096921,182456,614087,0
2096921,2096921,182608,614234,0
2096921,2096921,182404,614416,0
2096921,2096921,182610,614223,0
2096921,2096921,182673,614310,0
2096921,2096921,182884,614765,0
2096921,2096921,182620,614892,0
2096921,2096921,182894,614811,0
2096921,2096921,182866,614919,0
2096921,2096921,183013,614929,0
2096921,2096921,182944,615265,0
2096921,2096921,183048,615485,0
2096921,2096921,182788,615690,0
2096921,2096921,182961,615698,0
2096921,2096921,183019,615736,0
2096921,2096921,183200,616183,0
2096921,2096921,183262,616233,0
2096921,2096921,183332,616475,0
2096921,2096921,183089,616483,0
2096921,2096921,182693,616574,0
2096921,2096921,183305,616905,0
2096921,2096921,183705,616984,0
2096921,2096921,183481,617059,0
2096921,2096921,183477,617172,0
2096921,2096921,183531,617078,0
2096921,2096921,183632,617385,0
2096921,2096921,183709,617673,0
2096921,2096921,183778,617389,0
2096921,2096921,183805,617416,0
2096921,2096921,183967,617709,0
2096921,2096921,183963,618012,0
2096921,2096921,184389,618504,0
2096921,2096921,184067,618252,0
2096921,2096921,184051,618128,0
2096921,2096921,184097,618528,0
2096921,2096921,184411,618654,0
2096921,2096921,184091,618458,0
2096921,2096921,184333,618848,0
2096921,2096921,184141,618778,0
2096921,2096921,184313,619008,0
2096921,2096921,184464,619200,0
2096921,2096921,184517,619646,0
2096921,2096921,184399,619450,0
2096921,2096921,184710,619547,0
2096921,2096921,184446,619600,0
2096921,2096921,184588,619645,0
2096921,2096921,184809,619884,0
2096921,2096921,184608,620057,0
2096921,2096921,184605,619992,0
2096921,2096921,184721,619759,0
2096921,2096921,184712,620345,0
2096921,2096921,184599,620258,0
2096921,2096921,184907,620351,0
2096921,2096921,185080,620246,0
2096921,2096921,184838,620247,0
2096921,2096921,184932,620616,0
2096921,2096921,184787,620914,0
2096921,2096921,185056,620885,0
2096921,2096921,185080,620963,0
2096921,2096921,185006,621082,0
2096921,2096921,184755,620945,0
2096921,2096921,184896,621503,0
2096921,2096921,185300,621345,0
2096921,2096921,184970,621928,0
2096921,2096921,185063,621554,0
2096921,2096921,185052,621806,0
2096921,2096921,185610,621653,0
2096921,2096921,185448,621879,0
2096921,2096921,185577,622065,0
2096921,2096921,185541,622025,0
2096921,2096921,185615,622232,0
2096921,2096921,185591,622409,0
2096921,2096921,185300,622680,0
2096921,2096921,185437,622297,0
2096921,2096921,185342,622326,0
2096921,2096921,185542,622708,0
2096921,2096921,185776,622975,0
2096921,2096921,185693,622927,0
2096921,2096921,185801,622832,0
2096921,2096921,185712,622828,0
2096921,2096921,185699,622947,0
2096921,2096921,185995,623455,0
2096921,2096921,185856,623335,0
2096921,2096921,185676,623426,0
2096921,2096921,185786,623489,0
2096921,2096921,185580,623672,0
2096921,2096921,185884,623614,0
2096921,2096921,186018,623949,0
2096921,2096921,185956,623800,0
2096921,2096921,186024,623935,0
2096921,2096921,186317,624436,0
2096921,2096921,186131,624587,0
2096921,2096921,186195,624544,0
2096921,2096921,186262,624432,0
2096921,2096921,185988,624199,0
2096921,2096921,186258,624663,0
2096921,2096921,186393,625076,0
2096921,2096921,186315,624897,0
2096921,2096921,186224,624696,0
2096921,2096921,186144,624889,0
2096921,2096921,186470,625228,0
2096921,2096921,186499,625317,0
2096921,2096921,186631,625408,0
2096921,2096921,186402,625372,0
2096921,2096921,186551,625247,0
2096921,2096921,186349,625405,0
2096921,2096921,186484,625789,0
2096921,2096921,186847,625671,0
2096921,2096921,186805,625419,0
2096921,2096921,186962,625701,0
2096921,2096921,187226,625816,0
2096921,2096921,186987,626072,0
2096921,2096921,186751,626304,0
2096921,2096921,186621,626375,0
2096921,2096921,187168,626113,0
2096921,2096921,186788,626089,0
2096921,2096921,187094,626557,0
2096921,2096921,186957,626693,0
2096921,2096921,186895,626751,0
2096921,2096921,186887,626593,0
2096921,2096921,187502,626829,0
2096921,2096921,187324,627130,0
2096921,2096921,187085,627134,0
2096921,2096921,187062,627071,0
2096921,2096921,186928,627139,0
2096921,2096921,186926,627300,0
2096921,2096921,187570,627178,0
2096921,2096921,187571,627348,0
2096921,2096921,187507,627338,0
2096921,2096921,187427,627509,0
2096921,2096921,187525,627752,0
2096921,2096921,187415,628006,0
2096921,2096921,187564,627921,0
2096921,2096921,187334,627816,0
2096921,2096921,187446,628013,0
2096921,2096921,187565,627885,0
2096921,2096921,187587,628145,0
2096921,2096921,187521,628098,0
2096921,2096921,187497,628295,0
2096921,2096921,187367,628293,0
2096921,2096921,187542,628097,0
2096921,2096921,187728,628316,0
2096921,2096921,187552,628422,0
2096921,2096921,187854,628559,0
2096921,2096921,187766,628728,0
2096921,2096921,187647,628628,0
2096921,2096921,187828,628884,0
2096921,2096921,187932,628903,0
2096921,2096921,187696,629019,0
2096921,2096921,187639,629081,0
2096921,2096921,187944,629426,0
2096921,2096921,187927,629147,0
2096921,2096921,187842,629345,0
2096921,2096921,187830,628995,0
2096921,2096921,187746,629286,0
2096921,2096921,187636,629311,0
2096921,2096921,188192,629633,0
2096921,2096921,187968,629393,0
2096921,2096921,187636,629647,0
2096921,2096921,187841,629695,0
2096921,2096921,188055,629800,0
2096921,2096921,188354,630011,0
2096921,2096921,188227,629916,0
2096921,2096921,188075,629567,0
2096921,2096921,188087,630155,0
2096921,2096921,188031,630200,0
2096921,2096921,187987,630197,0
2096921,2096921,188297,630422,0
2096921,2096921,188100,630138,0
2096921,2096921,188555,630127,0
2096921,2096921,188136,630192,0
2096921,2096921,188103,630469,0
2096921,2096921,188032,630248,0
2096921,2096921,188179,630443,0
2096921,2096921,188186,630550,0
2096921,2096921,188211,630444,0
2096921,2096921,188261,630502,0
2096921,2096921,188404,630608,0
2096921,2096921,188302,630700,0
2096921,2096921,188325,630730,0
2096921,2096921,188413,630717,0
2096921,2096921,188810,631189,0
2096921,2096921,188253,631087,0
2096921,2096921,188320,631054,0
2096921,2096921,188308,630711,0
2096921,2096921,188414,630989,0
2096921,2096921,188183,631287,0
2096921,2096921,188303,631217,0
2096921,2096921,188523,631274,0
2096921,2096921,188970,631480,0
2096921,2096921,188920,631264,0
2096921,2096921,188721,631496,0
2096921,2096921,188550,631249,0
2096921,2096921,188598,631577,0
2096921,2096921,188703,631582,0
2096921,2096921,188601,631461,0
2096921,2096921,188688,631542,0
2096921,2096921,188697,631347,0
2096921,2096921,188548,631545,0
2096921,2096921,188521,631487,0
2096921,2096921,188804,631715,0
2096921,2096921,188951,631945,0
2096921,2096921,188447,631924,0
2096921,2096921,188686,631781,0
2096921,2096921,188535,631685,0
2096921,2096921,188655,631699,0
2096921,2096921,188492,631672,0
2096921,2096921,188656,631850,0
2096921,2096921,188726,631819,0
2096921,2096921,188917,632094,0
2096921,2096921,188757,631658,0
2096921,2096921,188384,631612,0
2096921,2096921,188616,631398,0
2096921,2096921,188623,631554,0
2096921,2096921,188357,631709,0
2096921,2096921,188174,631689,0
2096921,2096921,188235,631367,0
2096921,2096921,188087,631354,0
2096921,2096921,188409,631094,0
2096921,2096921,188220,631458,0
2096921,2096921,188013,630931,0
2096921,2096921,187890,630725,0
2096921,2096921,187863,630686,0
2096921,2096921,188086,630690,0
2096921,2096921,188016,630528,0
2096921,2096921,187727,630172,0
2096921,2096921,187573,629842,0
2096921,2096921,187621,629686,0
2096921,2096921,187638,629671,0
2096921,2096921,187485,629641,0
2096921,2096921,187196,629157,0
2096921,2096921,187031,628826,0
2096921,2096921,187099,628748,0
2096921,2096921,186972,628974,0
2096921,2096921,187258,628785,0
2096921,2096921,186057,627268,0
2096921,2096921,186059,626242,0
2096921,2096921,186038,626246,0
2096921,2096921,186030,625941,0
2096921,2096921,186109,626257,0
2096921,2096921,185076,624491,0
2096921,2096921,184696,623649,0
2096921,2096921,184498,623060,0
2096921,2096921,184333,623144,0
2096921,2096921,184762,623311,0
2096921,2096921,183768,621581,0
2096921,2096921,183638,621157,0
2096921,2096921,183529,621222,0
2096921,2096921,183821,621198,0
2096921,2096921,183468,621218,0
2096921,2096921,183014,619987,0
2096921,2096921,182798,619387,0
2096921,2096921,182792,619289,0
2096921,2096921,182706,619103,0
2096921,2096921,182727,619178,0
2096921,2096921,182308,618388,0
2096921,2096921,182197,617871,0
2096921,2096921,182009,617854,0
2096921,2096921,181996,618189,0
2096921,2096921,181938,618075,0
2096921,2096921,181891,617445,0
2096921,2096921,181784,617197,0
2096921,2096921,181791,617358,0
2096921,2096921,181592,617372,0
2096921,2096921,181788,617174,0
2096921,2096921,181473,616736,0
2096921,2096921,181537,616690,0
2096921,2096921,181521,616547,0
2096921,2096921,181757,616372,0
2096921,2096921,181431,616608,0
2096921,2096921,181582,616448,0
2096921,2096921,181584,616251,0
2096921,2096921,181432,616221,0
2096921,2096921,181367,615866,0
2096921,2096921,181500,616122,0
2096921,2096921,181203,616153,0
2096921,2096921,181138,616249,0
2096921,2096921,181485,616206,0
2096921,2096921,181466,616272,0
2096921,2096921,181189,615923,0
2096921,2096921,181454,616105,0
2096921,2096921,181273,616165,0
2096921,2096921,181280,616290,0
2096921,2096921,181192,616178,0
2096921,2096921,181449,616026,0
2096921,2096921,181667,616128,0
2096921,2096921,181160,616184,0
2096921,2096921,181187,616290,0
2096921,2096921,181081,616579,0
2096921,2096921,181234,616548,0
2096921,2096921,181484,616681,0
2096921,2096921,181591,616600,0
2096921,2096921,181727,616737,0
2096921,2096921,181518,616581,0
2096921,2096921,181618,616436,0
2096921,2096921,181649,616797,0
2096921,2096921,181531,616839,0
2096921,2096921,181626,616676,0
2096921,2096921,181521,616847,0
2096921,2096921,181655,617259,0
2096921,2096921,181666,617365,0
2096921,2096921,181812,617365,0
2096921,2096921,181770,617459,0
2096921,2096921,181846,617302,0
2096921,2096921,181823,617280,0
2096921,2096921,182073,617435,0
2096921,2096921,181749,617935,0
2096921,2096921,181927,618006,0
2096921,2096921,181682,617955,0
2096921,2096921,182194,617833,0
2096921,2096921,182059,618101,0
2096921,2096921,182207,618464,0
2096921,2096921,182214,618626,0
2096921,2096921,182225,618543,0
2096921,2096921,182202,618590,0
2096921,2096921,182765,618743,0
2096921,2096921,182418,618777,0
2096921,2096921,182444,618552,0
2096921,2096921,182518,619193,0
2096921,2096921,182484,619073,0
2096921,2096921,182725,619456,0
2096921,2096921,182699,619935,0
2096921,2096921,182778,619456,0
2096921,2096921,182700,619491,0
2096921,2096921,182752,619523,0
2096921,2096921,182827,619899,0
2096921,2096921,182910,620040,0
2096921,2096921,183051,620098,0
2096921,2096921,183021,620132,0
2096921,2096921,183048,619979,0
2096921,2096921,183106,620304,0
2096921,2096921,183309,620747,0
2096921,2096921,183051,620901,0
2096921,2096921,183219,620505,0
2096921,2096921,183153,620222,0
2096921,2096921,183617,620665,0
2096921,2096921,183174,620982,0
2096921,2096921,183731,620998,0
2096921,2096921,183340,620936,0
2096921,2096921,183308,621072,0
2096921,2096921,183894,621583,0
2096921,2096921,183922,621680,0
2096921,2096921,183783,621948,0
2096921,2096921,183776,621857,0
2096921,2096921,184021,621948,0
2096921,2096921,184089,622001,0
2096921,2096921,183839,621958,0
2096921,2096921,184153,622059,0
2096921,2096921,184379,622167,0
2096921,2096921,184387,622103,0
2096921,2096921,184058,622596,0
2096921,2096921,184448,622839,0
2096921,2096921,184661,622829,0
2096921,2096921,184445,622567,0
2096921,2096921,184454,622721,0
2096921,2096921,184436,622813,0
2096921,2096921,184509,623348,0
2096921,2096921,184439,623381,0
2096921,2096921,184407,623357,0
2096921,2096921,184693,623306,0
2096921,2096921,184901,623562,0
2096921,2096921,184790,623986,0
2096921,2096921,184743,623774,0
2096921,2096921,184801,623750,0
2096921,2096921,184709,623751,0
2096921,2096921,184693,624385,0
2096921,2096921,184814,624249,0
2096921,2096921,184941,624131,0
2096921,2096921,185015,624189,0
2096921,2096921,184934,624155,0
2096921,2096921,185051,624383,0
2096921,2096921,184853,624543,0
2096921,2096921,185313,624285,0
2096921,2096921,185032,624619,0
2096921,2096921,185164,624601,0
2096921,2096921,185009,624901,0
2096921,2096921,185035,624760,0
2096921,2096921,185508,624876,0
2096921,2096921,185083,624961,0
2096921,2096921,185179,624836,0
2096921,2096921,185255,624960,0
2096921,2096921,185282,625016,0
2096921,2096921,185031,624973,0
2096921,2096921,185008,625205,0
2096921,2096921,185636,625051,0
2096921,2096921,185337,625075,0
2096921,2096921,185135,625036,0
2096921,2096921,185052,624805,0
2096921,2096921,185065,624769,0
2096921,2096921,185230,624966,0
2096921,2096921,185408,625201,0
2096921,2096921,185123,624975,0
2096921,2096921,185319,624969,0
2096921,2096921,185130,625135,0
2096921,2096921,185221,624979,0
2096921,2096921,185296,624843,0
2096921,2096921,185087,624973,0
2096921,2096921,185137,624937,0
2096921,2096921,185259,624969,0
2096921,2096921,185125,624977,0
2096921,2096921,184978,624702,0
2096921,2096921,185135,624719,0
2096921,2096921,185265,624816,0
2096921,2096921,185014,624663,0
2096921,2096921,185237,624488,0
2096921,2096921,184954,624468,0
2096921,2096921,185214,624464,0
2096921,2096921,184924,624511,0
2096921,2096921,184810,624532,0
2096921,2096921,184911,624654,0
2096921,2096921,185034,624277,0
2096921,2096921,185099,624136,0
2096921,2096921,185047,624364,0
2096921,2096921,185032,624157,0
2096921,2096921,184952,624110,0
2096921,2096921,184706,624075,0
2096921,2096921,184769,624099,0
2096921,2096921,184811,624402,0
2096921,2096921,185026,624392,0
2096921,2096921,184919,624395,0
2096921,2096921,185150,624404,0
2096921,2096921,184732,624079,0
2096921,2096921,184807,623927,0
2096921,2096921,184892,624083,0
2096921,2096921,184880,623874,0
2096921,2096921,184845,623983,0
2096921,2096921,184934,623853,0
2096921,2096921,185120,623785,0
2096921,2096921,184915,624166,0
2096921,2096921,184870,624086,0
2096921,2096921,185015,624134,0
2096921,2096921,185050,624085,0
2096921,2096921,184818,624313,0
2096921,2096921,184685,624159,0
2096921,2096921,185197,624152,0
2096921,2096921,184855,624487,0
2096921,2096921,184807,624662,0
2096921,2096921,185027,624296,0
2096921,2096921,185164,624410,0
2096921,2096921,185051,624356,0
2096921,2096921,184918,624627,0
2096921,2096921,184797,624869,0
2096921,2096921,184981,624707,0
2096921,2096921,184967,624417,0
2096921,2096921,185141,624637,0
2096921,2096921,185254,624548,0
2096921,2096921,185069,624589,0
2096921,2096921,185089,624958,0
2096921,2096921,185247,625039,0
2096921,2096921,185193,624980,0
2096921,2096921,185534,625128,0
2096921,2096921,185595,625143,0
2096921,2096921,185406,625769,0
2096921,2096921,185439,625447,0
2096921,2096921,185211,625232,0
2096921,2096921,185306,625520,0
2096921,2096921,185514,625712,0
2096921,2096921,185838,625417,0
2096921,2096921,185617,625701,0
2096921,2096921,185462,625723,0
2096921,2096921,185556,625655,0
2096921,2096921,185560,625878,0
2096921,2096921,185733,625973,0
2096921,2096921,185795,625743,0
2096921,2096921,185869,625717,0
2096921,2096921,186063,625876,0
2096921,2096921,185948,626000,0
2096921,2096921,185879,626217,0
2096921,2096921,185729,626046,0
2096921,2096921,185944,626128,0
2096921,2096921,186183,626145,0
2096921,2096921,186263,626164,0
2096921,2096921,186248,626177,0
2096921,2096921,186137,626126,0
2096921,2096921,185711,626264,0
2096921,2096921,185988,626675,0
2096921,2096921,185875,626535,0
2096921,2096921,186241,626691,0
2096921,2096921,186058,626567,0
2096921,2096921,185935,626509,0
2096921,2096921,185891,626966,0
2096921,2096921,186290,626514,0
2096921,2096921,186271,626851,0
2096921,2096921,186196,626851,0
2096921,2096921,186052,626616,0
2096921,2096921,186332,626916,0
2096921,2096921,186335,627142,0
2096921,2096921,186394,627167,0
2096921,2096921,186529,627119,0
2096921,2096921,186081,626969,0
2096921,2096921,186520,627277,0
2096921,2096921,186629,627383,0
2096921,2096921,186625,627268,0
2096921,2096921,186111,627187,0
2096921,2096921,186221,627109,0
2096921,2096921,186508,627241,0
2096921,2096921,186364,627055,0
2096921,2096921,186380,626950,0
2096921,2096921,186426,627378,0
2096921,2096921,186500,627209,0
2096921,2096921,186339,627797,0
2096921,2096921,186794,627548,0
2096921,2096921,186503,627690,0
2096921,2096921,187063,627458,0
2096921,2096921,186638,627434,0
2096921,2096921,186624,627390,0
2096921,2096921,186519,627458,0
2096921,2096921,186513,627538,0
2096921,2096921,186450,627512,0
2096921,2096921,186581,627672,0
2096921,2096921,186777,627822,0
2096921,2096921,187145,627628,0
2096921,2096921,186865,627750,0
2096921,2096921,186754,627975,0
2096921,2096921,186690,627927,0
2096921,2096921,186712,627747,0
2096921,2096921,186800,627638,0
2096921,2096921,186894,627939,0
2096921,2096921,186840,627764,0
2096921,2096921,186970,628066,0
2096921,2096921,187000,628041,0
2096921,2096921,186866,627978,0
2096921,2096921,187133,628187,0
2096921,2096921,187165,627974,0
2096921,2096921,186995,628382,0
2096921,2096921,187030,628081,0
2096921,2096921,186728,628310,0
2096921,2096921,187080,628409,0
2096921,2096921,187121,628121,0
2096921,2096921,186862,628388,0
2096921,2096921,186834,627841,0
2096921,2096921,187120,628243,0
2096921,2096921,187128,627929,0
2096921,2096921,187037,628245,0
2096921,2096921,186747,628334,0
2096921,2096921,187061,628554,0
2096921,2096921,187041,628211,0
2096921,2096921,187154,628252,0
2096921,2096921,187186,628303,0
2096921,2096921,186938,628364,0
2096921,2096921,187002,628400,0
2096921,2096921,187198,628287,0
2096921,2096921,187231,628138,0
2096921,2096921,187220,627954,0
2096921,2096921,187255,628203,0
2096921,2096921,187200,628165,0
2096921,2096921,187403,628161,0
2096921,2096921,187053,627952,0
2096921,2096921,187193,627842,0
2096921,2096921,187052,628204,0
2096921,2096921,187297,628306,0
2096921,2096921,186756,628268,0
2096921,2096921,187096,628408,0
2096921,2096921,187170,628177,0
2096921,2096921,187255,628063,0
2096921,2096921,187224,627987,0
2096921,2096921,186998,627878,0
2096921,2096921,186874,628155,0
2096921,2096921,187275,627943,0
2096921,2096921,187077,628034,0
2096921,2096921,187350,628050,0
2096921,2096921,187347,628270,0
2096921,2096921,187325,628188,0
2096921,2096921,187037,627993,0
2096921,2096921,187375,627857,0
2096921,2096921,187033,627997,0
2096921,2096921,187125,627892,0
2096921,2096921,187232,627920,0
2096921,2096921,187301,627765,0
2096921,2096921,187288,627879,0
2096921,2096921,187364,627905,0
2096921,2096921,187031,627905,0
2096921,2096921,187205,627935,0
2096921,2096921,187184,627871,0
2096921,2096921,187133,627948,0
2096921,2096921,187321,627791,0
2096921,2096921,187161,627826,0
2096921,2096921,186976,627415,0
2096921,2096921,187197,627790,0
2096921,2096921,187253,627780,0
2096921,2096921,187168,627845,0
2096921,2096921,187232,627363,0
2096921,2096921,187209,627709,0
2096921,2096921,186997,627780,0
2096921,2096921,187093,627846,0
2096921,2096921,187280,627725,0
2096921,2096921,186861,627420,0
2096921,2096921,187019,627174,0
2096921,2096921,187224,627564,0
2096921,2096921,187284,627485,0
2096921,2096921,186862,627555,0
2096921,2096921,186990,627007,0
2096921,2096921,187122,627568,0
2096921,2096921,187200,627613,0
2096921,2096921,187271,627336,0
2096921,2096921,187096,627528,0
2096921,2096921,187069,627167,0
2096921,2096921,187126,626793,0
2096921,2096921,186750,626938,0
2096921,2096921,187046,627091,0
2096921,2096921,186962,627247,0
2096921,2096921,187103,626821,0
2096921,2096921,186916,626883,0
2096921,2096921,187166,626835,0
2096921,2096921,187080,626757,0
2096921,2096921,187081,626771,0
2096921,2096921,186879,626649,0
2096921,2096921,186965,626942,0
2096921,2096921,186990,626856,0
2096921,2096921,187065,626600,0
2096921,2096921,186954,626717,0
2096921,2096921,186686,626447,0
2096921,2096921,186817,626801,0
2096921,2096921,186876,626246,0
2096921,2096921,186801,626287,0
2096921,2096921,186764,626116,0
2096921,2096921,186764,626186,0
2096921,2096921,186563,626201,0
2096921,2096921,186694,626310,0
2096921,2096921,186853,626572,0
2096921,2096921,186794,626041,0
2096921,2096921,186917,625918,0
2096921,2096921,186983,625961,0
2096921,2096921,186902,625964,0
2096921,2096921,186818,626051,0
2096921,2096921,186482,625758,0
2096921,2096921,186525,625474,0
2096921,2096921,186578,625654,0
2096921,2096921,186563,625528,0
2096921,2096921,186903,625798,0
2096921,2096921,186756,625922,0
2096921,2096921,186660,625405,0
2096921,2096921,186401,625579,0
2096921,2096921,186517,625521,0
2096921,2096921,186724,625814,0
2096921,2096921,186597,625545,0
2096921,2096921,186653,625308,0
2096921,2096921,186574,625197,0
2096921,2096921,186613,625246,0
2096921,2096921,186855,625321,0
2096921,2096921,186504,625075,0
2096921,2096921,186542,624897,0
2096921,2096921,186544,625153,0
2096921,2096921,186396,625096,0
2096921,2096921,186494,624901,0
2096921,2096921,186228,624936,0
2096921,2096921,186378,625074,0
2096921,2096921,186274,624785,0
2096921,2096921,186363,624799,0
2096921,2096921,186687,624836,0
2096921,2096921,186381,624633,0
2096921,2096921,186379,624526,0
2096921,2096921,186415,624839,0
2096921,2096921,186277,624239,0
2096921,2096921,186229,624099,0
2096921,2096921,186296,624371,0
2096921,2096921,186330,624147,0
2096921,2096921,186405,624237,0
2096921,2096921,186326,624301,0
2096921,2096921,186261,624421,0
2096921,2096921,186264,624113,0
2096921,2096921,186180,623883,0
2096921,2096921,186143,623719,0
2096921,2096921,186132,624075,0
2096921,2096921,186156,623709,0
2096921,2096921,186035,623665,0
2096921,2096921,185884,623702,0
2096921,2096921,185842,623440,0
2096921,2096921,185803,623693,0
2096921,2096921,185909,623777,0
2096921,2096921,186110,623347,0
2096921,2096921,186134,623146,0
2096921,2096921,185930,623274,0
2096921,2096921,185767,623362,0
2096921,2096921,185607,623187,0
2096921,2096921,185532,622923,0
2096921,2096921,185781,622811,0
2096921,2096921,185619,623092,0
2096921,2096921,185913,622697,0
2096921,2096921,185955,622739,0
2096921,2096921,186085,622562,0
2096921,2096921,185999,622388,0
2096921,2096921,185902,622419,0
2096921,2096921,185773,622497,0
2096921,2096921,185880,622681,0
2096921,2096921,185642,622354,0
2096921,2096921,185700,622071,0
2096921,2096921,185601,622100,0
2096921,2096921,185658,621832,0
2096921,2096921,185736,622171,0
2096921,2096921,185706,621889,0
2096921,2096921,185481,621655,0
2096921,2096921,185650,621718,0
2096921,2096921,185275,621680,0
2096921,2096921,185302,621537,0
2096921,2096921,185304,621235,0
2096921,2096921,185454,621350,0
2096921,2096921,185393,621509,0
2096921,2096921,185358,621474,0
2096921,2096921,185211,621228,0
2096921,2096921,185364,621095,0
2096921,2096921,185401,620991,0
2096921,2096921,185174,621070,0
2096921,2096921,185343,621070,0
2096921,2096921,185238,620986,0
2096921,2096921,185164,620602,0
2096921,2096921,185250,620584,0
2096921,2096921,184947,620208,0
2096921,2096921,185061,620410,0
2096921,2096921,184989,620288,0
2096921,2096921,184968,620017,0
2096921,2096921,184958,619910,0
2096921,2096921,185012,619380,0
2096921,2096921,184640,619393,0
2096921,2096921,184710,619581,0
2096921,2096921,184327,619021,0
2096921,2096921,184354,618602,0
2096921,2096921,184331,618691,0
2096921,2096921,184456,618842,0
2096921,2096921,184497,618589,0
2096921,2096921,184370,618090,0
2096921,2096921,183804,617831,0
2096921,2096921,184056,617669,0
2096921,2096921,183935,617809,0
2096921,2096921,184027,617642,0
2096921,2096921,183665,616761,0
2096921,2096921,183303,616186,0
2096921,2096921,183310,615942,0
2096921,2096921,183289,615756,0
2096921,2096921,183572,615937,0
2096921,2096921,182835,615385,0
2096921,2096921,182673,614788,0
2096921,2096921,182571,614594,0
2096921,2096921,182629,614520,0
2096921,2096921,182722,614660,0
2096921,2096921,181773,612898,0
2096921,2096921,181241,611941,0
2096921,2096921,181283,611649,0
2096921,2096921,181755,611684,0
2096921,2096921,181577,611595,0
2096921,2096921,180198,609908,0
2096921,2096921,179981,608782,0
2096921,2096921,179810,608305,0
2096921,2096921,179902,608135,0
2096921,2096921,179936,608414,0
2096921,2096921,179059,606531,0
2096921,2096921,178783,605705,0
2096921,2096921,178809,605432,0
2096921,2096921,178791,605802,0
2096921,2096921,178809,605262,0
2096921,2096921,178115,604258,0
2096921,2096921,177725,603664,0
2096921,2096921,177737,603472,0
2096921,2096921,177415,603143,0
2096921,2096921,177781,603611,0
2096921,2096921,177401,602495,0
2096921,2096921,177403,601653,0
2096921,2096921,177495,601576,0
2096921,2096921,177263,601705,0
2096921,2096921,177106,601798,0
2096921,2096921,176803,601101,0
2096921,2096921,176753,600761,0
2096921,2096921,176765,600765,0
2096921,2096921,176671,600447,0
2096921,2096921,176491,600421,0
2096921,2096921,176416,599783,0
2096921,2096921,176143,599257,0
2096921,2096921,176257,599444,0
2096921,2096921,176100,599217,0
2096921,2096921,176286,599542,0
2096921,2096921,176046,599163,0
2096921,2096921,176266,598614,0
2096921,2096921,175832,598627,0
2096921,2096921,175972,598698,0
2096921,2096921,175952,598327,0
2096921,2096921,175720,597955,0
2096921,2096921,175564,597818,0
2096921,2096921,175579,598007,0
2096921,2096921,175790,597768,0
2096921,2096921,175721,598074,0
2096921,2096921,175756,597815,0
2096921,2096921,175847,597893,0
2096921,2096921,175858,597638,0
2096921,2096921,175488,597714,0
2096921,2096921,175643,597757,0
2096921,2096921,175569,597820,0
2096921,2096921,175596,597400,0
2096921,2096921,175568,597560,0
2096921,2096921,175844,597521,0
2096921,2096921,175632,597431,0
2096921,2096921,175633,597696,0
2096921,2096921,175706,597333,0
2096921,2096921,175798,597250,0
2096921,2096921,175475,597411,0
2096921,2096921,175402,597373,0
2096921,2096921,175445,597467,0
2096921,2096921,175139,596927,0
2096921,2096921,175676,597278,0
2096921,2096921,175326,597134,0
2096921,2096921,175341,597216,0
2096921,2096921,175660,597240,0
2096921,2096921,175847,597351,0
2096921,2096921,175905,597204,0
2096921,2096921,175805,597110,0
2096921,2096921,175687,597178,0
2096921,2096921,175685,597129,0
2096921,2096921,175593,597194,0
2096921,2096921,175834,597193,0
2096921,2096921,175779,597346,0
2096921,2096921,175588,597282,0
2096921,2096921,175587,597449,0
2096921,2096921,175847,597801,0
2096921,2096921,176001,597372,0
2096921,2096921,175927,597498,0
2096921,2096921,175987,597452,0
2096921,2096921,175738,597884,0
2096921,2096921,175934,597616,0
2096921,2096921,175980,597696,0
2096921,2096921,176209,597533,0
2096921,2096921,176035,597848,0
2096921,2096921,176287,597881,0
2096921,2096921,176330,597821,0
2096921,2096921,176359,598048,0
2096921,2096921,176279,597646,0
2096921,2096921,176167,597855,0
2096921,2096921,176222,597896,0
2096921,2096921,176389,597986,0
2096921,2096921,175969,598087,0
2096921,2096921,176050,598172,0
2096921,2096921,176226,598268,0
2096921,2096921,176251,598450,0
2096921,2096921,176646,598338,0
2096921,2096921,176638,598070,0
2096921,2096921,176466,598016,0
2096921,2096921,176495,597968,0
2096921,2096921,176289,598652,0
2096921,2096921,176189,598191,0
2096921,2096921,176437,598516,0
2096921,2096921,176620,598436,0
2096921,2096921,176782,598624,0
2096921,2096921,177109,598615,0
2096921,2096921,176910,598427,0
2096921,2096921,177113,598883,0
2096921,2096921,176706,598642,0
2096921,2096921,176706,598535,0
2096921,2096921,176691,598837,0
2096921,2096921,176631,598998,0
2096921,2096921,176953,598809,0
2096921,2096921,176942,599116,0
2096921,2096921,176796,599139,0
2096921,2096921,176966,599152,0
2096921,2096921,176889,598987,0
2096921,2096921,176987,599034,0
2096921,2096921,177035,599066,0
2096921,2096921,177251,598990,0
2096921,2096921,176886,599407,0
2096921,2096921,177154,599299,0
2096921,2096921,177345,599428,0
2096921,2096921,177393,599016,0
2096921,2096921,177464,599081,0
2096921,2096921,177372,599342,0
2096921,2096921,177337,599597,0
2096921,2096921,177412,599569,0
2096921,2096921,177230,599240,0
2096921,2096921,177484,598759,0
2096921,2096921,177408,599621,0
2096921,2096921,177344,599352,0
2096921,2096921,176897,599531,0
2096921,2096921,177394,599557,0
2096921,2096921,177208,599758,0
2096921,2096921,177535,599492,0
2096921,2096921,177411,599909,0
2096921,2096921,177321,599431,0
2096921,2096921,177166,599474,0
2096921,2096921,177537,599322,0
2096921,2096921,177268,599185,0
2096921,2096921,177415,599294,0
2096921,2096921,177236,599372,0
2096921,2096921,176975,599589,0
2096921,2096921,177272,599425,0
2096921,2096921,177177,599433,0
2096921,2096921,177492,599456,0
2096921,2096921,177469,599240,0
2096921,2096921,177294,599174,0
2096921,2096921,177357,599053,0
2096921,2096921,177364,599110,0
2096921,2096921,177547,599087,0
2096921,2096921,177359,599180,0
2096921,2096921,177696,599315,0
2096921,2096921,177564,599328,0
2096921,2096921,177293,599211,0
2096921,2096921,177304,599022,0
2096921,2096921,177316,598981,0
2096921,2096921,177319,598964,0
2096921,2096921,177394,599060,0
2096921,2096921,177199,598911,0
2096921,2096921,177059,598754,0
2096921,2096921,177321,598340,0
2096921,2096921,177014,598413,0
2096921,2096921,177143,598530,0
2096921,2096921,177159,598656,0
2096921,2096921,177316,598042,0
2096921,2096921,176939,598119,0
2096921,2096921,176917,598169,0
2096921,2096921,176939,598105,0
2096921,2096921,176964,598089,0
2096921,2096921,176956,597823,0
2096921,2096921,176905,597773,0
2096921,2096921,176847,597398,0
2096921,2096921,177058,597565,0
2096921,2096921,176700,597687,0
2096921,2096921,176703,597679,0
2096921,2096921,176599,597441,0
2096921,2096921,176773,597054,0
2096921,2096921,176768,596892,0
2096921,2096921,176452,596762,0
2096921,2096921,176325,596727,0
2096921,2096921,176485,596509,0
2096921,2096921,176434,596859,0
2096921,2096921,176573,596707,0
2096921,2096921,176421,596398,0
2096921,2096921,176394,596472,0
2096921,2096921,176257,596427,0
2096921,2096921,176121,596409,0
2096921,2096921,176145,596109,0
2096921,2096921,176209,596394,0
2096921,2096921,176423,595973,0
2096921,2096921,176360,596496,0
2096921,2096921,176251,596275,0
2096921,2096921,176161,596229,0
2096921,2096921,176257,596086,0
2096921,2096921,176206,596168,0
2096921,2096921,176275,596312,0
2096921,2096921,176342,596036,0
2096921,2096921,176124,595836,0
2096921,2096921,176375,596140,0
2096921,2096921,176367,595948,0
2096921,2096921,176279,595763,0
2096921,2096921,176150,595966,0
2096921,2096921,176631,596289,0
2096921,2096921,176308,596099,0
2096921,2096921,176654,595959,0
2096921,2096921,176274,595830,0
2096921,2096921,176342,595865,0
2096921,2096921,176274,595925,0
2096921,2096921,176410,596184,0
2096921,2096921,176207,596014,0
2096921,2096921,176428,596056,0
2096921,2096921,176589,595953,0
2096921,2096921,176372,596198,0
2096921,2096921,176674,596480,0
2096921,2096921,176900,596512,0
2096921,2096921,176652,596500,0
2096921,2096921,176529,596728,0
2096921,2096921,176535,596502,0
2096921,2096921,176470,596518,0
2096921,2096921,176704,596363,0
2096921,2096921,176631,596273,0
2096921,2096921,176846,596530,0
2096921,2096921,176777,596574,0
2096921,2096921,176908,596726,0
2096921,2096921,176760,596830,0
2096921,2096921,176691,596866,0
2096921,2096921,176756,596648,0
2096921,2096921,176769,596260,0
2096921,2096921,176940,596867,0
2096921,2096921,176852,596620,0
2096921,2096921,176720,597172,0
2096921,2096921,176824,597125,0
2096921,2096921,177035,596908,0
2096921,2096921,177153,597033,0
2096921,2096921,177208,596948,0
2096921,2096921,176786,596997,0
2096921,2096921,176948,597056,0
2096921,2096921,176826,596926,0
2096921,2096921,176726,597172,0
2096921,2096921,176986,597115,0
2096921,2096921,176997,597013,0
2096921,2096921,177037,596816,0
2096921,2096921,176929,597125,0
2096921,2096921,177324,597318,0
2096921,2096921,177117,597479,0
2096921,2096921,177208,597632,0
2096921,2096921,177134,597228,0
2096921,2096921,176823,597105,0
2096921,2096921,177021,597363,0
2096921,2096921,177054,597449,0
2096921,2096921,177283,597536,0
2096921,2096921,177183,597355,0
2096921,2096921,177266,597440,0
2096921,2096921,177442,597861,0
2096921,2096921,177309,597694,0
2096921,2096921,177433,597916,0
2096921,2096921,177386,597677,0
2096921,2096921,177109,597916,0
2096921,2096921,177479,597733,0
2096921,2096921,177250,597473,0
2096921,2096921,177459,597636,0
2096921,2096921,177488,597616,0
2096921,2096921,177366,597993,0
2096921,2096921,177598,597854,0
2096921,2096921,177664,598004,0
2096921,2096921,177384,598011,0
2096921,2096921,177379,598192,0
2096921,2096921,177266,598013,0
2096921,2096921,177230,597927,0
2096921,2096921,177539,598169,0
2096921,2096921,177597,598037,0
2096921,2096921,177814,598147,0
2096921,2096921,177758,597933,0
2096921,2096921,177533,598175,0
2096921,2096921,177635,598352,0
2096921,2096921,177622,598519,0
2096921,2096921,177572,598371,0
2096921,2096921,177672,598222,0
2096921,2096921,177863,598486,0
2096921,2096921,177984,598392,0
2096921,2096921,178051,598342,0
2096921,2096921,177646,598692,0
2096921,2096921,177603,598902,0
2096921,2096921,177991,599000,0
2096921,2096921,177934,598744,0
2096921,2096921,178104,598476,0
2096921,2096921,177833,598389,0
2096921,2096921,178048,598374,0
2096921,2096921,177843,598778,0
2096921,2096921,177860,598857,0
2096921,2096921,178121,599083,0
2096921,2096921,178076,599201,0
2096921,2096921,177968,599040,0
2096921,2096921,178008,599008,0
2096921,2096921,178158,598850,0
2096921,2096921,177933,599099,0
2096921,2096921,178087,598891,0
2096921,2096921,178158,599072,0
2096921,2096921,178011,599170,0
2096921,2096921,178049,599117,0
2096921,2096921,178045,599246,0
2096921,2096921,178122,599424,0
2096921,2096921,178364,599389,0
2096921,2096921,178465,599432,0
2096921,2096921,178419,599369,0
2096921,2096921,178140,599450,0
2096921,2096921,178025,599540,0
2096921,2096921,178034,599245,0
2096921,2096921,178095,599313,0
2096921,2096921,178426,599604,0
2096921,2096921,178400,599571,0
2096921,2096921,178359,599590,0
2096921,2096921,178314,599341,0
2096921,2096921,178496,599706,0
2096921,2096921,178524,599707,0
2096921,2096921,178441,599409,0
2096921,2096921,178559,599825,0
2096921,2096921,178505,599603,0
2096921,2096921,178573,599533,0
2096921,2096921,178348,600074,0
2096921,2096921,178671,599741,0
2096921,2096921,178659,599961,0
2096921,2096921,178593,599944,0
2096921,2096921,178413,600059,0
2096921,2096921,178821,599952,0
2096921,2096921,178601,600265,0
2096921,2096921,178428,600252,0
2096921,2096921,178477,600102,0
2096921,2096921,178560,600090,0
2096921,2096921,178608,600383,0
2096921,2096921,178567,600178,0
2096921,2096921,178505,600180,0
2096921,2096921,178685,600262,0
2096921,2096921,178706,600426,0
2096921,2096921,178566,600482,0
2096921,2096921,178765,600504,0
2096921,2096921,178604,600335,0
2096921,2096921,178653,600215,0
2096921,2096921,178642,600340,0
2096921,2096921,178547,600574,0
2096921,2096921,178642,600812,0
2096921,2096921,179003,600977,0
2096921,2096921,178851,600713,0
2096921,2096921,178847,600553,0
2096921,2096921,178826,600805,0
2096921,2096921,178804,600494,0
2096921,2096921,179067,600549,0
2096921,2096921,178763,600542,0
2096921,2096921,178986,600929,0
2096921,2096921,179008,600881,0
2096921,2096921,179117,600638,0
2096921,2096921,179091,601043,0
2096921,2096921,178777,600855,0
2096921,2096921,179004,601052,0
2096921,2096921,179111,601273,0
2096921,2096921,179272,600857,0
2096921,2096921,179337,600999,0
2096921,2096921,179144,600934,0
2096921,2096921,178859,601038,0
2096921,2096921,178696,601116,0
2096921,2096921,178919,600972,0
2096921,2096921,178869,601050,0
2096921,2096921,178901,600924,0
2096921,2096921,178943,601075,0
2096921,2096921,179254,600949,0
2096921,2096921,178821,601019,0
2096921,2096921,179068,601203,0
2096921,2096921,178908,601258,0
2096921,2096921,178788,601289,0
2096921,2096921,179081,600997,0
2096921,2096921,179258,601075,0
2096921,2096921,179254,601266,0
2096921,2096921,178987,600951,0
2096921,2096921,179374,601238,0
2096921,2096921,179193,601345,0
2096921,2096921,179062,601463,0
2096921,2096921,179261,601462,0
2096921,2096921,179204,601409,0
2096921,2096921,179111,601468,0
2096921,2096921,178988,601199,0
2096921,2096921,179231,601615,0
2096921,2096921,179049,601316,0
2096921,2096921,179184,601603,0
2096921,2096921,179363,601439,0
2096921,2096921,179264,601541,0
2096921,2096921,179203,601357,0
2096921,2096921,179220,601670,0
2096921,2096921,179228,601651,0
2096921,2096921,179348,601679,0
2096921,2096921,179371,601692,0
2096921,2096921,179135,601936,0
2096921,2096921,179229,601593,0
2096921,2096921,179239,601947,0
2096921,2096921,179112,602059,0
2096921,2096921,179354,601865,0
2096921,2096921,179599,601751,0
2096921,2096921,179627,601752,0
2096921,2096921,179452,601702,0
2096921,2096921,179231,601532,0
2096921,2096921,179330,601780,0
2096921,2096921,179174,601940,0
2096921,2096921,179553,602052,0
2096921,2096921,179423,601976,0
2096921,2096921,179606,601986,0
2096921,2096921,179507,602112,0
2096921,2096921,179404,602364,0
2096921,2096921,179328,601951,0
2096921,2096921,179283,602091,0
2096921,2096921,179179,601983,0
2096921,2096921,179473,601736,0
2096921,2096921,179259,601866,0
2096921,2096921,179663,602010,0
2096921,2096921,179341,602135,0
2096921,2096921,179710,602214,0
2096921,2096921,179589,602012,0
2096921,2096921,179535,602059,0
2096921,2096921,179382,602239,0
2096921,2096921,179636,601801,0
2096921,2096921,179397,602122,0
2096921,2096921,179326,602003,0
2096921,2096921,179355,601925,0
2096921,2096921,179592,602156,0
2096921,2096921,179475,601955,0
2096921,2096921,179579,602128,0
2096921,2096921,179533,602214,0
2096921,2096921,179457,602326,0
2096921,2096921,179181,602193,0
2096921,2096921,179242,602324,0
2096921,2096921,179473,602068,0
2096921,2096921,179386,601959,0
2096921,2096921,179621,601936,0
2096921,2096921,179679,601997,0
2096921,2096921,179418,602155,0
2096921,2096921,179527,602214,0
2096921,2096921,179527,602337,0
2096921,2096921,179474,602143,0
2096921,2096921,179526,601949,0
2096921,2096921,179780,601947,0
2096921,2096921,179656,601966,0
2096921,2096921,179516,601968,0
2096921,2096921,179417,602023,0
2096921,2096921,179531,602136,0
2096921,2096921,179710,602156,0
2096921,2096921,179716,602227,0
2096921,2096921,179622,602252,0
2096921,2096921,179407,602229,0
2096921,2096921,179366,602140,0
2096921,2096921,179639,602355,0
2096921,2096921,179578,602119,0
2096921,2096921,179417,602089,0
2096921,2096921,179841,602097,0
2096921,2096921,179787,602446,0
2096921,2096921,179533,602253,0
2096921,2096921,179487,602279,0
2096921,2096921,179370,602080,0
2096921,2096921,179389,602417,0
2096921,2096921,179519,602194,0
2096921,2096921,179602,601762,0
2096921,2096921,179528,602346,0
2096921,2096921,179806,602272,0
2096921,2096921,179576,602098,0
2096921,2096921,179261,602604,0
2096921,2096921,179485,602419,0
2096921,2096921,179708,602093,0
2096921,2096921,179558,602252,0
2096921,2096921,179444,602225,0
2096921,2096921,179619,602191,0
2096921,2096921,179720,602318,0
2096921,2096921,179447,602363,0
2096921,2096921,179506,602342,0
2096921,2096921,179898,601977,0
2096921,2096921,179497,602171,0
2096921,2096921,179548,602404,0
2096921,2096921,179283,602102,0
2096921,2096921,179330,602075,0
2096921,2096921,179331,602125,0
2096921,2096921,179363,601909,0
2096921,2096921,179135,601913,0
2096921,2096921,179198,601630,0
2096921,2096921,179305,601449,0
2096921,2096921,179220,601549,0
2096921,2096921,179034,601807,0
2096921,2096921,179190,601304,0
2096921,2096921,178843,601325,0
2096921,2096921,178684,601040,0
2096921,2096921,178791,601053,0
2096921,2096921,178826,601013,0
2096921,2096921,178690,600552,0
2096921,2096921,178152,600241,0
2096921,2096921,178218,599832,0
2096921,2096921,178546,599869,0
2096921,2096921,178429,599832,0
2096921,2096921,178449,599652,0
2096921,2096921,178085,599449,0
2096921,2096921,177806,599337,0
2096921,2096921,177820,599083,0
2096921,2096921,178069,598511,0
2096921,2096921,178019,598621,0
2096921,2096921,177075,597423,0
2096921,2096921,176859,596707,0
2096921,2096921,176974,596637,0
2096921,2096921,176671,596816,0
2096921,2096921,176680,596445,0
2096921,2096921,175723,594513,0
2096921,2096921,175619,593809,0
2096921,2096921,175517,593716,0
2096921,2096921,175512,593525,0
2096921,2096921,175160,593502,0
2096921,2096921,174576,592128,0
2096921,2096921,174474,591391,0
2096921,2096921,174556,591382,0
2096921,2096921,174585,591802,0
2096921,2096921,174579,591514,0
2096921,2096921,174214,590513,0
2096921,2096921,173896,589977,0
2096921,2096921,173817,589825,0
2096921,2096921,173705,589983,0
2096921,2096921,173594,589870,0
2096921,2096921,173274,589334,0
2096921,2096921,173154,588984,0
2096921,2096921,173140,588423,0
2096921,2096921,173064,588746,0
2096921,2096921,173340,589001,0
2096921,2096921,173163,588343,0
2096921,2096921,172742,588065,0
2096921,2096921,172890,587930,0
2096921,2096921,172966,588189,0
2096921,2096921,172922,588097,0
2096921,2096921,172597,587515,0
2096921,2096921,172314,587380,0
2096921,2096921,172492,587365,0
2096921,2096921,172371,587807,0
2096921,2096921,172470,587346,0
2096921,2096921,172629,587252,0
2096921,2096921,172634,587301,0
2096921,2096921,172469,587390,0
2096921,2096921,172294,587279,0
2096921,2096921,172502,587031,0
2096921,2096921,172608,587418,0
2096921,2096921,172539,587381,0
2096921,2096921,172537,587713,0
2096921,2096921,172506,587242,0
2096921,2096921,172612,587091,0
2096921,2096921,172523,587485,0
2096921,2096921,172690,587510,0
2096921,2096921,172677,587363,0
2096921,2096921,172573,587442,0
2096921,2096921,172501,587514,0
2096921,2096921,172418,587616,0
2096921,2096921,172451,588061,0
2096921,2096921,172744,588107,0
2096921,2096921,172609,588018,0
2096921,2096921,172834,588024,0
2096921,2096921,172805,588084,0
2096921,2096921,172631,588283,0
2096921,2096921,172821,588069,0
2096921,2096921,172797,588037,0
2096921,2096921,173088,588259,0
2096921,2096921,172998,588063,0
2096921,2096921,172935,588705,0
2096921,2096921,172897,588714,0
2096921,2096921,172902,588423,0
2096921,2096921,172861,588596,0
2096921,2096921,173391,589056,0
2096921,2096921,173259,589403,0
2096921,2096921,173323,589411,0
2096921,2096921,173243,589159,0
2096921,2096921,173177,589240,0
2096921,2096921,173574,589833,0
2096921,2096921,173451,590198,0
2096921,2096921,173449,589947,0
2096921,2096921,173836,590108,0
2096921,2096921,173537,590348,0
2096921,2096921,173886,591019,0
2096921,2096921,173935,590803,0
2096921,2096921,174030,590661,0
2096921,2096921,174044,590591,0
2096921,2096921,174093,590944,0
2096921,2096921,174069,591516,0
2096921,2096921,173904,591510,0
2096921,2096921,174050,591617,0
2096921,2096921,174179,591508,0
2096921,2096921,174295,591469,0
2096921,2096921,174596,591716,0
2096921,2096921,174597,592342,0
2096921,2096921,174501,592286,0
2096921,2096921,174620,592324,0
2096921,2096921,174636,592335,0
2096921,2096921,175101,592768,0
2096921,2096921,174842,592795,0
2096921,2096921,174841,593064,0
2096921,2096921,174878,593156,0
2096921,2096921,174697,593256,0
2096921,2096921,174894,593895,0
2096921,2096921,175021,593766,0
2096921,2096921,174990,593745,0
2096921,2096921,174975,593761,0
2096921,2096921,175203,593941,0
2096921,2096921,175236,594447,0
2096921,2096921,175216,594664,0
2096921,2096921,175288,594654,0
2096921,2096921,175477,594691,0
2096921,2096921,175334,594387,0
2096921,2096921,175551,595132,0
2096921,2096921,175692,595277,0
2096921,2096921,175834,595561,0
2096921,2096921,175808,595656,0
2096921,2096921,175764,595716,0
2096921,2096921,176087,596061,0
2096921,2096921,176240,596465,0
2096921,2096921,175971,596427,0
2096921,2096921,176149,596307,0
2096921,2096921,176168,596363,0
2096921,2096921,176433,596993,0
2096921,2096921,176414,597098,0
2096921,2096921,176503,597222,0
2096921,2096921,176392,597105,0
2096921,2096921,176530,597126,0
2096921,2096921,176695,597590,0
2096921,2096921,176602,597990,0
2096921,2096921,177025,597629,0
2096921,2096921,176860,597998,0
2096921,2096921,176889,598183,0
2096921,2096921,177050,598692,0
2096921,2096921,176962,598897,0
2096921,2096921,176849,598822,0
2096921,2096921,176995,598615,0
2096921,2096921,177023,598624,0
2096921,2096921,177068,598859,0
2096921,2096921,177275,599485,0
2096921,2096921,177205,599335,0
2096921,2096921,177098,599497,0
2096921,2096921,177149,599523,0
2096921,2096921,177558,599862,0
2096921,2096921,177572,599868,0
2096921,2096921,177386,599997,0
2096921,2096921,177292,600354,0
2096921,2096921,177398,600103,0
2096921,2096921,177871,600215,0
2096921,2096921,178008,600392,0
2096921,2096921,177910,600700,0
2096921,2096921,177621,600467,0
2096921,2096921,177742,600346,0
2096921,2096921,177984,600766,0
2096921,2096921,178139,600785,0
2096921,2096921,178070,600846,0
2096921,2096921,178262,601056,0
2096921,2096921,178026,601291,0
2096921,2096921,177935,601260,0
2096921,2096921,177827,601236,0
2096921,2096921,177873,601406,0
2096921,2096921,177923,601549,0
2096921,2096921,178126,601668,0
2096921,2096921,177952,601836,0
2096921,2096921,178013,602038,0
2096921,2096921,178079,601902,0
2096921,2096921,178357,601781,0
2096921,2096921,178240,601980,0
2096921,2096921,178439,601733,0
2096921,2096921,178474,601995,0
2096921,2096921,178210,602186,0
2096921,2096921,178019,602255,0
2096921,2096921,178078,601783,0
2096921,2096921,178364,601851,0
2096921,2096921,178597,602351,0
2096921,2096921,178373,602062,0
2096921,2096921,178124,602193,0
2096921,2096921,178081,602141,0
2096921,2096921,178127,602389,0
2096921,2096921,178636,602564,0
2096921,2096921,178380,602739,0
2096921,2096921,178362,602529,0
2096921,2096921,178418,602380,0
2096921,2096921,178198,602504,0
2096921,2096921,178173,602776,0
2096921,2096921,178209,602308,0
2096921,2096921,178136,602464,0
2096921,2096921,178289,602722,0
2096921,2096921,178067,602696,0
2096921,2096921,178259,602755,0
2096921,2096921,178230,602753,0
2096921,2096921,178162,602569,0
2096921,2096921,178485,602707,0
2096921,2096921,178478,602839,0
2096921,2096921,178602,603086,0
2096921,2096921,178292,603182,0
2096921,2096921,178342,603305,0
2096921,2096921,178338,603027,0
2096921,2096921,178511,603285,0
2096921,2096921,178661,603190,0
2096921,2096921,178699,603409,0
2096921,2096921,178459,603335,0
2096921,2096921,178552,603470,0
2096921,2096921,178644,603974,0
2096921,2096921,178740,604203,0
2096921,2096921,178750,603992,0
2096921,2096921,178499,604106,0
2096921,2096921,178407,603861,0
2096921,2096921,178458,604239,0
2096921,2096921,178866,604269,0
2096921,2096921,178769,604570,0
2096921,2096921,178947,604463,0
2096921,2096921,179062,604265,0
2096921,2096921,178945,604761,0
2096921,2096921,178839,604851,0
2096921,2096921,178748,605088,0
2096921,2096921,179166,604868,0
2096921,2096921,179057,605039,0
2096921,2096921,178978,605149,0
2096921,2096921,179301,605823,0
2096921,2096921,179277,605946,0
2096921,2096921,179157,605736,0
2096921,2096921,179433,605829,0
2096921,2096921,179441,606250,0
2096921,2096921,179578,606388,0
2096921,2096921,179685,606251,0
2096921,2096921,179293,606627,0
2096921,2096921,179381,606522,0
2096921,2096921,179686,606722,0
2096921,2096921,180022,607263,0
2096921,2096921,179972,607109,0
2096921,2096921,180064,606950,0
2096921,2096921,180252,607132,0
2096921,2096921,180371,607727,0
2096921,2096921,180242,607822,0
2096921,2096921,180379,607769,0
2096921,2096921,180402,607908,0
2096921,2096921,179987,607607,0
2096921,2096921,180714,607876,0
2096921,2096921,180454,608555,0
2096921,2096921,180382,608520,0
2096921,2096921,180598,608523,0
2096921,2096921,180601,608632,0
2096921,2096921,180738,609191,0
2096921,2096921,180799,609331,0
2096921,2096921,180688,609166,0
2096921,2096921,180538,609294,0
2096921,2096921,180461,609221,0
2096921,2096921,180711,609641,0
2096921,2096921,181086,609620,0
2096921,2096921,180950,609823,0
2096921,2096921,180908,610185,0
2096921,2096921,180928,609974,0
2096921,2096921,181223,610318,0
2096921,2096921,181127,610554,0
2096921,2096921,181111,610612,0
2096921,2096921,181229,610752,0
2096921,2096921,181267,610566,0
2096921,2096921,181619,611072,0
2096921,2096921,181580,611444,0
2096921,2096921,181484,611325,0
2096921,2096921,181507,611595,0
2096921,2096921,181733,611745,0
2096921,2096921,181884,612011,0
2096921,2096921,181644,612200,0
2096921,2096921,181739,612193,0
2096921,2096921,181667,612051,0
2096921,2096921,181669,612356,0
2096921,2096921,182045,612603,0
2096921,2096921,182197,612854,0
2096921,2096921,181976,612993,0
2096921,2096921,181767,612709,0
2096921,2096921,182095,612811,0
2096921,2096921,182057,612962,0
2096921,2096921,182085,613375,0
2096921,2096921,181947,613398,0
2096921,2096921,182411,613341,0
2096921,2096921,182164,613189,0
2096921,2096921,182523,613758,0
2096921,2096921,182371,613843,0
2096921,2096921,182200,614168,0
2096921,2096921,182463,614145,0
2096921,2096921,182637,614336,0
2096921,2096921,182773,614440,0
2096921,2096921,182771,614688,0
2096921,2096921,182669,614987,0
2096921,2096921,182708,614649,0
2096921,2096921,182611,615032,0
2096921,2096921,182932,615252,0
2096921,2096921,182903,615337,0
2096921,2096921,183278,615378,0
2096921,2096921,182970,615435,0
2096921,2096921,183126,615500,0
2096921,2096921,183198,616048,0
2096921,2096921,183211,616274,0
2096921,2096921,183307,616237,0
2096921,2096921,183165,616124,0
2096921,2096921,182866,616206,0
2096921,2096921,183409,616523,0
2096921,2096921,183440,616783,0
2096921,2096921,183364,616912,0
2096921,2096921,183329,616861,0
2096921,2096921,183635,617104,0
2096921,2096921,183789,616964,0
2096921,2096921,183760,617613,0
2096921,2096921,183586,617550,0
2096921,2096921,183789,617431,0
2096921,2096921,183780,617532,0
2096921,2096921,184107,617662,0
2096921,2096921,184113,617731,0
2096921,2096921,184076,617796,0
2096921,2096921,184198,618110,0
2096921,2096921,183939,617897,0
2096921,2096921,184299,618336,0
2096921,2096921,184169,618659,0
2096921,2096921,184330,618711,0
2096921,2096921,184249,618526,0
2096921,2096921,184287,618533,0
2096921,2096921,184706,618995,0
2096921,2096921,184688,619340,0
2096921,2096921,184864,619386,0
2096921,2096921,184417,619363,0
2096921,2096921,184226,619275,0
2096921,2096921,184661,619611,0
2096921,2096921,184456,619850,0
2096921,2096921,184589,619783,0
2096921,2096921,184935,619754,0
2096921,2096921,184855,619637,0
2096921,2096921,185061,620218,0
2096921,2096921,184696,620305,0
2096921,2096921,184795,620297,0
2096921,2096921,184868,620314,0
2096921,2096921,184796,620479,0
2096921,2096921,184790,620746,0
2096921,2096921,184465,621322,0
2096921,2096921,184773,621153,0
2096921,2096921,185050,621247,0
2096921,2096921,184925,621087,0
2096921,2096921,185055,621315,0
2096921,2096921,185040,621544,0
2096921,2096921,185313,621442,0
2096921,2096921,185370,621386,0
2096921,2096921,185486,621595,0
2096921,2096921,185256,621768,0
2096921,2096921,185539,622017,0
2096921,2096921,185312,622059,0
2096921,2096921,185498,622051,0
2096921,2096921,185405,621786,0
2096921,2096921,185495,622252,0
2096921,2096921,185426,622103,0
2096921,2096921,185418,622355,0
2096921,2096921,185701,622442,0
2096921,2096921,185666,622654,0
2096921,2096921,185606,622976,0
2096921,2096921,185847,622883,0
2096921,2096921,185747,622943,0
2096921,2096921,185619,622846,0
2096921,2096921,185531,623073,0
2096921,2096921,185806,623373,0
2096921,2096921,185791,623529,0
2096921,2096921,185933,623678,0
2096921,2096921,186098,623518,0
2096921,2096921,186097,623476,0
2096921,2096921,185957,623918,0
2096921,2096921,186157,624167,0
2096921,2096921,186197,624120,0
2096921,2096921,186073,623933,0
2096921,2096921,186331,623836,0
2096921,2096921,186208,624454,0
2096921,2096921,186630,624116,0
2096921,2096921,185944,624106,0
2096921,2096921,186085,624562,0
2096921,2096921,186107,624658,0
2096921,2096921,186135,624774,0
2096921,2096921,186411,624838,0
2096921,2096921,186403,624840,0
2096921,2096921,186086,624909,0
2096921,2096921,186125,624777,0
2096921,2096921,186397,625078,0
2096921,2096921,186558,625420,0
2096921,2096921,186617,625355,0
2096921,2096921,186476,625337,0
2096921,2096921,186456,625626,0
2096921,2096921,186462,625589,0
2096921,2096921,186456,625706,0
2096921,2096921,186688,625681,0
2096921,2096921,186437,625669,0
2096921,2096921,186479,625464,0
2096921,2096921,186753,626099,0
2096921,2096921,186780,626104,0
2096921,2096921,186729,626207,0
2096921,2096921,186660,626374,0
2096921,2096921,186759,626276,0
2096921,2096921,186891,626313,0
2096921,2096921,186872,626382,0
2096921,2096921,187211,626140,0
2096921,2096921,186879,626272,0
2096921,2096921,187048,626527,0
2096921,2096921,187006,627005,0
2096921,2096921,186926,627149,0
2096921,2096921,186873,627163,0
2096921,2096921,187258,627376,0
2096921,2096921,187539,626894,0
2096921,2096921,187178,627159,0
2096921,2096921,187071,627501,0
2096921,2096921,187172,627439,0
2096921,2096921,187378,627534,0
2096921,2096921,187235,627647,0
2096921,2096921,187241,627758,0
2096921,2096921,187322,627896,0
2096921,2096921,187300,627680,0
2096921,2096921,187431,627739,0
2096921,2096921,187461,628025,0
2096921,2096921,187653,628331,0
2096921,2096921,187587,628665,0
2096921,2096921,187510,628371,0
2096921,2096921,187780,628118,0
2096921,2096921,187742,628195,0
2096921,2096921,187760,628463,0
2096921,2096921,187641,628912,0
2096921,2096921,187673,628671,0
2096921,2096921,187552,628546,0
2096921,2096921,187772,628773,0
2096921,2096921,187956,629173,0
2096921,2096921,187892,629005,0
2096921,2096921,187812,628980,0
2096921,2096921,187735,628921,0
2096921,2096921,187759,629251,0
2096921,2096921,188059,629138,0
2096921,2096921,187922,629292,0
2096921,2096921,187964,629521,0
2096921,2096921,188107,629392,0
2096921,2096921,187865,629398,0
2096921,2096921,187941,629692,0
2096921,2096921,188019,629712,0
2096921,2096921,187732,629611,0
2096921,2096921,187904,629534,0
2096921,2096921,187968,629418,0
2096921,2096921,188075,629882,0
2096921,2096921,188142,629956,0
2096921,2096921,188240,629982,0
2096921,2096921,188101,630017,0
2096921,2096921,188238,629957,0
2096921,2096921,188098,630119,0
2096921,2096921,188357,630123,0
2096921,2096921,188194,630139,0
2096921,2096921,188115,630165,0
2096921,2096921,187903,630210,0
2096921,2096921,187968,630397,0
2096921,2096921,187831,630166,0
2096921,2096921,188019,630276,0
2096921,2096921,188131,630545,0
2096921,2096921,188325,630389,0
2096921,2096921,188271,630631,0
2096921,2096921,188116,630852,0
2096921,2096921,188238,630956,0
2096921,2096921,188240,630754,0
2096921,2096921,188257,630933,0
2096921,2096921,188509,630637,0
2096921,2096921,188477,630592,0
2096921,2096921,188382,630896,0
2096921,2096921,188106,630972,0
2096921,2096921,188427,630869,0
2096921,2096921,188460,631164,0
2096921,2096921,188613,631235,0
2096921,2096921,188458,631417,0
2096921,2096921,188774,631107,0
2096921,2096921,188148,631220,0
2096921,2096921,188264,631136,0
2096921,2096921,188416,631424,0
2096921,2096921,188379,631082,0
2096921,2096921,188153,631252,0
2096921,2096921,188254,631119,0
2096921,2096921,188387,631602,0
2096921,2096921,188588,631259,0
2096921,2096921,188461,631529,0
2096921,2096921,188758,631895,0
2096921,2096921,188711,631688,0
2096921,2096921,188750,631649,0
2096921,2096921,188767,631564,0
2096921,2096921,188739,631710,0
2096921,2096921,188930,631875,0
2096921,2096921,188644,631991,0
2096921,2096921,188435,631691,0
2096921,2096921,188413,631577,0
2096921,2096921,188784,631136,0
2096921,2096921,188718,631169,0
2096921,2096921,188536,631303,0
2096921,2096921,188414,631197,0
2096921,2096921,188114,631201,0
2096921,2096921,188103,631046,0
2096921,2096921,188240,631155,0
2096921,2096921,188399,631013,0
2096921,2096921,188222,630585,0
2096921,2096921,187962,630397,0
2096921,2096921,187717,630417,0
2096921,2096921,188119,630166,0
2096921,2096921,187866,630066,0
2096921,2096921,187691,629670,0
2096921,2096921,187616,629395,0
2096921,2096921,187467,629351,0
2096921,2096921,187480,629576,0
2096921,2096921,187474,629653,0
2096921,2096921,187150,628574,0
2096921,2096921,187077,628578,0
2096921,2096921,187215,628259,0
2096921,2096921,187185,628608,0
2096921,2096921,187008,628607,0
2096921,2096921,186144,626822,0
2096921,2096921,185704,626210,0
2096921,2096921,185873,625879,0
2096921,2096921,185774,625789,0
2096921,2096921,185983,625977,0
2096921,2096921,184794,624032,0
2096921,2096921,184496,623403,0
2096921,2096921,184227,623302,0
2096921,2096921,184447,623025,0
2096921,2096921,184336,622799,0
2096921,2096921,183415,621283,0
2096921,2096921,183370,620916,0
2096921,2096921,183302,620601,0
2096921,2096921,183338,620629,0
2096921,2096921,183207,620839,0
2096921,2096921,182802,619798,0
2096921,2096921,182820,619207,0
2096921,2096921,182872,619252,0
2096921,2096921,182742,619078,0
2096921,2096921,182773,619131,0
2096921,2096921,182152,618389,0
2096921,2096921,182095,617889,0
2096921,2096921,181743,618083,0
2096921,2096921,182048,618101,0
2096921,2096921,182238,617911,0
2096921,2096921,181785,617343,0
2096921,2096921,181718,617186,0
2096921,2096921,181511,617009,0
2096921,2096921,181790,616805,0
2096921,2096921,181784,616781,0
2096921,2096921,181258,616400,0
2096921,2096921,181086,616554,0
2096921,2096921,181125,616527,0
2096921,2096921,181342,616408,0
2096921,2096921,181536,616358,0
2096921,2096921,181664,615837,0
2096921,2096921,181369,616260,0
2096921,2096921,181551,616140,0
2096921,2096921,181328,615999,0
2096921,2096921,181252,616007,0
2096921,2096921,181063,615952,0
2096921,2096921,181171,615944,0
2096921,2096921,181169,616210,0
2096921,2096921,181416,616198,0
2096921,2096921,181173,616064,0
2096921,2096921,181136,616368,0
2096921,2096921,181142,616243,0
2096921,2096921,181249,615981,0
2096921,2096921,181261,616031,0
2096921,2096921,181258,615963,0
2096921,2096921,181186,616145,0
2096921,2096921,181456,616205,0
2096921,2096921,181488,616519,0
2096921,2096921,181573,616546,0
2096921,2096921,181655,616410,0
2096921,2096921,181696,616514,0
2096921,2096921,181473,616483,0
2096921,2096921,181214,616564,0
2096921,2096921,181562,616596,0
2096921,2096921,181239,616575,0
2096921,2096921,181546,616752,0
2096921,2096921,181532,616957,0
2096921,2096921,181594,616494,0
2096921,2096921,181700,616800,0
2096921,2096921,181548,616830,0
2096921,2096921,181766,617536,0
2096921,2096921,181690,617287,0
2096921,2096921,181938,617400,0
2096921,2096921,181933,617271,0
2096921,2096921,181672,617652,0
2096921,2096921,181909,617965,0
2096921,2096921,182125,617586,0
2096921,2096921,182154,617907,0
2096921,2096921,182099,617842,0
2096921,2096921,181963,617717,0
2096921,2096921,181967,618210,0
2096921,2096921,182309,618457,0
2096921,2096921,182299,618362,0
2096921,2096921,182166,618133,0
2096921,2096921,182527,618283,0
2096921,2096921,182406,618621,0
2096921,2096921,182524,618919,0
2096921,2096921,182597,619053,0
2096921,2096921,182647,619192,0
2096921,2096921,182557,619177,0
2096921,2096921,182855,619655,0
2096921,2096921,183008,619601,0
2096921,2096921,182824,619753,0
2096921,2096921,182648,619681,0
2096921,2096921,182639,619616,0
2096921,2096921,182954,620195,0
2096921,2096921,182803,620100,0
2096921,2096921,183025,620267,0
2096921,2096921,183088,620256,0
2096921,2096921,183247,620138,0
2096921,2096921,183057,620505,0
2096921,2096921,183266,620639,0
2096921,2096921,183283,620417,0
2096921,2096921,183486,620492,0
2096921,2096921,183480,620654,0
2096921,2096921,183624,620833,0
2096921,2096921,183306,620992,0
2096921,2096921,183394,621027,0
2096921,2096921,183331,621146,0
2096921,2096921,183759,621130,0
2096921,2096921,183837,621573,0
2096921,2096921,184036,621597,0
2096921,2096921,184029,621682,0
2096921,2096921,183747,621734,0
2096921,2096921,183494,622013,0
2096921,2096921,184066,622004,0
2096921,2096921,184102,622398,0
2096921,2096921,184327,622259,0
2096921,2096921,183806,622215,0
2096921,2096921,184038,622249,0
2096921,2096921,184217,622744,0
2096921,2096921,184361,623093,0
2096921,2096921,184174,622714,0
2096921,2096921,184259,622620,0
2096921,2096921,184301,622804,0
2096921,2096921,184571,623230,0
2096921,2096921,184421,623003,0
2096921,2096921,184464,623405,0
2096921,2096921,184414,623486,0
2096921,2096921,184474,623391,0
2096921,2096921,184644,623784,0
2096921,2096921,184812,623801,0
2096921,2096921,184612,623766,0
2096921,2096921,184544,623891,0
2096921,2096921,184669,624028,0
2096921,2096921,184680,624436,0
2096921,2096921,184989,623981,0
2096921,2096921,184948,624441,0
2096921,2096921,185154,624355,0
2096921,2096921,184631,624161,0
2096921,2096921,185116,624394,0
2096921,2096921,185275,624579,0
2096921,2096921,185403,624795,0
2096921,2096921,184988,624500,0
2096921,2096921,185084,624289,0
2096921,2096921,185014,624611,0
2096921,2096921,185004,624746,0
2096921,2096921,185160,624949,0
2096921,2096921,185292,624821,0
2096921,2096921,185510,624664,0
2096921,2096921,185347,624824,0
2096921,2096921,185255,624709,0
2096921,2096921,185406,624888,0
2096921,2096921,185113,625019,0
2096921,2096921,185200,625070,0
2096921,2096921,185272,624838,0
2096921,2096921,185345,624688,0
2096921,2096921,185311,624908,0
2096921,2096921,185237,624806,0
2096921,2096921,185328,625078,0
2096921,2096921,185409,624946,0
2096921,2096921,185558,625420,0
2096921,2096921,185363,624949,0
2096921,2096921,185231,624868,0
2096921,2096921,185370,624850,0
2096921,2096921,185279,624875,0
2096921,2096921,184995,624774,0
2096921,2096921,184796,624990,0
2096921,2096921,185085,625252,0
2096921,2096921,185048,624932,0
2096921,2096921,184969,624908,0
2096921,2096921,184971,624918,0
2096921,2096921,184795,624585,0
2096921,2096921,185087,624858,0
2096921,2096921,185238,624753,0
2096921,2096921,185032,624724,0
2096921,2096921,185082,624386,0
2096921,2096921,184988,624407,0
2096921,2096921,184924,624471,0
2096921,2096921,185101,624396,0
2096921,2096921,184925,624635,0
2096921,2096921,185053,624389,0
2096921,2096921,185233,624188,0
2096921,2096921,185154,624375,0
2096921,2096921,185376,624496,0
2096921,2096921,184915,624081,0
2096921,2096921,184817,623976,0
2096921,2096921,184782,624417,0
2096921,2096921,185028,624192,0
2096921,2096921,184929,624217,0
2096921,2096921,184934,624163,0
2096921,2096921,184887,624506,0
2096921,2096921,184875,624441,0
2096921,2096921,184680,624175,0
2096921,2096921,185069,624066,0
2096921,2096921,184878,624052,0
2096921,2096921,185020,624113,0
2096921,2096921,185003,624096,0
2096921,2096921,185121,624159,0
2096921,2096921,184767,624199,0
2096921,2096921,184777,624318,0
2096921,2096921,185073,624139,0
2096921,2096921,184763,624186,0
2096921,2096921,185065,624205,0
2096921,2096921,185057,624202,0
2096921,2096921,185134,624463,0
2096921,2096921,184927,624766,0
2096921,2096921,185193,624370,0
2096921,2096921,185039,624601,0
2096921,2096921,185044,624216,0
2096921,2096921,184953,624291,0
2096921,2096921,185071,624341,0
2096921,2096921,185114,624506,0
2096921,2096921,185013,624515,0
2096921,2096921,184936,624316,0
2096921,2096921,185228,624370,0
2096921,2096921,185385,624853,0
2096921,2096921,185452,624961,0
2096921,2096921,185369,625293,0
2096921,2096921,185265,624995,0
2096921,2096921,185356,625269,0
2096921,2096921,185634,625477,0
2096921,2096921,185352,625298,0
2096921,2096921,185566,625327,0
2096921,2096921,185443,625244,0
2096921,2096921,185571,625420,0
2096921,2096921,185445,625925,0
2096921,2096921,185392,625740,0
2096921,2096921,185503,625574,0
2096921,2096921,185872,625549,0
2096921,2096921,185738,626146,0
2096921,2096921,185659,626074,0
2096921,2096921,185725,626215,0
2096921,2096921,185620,626003,0
2096921,2096921,185561,625984,0
2096921,2096921,186056,626289,0
2096921,2096921,185861,625917,0
2096921,2096921,186053,626313,0
2096921,2096921,185977,626460,0
2096921,2096921,185957,626369,0
2096921,2096921,185941,626339,0
2096921,2096921,185884,626520,0
2096921,2096921,185984,626427,0
2096921,2096921,185928,626268,0
2096921,2096921,186077,626445,0
2096921,2096921,186021,626541,0
2096921,2096921,185964,626740,0
2096921,2096921,186066,626845,0
2096921,2096921,186170,626322,0
2096921,2096921,186500,626337,0
2096921,2096921,186255,626676,0
2096921,2096921,186343,626826,0
2096921,2096921,186156,626846,0
2096921,2096921,186059,626982,0
2096921,2096921,186076,626971,0
2096921,2096921,186432,627170,0
2096921,2096921,186283,627339,0
2096921,2096921,186615,627487,0
2096921,2096921,186393,627294,0
2096921,2096921,186413,627083,0
2096921,2096921,186785,627422,0
2096921,2096921,186980,627110,0
2096921,2096921,186511,627397,0
2096921,2096921,186421,627496,0
2096921,2096921,186221,627554,0
2096921,2096921,186149,627586,0
2096921,2096921,186279,627516,0
2096921,2096921,186499,627577,0
2096921,2096921,186467,627962,0
2096921,2096921,186840,627730,0
2096921,2096921,186621,627904,0
2096921,2096921,186750,627931,0
2096921,2096921,186659,628000,0
2096921,2096921,186585,627844,0
2096921,2096921,186565,627833,0
2096921,2096921,186734,627559,0
2096921,2096921,186676,627807,0
2096921,2096921,186885,627917,0
2096921,2096921,186539,627970,0
2096921,2096921,186828,628124,0
2096921,2096921,186903,628276,0
2096921,2096921,186693,628220,0
2096921,2096921,186858,628152,0
2096921,2096921,186834,628051,0
2096921,2096921,186900,627931,0
2096921,2096921,186866,628355,0
2096921,2096921,186950,628122,0
2096921,2096921,186734,628176,0
2096921,2096921,186706,628132,0
2096921,2096921,186678,628370,0
2096921,2096921,186961,628409,0
2096921,2096921,187030,628165,0
2096921,2096921,186994,628338,0
2096921,2096921,187066,628368,0
2096921,2096921,187176,628357,0
2096921,2096921,187064,628295,0
2096921,2096921,187250,628489,0
2096921,2096921,187090,628729,0
2096921,2096921,187017,628541,0
2096921,2096921,186924,628463,0
2096921,2096921,187288,628495,0
2096921,2096921,187101,628628,0
2096921,2096921,187252,628301,0
2096921,2096921,187149,628390,0
2096921,2096921,186983,628429,0
2096921,2096921,187050,628826,0
2096921,2096921,187039,628634,0
2096921,2096921,186958,628729,0
2096921,2096921,187024,628526,0
2096921,2096921,186886,628545,0
2096921,2096921,187099,628591,0
2096921,2096921,187183,628492,0
2096921,2096921,187293,628352,0
2096921,2096921,187201,628647,0
2096921,2096921,187075,628313,0
2096921,2096921,187325,628660,0
2096921,2096921,187399,628354,0
2096921,2096921,187142,628541,0
2096921,2096921,187066,628713,0
2096921,2096921,186950,628641,0
2096921,2096921,187349,628644,0
2096921,2096921,187243,628623,0
2096921,2096921,187149,628845,0
2096921,2096921,187042,628708,0
2096921,2096921,187237,628638,0
2096921,2096921,187230,628641,0
2096921,2096921,187374,628541,0
2096921,2096921,187611,628358,0
2096921,2096921,187492,628579,0
2096921,2096921,187267,628741,0
2096921,2096921,187326,628726,0
2096921,2096921,187607,628429,0
2096921,2096921,187466,628680,0
2096921,2096921,187215,628494,0
2096921,2096921,187377,628571,0
2096921,2096921,187480,628422,0
2096921,2096921,187222,628267,0
2096921,2096921,187180,628432,0
2096921,2096921,187415,628380,0
2096921,2096921,187044,628668,0
2096921,2096921,187267,628418,0
2096921,2096921,187432,628561,0
2096921,2096921,187334,628262,0
2096921,2096921,187392,628477,0
2096921,2096921,187256,628637,0
2096921,2096921,187194,628521,0
2096921,2096921,187198,628201,0
2096921,2096921,187389,628266,0
2096921,2096921,187326,628290,0
2096921,2096921,187015,628384,0
2096921,2096921,187280,628373,0
2096921,2096921,187331,628403,0
2096921,2096921,187467,628074,0
2096921,2096921,187326,628049,0
2096921,2096921,187101,628040,0
2096921,2096921,187154,627862,0
2096921,2096921,187049,628061,0
2096921,2096921,186985,628160,0
2096921,2096921,187423,627931,0
2096921,2096921,187103,628106,0
2096921,2096921,187306,627944,0
2096921,2096921,187446,627994,0
2096921,2096921,187359,627649,0
2096921,2096921,187163,627736,0
2096921,2096921,187388,628024,0
2096921,2096921,187179,627786,0
2096921,2096921,187200,627912,0
2096921,2096921,187268,627607,0
2096921,2096921,187183,627499,0
2096921,2096921,187415,627603,0
2096921,2096921,187234,627555,0
2096921,2096921,187081,627312,0
2096921,2096921,187227,627258,0
2096921,2096921,187178,627519,0
2096921,2096921,187222,627451,0
2096921,2096921,186839,627103,0
2096921,2096921,187144,627420,0
2096921,2096921,187215,627110,0
2096921,2096921,186802,627315,0
2096921,2096921,187229,627189,0
2096921,2096921,187050,627244,0
2096921,2096921,187209,627180,0
2096921,2096921,187160,627170,0
2096921,2096921,186993,627140,0
2096921,2096921,186875,627024,0
2096921,2096921,186709,627239,0
2096921,2096921,186988,626861,0
2096921,2096921,187267,626675,0
2096921,2096921,186965,626808,0
2096921,2096921,187269,626857,0
2096921,2096921,187324,626863,0
2096921,2096921,186898,626893,0
2096921,2096921,186965,626791,0
2096921,2096921,187067,626697,0
2096921,2096921,187186,626630,0
2096921,2096921,186906,626583,0
2096921,2096921,186899,626377,0
2096921,2096921,187114,626663,0
2096921,2096921,186840,626637,0
2096921,2096921,186900,626304,0
2096921,2096921,186669,626104,0
2096921,2096921,186821,626120,0
2096921,2096921,186771,626257,0
2096921,2096921,186875,626021,0
2096921,2096921,186613,626292,0
2096921,2096921,186907,626325,0
2096921,2096921,186859,626347,0
2096921,2096921,186956,626154,0
2096921,2096921,186874,626169,0
2096921,2096921,186957,625793,0
2096921,2096921,186908,625764,0
2096921,2096921,186917,625765,0
2096921,2096921,186633,625996,0
2096921,2096921,186774,625633,0
2096921,2096921,186563,625879,0
2096921,2096921,186692,625433,0
2096921,2096921,186446,625461,0
2096921,2096921,186672,625485,0
2096921,2096921,186667,625582,0
2096921,2096921,186729,625625,0
2096921,2096921,186514,625313,0
2096921,2096921,186345,625272,0
2096921,2096921,186474,625300,0
2096921,2096921,186308,625011,0
2096921,2096921,186846,625187,0
2096921,2096921,186649,624909,0
2096921,2096921,186697,624891,0
2096921,2096921,186704,624974,0
2096921,2096921,186911,625036,0
2096921,2096921,186678,624907,0
2096921,2096921,186795,624924,0
2096921,2096921,186680,624815,0
2096921,2096921,186544,624703,0
2096921,2096921,186131,624815,0
2096921,2096921,186327,624612,0
2096921,2096921,186109,624270,0
2096921,2096921,186211,624033,0
2096921,2096921,186510,624244,0
2096921,2096921,186677,624146,0
2096921,2096921,186356,624632,0
2096921,2096921,186391,624068,0
2096921,2096921,186132,624100,0
2096921,2096921,186331,624089,0
2096921,2096921,186266,624049,0
2096921,2096921,186040,623671,0
2096921,2096921,186026,623357,0
2096921,2096921,185873,623456,0
2096921,2096921,186152,623487,0
2096921,2096921,186066,623498,0
2096921,2096921,185810,623567,0
2096921,2096921,186146,623367,0
2096921,2096921,186179,623094,0
2096921,2096921,185832,623188,0
2096921,2096921,185901,623148,0
2096921,2096921,185957,623007,0
2096921,2096921,185745,622690,0
2096921,2096921,185749,622914,0
2096921,2096921,185885,622959,0
2096921,2096921,185920,622785,0
2096921,2096921,185858,622653,0
2096921,2096921,185699,622687,0
2096921,2096921,185701,622496,0
2096921,2096921,185841,622659,0
2096921,2096921,185583,622503,0
2096921,2096921,185699,622144,0
2096921,2096921,185637,622084,0
2096921,2096921,185651,622031,0
2096921,2096921,185717,622211,0
2096921,2096921,185687,622124,0
2096921,2096921,185433,622123,0
2096921,2096921,185493,622123,0
2096921,2096921,185530,621868,0
2096921,2096921,185461,621550,0
2096921,2096921,185717,621746,0
2096921,2096921,185363,621851,0
2096921,2096921,185542,621670,0
2096921,2096921,185309,621386,0
2096921,2096921,185446,621242,0
2096921,2096921,185791,621467,0
2096921,2096921,185345,621245,0
2096921,2096921,184975,620826,0
2096921,2096921,184876,620538,0
2096921,2096921,184879,620507,0
2096921,2096921,185095,620019,0
2096921,2096921,185168,619955,0
2096921,2096921,184836,619801,0
2096921,2096921,184608,619540,0
2096921,2096921,184992,619593,0
