2096921,2096921,449575,249440,51020
2096921,2096921,449506,249425,51020
2096921,2096921,449475,249301,51146
2096921,2096921,449608,249408,51020
2096921,2096921,449650,249478,51020
2096921,2096921,449739,249383,51020
2096921,2096921,449762,249387,51280
2096921,2096921,449832,249557,51107
2096921,2096921,449799,249567,51201
2096921,2096921,449848,249387,51201
2096921,2096921,449931,249450,51059
2096921,2096921,449943,249577,51201
2096921,2096921,450043,249504,51146
2096921,2096921,450185,249658,51059
2096921,2096921,450183,249533,51193
2096921,2096921,450287,249550,51059
2096921,2096921,450412,249658,51201
2096921,2096921,450347,249687,51059
2096921,2096921,450359,249651,51201
2096921,2096921,450503,249779,51059
2096921,2096921,450525,249729,51107
2096921,2096921,450549,249656,51059
2096921,2096921,450594,249666,51107
2096921,2096921,450683,249712,51059
2096921,2096921,450749,249781,51059
2096921,2096921,450746,249692,51146
2096921,2096921,450978,249854,51059
2096921,2096921,450907,249772,51146
2096921,2096921,450951,249756,51706
2096921,2096921,451020,249852,51193
2096921,2096921,451264,249965,51107
2096921,2096921,451213,249865,51107
2096921,2096921,451113,249768,51233
2096921,2096921,451153,249819,51107
2096921,2096921,451229,249857,51059
2096921,2096921,451403,249973,51020
2096921,2096921,451430,249895,51020
2096921,2096921,451456,249790,51020
2096921,2096921,451693,249895,51706
2096921,2096921,451666,249927,51020
2096921,2096921,451720,249915,51043
2096921,2096921,451842,249979,51107
2096921,2096921,451863,249920,51020
2096921,2096921,452017,250045,51059
2096921,2096921,451931,249894,51193
2096921,2096921,452082,249968,51059
2096921,2096921,451978,250001,51201
2096921,2096921,452099,250141,51706
2096921,2096921,451939,250001,51107
2096921,2096921,452007,249948,51020
2096921,2096921,452073,249938,51059
2096921,2096921,452092,249954,51020
2096921,2096921,452079,250039,51059
2096921,2096921,452071,250020,51146
2096921,2096921,452123,250024,51020
2096921,2096921,452051,250019,51146
2096921,2096921,452216,249977,51020
2096921,2096921,452260,249961,51059
2096921,2096921,452134,250039,51146
2096921,2096921,452259,250046,51075
2096921,2096921,452209,250040,51075
2096921,2096921,452245,249962,51020
2096921,2096921,452150,249906,51146
2096921,2096921,452264,249972,51075
2096921,2096921,452268,250003,51059
2096921,2096921,452367,249982,51146
2096921,2096921,452439,250061,51059
2096921,2096921,452177,249895,51193
2096921,2096921,452305,249887,51201
2096921,2096921,452278,250029,51107
2096921,2096921,452410,249996,50972
2096921,2096921,452347,249988,51020
2096921,2096921,452163,249926,51706
2096921,2096921,452258,249892,50972
2096921,2096921,452275,249927,51020
2096921,2096921,452334,250048,50972
2096921,2096921,452300,249938,50972
2096921,2096921,452258,249907,50972
2096921,2096921,452280,249788,50972
2096921,2096921,452249,249865,51020
2096921,2096921,452312,250005,50972
2096921,2096921,452313,249883,51107
2096921,2096921,452330,249987,50972
2096921,2096921,452285,250035,50972
2096921,2096921,452164,249865,51059
2096921,2096921,452254,249784,51020
2096921,2096921,452149,249832,51193
2096921,2096921,452322,249925,51020
2096921,2096921,452316,249934,51020
2096921,2096921,452071,249809,51146
2096921,2096921,452082,249894,51020
2096921,2096921,452111,249795,51146
2096921,2096921,452153,249914,51075
2096921,2096921,452157,249884,50972
2096921,2096921,451963,249703,51107
2096921,2096921,452046,249769,51075
2096921,2096921,451944,249857,51146
2096921,2096921,452119,249834,51020
2096921,2096921,452015,249765,51020
2096921,2096921,451872,249699,51020
2096921,2096921,451961,249658,51020
2096921,2096921,452058,249766,51020
2096921,2096921,451914,249792,51059
2096921,2096921,451940,249820,50972
2096921,2096921,451995,249738,51059
2096921,2096921,451491,249698,51107
2096921,2096921,451485,249557,51059
2096921,2096921,451220,249577,51146
2096921,2096921,451179,249498,51706
2096921,2096921,450422,249395,51193
2096921,2096921,450415,249178,51020
2096921,2096921,450452,249260,51020
2096921,2096921,449676,249251,51193
2096921,2096921,449725,249098,51020
2096921,2096921,449604,249002,51075
2096921,2096921,449486,248970,51020
2096921,2096921,448716,248850,51201
2096921,2096921,448634,248554,51020
2096921,2096921,448666,248619,51020
2096921,2096921,447055,248619,51233
2096921,2096921,446719,248037,51043
2096921,2096921,446680,248071,51020
2096921,2096921,446568,247972,51201
2096921,2096921,444583,247853,51059
2096921,2096921,444108,247030,51020
2096921,2096921,444078,247182,51020
2096921,2096921,442625,247116,51059
2096921,2096921,442368,246597,51020
2096921,2096921,442195,246553,51020
2096921,2096921,440877,245959,51020
2096921,2096921,440773,246049,51020
2096921,2096921,439905,246068,51107
2096921,2096921,439898,245739,51020
2096921,2096921,439873,245738,51020
2096921,2096921,439765,245735,51020
2096921,2096921,439084,245662,51107
2096921,2096921,439033,245458,51020
2096921,2096921,439032,245512,51020
2096921,2096921,438603,245429,51146
2096921,2096921,438243,245212,51233
2096921,2096921,438133,245126,51020
2096921,2096921,438191,245163,50972
2096921,2096921,438049,245071,51020
2096921,2096921,437952,245117,51020
2096921,2096921,437894,245174,51075
2096921,2096921,437774,245109,51193
2096921,2096921,437979,245061,51059
2096921,2096921,437971,245066,51020
2096921,2096921,437905,245097,51059
2096921,2096921,438077,245096,51146
2096921,2096921,438193,245192,51059
2096921,2096921,438160,245203,51059
2096921,2096921,438125,245143,51201
2096921,2096921,438160,245096,51059
2096921,2096921,438148,245140,51020
2096921,2096921,438213,245212,51020
2096921,2096921,438221,245158,51020
2096921,2096921,438449,245177,51059
2096921,2096921,438452,245223,51075
2096921,2096921,438286,245242,51059
2096921,2096921,438287,245127,51020
2096921,2096921,438497,245098,51706
2096921,2096921,438751,245241,51020
2096921,2096921,438695,245311,51020
2096921,2096921,438712,245311,51075
2096921,2096921,438962,245305,51107
2096921,2096921,439108,245386,51020
2096921,2096921,439004,245449,51020
2096921,2096921,438979,245409,51020
2096921,2096921,439207,245311,51146
2096921,2096921,439407,245463,51059
2096921,2096921,439437,245565,51020
2096921,2096921,439416,245570,51020
2096921,2096921,439773,245474,51107
2096921,2096921,439929,245749,51020
2096921,2096921,439907,245760,51020
2096921,2096921,439855,245668,51059
2096921,2096921,440008,245589,51193
2096921,2096921,440179,245673,51020
2096921,2096921,440223,245810,51059
2096921,2096921,440255,245743,51059
2096921,2096921,440597,245737,51107
2096921,2096921,440715,245910,51020
2096921,2096921,440660,245815,51059
2096921,2096921,440571,245922,51059
2096921,2096921,440812,245901,51107
2096921,2096921,441063,245999,51075
2096921,2096921,441091,246003,51075
2096921,2096921,441005,246054,51059
2096921,2096921,441315,246050,51059
2096921,2096921,441536,246186,51059
2096921,2096921,441452,246143,51059
2096921,2096921,441391,246126,51059
2096921,2096921,441620,246093,51020
2096921,2096921,441793,246205,51059
2096921,2096921,441796,246318,51020
2096921,2096921,441800,246295,50972
2096921,2096921,442146,246198,51107
2096921,2096921,442324,246448,51043
2096921,2096921,442199,246437,51020
2096921,2096921,442138,246399,51020
2096921,2096921,442483,246297,51107
2096921,2096921,442611,246464,51020
2096921,2096921,442669,246560,51706
2096921,2096921,442646,246602,51020
2096921,2096921,442987,246470,51107
2096921,2096921,443089,246695,51020
2096921,2096921,442964,246658,51020
2096921,2096921,442969,246669,51020
2096921,2096921,443175,246589,51146
2096921,2096921,443306,246650,51020
2096921,2096921,443339,246758,51020
2096921,2096921,443396,246725,51020
2096921,2096921,443593,246742,51193
2096921,2096921,443755,246898,51020
2096921,2096921,443785,246904,51043
2096921,2096921,443677,246801,51706
2096921,2096921,443747,246711,51146
2096921,2096921,443837,246901,51020
2096921,2096921,443918,246986,51059
2096921,2096921,443996,246931,51043
2096921,2096921,444038,246868,51107
2096921,2096921,444029,247041,51020
2096921,2096921,444030,247026,51020
2096921,2096921,444047,246955,51020
2096921,2096921,443947,246794,51020
2096921,2096921,444146,247016,51075
2096921,2096921,444147,247074,51706
2096921,2096921,444175,246975,51706
2096921,2096921,444124,246939,51059
2096921,2096921,444175,246983,51020
2096921,2096921,444138,246993,51075
2096921,2096921,444010,246943,51706
2096921,2096921,443983,246881,51059
2096921,2096921,444059,246999,51020
2096921,2096921,444181,247022,50972
2096921,2096921,444127,247007,50972
2096921,2096921,443997,246925,51107
2096921,2096921,444035,247027,51020
2096921,2096921,444072,246965,51020
2096921,2096921,444014,246855,50972
2096921,2096921,443784,246721,51059
2096921,2096921,443855,246933,50972
2096921,2096921,443884,246932,51020
2096921,2096921,443889,246795,51706
2096921,2096921,443785,246801,51201
2096921,2096921,443800,246872,51020
2096921,2096921,443679,246875,50972
2096921,2096921,443663,246789,51020
2096921,2096921,443463,246693,51146
2096921,2096921,443599,246703,51020
2096921,2096921,443559,246765,51020
2096921,2096921,443548,246799,51020
2096921,2096921,443340,246734,51706
2096921,2096921,443508,246770,51059
2096921,2096921,443454,246732,51020
2096921,2096921,443372,246678,50972
2096921,2096921,443210,246644,51146
2096921,2096921,443326,246639,51075
2096921,2096921,443413,246707,50972
2096921,2096921,443407,246695,51020
2096921,2096921,443371,246690,51107
2096921,2096921,443429,246744,51020
2096921,2096921,443317,246698,51020
2096921,2096921,443294,246575,51020
2096921,2096921,443262,246623,51020
2096921,2096921,443344,246693,51020
2096921,2096921,443423,246709,51020
2096921,2096921,443318,246699,51043
2096921,2096921,443433,246592,51059
2096921,2096921,443577,246802,50972
2096921,2096921,443421,246741,51201
2096921,2096921,443372,246708,50972
2096921,2096921,443383,246616,51059
2096921,2096921,443608,246662,50972
2096921,2096921,443580,246709,50972
2096921,2096921,443516,246724,50972
2096921,2096921,443747,246677,51107
2096921,2096921,444015,246905,50972
2096921,2096921,443984,246810,51020
2096921,2096921,443838,246743,50972
2096921,2096921,444012,246769,51706
2096921,2096921,444190,246891,50972
2096921,2096921,444267,246951,50972
2096921,2096921,444237,246935,50972
2096921,2096921,444346,246918,51107
2096921,2096921,444480,247116,50972
2096921,2096921,444456,247079,50972
2096921,2096921,444410,247002,51020
2096921,2096921,444557,246962,51107
2096921,2096921,444727,247067,51706
2096921,2096921,444663,247181,50972
2096921,2096921,444684,247211,51020
2096921,2096921,444931,247084,51107
2096921,2096921,445117,247239,50972
2096921,2096921,445043,247221,50972
2096921,2096921,444966,247170,50972
2096921,2096921,445039,247173,51201
2096921,2096921,445290,247204,51706
2096921,2096921,445275,247263,51020
2096921,2096921,445221,247263,50972
2096921,2096921,445318,247286,50972
2096921,2096921,445523,247379,50972
2096921,2096921,445431,247375,51706
2096921,2096921,445360,247248,50972
2096921,2096921,445497,247142,50972
2096921,2096921,445644,247411,50972
2096921,2096921,445682,247463,51075
2096921,2096921,445729,247435,51706
2096921,2096921,445929,247343,51059
2096921,2096921,446056,247530,50972
2096921,2096921,445909,247646,50972
2096921,2096921,445874,247486,51107
2096921,2096921,446078,247363,51146
2096921,2096921,446252,247476,51059
2096921,2096921,446214,247635,51706
2096921,2096921,446180,247628,51107
2096921,2096921,446387,247540,51193
2096921,2096921,446489,247650,51059
2096921,2096921,446472,247647,51059
2096921,2096921,446305,247613,51107
2096921,2096921,446400,247548,51233
2096921,2096921,446564,247632,51059
2096921,2096921,446701,247689,51107
2096921,2096921,446750,247750,51107
2096921,2096921,446859,247707,51193
2096921,2096921,446984,247947,51059
2096921,2096921,446876,247827,51107
2096921,2096921,446861,247789,51059
2096921,2096921,446956,247665,51233
2096921,2096921,447139,247820,51059
2096921,2096921,447072,247885,51107
2096921,2096921,447072,247840,51201
2096921,2096921,447368,247787,51193
2096921,2096921,447359,247949,51706
2096921,2096921,447278,247990,51059
2096921,2096921,447277,247946,51059
2096921,2096921,447378,247897,51059
2096921,2096921,447574,247946,51075
2096921,2096921,447581,248038,51059
2096921,2096921,447551,247996,51059
2096921,2096921,447751,248018,51107
2096921,2096921,447858,248116,51075
2096921,2096921,447744,248091,51075
2096921,2096921,447741,247982,51706
2096921,2096921,447681,247989,51146
2096921,2096921,447946,248111,51059
2096921,2096921,447996,248086,51059
2096921,2096921,447922,248085,51107
2096921,2096921,448084,248015,51193
2096921,2096921,448095,248261,51107
2096921,2096921,448084,248194,51020
2096921,2096921,448046,248108,51075
2096921,2096921,448146,248089,51706
2096921,2096921,448302,248227,51059
2096921,2096921,448290,248314,51059
2096921,2096921,448183,248220,51706
2096921,2096921,448341,248150,51233
2096921,2096921,448490,248329,51020
2096921,2096921,448450,248300,51059
2096921,2096921,448356,248284,51059
2096921,2096921,448433,248216,51146
2096921,2096921,448700,248240,50972
2096921,2096921,448596,248417,51020
2096921,2096921,448532,248452,51020
2096921,2096921,448681,248358,51146
2096921,2096921,448882,248461,51020
2096921,2096921,448813,248458,51020
2096921,2096921,448714,248444,51020
2096921,2096921,448690,248322,51193
2096921,2096921,448908,248475,51020
2096921,2096921,448956,248498,51043
2096921,2096921,448948,248477,51020
2096921,2096921,449029,248373,51107
2096921,2096921,449069,248602,51020
2096921,2096921,449007,248502,51020
2096921,2096921,449008,248475,51020
2096921,2096921,449119,248371,51059
2096921,2096921,449239,248500,51043
2096921,2096921,449213,248558,51020
2096921,2096921,449202,248628,51020
2096921,2096921,449258,248513,50972
2096921,2096921,449473,248594,51020
2096921,2096921,449246,248618,50972
2096921,2096921,449191,248541,50972
2096921,2096921,449195,248465,51107
2096921,2096921,449402,248534,51020
2096921,2096921,449381,248571,51020
2096921,2096921,449417,248501,51020
2096921,2096921,449482,248597,51107
2096921,2096921,449588,248744,51075
2096921,2096921,449580,248636,51043
2096921,2096921,449470,248587,51020
2096921,2096921,449344,248510,51193
2096921,2096921,449542,248716,51059
2096921,2096921,449576,248692,51075
2096921,2096921,449525,248671,51059
2096921,2096921,449695,248549,51146
2096921,2096921,449723,248744,51020
2096921,2096921,449607,248706,51059
2096921,2096921,449683,248635,51075
2096921,2096921,449621,248561,51107
2096921,2096921,449739,248624,51020
2096921,2096921,449742,248727,51059
2096921,2096921,449702,248725,51059
2096921,2096921,449823,248652,51201
2096921,2096921,449879,248769,51059
2096921,2096921,449876,248765,51059
2096921,2096921,449776,248691,51020
2096921,2096921,449660,248534,51059
2096921,2096921,449852,248689,51043
2096921,2096921,449934,248818,51201
2096921,2096921,449948,248749,51020
2096921,2096921,449942,248703,51020
2096921,2096921,449987,248867,51075
2096921,2096921,449922,248769,51020
2096921,2096921,449891,248677,51020
2096921,2096921,449863,248648,51020
2096921,2096921,450017,248788,51020
2096921,2096921,450051,248863,51020
2096921,2096921,450105,248783,51020
2096921,2096921,450189,248778,51107
2096921,2096921,450234,248888,51020
2096921,2096921,450201,248898,51075
2096921,2096921,450064,248830,51059
2096921,2096921,450094,248739,51146
2096921,2096921,450281,248827,51059
2096921,2096921,450272,248879,51020
2096921,2096921,450197,248794,51201
2096921,2096921,450371,248837,51146
2096921,2096921,450435,248930,50972
2096921,2096921,450372,248901,50972
2096921,2096921,450292,248771,50972
2096921,2096921,450167,248734,51193
2096921,2096921,450374,248884,50972
2096921,2096921,450446,248892,51020
2096921,2096921,450366,248845,50972
2096921,2096921,450450,248851,51146
2096921,2096921,450409,249045,51706
2096921,2096921,450370,248848,51201
2096921,2096921,450440,248748,50972
2096921,2096921,450392,248786,51146
2096921,2096921,450438,248887,50972
2096921,2096921,450432,248948,50972
2096921,2096921,450461,248958,50972
2096921,2096921,450528,248873,51107
2096921,2096921,450613,249062,51706
2096921,2096921,450560,248947,50972
2096921,2096921,450486,248951,50972
2096921,2096921,450394,248831,51059
2096921,2096921,450624,248907,50972
2096921,2096921,450621,248942,51201
2096921,2096921,450601,248945,50972
2096921,2096921,450525,248852,51020
2096921,2096921,450690,249002,50972
2096921,2096921,450663,249011,51706
2096921,2096921,450520,248954,50972
2096921,2096921,450493,248865,51059
2096921,2096921,450529,248922,50972
2096921,2096921,450528,249002,51075
2096921,2096921,450530,249004,51706
2096921,2096921,450581,248908,51075
2096921,2096921,450632,249011,51020
2096921,2096921,450504,249036,50972
2096921,2096921,450423,248929,50972
2096921,2096921,450487,248840,51107
2096921,2096921,450518,248949,50972
2096921,2096921,450519,248950,50972
2096921,2096921,450539,248956,51020
2096921,2096921,450539,248962,51146
2096921,2096921,450600,249034,51059
2096921,2096921,450498,249005,51020
2096921,2096921,450477,248915,51075
2096921,2096921,450359,248835,51146
2096921,2096921,450518,248937,51075
2096921,2096921,450613,248928,51020
2096921,2096921,450607,248989,51020
2096921,2096921,450639,248930,51146
2096921,2096921,450632,249047,51020
2096921,2096921,450558,248942,51020
2096921,2096921,450478,248813,51020
2096921,2096921,450356,248805,51233
2096921,2096921,450497,248942,51059
2096921,2096921,450583,248955,51059
2096921,2096921,450495,248856,51059
2096921,2096921,450608,248831,51059
2096921,2096921,450607,248976,51075
2096921,2096921,450510,248928,51059
2096921,2096921,450435,248904,51020
2096921,2096921,450026,248847,51020
2096921,2096921,450159,248750,51020
2096921,2096921,450169,248867,51059
2096921,2096921,450103,248781,51059
2096921,2096921,449792,248780,51107
2096921,2096921,449846,248685,51059
2096921,2096921,449841,248606,51020
2096921,2096921,449772,248585,51020
2096921,2096921,449131,248608,51201
2096921,2096921,449174,248482,51020
2096921,2096921,449283,248462,51020
2096921,2096921,449197,248479,51107
2096921,2096921,448534,248427,51193
2096921,2096921,448382,248277,51020
2096921,2096921,448291,248282,51020
2096921,2096921,448283,248168,51020
2096921,2096921,447469,248126,51233
2096921,2096921,447469,247884,51059
2096921,2096921,447452,247904,51020
2096921,2096921,447348,247928,51020
2096921,2096921,445949,247937,51146
2096921,2096921,445571,247293,51059
2096921,2096921,445429,247312,51020
2096921,2096921,445359,247238,51020
2096921,2096921,443275,247168,51107
2096921,2096921,443136,246448,51059
2096921,2096921,443072,246470,51075
2096921,2096921,443000,246519,51043
2096921,2096921,441589,246426,51193
2096921,2096921,441240,246007,50972
2096921,2096921,441246,245992,51020
2096921,2096921,441150,245915,51020
2096921,2096921,439914,245861,51020
2096921,2096921,439783,245514,51020
2096921,2096921,439869,245505,51043
2096921,2096921,439825,245467,51020
2096921,2096921,439092,245462,51020
2096921,2096921,438905,245335,50972
2096921,2096921,438854,245267,51020
2096921,2096921,438815,245196,51020
2096921,2096921,438084,245148,51706
2096921,2096921,438161,244930,51075
2096921,2096921,438026,244964,51706
2096921,2096921,437978,244925,51706
2096921,2096921,437667,244894,51107
2096921,2096921,437610,244784,51059
2096921,2096921,437544,244703,51020
2096921,2096921,437416,244713,51043
2096921,2096921,437081,244713,51146
2096921,2096921,437195,244564,51020
2096921,2096921,437185,244550,51020
2096921,2096921,437171,244587,51043
2096921,2096921,437102,244600,51146
2096921,2096921,437127,244668,51059
2096921,2096921,437206,244601,51020
2096921,2096921,436959,244480,51020
2096921,2096921,436904,244417,51146
2096921,2096921,437083,244539,51020
2096921,2096921,437097,244584,51020
2096921,2096921,437024,244630,51020
2096921,2096921,437283,244605,51193
2096921,2096921,437340,244698,51107
2096921,2096921,437267,244691,51059
2096921,2096921,437211,244631,51107
2096921,2096921,437238,244602,51193
2096921,2096921,437415,244671,51706
2096921,2096921,437400,244661,51107
2096921,2096921,437352,244747,51059
2096921,2096921,437592,244643,51193
2096921,2096921,437743,244790,51107
2096921,2096921,437602,244787,51107
2096921,2096921,437457,244736,51706
2096921,2096921,437641,244673,51059
2096921,2096921,437988,244909,51201
2096921,2096921,438028,244900,51706
2096921,2096921,437986,244853,51059
2096921,2096921,438376,244864,51201
2096921,2096921,438377,245147,51107
2096921,2096921,438292,244990,51107
2096921,2096921,438301,244953,51107
2096921,2096921,438503,244883,51146
2096921,2096921,438818,245110,51706
2096921,2096921,438808,245198,51201
2096921,2096921,438784,245198,51059
2096921,2096921,439266,245146,51146
2096921,2096921,439286,245336,51107
2096921,2096921,439195,245347,51107
2096921,2096921,439148,245239,51059
2096921,2096921,439512,245196,51193
2096921,2096921,439685,245367,51107
2096921,2096921,439745,245416,51107
2096921,2096921,439727,245452,51107
2096921,2096921,439993,245480,51193
2096921,2096921,440208,245617,51075
2096921,2096921,440152,245581,51107
2096921,2096921,440037,245561,51107
2096921,2096921,440185,245482,51193
2096921,2096921,440472,245635,51706
2096921,2096921,440519,245702,51107
2096921,2096921,440520,245674,51706
2096921,2096921,440849,245585,51107
2096921,2096921,440939,245901,51075
2096921,2096921,440898,245868,51075
2096921,2096921,440849,245831,50949
2096921,2096921,441088,245742,51146
2096921,2096921,441363,245955,51020
2096921,2096921,441310,245991,51020
2096921,2096921,441322,246072,50972
2096921,2096921,441751,245921,51201
2096921,2096921,441852,246184,51020
2096921,2096921,441785,246186,51020
2096921,2096921,441697,246101,51075
2096921,2096921,442028,246077,51059
2096921,2096921,442314,246204,50972
2096921,2096921,442339,246288,50972
2096921,2096921,442268,246285,50972
2096921,2096921,442635,246266,51706
2096921,2096921,442655,246526,51020
2096921,2096921,442661,246429,50972
2096921,2096921,442661,246383,51706
2096921,2096921,442832,246252,51059
2096921,2096921,442995,246480,50972
2096921,2096921,443021,246596,51706
2096921,2096921,443088,246524,50972
2096921,2096921,443401,246527,51107
2096921,2096921,443421,246764,50972
2096921,2096921,443314,246700,50972
2096921,2096921,443288,246594,50972
2096921,2096921,443441,246526,51107
2096921,2096921,443660,246683,51201
2096921,2096921,443577,246730,50972
2096921,2096921,443598,246784,51043
2096921,2096921,443836,246741,51146
2096921,2096921,443786,246841,51020
2096921,2096921,443790,246789,50933
2096921,2096921,443751,246766,50972
2096921,2096921,443761,246706,51107
2096921,2096921,444013,246789,50972
2096921,2096921,444065,246846,50972
2096921,2096921,443946,246767,51075
2096921,2096921,444031,246681,51107
2096921,2096921,443988,246928,51020
2096921,2096921,443986,246905,51075
2096921,2096921,443933,246780,50972
2096921,2096921,443751,246686,51107
2096921,2096921,443908,246879,51020
2096921,2096921,444013,246950,51020
2096921,2096921,444022,246821,51706
2096921,2096921,443985,246723,51059
2096921,2096921,443907,246889,51020
2096921,2096921,443895,246956,50972
2096921,2096921,443885,246855,50972
2096921,2096921,443634,246715,51020
2096921,2096921,443771,246797,51020
2096921,2096921,443766,246777,50972
2096921,2096921,443786,246855,51020
2096921,2096921,443678,246752,51107
2096921,2096921,443800,246955,51020
2096921,2096921,443724,246879,51020
2096921,2096921,443650,246766,50972
2096921,2096921,443363,246650,51146
2096921,2096921,443599,246789,50972
2096921,2096921,443592,246772,51020
2096921,2096921,443531,246695,51020
2096921,2096921,443496,246724,51146
2096921,2096921,443480,246837,51020
2096921,2096921,443421,246703,51020
2096921,2096921,443373,246661,50972
2096921,2096921,443251,246568,51146
2096921,2096921,443374,246692,51020
2096921,2096921,443399,246726,51020
2096921,2096921,443388,246744,51020
2096921,2096921,443495,246689,51075
2096921,2096921,443503,246752,51020
2096921,2096921,443449,246655,50972
2096921,2096921,443395,246760,50972
2096921,2096921,443278,246629,51107
2096921,2096921,443563,246733,51706
2096921,2096921,443534,246738,50972
2096921,2096921,443505,246661,50972
2096921,2096921,443628,246819,51107
2096921,2096921,443737,246881,50933
2096921,2096921,443642,246789,50972
2096921,2096921,443613,246730,51020
2096921,2096921,443596,246651,51020
2096921,2096921,443789,246811,50972
2096921,2096921,443753,246815,50972
2096921,2096921,443776,246793,50972
2096921,2096921,444065,246804,50972
2096921,2096921,444098,247003,50972
2096921,2096921,444063,246931,51706
2096921,2096921,444091,246900,51201
2096921,2096921,444282,246889,51020
2096921,2096921,444495,246991,51075
2096921,2096921,444397,247103,50972
2096921,2096921,444428,247033,51075
2096921,2096921,444728,247065,51059
2096921,2096921,444850,247195,50972
2096921,2096921,444819,247201,50972
2096921,2096921,444729,247180,50972
2096921,2096921,444868,247155,51107
2096921,2096921,445174,247229,50972
2096921,2096921,445140,247222,51075
2096921,2096921,445115,247304,51706
2096921,2096921,445334,247267,51146
2096921,2096921,445519,247511,50972
2096921,2096921,445428,247386,50972
2096921,2096921,445342,247348,51706
2096921,2096921,445442,247255,51059
2096921,2096921,445604,247452,50972
2096921,2096921,445687,247548,51020
2096921,2096921,445664,247510,50972
2096921,2096921,445878,247467,51107
2096921,2096921,445925,247675,51020
2096921,2096921,445857,247593,50972
2096921,2096921,445814,247502,51075
2096921,2096921,446033,247474,51059
2096921,2096921,446216,247666,50972
2096921,2096921,446186,247703,51059
2096921,2096921,446187,247681,51020
2096921,2096921,446479,247643,51201
2096921,2096921,446605,247734,51043
2096921,2096921,446549,247776,51020
2096921,2096921,446399,247744,51706
2096921,2096921,446623,247697,51059
2096921,2096921,446781,247758,51020
2096921,2096921,446735,247821,51020
2096921,2096921,446758,247822,51020
2096921,2096921,447023,247815,51107
2096921,2096921,447040,248055,51020
2096921,2096921,447030,247953,51043
2096921,2096921,447001,247886,51020
2096921,2096921,447079,247782,51146
2096921,2096921,447284,247973,51020
2096921,2096921,447267,248032,51020
2096921,2096921,447318,248034,51020
2096921,2096921,447618,247996,51193
2096921,2096921,447558,248200,51059
2096921,2096921,447453,248202,51706
2096921,2096921,447469,248054,51020
2096921,2096921,447499,248037,51706
2096921,2096921,447724,248160,51020
2096921,2096921,447791,248325,51059
2096921,2096921,447764,248228,51043
2096921,2096921,448033,248228,51233
2096921,2096921,448108,248313,51059
2096921,2096921,448098,248322,51059
2096921,2096921,447952,248331,51059
2096921,2096921,448019,248221,51146
2096921,2096921,448285,248412,51020
2096921,2096921,448397,248420,51043
2096921,2096921,448387,248338,51020
2096921,2096921,448578,248349,51146
2096921,2096921,448601,248654,51043
2096921,2096921,448564,248552,51059
2096921,2096921,448584,248506,51020
2096921,2096921,448617,248412,51020
2096921,2096921,448733,248552,51706
2096921,2096921,448833,248595,51059
2096921,2096921,448814,248509,51059
2096921,2096921,448978,248577,51107
2096921,2096921,449023,248682,51075
2096921,2096921,448939,248715,51059
2096921,2096921,448898,248668,51020
2096921,2096921,448933,248535,51020
2096921,2096921,449221,248682,51020
2096921,2096921,449162,248664,51059
2096921,2096921,449221,248724,51020
2096921,2096921,449361,248657,51107
2096921,2096921,449370,248788,51020
2096921,2096921,449365,248772,51020
2096921,2096921,449328,248666,51059
2096921,2096921,449324,248630,51107
2096921,2096921,449498,248836,51059
2096921,2096921,449565,248831,51059
2096921,2096921,449531,248854,51075
2096921,2096921,449779,248795,51201
2096921,2096921,449792,249008,51059
2096921,2096921,449741,248936,51020
2096921,2096921,449712,248823,51020
2096921,2096921,449775,248809,51193
2096921,2096921,450031,248944,51075
2096921,2096921,450008,249046,51075
2096921,2096921,449968,248999,51020
2096921,2096921,450157,249023,51201
2096921,2096921,450203,249114,51020
2096921,2096921,450132,249052,51020
2096921,2096921,449962,249022,50972
2096921,2096921,449974,248980,51107
2096921,2096921,450291,249089,51020
2096921,2096921,450315,249129,51059
2096921,2096921,450209,249053,51059
2096921,2096921,450361,249120,51146
2096921,2096921,450509,249266,51201
2096921,2096921,450529,249194,51059
2096921,2096921,450434,249058,51020
2096921,2096921,450369,249073,51107
2096921,2096921,450586,249298,50972
2096921,2096921,450660,249239,50972
2096921,2096921,450597,249204,51706
2096921,2096921,450788,249246,51020
2096921,2096921,450792,249360,51201
2096921,2096921,450685,249336,50972
2096921,2096921,450620,249279,50972
2096921,2096921,450628,249220,51107
2096921,2096921,450979,249348,50972
2096921,2096921,450918,249402,50972
2096921,2096921,450869,249400,51020
2096921,2096921,450874,249362,51107
2096921,2096921,451054,249457,50972
2096921,2096921,450952,249443,51706
2096921,2096921,450972,249375,51201
2096921,2096921,450945,249372,51706
2096921,2096921,451197,249436,51020
2096921,2096921,451189,249443,51706
2096921,2096921,451076,249445,50972
2096921,2096921,451181,249417,51193
2096921,2096921,451275,249607,51020
2096921,2096921,451290,249534,50972
2096921,2096921,451239,249405,50972
2096921,2096921,451225,249458,51107
2096921,2096921,451327,249512,50972
2096921,2096921,451364,249510,50972
2096921,2096921,451365,249607,50972
2096921,2096921,451491,249525,51059
2096921,2096921,451617,249624,50972
2096921,2096921,451490,249624,50972
2096921,2096921,451360,249644,50972
2096921,2096921,451403,249491,51107
2096921,2096921,451693,249612,51706
2096921,2096921,451587,249647,50972
2096921,2096921,451530,249627,50972
2096921,2096921,451746,249552,51706
2096921,2096921,451799,249752,50972
2096921,2096921,451712,249684,51075
2096921,2096921,451691,249684,50972
2096921,2096921,451625,249577,51706
2096921,2096921,451935,249750,51059
2096921,2096921,451870,249772,51020
2096921,2096921,451864,249726,51020
2096921,2096921,452032,249733,51020
2096921,2096921,452027,249847,51059
2096921,2096921,451929,249832,51020
2096921,2096921,451971,249792,51059
2096921,2096921,451885,249649,51107
2096921,2096921,452094,249869,51020
2096921,2096921,452067,249929,51043
2096921,2096921,452066,249960,51020
2096921,2096921,452176,249852,51146
2096921,2096921,452251,249936,51020
2096921,2096921,452113,249856,51059
2096921,2096921,452161,249867,51020
2096921,2096921,452112,249751,51193
2096921,2096921,452357,249874,51059
2096921,2096921,452347,249903,51020
2096921,2096921,452296,249943,51020
2096921,2096921,452491,250013,51146
2096921,2096921,452489,250134,51020
2096921,2096921,452545,250068,51706
2096921,2096921,452500,249905,51020
2096921,2096921,452414,249865,51146
2096921,2096921,452498,250081,51020
2096921,2096921,452535,250053,51020
2096921,2096921,452560,250013,51020
2096921,2096921,452618,250055,51146
2096921,2096921,452595,250224,51706
2096921,2096921,452402,250053,51020
2096921,2096921,452464,250005,51020
2096921,2096921,452392,249971,51706
2096921,2096921,452523,250024,51043
2096921,2096921,452619,250013,51706
2096921,2096921,452534,250039,51020
2096921,2096921,452602,249992,51059
2096921,2096921,452685,250174,51020
2096921,2096921,452638,250088,51020
2096921,2096921,452589,250104,51075
2096921,2096921,452539,250023,51020
2096921,2096921,452799,250125,51043
2096921,2096921,452811,250168,51020
2096921,2096921,452779,250137,51043
2096921,2096921,452762,250206,51107
2096921,2096921,452830,250241,51020
2096921,2096921,452809,250130,51020
2096921,2096921,452694,250200,50972
2096921,2096921,452643,250070,51075
2096921,2096921,452879,250269,51020
2096921,2096921,452773,250209,51706
2096921,2096921,452745,250163,51020
2096921,2096921,452882,250221,51193
2096921,2096921,452848,250240,51020
2096921,2096921,452771,250211,51020
2096921,2096921,452702,250182,51075
2096921,2096921,452710,250116,51193
2096921,2096921,452953,250231,51020
2096921,2096921,452848,250296,51020
2096921,2096921,452830,250311,50972
2096921,2096921,453038,250282,51075
2096921,2096921,452956,250273,51201
2096921,2096921,452860,250188,50972
2096921,2096921,452883,250212,51706
2096921,2096921,452512,250181,51107
2096921,2096921,452590,250217,51020
2096921,2096921,452534,250171,50972
2096921,2096921,452621,250190,51020
2096921,2096921,452353,250198,51146
2096921,2096921,452285,250158,50972
2096921,2096921,452211,250120,50972
2096921,2096921,452193,250026,51020
2096921,2096921,451614,249833,51020
2096921,2096921,451693,249926,51020
2096921,2096921,451618,249920,51075
2096921,2096921,451625,249904,50972
2096921,2096921,451105,249883,50972
2096921,2096921,451013,249732,50933
2096921,2096921,450795,249671,51020
2096921,2096921,450782,249690,50972
2096921,2096921,450091,249410,50972
2096921,2096921,450069,249417,51706
2096921,2096921,450024,249347,50972
2096921,2096921,450075,249339,50972
2096921,2096921,448576,249224,51059
2096921,2096921,448151,248824,51201
2096921,2096921,448113,248731,50972
2096921,2096921,448033,248775,50972
2096921,2096921,446026,248356,51107
2096921,2096921,445640,247979,50972
2096921,2096921,445602,248001,51706
2096921,2096921,445730,248001,50972
2096921,2096921,444401,247734,51075
2096921,2096921,443920,247543,50972
2096921,2096921,443874,247528,51075
2096921,2096921,443882,247403,50972
2096921,2096921,442780,247096,51107
2096921,2096921,442546,247007,50933
2096921,2096921,442547,247076,51201
2096921,2096921,442542,247019,51020
2096921,2096921,441880,246889,51059
2096921,2096921,441579,246761,50972
2096921,2096921,441478,246640,50972
2096921,2096921,441484,246674,50972
2096921,2096921,440875,246507,51146
2096921,2096921,440969,246488,50933
2096921,2096921,440950,246486,50972
2096921,2096921,440906,246523,51020
2096921,2096921,440565,246425,51107
2096921,2096921,440410,246355,50972
2096921,2096921,440470,246385,50972
2096921,2096921,440438,246371,51201
2096921,2096921,440089,246241,51020
2096921,2096921,440233,246358,51706
2096921,2096921,440221,246340,50972
2096921,2096921,440240,246331,51020
2096921,2096921,440303,246204,51020
2096921,2096921,440215,246382,50972
2096921,2096921,440060,246277,51706
2096921,2096921,440087,246288,50972
2096921,2096921,440034,246140,51146
2096921,2096921,440287,246290,51059
2096921,2096921,440172,246390,51020
2096921,2096921,440168,246418,51020
2096921,2096921,440465,246344,51107
2096921,2096921,440483,246391,51059
2096921,2096921,440445,246417,51020
2096921,2096921,440359,246336,51059
2096921,2096921,440374,246318,51146
2096921,2096921,440611,246487,51075
2096921,2096921,440667,246547,51020
2096921,2096921,440507,246532,51043
2096921,2096921,440786,246556,51146
2096921,2096921,440793,246658,51059
2096921,2096921,440781,246516,51043
2096921,2096921,440732,246456,51059
2096921,2096921,441097,246447,51146
2096921,2096921,441232,246771,51059
2096921,2096921,441227,246720,51020
2096921,2096921,441309,246716,51059
2096921,2096921,441724,246684,51201
2096921,2096921,441754,246960,51020
2096921,2096921,441626,246866,51059
2096921,2096921,441666,246882,51020
2096921,2096921,442041,246737,51193
2096921,2096921,442220,247049,51020
2096921,2096921,442181,247089,51075
2096921,2096921,442155,247125,51020
2096921,2096921,442597,247146,51059
2096921,2096921,442860,247363,51020
2096921,2096921,442811,247223,51706
2096921,2096921,442688,247216,51020
2096921,2096921,442914,247163,51107
2096921,2096921,443084,247333,51706
2096921,2096921,443167,247360,51059
2096921,2096921,443195,247370,51020
2096921,2096921,443554,247447,51107
2096921,2096921,443627,247687,51020
2096921,2096921,443564,247508,51059
2096921,2096921,443579,247460,50972
2096921,2096921,443892,247450,51059
2096921,2096921,444066,247656,50972
2096921,2096921,444042,247742,50972
2096921,2096921,443994,247747,50972
2096921,2096921,444563,247688,51059
2096921,2096921,444566,247924,50972
2096921,2096921,444605,247854,51201
2096921,2096921,444456,247894,50972
2096921,2096921,444857,247752,51107
2096921,2096921,445133,248055,50972
2096921,2096921,445132,248154,50972
2096921,2096921,445041,248133,50972
2096921,2096921,445596,248141,51107
2096921,2096921,445555,248288,51201
2096921,2096921,445571,248178,51020
2096921,2096921,445536,248176,50972
2096921,2096921,445809,248142,51075
2096921,2096921,446088,248406,51020
2096921,2096921,446123,248500,50972
2096921,2096921,446114,248426,50933
2096921,2096921,446517,248424,51107
2096921,2096921,446607,248628,51201
2096921,2096921,446442,248612,50972
2096921,2096921,446536,248524,50972
2096921,2096921,446745,248399,50972
2096921,2096921,446876,248640,51020
2096921,2096921,446933,248789,51020
2096921,2096921,446961,248745,51020
2096921,2096921,447310,248791,51020
2096921,2096921,447390,248895,51020
2096921,2096921,447274,248853,50972
2096921,2096921,447210,248758,50972
2096921,2096921,447373,248711,51107
2096921,2096921,447666,249008,51020
2096921,2096921,447665,248945,50972
2096921,2096921,447680,248926,51020
2096921,2096921,447765,248960,51107
2096921,2096921,447887,249130,50972
2096921,2096921,447817,249074,50972
2096921,2096921,447733,248976,51020
2096921,2096921,447830,248926,51146
2096921,2096921,448003,249109,51059
2096921,2096921,448078,249130,51043
2096921,2096921,448136,249106,51059
2096921,2096921,448182,249133,51233
2096921,2096921,448202,249250,51059
2096921,2096921,448095,249211,51020
2096921,2096921,448068,249148,51043
2096921,2096921,448062,248993,51193
2096921,2096921,448233,249257,51020
2096921,2096921,448218,249267,51020
2096921,2096921,448240,249280,51059
2096921,2096921,448201,249250,51146
2096921,2096921,448215,249226,51706
2096921,2096921,448110,249132,51020
2096921,2096921,448051,249176,51020
2096921,2096921,447882,249070,51706
2096921,2096921,448052,249207,51059
2096921,2096921,448005,249192,51059
2096921,2096921,448013,249160,51075
2096921,2096921,447892,249109,51107
2096921,2096921,447983,249237,51020
2096921,2096921,447997,249160,51706
2096921,2096921,447876,249117,51020
2096921,2096921,447800,248961,51020
2096921,2096921,447868,249121,51059
2096921,2096921,447797,249161,51706
2096921,2096921,447773,249067,51020
2096921,2096921,447732,249039,51107
2096921,2096921,447836,249187,51706
2096921,2096921,447714,249082,51020
2096921,2096921,447654,249063,51020
2096921,2096921,447627,249030,51107
2096921,2096921,447817,249090,51059
2096921,2096921,447699,249154,51020
2096921,2096921,447687,249133,51020
2096921,2096921,447854,249237,51201
2096921,2096921,447881,249278,51020
2096921,2096921,447836,249132,51020
2096921,2096921,447714,249117,51020
2096921,2096921,447691,249054,51146
2096921,2096921,447953,249234,51706
2096921,2096921,447983,249192,51020
2096921,2096921,447932,249294,51706
2096921,2096921,448105,249243,51146
2096921,2096921,448203,249404,51706
2096921,2096921,448115,249346,51020
2096921,2096921,448057,249252,51020
2096921,2096921,448159,249091,51146
2096921,2096921,448320,249327,51201
2096921,2096921,448421,249442,51020
2096921,2096921,448252,249437,51059
2096921,2096921,448677,249432,51146
2096921,2096921,448754,249554,51020
2096921,2096921,448676,249492,51020
2096921,2096921,448565,249496,51020
2096921,2096921,448851,249408,51020
2096921,2096921,449104,249633,50972
2096921,2096921,449139,249715,51020
2096921,2096921,449076,249684,51020
2096921,2096921,449355,249859,51020
2096921,2096921,449522,249809,51020
2096921,2096921,449534,249809,50972
2096921,2096921,449397,249731,51020
2096921,2096921,449548,249671,51020
2096921,2096921,449818,249893,51706
2096921,2096921,449785,249911,50972
2096921,2096921,449787,249917,50972
2096921,2096921,450016,249923,51146
2096921,2096921,450079,250105,51020
2096921,2096921,450078,250021,51020
2096921,2096921,450026,249926,51020
2096921,2096921,450204,249905,51107
2096921,2096921,450335,250091,51075
2096921,2096921,450333,250095,51706
2096921,2096921,450321,250080,51020
2096921,2096921,450563,250123,51201
2096921,2096921,450610,250219,51075
2096921,2096921,450608,250206,51043
2096921,2096921,450626,250163,51059
2096921,2096921,450771,250064,51233
2096921,2096921,451102,250342,51020
2096921,2096921,451101,250345,51043
2096921,2096921,451072,250291,51020
2096921,2096921,451245,250376,51146
2096921,2096921,451392,250536,51059
2096921,2096921,451333,250439,51706
2096921,2096921,451244,250371,51020
2096921,2096921,451450,250375,51146
2096921,2096921,451597,250623,51020
2096921,2096921,451583,250615,51059
2096921,2096921,451569,250565,51020
2096921,2096921,451878,250572,51020
2096921,2096921,451911,250755,51020
2096921,2096921,451864,250653,51043
2096921,2096921,451850,250682,51020
2096921,2096921,451918,250594,51059
2096921,2096921,452305,250760,50972
2096921,2096921,452233,250844,51706
2096921,2096921,452192,250823,51043
2096921,2096921,452416,250912,51059
2096921,2096921,452501,250942,51020
2096921,2096921,452486,250816,51020
2096921,2096921,452398,250757,51075
2096921,2096921,452538,250747,51107
2096921,2096921,452834,251029,51059
2096921,2096921,452833,250984,50972
2096921,2096921,452762,251020,51020
2096921,2096921,452910,251064,51107
2096921,2096921,452972,251137,51706
2096921,2096921,452975,250997,51020
2096921,2096921,452914,250966,51020
2096921,2096921,453068,250907,51146
2096921,2096921,453362,251236,51020
2096921,2096921,453351,251258,51020
2096921,2096921,453237,251189,51020
2096921,2096921,453547,251242,51107
2096921,2096921,453644,251352,51075
2096921,2096921,453625,251302,51020
2096921,2096921,453507,251337,51075
2096921,2096921,453580,251167,51107
2096921,2096921,453896,251310,51706
2096921,2096921,453821,251288,51075
2096921,2096921,453795,251401,51020
2096921,2096921,454003,251489,51706
2096921,2096921,454122,251487,51706
2096921,2096921,454058,251429,51020
2096921,2096921,454014,251351,51059
2096921,2096921,453984,251314,51059
2096921,2096921,454265,251547,51020
2096921,2096921,454316,251555,51706
2096921,2096921,454321,251530,51059
2096921,2096921,454456,251588,51020
2096921,2096921,454539,251696,51075
2096921,2096921,454430,251616,51020
2096921,2096921,454366,251580,51020
2096921,2096921,454535,251526,51201
2096921,2096921,454683,251700,51020
2096921,2096921,454673,251753,51043
2096921,2096921,454653,251743,51059
2096921,2096921,454874,251763,51107
2096921,2096921,454909,251778,51059
2096921,2096921,454812,251723,51020
2096921,2096921,454707,251747,51059
2096921,2096921,454924,251567,51706
2096921,2096921,455219,251823,51075
2096921,2096921,455117,251836,51020
2096921,2096921,455119,251832,51020
2096921,2096921,455318,251931,51193
2096921,2096921,455253,251956,51059
2096921,2096921,455288,251864,51059
2096921,2096921,455305,251939,51706
2096921,2096921,455368,251797,51146
2096921,2096921,455518,252043,51706
2096921,2096921,455532,252077,51075
2096921,2096921,455483,252078,51020
2096921,2096921,455726,252059,51146
2096921,2096921,455671,252116,50972
2096921,2096921,455674,252120,51020
2096921,2096921,455612,252068,51020
2096921,2096921,455691,251903,51146
2096921,2096921,455879,252129,51020
2096921,2096921,455797,252185,51020
2096921,2096921,455759,252163,51020
2096921,2096921,455951,252167,51107
2096921,2096921,456060,252209,51020
2096921,2096921,456002,252190,51020
2096921,2096921,455922,252191,51020
2096921,2096921,455944,252078,51020
2096921,2096921,456087,252242,51020
2096921,2096921,456176,252208,51020
2096921,2096921,456184,252198,51059
2096921,2096921,456351,252363,51107
2096921,2096921,456286,252457,51020
2096921,2096921,456328,252398,51020
2096921,2096921,456308,252271,51020
2096921,2096921,456249,252128,51146
2096921,2096921,456360,252377,51020
2096921,2096921,456341,252392,51075
2096921,2096921,456408,252351,51020
2096921,2096921,456530,252378,51146
2096921,2096921,456531,252547,51020
2096921,2096921,456443,252480,51020
2096921,2096921,456450,252374,51075
2096921,2096921,456542,252291,51193
2096921,2096921,456713,252528,51020
2096921,2096921,456718,252570,51020
2096921,2096921,456678,252498,51020
2096921,2096921,456793,252534,51146
2096921,2096921,456955,252616,51020
2096921,2096921,456817,252542,51020
2096921,2096921,456772,252434,51059
2096921,2096921,456800,252397,51193
2096921,2096921,457061,252634,51059
2096921,2096921,457008,252659,51059
2096921,2096921,456933,252647,51020
2096921,2096921,457054,252716,51201
2096921,2096921,457049,252661,51020
2096921,2096921,456986,252709,51059
2096921,2096921,456929,252573,51020
2096921,2096921,457073,252441,51107
2096921,2096921,457264,252813,51201
2096921,2096921,457319,252851,51020
2096921,2096921,457225,252830,51020
2096921,2096921,457373,252759,51020
2096921,2096921,457366,252806,51201
2096921,2096921,457267,252822,51020
2096921,2096921,457203,252729,51020
2096921,2096921,457111,252634,51059
2096921,2096921,457443,252833,51020
2096921,2096921,457465,252826,51020
2096921,2096921,457426,252834,51043
2096921,2096921,457436,252912,51107
2096921,2096921,457554,252878,51020
2096921,2096921,457579,252820,51075
2096921,2096921,457424,252844,51020
2096921,2096921,457441,252595,51020
2096921,2096921,457574,252904,51020
2096921,2096921,457659,252955,51043
2096921,2096921,457658,252878,51706
2096921,2096921,457763,252929,51146
2096921,2096921,457637,253020,51020
2096921,2096921,457605,252998,51020
2096921,2096921,457611,252891,51020
2096921,2096921,457671,252733,51193
2096921,2096921,457848,252920,51043
2096921,2096921,457809,252936,51020
2096921,2096921,457743,252975,51020
2096921,2096921,457877,253008,51146
2096921,2096921,457839,253076,51075
2096921,2096921,457815,253005,51020
2096921,2096921,457696,252977,51020
2096921,2096921,457713,252876,51107
2096921,2096921,457904,253034,51706
2096921,2096921,457908,253000,51020
2096921,2096921,457873,252991,51020
2096921,2096921,457916,253100,51233
2096921,2096921,457907,253184,51020
2096921,2096921,457961,253047,51059
2096921,2096921,457846,253062,51059
2096921,2096921,457789,252915,51059
2096921,2096921,457936,253156,51043
2096921,2096921,458059,253110,51706
2096921,2096921,458000,253038,51059
2096921,2096921,458035,253072,51059
2096921,2096921,458112,253118,51075
2096921,2096921,458015,253066,51059
2096921,2096921,457932,253072,51706
2096921,2096921,457849,252931,51107
2096921,2096921,458050,253051,51059
2096921,2096921,458038,253106,51020
2096921,2096921,457989,253141,51020
2096921,2096921,458109,253175,51107
2096921,2096921,458264,253215,51706
2096921,2096921,458101,253150,51020
2096921,2096921,458022,253084,51059
2096921,2096921,457998,253000,51201
2096921,2096921,458216,253258,51059
2096921,2096921,458211,253147,51020
2096921,2096921,458211,253178,51059
2096921,2096921,458185,253217,51193
2096921,2096921,458248,253256,51059
2096921,2096921,458171,253168,51020
2096921,2096921,458126,253117,51059
2096921,2096921,457752,252860,51107
2096921,2096921,457883,253065,51020
2096921,2096921,457840,253144,51020
2096921,2096921,457681,253140,51020
2096921,2096921,457635,253153,51146
2096921,2096921,457536,253057,51059
2096921,2096921,457391,252913,51059
2096921,2096921,457396,252937,51020
2096921,2096921,456787,252693,51146
2096921,2096921,456967,252697,51020
2096921,2096921,456912,252746,51059
2096921,2096921,456842,252752,51059
2096921,2096921,456224,252804,50972
2096921,2096921,456146,252650,50972
2096921,2096921,456112,252566,50972
2096921,2096921,455956,252502,51201
2096921,2096921,455267,252184,50972
2096921,2096921,455177,252344,51020
2096921,2096921,455184,252306,50972
2096921,2096921,455190,252229,51020
2096921,2096921,453753,251981,51107
2096921,2096921,453287,251744,50972
2096921,2096921,453165,251652,51201
2096921,2096921,453092,251541,50972
2096921,2096921,451189,251060,51107
2096921,2096921,450865,250852,50972
2096921,2096921,450787,250818,51201
2096921,2096921,450747,250853,50972
2096921,2096921,449427,250609,51107
2096921,2096921,449114,250294,50933
2096921,2096921,448901,250235,50972
2096921,2096921,448897,250193,50972
2096921,2096921,447769,249995,51107
2096921,2096921,447693,249867,51075
2096921,2096921,447705,249786,51706
2096921,2096921,447567,249787,51020
2096921,2096921,446778,249703,51201
2096921,2096921,446638,249565,51020
2096921,2096921,446568,249457,50972
2096921,2096921,446511,249447,51020
2096921,2096921,445936,249264,51146
2096921,2096921,445996,249449,50972
2096921,2096921,445898,249379,51020
2096921,2096921,445871,249358,50972
2096921,2096921,445559,249301,51107
2096921,2096921,445421,249207,50972
2096921,2096921,445310,249108,51201
2096921,2096921,445288,249084,50972
2096921,2096921,445076,248916,51020
2096921,2096921,445119,249044,50972
2096921,2096921,445078,249069,50972
2096921,2096921,445082,249047,51020
2096921,2096921,445016,249101,51107
2096921,2096921,445016,249083,51059
2096921,2096921,445038,248998,51059
2096921,2096921,444898,248962,51075
2096921,2096921,444919,248834,51020
2096921,2096921,445012,249057,51059
2096921,2096921,445078,249084,51020
2096921,2096921,445027,249035,51706
2096921,2096921,445253,249089,51146
2096921,2096921,445315,249251,51020
2096921,2096921,445270,249143,51020
2096921,2096921,445275,249042,51020
2096921,2096921,445284,248981,51193
2096921,2096921,445441,249286,51059
2096921,2096921,445484,249302,51020
2096921,2096921,445511,249209,51706
2096921,2096921,445707,249257,51193
2096921,2096921,445604,249405,51043
2096921,2096921,445599,249306,51059
2096921,2096921,445519,249238,51020
2096921,2096921,445795,249189,51146
2096921,2096921,445996,249512,51043
2096921,2096921,446023,249415,51059
2096921,2096921,445969,249420,51020
2096921,2096921,446407,249525,51193
2096921,2096921,446494,249590,51020
2096921,2096921,446446,249603,51706
2096921,2096921,446399,249506,51020
2096921,2096921,446684,249519,51146
2096921,2096921,446953,249724,51706
2096921,2096921,446978,249705,51020
2096921,2096921,447057,249693,51020
2096921,2096921,447366,249797,51059
2096921,2096921,447439,250001,51043
2096921,2096921,447384,249892,51706
2096921,2096921,447491,249890,50972
2096921,2096921,447658,249767,51059
2096921,2096921,447834,250077,51020
2096921,2096921,447874,250079,51020
2096921,2096921,447853,250040,51020
2096921,2096921,448314,250062,51059
2096921,2096921,448262,250219,51020
2096921,2096921,448206,250168,51020
2096921,2096921,448201,250168,51706
2096921,2096921,448502,250104,51706
2096921,2096921,448751,250337,51020
2096921,2096921,448726,250346,50972
2096921,2096921,448665,250246,50972
2096921,2096921,449051,250370,51107
2096921,2096921,449243,250516,51020
2096921,2096921,449175,250477,50972
2096921,2096921,449202,250417,51201
2096921,2096921,449471,250418,51146
2096921,2096921,449685,250678,50972
2096921,2096921,449632,250655,50972
2096921,2096921,449601,250590,51020
2096921,2096921,450133,250714,51193
2096921,2096921,450113,250842,51043
2096921,2096921,450084,250891,50972
2096921,2096921,450070,250786,50972
2096921,2096921,450437,250752,51146
2096921,2096921,450646,250992,51201
2096921,2096921,450637,251108,50972
2096921,2096921,450589,251012,50972
2096921,2096921,451078,251091,51107
2096921,2096921,451037,251114,50972
2096921,2096921,450983,251101,50972
2096921,2096921,450955,251076,51706
2096921,2096921,451232,251038,50972
2096921,2096921,451433,251208,51020
2096921,2096921,451465,251250,51706
2096921,2096921,451422,251243,51020
2096921,2096921,451742,251400,51020
2096921,2096921,451794,251395,51020
2096921,2096921,451782,251336,51020
2096921,2096921,451770,251294,50972
2096921,2096921,451825,251229,51107
2096921,2096921,452094,251481,50972
2096921,2096921,452033,251450,50972
2096921,2096921,452076,251398,50972
2096921,2096921,452293,251579,51107
2096921,2096921,452227,251547,50972
2096921,2096921,452249,251502,50972
2096921,2096921,452174,251524,50972
2096921,2096921,452250,251293,51107
2096921,2096921,452435,251545,51706
2096921,2096921,452395,251598,50972
2096921,2096921,452417,251624,51201
2096921,2096921,452491,251625,51201
2096921,2096921,452517,251658,50972
2096921,2096921,452388,251668,50972
2096921,2096921,452305,251634,50972
2096921,2096921,452300,251423,51146
2096921,2096921,452488,251583,50972
2096921,2096921,452484,251610,51075
2096921,2096921,452504,251615,50972
2096921,2096921,452526,251599,51107
2096921,2096921,452483,251625,50972
2096921,2096921,452382,251618,51075
2096921,2096921,452355,251502,50972
2096921,2096921,452269,251439,51059
2096921,2096921,452226,251624,50972
2096921,2096921,452215,251622,50972
2096921,2096921,452216,251539,50972
2096921,2096921,452306,251554,50972
2096921,2096921,452253,251567,51020
2096921,2096921,452115,251546,51020
2096921,2096921,452122,251536,50972
2096921,2096921,451944,251284,51020
2096921,2096921,452101,251530,51706
2096921,2096921,452050,251578,51020
2096921,2096921,452014,251546,51020
2096921,2096921,451948,251592,51107
2096921,2096921,452015,251465,50972
2096921,2096921,451909,251416,51020
2096921,2096921,451767,251441,51020
2096921,2096921,451836,251327,51107
2096921,2096921,451918,251441,50972
2096921,2096921,451931,251383,51020
2096921,2096921,451836,251354,51020
2096921,2096921,451914,251474,51146
2096921,2096921,451897,251567,51020
2096921,2096921,451906,251415,51020
2096921,2096921,451885,251391,51020
2096921,2096921,451928,251279,51146
2096921,2096921,451948,251495,50972
2096921,2096921,451931,251506,51043
2096921,2096921,451922,251521,51020
2096921,2096921,452244,251570,51146
2096921,2096921,452134,251540,51020
2096921,2096921,452028,251504,50972
2096921,2096921,452028,251494,50972
2096921,2096921,452063,251419,51107
2096921,2096921,452346,251538,51020
2096921,2096921,452231,251638,51020
2096921,2096921,452174,251607,51075
2096921,2096921,452591,251706,51107
2096921,2096921,452717,251725,51706
2096921,2096921,452585,251726,51706
2096921,2096921,452517,251667,51020
2096921,2096921,452805,251664,51107
2096921,2096921,453029,251871,51706
2096921,2096921,453075,251804,51020
2096921,2096921,453011,251792,51020
2096921,2096921,453312,251894,51020
2096921,2096921,453273,252077,51059
2096921,2096921,453327,251927,51020
2096921,2096921,453262,251830,51020
2096921,2096921,453386,251799,51020
2096921,2096921,453468,251969,51075
2096921,2096921,453508,252036,51020
2096921,2096921,453525,252005,51020
2096921,2096921,453854,252100,51107
2096921,2096921,453852,252156,50972
2096921,2096921,453715,252143,51706
2096921,2096921,453756,252130,51020
2096921,2096921,453872,251970,51107
2096921,2096921,454124,252200,51059
2096921,2096921,454089,252156,51059
2096921,2096921,454086,252177,51020
2096921,2096921,454300,252224,51146
2096921,2096921,454428,252300,51043
2096921,2096921,454368,252276,51020
2096921,2096921,454250,252237,51075
2096921,2096921,454401,252105,51146
2096921,2096921,454596,252407,51201
2096921,2096921,454614,252352,51020
2096921,2096921,454632,252390,51075
2096921,2096921,454948,252454,51146
2096921,2096921,454848,252492,51020
2096921,2096921,454772,252424,51020
2096921,2096921,454666,252425,51020
2096921,2096921,454976,252298,51059
2096921,2096921,455218,252594,51020
2096921,2096921,455155,252587,51020
2096921,2096921,455198,252634,51020
2096921,2096921,455439,252630,51706
2096921,2096921,455420,252583,51059
2096921,2096921,455375,252617,51020
2096921,2096921,455269,252572,51043
2096921,2096921,455430,252497,50972
2096921,2096921,455625,252686,51020
2096921,2096921,455627,252690,51020
2096921,2096921,455561,252700,51020
2096921,2096921,455884,252725,51107
2096921,2096921,455836,252710,50972
2096921,2096921,455804,252638,51020
2096921,2096921,455681,252616,51020
2096921,2096921,455821,252570,51107
2096921,2096921,455993,252798,51020
2096921,2096921,456021,252819,51020
2096921,2096921,455978,252781,51020
2096921,2096921,456314,252781,51146
2096921,2096921,456251,252862,50972
2096921,2096921,456155,252832,51020
2096921,2096921,456101,252804,50972
2096921,2096921,456303,252646,51193
2096921,2096921,456397,252956,51059
2096921,2096921,456451,252922,51075
2096921,2096921,456383,252930,51059
2096921,2096921,456726,253025,51193
2096921,2096921,456787,253055,51059
2096921,2096921,456692,253054,51020
2096921,2096921,456564,253039,51020
2096921,2096921,456672,252957,51146
2096921,2096921,456929,253072,51020
2096921,2096921,456851,253099,51706
2096921,2096921,456805,253050,51201
2096921,2096921,457062,253109,51201
2096921,2096921,457098,253200,51059
2096921,2096921,457044,253165,51706
2096921,2096921,456942,253067,51059
2096921,2096921,457044,253000,51107
2096921,2096921,457218,253226,51059
2096921,2096921,457147,253229,51075
2096921,2096921,457155,253147,51020
2096921,2096921,457415,253225,51059
2096921,2096921,457370,253265,51020
2096921,2096921,457345,253224,51059
2096921,2096921,457207,253170,51075
2096921,2096921,457350,253095,51020
2096921,2096921,457537,253287,51059
2096921,2096921,457545,253249,51020
2096921,2096921,457508,253336,51059
2096921,2096921,457720,253397,51107
2096921,2096921,457784,253362,51059
2096921,2096921,457689,253260,51201
2096921,2096921,457583,253285,51020
2096921,2096921,457674,253182,51146
2096921,2096921,457876,253409,51020
2096921,2096921,457902,253404,51075
2096921,2096921,457878,253370,51059
2096921,2096921,458003,253451,51146
2096921,2096921,457988,253520,51020
2096921,2096921,457876,253396,51059
2096921,2096921,457883,253278,51075
2096921,2096921,457903,253331,51193
2096921,2096921,458091,253484,51059
2096921,2096921,458074,253490,51020
2096921,2096921,458067,253438,51020
2096921,2096921,458319,253471,51233
2096921,2096921,458261,253588,51020
2096921,2096921,458146,253484,51020
2096921,2096921,458090,253524,51059
2096921,2096921,458153,253324,51146
2096921,2096921,458362,253484,51059
2096921,2096921,458386,253563,51020
2096921,2096921,458350,253500,51020
2096921,2096921,458548,253662,51193
2096921,2096921,458586,253622,51020
2096921,2096921,458465,253514,51706
2096921,2096921,458412,253451,51020
2096921,2096921,458424,253469,51107
2096921,2096921,458610,253702,51020
2096921,2096921,458588,253643,51020
2096921,2096921,458548,253631,51706
2096921,2096921,458693,253676,51020
2096921,2096921,458679,253676,51075
2096921,2096921,458684,253608,51020
2096921,2096921,458514,253596,51020
2096921,2096921,458577,253514,51107
2096921,2096921,458733,253688,51075
2096921,2096921,458737,253638,51020
2096921,2096921,458695,253686,51075
2096921,2096921,458893,253722,51201
2096921,2096921,458934,253750,51059
2096921,2096921,458847,253741,51020
2096921,2096921,458676,253705,51020
2096921,2096921,458780,253698,51146
2096921,2096921,459049,253775,51020
2096921,2096921,458944,253750,51059
2096921,2096921,458859,253743,51020
2096921,2096921,459003,253779,51107
2096921,2096921,458993,253793,51020
2096921,2096921,458952,253766,51043
2096921,2096921,458867,253689,51043
2096921,2096921,458896,253626,51201
2096921,2096921,459190,253918,50972
2096921,2096921,459127,253831,50972
2096921,2096921,459049,253782,51020
2096921,2096921,459181,253807,51706
2096921,2096921,459138,253794,51075
2096921,2096921,459078,253807,50972
2096921,2096921,458984,253807,51075
2096921,2096921,459192,253644,51706
2096921,2096921,459402,253931,51020
2096921,2096921,459251,253876,51075
2096921,2096921,459263,253879,50972
2096921,2096921,459371,253898,51107
2096921,2096921,459380,253850,50972
2096921,2096921,459275,253789,50972
2096921,2096921,459180,253800,50972
2096921,2096921,459159,253738,50972
2096921,2096921,459409,253774,51020
2096921,2096921,459393,253816,50972
2096921,2096921,459391,253905,51020
2096921,2096921,459500,253901,50972
2096921,2096921,459386,253926,50972
2096921,2096921,459359,253816,51201
2096921,2096921,459308,253768,50972
2096921,2096921,459311,253710,50972
2096921,2096921,459539,253970,50972
2096921,2096921,459535,253955,50972
2096921,2096921,459495,253942,51020
2096921,2096921,459676,254000,51107
2096921,2096921,459602,253958,51075
2096921,2096921,459520,254011,51706
2096921,2096921,459479,253987,50972
2096921,2096921,459493,253853,51201
2096921,2096921,459633,253885,51706
2096921,2096921,459556,253890,51075
2096921,2096921,459568,253962,50972
2096921,2096921,459650,253945,51107
2096921,2096921,459603,253948,51075
2096921,2096921,459589,253893,50972
2096921,2096921,459459,253877,50972
2096921,2096921,459421,253792,51233
2096921,2096921,459592,253955,51075
2096921,2096921,459582,253954,51059
2096921,2096921,459648,253928,51059
2096921,2096921,459709,253960,51201
2096921,2096921,459607,253996,51020
2096921,2096921,459558,253944,51706
2096921,2096921,459559,253949,51020
2096921,2096921,459503,253817,51201
2096921,2096921,459527,253891,51020
2096921,2096921,459432,253953,51075
2096921,2096921,459537,253902,51059
2096921,2096921,459661,253932,51146
2096921,2096921,459607,253948,51020
2096921,2096921,459451,253880,51059
2096921,2096921,459504,253878,51059
2096921,2096921,459467,253747,51020
2096921,2096921,459676,253915,51020
2096921,2096921,459627,253990,51020
2096921,2096921,459612,253980,51059
2096921,2096921,459703,254011,51201
2096921,2096921,459582,253989,51020
2096921,2096921,459567,253948,51075
2096921,2096921,459479,253912,51020
2096921,2096921,459483,253808,51146
2096921,2096921,459600,254012,51020
2096921,2096921,459578,253976,51020
2096921,2096921,459720,253891,51020
2096921,2096921,459703,253959,51107
2096921,2096921,459576,254039,51059
2096921,2096921,459523,253998,51020
2096921,2096921,459498,253883,51020
2096921,2096921,459251,253673,51233
2096921,2096921,459165,253811,51059
2096921,2096921,459083,253832,51059
2096921,2096921,459152,253829,51020
2096921,2096921,459041,253836,51193
2096921,2096921,458797,253810,51020
2096921,2096921,458732,253748,51059
2096921,2096921,458666,253678,51075
2096921,2096921,458185,253421,51193
2096921,2096921,458186,253553,51059
2096921,2096921,458176,253459,51020
2096921,2096921,458199,253499,51706
2096921,2096921,457575,253305,51193
2096921,2096921,457314,253307,51059
2096921,2096921,457214,253174,51020
2096921,2096921,457180,253142,51043
2096921,2096921,456473,252897,51201
2096921,2096921,456388,252985,51020
2096921,2096921,456355,253046,51059
2096921,2096921,456480,252912,51020
2096921,2096921,454977,252548,51020
2096921,2096921,454447,252282,51020
2096921,2096921,454252,252258,51020
2096921,2096921,454200,252246,51020
2096921,2096921,452369,251582,51020
2096921,2096921,451913,251434,51020
2096921,2096921,451915,251531,51020
2096921,2096921,451827,251530,51059
2096921,2096921,450462,251110,51020
2096921,2096921,450033,250869,51020
2096921,2096921,450026,250816,51059
2096921,2096921,449864,250815,51020
2096921,2096921,448740,250434,51146
2096921,2096921,448603,250448,51706
2096921,2096921,448638,250404,51043
2096921,2096921,448618,250458,51020
2096921,2096921,447892,250180,51146
2096921,2096921,447545,250187,51020
2096921,2096921,447534,250045,51020
2096921,2096921,447401,249959,51706
2096921,2096921,446888,249773,51193
2096921,2096921,446910,249852,51020
2096921,2096921,446855,249844,51020
2096921,2096921,446855,249887,50972
2096921,2096921,446493,249752,51193
2096921,2096921,446322,249693,51020
2096921,2096921,446257,249594,51020
2096921,2096921,446116,249557,51020
2096921,2096921,445854,249442,51201
2096921,2096921,445947,249544,51020
2096921,2096921,446038,249436,51075
2096921,2096921,445983,249561,51020
2096921,2096921,445954,249541,51146
2096921,2096921,445844,249601,51020
2096921,2096921,445860,249475,51020
2096921,2096921,445753,249421,51706
2096921,2096921,445753,249347,51146
2096921,2096921,445938,249568,51020
2096921,2096921,445941,249519,51020
2096921,2096921,445872,249508,51020
2096921,2096921,446151,249611,51059
2096921,2096921,446038,249637,51020
2096921,2096921,446001,249542,51020
2096921,2096921,445948,249510,51020
2096921,2096921,446020,249417,51107
2096921,2096921,446192,249654,51043
2096921,2096921,446154,249612,51059
2096921,2096921,446146,249622,50972
2096921,2096921,446386,249633,51107
2096921,2096921,446349,249713,51020
2096921,2096921,446243,249702,51201
2096921,2096921,446206,249665,51020
2096921,2096921,446505,249571,51706
2096921,2096921,446713,249819,51020
2096921,2096921,446656,249800,51020
2096921,2096921,446659,249711,51059
2096921,2096921,447102,249916,51193
2096921,2096921,447091,249895,51020
2096921,2096921,447094,249885,51020
2096921,2096921,446902,249771,51043
2096921,2096921,447263,249789,51193
2096921,2096921,447601,250099,51043
2096921,2096921,447557,250081,51020
2096921,2096921,447567,250008,51059
2096921,2096921,447977,249999,51107
2096921,2096921,447993,250275,50972
2096921,2096921,447982,250199,51020
2096921,2096921,447919,250146,51020
2096921,2096921,448254,250172,51193
2096921,2096921,448494,250381,51075
2096921,2096921,448460,250381,51020
2096921,2096921,448489,250419,51020
2096921,2096921,448839,250389,51107
2096921,2096921,448812,250511,51201
2096921,2096921,448737,250466,51706
2096921,2096921,448693,250426,51020
2096921,2096921,449023,250388,51059
2096921,2096921,449264,250584,51020
2096921,2096921,449310,250623,51059
2096921,2096921,449198,250601,51020
2096921,2096921,449673,250680,51020
2096921,2096921,449679,250735,51020
2096921,2096921,449617,250663,51020
2096921,2096921,449545,250634,51020
2096921,2096921,449896,250539,51107
2096921,2096921,450070,250927,51020
2096921,2096921,450062,250908,51706
2096921,2096921,450162,250820,51059
2096921,2096921,450594,250977,51107
2096921,2096921,450491,251072,51020
2096921,2096921,450447,251027,51043
2096921,2096921,450438,250973,51020
2096921,2096921,450785,250968,51146
2096921,2096921,451022,251240,51075
2096921,2096921,450901,251206,51020
2096921,2096921,450988,251243,51020
2096921,2096921,451434,251290,51146
2096921,2096921,451524,251305,51020
2096921,2096921,451397,251204,51020
2096921,2096921,451323,251205,51020
2096921,2096921,451583,251239,51146
2096921,2096921,451770,251451,51020
2096921,2096921,451732,251391,51020
2096921,2096921,451835,251446,51706
2096921,2096921,452110,251501,51146
2096921,2096921,452090,251560,51020
2096921,2096921,452119,251554,51020
2096921,2096921,451947,251437,51020
2096921,2096921,452065,251321,51146
2096921,2096921,452218,251593,51020
2096921,2096921,452234,251561,51059
2096921,2096921,452340,251642,51706
2096921,2096921,452634,251622,51193
2096921,2096921,452546,251651,51020
2096921,2096921,452431,251679,51059
2096921,2096921,452347,251637,51059
2096921,2096921,452516,251570,51020
2096921,2096921,452703,251703,51020
2096921,2096921,452654,251750,51020
2096921,2096921,452657,251801,51020
2096921,2096921,452787,251751,51020
2096921,2096921,452643,251725,51059
2096921,2096921,452536,251696,51020
2096921,2096921,452537,251525,51075
2096921,2096921,452516,251507,51107
2096921,2096921,452616,251702,51059
2096921,2096921,452624,251697,51706
2096921,2096921,452694,251645,51059
2096921,2096921,452568,251668,51107
2096921,2096921,452412,251695,51075
2096921,2096921,452373,251565,51020
2096921,2096921,452358,251518,51059
2096921,2096921,452265,251403,51193
2096921,2096921,452319,251645,51075
2096921,2096921,452277,251592,51059
2096921,2096921,452322,251615,51059
2096921,2096921,452294,251455,51146
2096921,2096921,452100,251515,51020
2096921,2096921,452038,251519,51020
2096921,2096921,451915,251522,51059
2096921,2096921,451880,251300,51201
2096921,2096921,451997,251455,51020
2096921,2096921,451915,251411,51059
2096921,2096921,451909,251451,51043
2096921,2096921,451872,251406,51193
2096921,2096921,451849,251359,51020
2096921,2096921,451763,251373,51020
2096921,2096921,451655,251318,51020
2096921,2096921,451739,251168,51107
2096921,2096921,451824,251377,51020
2096921,2096921,451751,251420,51201
2096921,2096921,451853,251366,51043
2096921,2096921,451817,251358,51059
2096921,2096921,451715,251392,51020
2096921,2096921,451691,251436,51020
2096921,2096921,451638,251348,51075
2096921,2096921,451699,251162,51059
2096921,2096921,451751,251369,51020
2096921,2096921,451753,251419,51020
2096921,2096921,451739,251404,51020
2096921,2096921,451980,251439,51193
2096921,2096921,451954,251416,51059
2096921,2096921,451863,251402,51020
2096921,2096921,451710,251326,51020
2096921,2096921,451859,251294,51146
2096921,2096921,452106,251386,51020
2096921,2096921,451966,251373,51020
2096921,2096921,451980,251394,51020
2096921,2096921,452315,251575,51146
2096921,2096921,452253,251532,50972
2096921,2096921,452226,251455,51020
2096921,2096921,452126,251429,51020
2096921,2096921,452407,251391,51146
2096921,2096921,452708,251667,51043
2096921,2096921,452635,251634,51059
2096921,2096921,452663,251588,51020
2096921,2096921,452969,251691,51193
2096921,2096921,452908,251737,51020
2096921,2096921,452864,251821,50972
2096921,2096921,452779,251675,51020
2096921,2096921,453045,251555,51107
2096921,2096921,453205,251762,51020
2096921,2096921,453168,251769,51075
2096921,2096921,453141,251867,51075
2096921,2096921,453415,251914,51107
2096921,2096921,453428,251935,51059
2096921,2096921,453295,251800,51020
2096921,2096921,453218,251767,51059
2096921,2096921,453435,251776,51193
2096921,2096921,453740,251914,51059
2096921,2096921,453633,251929,51059
2096921,2096921,453647,251920,51059
2096921,2096921,453837,251991,51020
2096921,2096921,453780,251968,51706
2096921,2096921,453781,251994,51059
2096921,2096921,453654,251859,51020
2096921,2096921,453869,251918,51059
2096921,2096921,454089,252050,51059
2096921,2096921,454072,252061,51043
2096921,2096921,454096,252035,51059
2096921,2096921,454321,252116,51193
2096921,2096921,454355,252121,51706
2096921,2096921,454290,252105,51020
2096921,2096921,454126,252044,51020
2096921,2096921,454379,252072,51107
2096921,2096921,454540,252230,51059
2096921,2096921,454462,252220,51706
2096921,2096921,454497,252278,51020
2096921,2096921,454772,252294,51146
2096921,2096921,454824,252298,51059
2096921,2096921,454707,252212,51075
2096921,2096921,454577,252208,51706
2096921,2096921,454811,252211,51146
2096921,2096921,454968,252299,51059
2096921,2096921,454986,252264,51059
2096921,2096921,454985,252230,51059
2096921,2096921,455264,252379,51146
2096921,2096921,455167,252372,51706
2096921,2096921,455185,252372,51059
2096921,2096921,454958,252254,51059
2096921,2096921,455205,252256,51146
2096921,2096921,455304,252374,51706
2096921,2096921,455361,252379,51059
2096921,2096921,455411,252335,51706
2096921,2096921,455577,252446,51107
2096921,2096921,455489,252474,50972
2096921,2096921,455417,252398,51075
2096921,2096921,455326,252392,50972
2096921,2096921,455673,252320,50972
2096921,2096921,455796,252555,50972
2096921,2096921,455819,252566,50972
2096921,2096921,455781,252593,50972
2096921,2096921,455961,252667,50972
2096921,2096921,455978,252613,51075
2096921,2096921,455896,252587,50972
2096921,2096921,455760,252537,51075
2096921,2096921,455934,252553,51059
2096921,2096921,456085,252650,50972
2096921,2096921,456071,252596,51706
2096921,2096921,456007,252544,51706
2096921,2096921,456231,252606,51706
2096921,2096921,456201,252713,50972
2096921,2096921,456121,252662,50972
2096921,2096921,456053,252568,50972
2096921,2096921,456204,252493,51107
2096921,2096921,456306,252712,50972
2096921,2096921,456342,252715,50972
2096921,2096921,456242,252659,51075
2096921,2096921,456556,252714,51146
2096921,2096921,456450,252735,50972
2096921,2096921,456327,252706,50972
2096921,2096921,456237,252628,51075
2096921,2096921,456424,252621,51107
2096921,2096921,456520,252758,50972
2096921,2096921,456536,252739,51020
2096921,2096921,456627,252703,51020
2096921,2096921,456738,252852,51059
2096921,2096921,456690,252846,50972
2096921,2096921,456726,252707,50972
2096921,2096921,456588,252682,50972
2096921,2096921,456756,252620,51059
2096921,2096921,456896,252940,50972
2096921,2096921,456867,252965,51020
2096921,2096921,457010,252794,50972
2096921,2096921,457080,252842,51020
2096921,2096921,456963,252949,51020
2096921,2096921,456914,252872,51020
2096921,2096921,456694,252837,51020
2096921,2096921,456993,252691,51020
2096921,2096921,457074,252910,51020
2096921,2096921,457007,252858,51043
2096921,2096921,457110,252940,51043
2096921,2096921,457266,252917,51706
2096921,2096921,457148,252986,51706
2096921,2096921,457132,252873,51020
2096921,2096921,456937,252808,51020
2096921,2096921,457135,252734,51107
2096921,2096921,457293,252957,51020
2096921,2096921,457259,252948,51020
2096921,2096921,457297,252936,51020
2096921,2096921,457380,253020,51146
2096921,2096921,457301,253086,51020
2096921,2096921,457336,252974,51075
2096921,2096921,457199,252824,51020
2096921,2096921,457364,252806,51146
2096921,2096921,457390,253025,51020
2096921,2096921,457329,252962,51020
2096921,2096921,457453,252953,51706
2096921,2096921,457589,252942,51107
2096921,2096921,457398,252972,51075
2096921,2096921,457328,252982,51020
2096921,2096921,457235,252912,51075
2096921,2096921,457360,252851,51146
2096921,2096921,457447,252915,51020
2096921,2096921,457362,252940,51020
2096921,2096921,457467,252927,51201
2096921,2096921,457519,252963,51146
2096921,2096921,457467,252948,51075
2096921,2096921,457421,252901,51059
2096921,2096921,457298,252863,50972
2096921,2096921,457443,252845,51020
2096921,2096921,457484,253037,51020
2096921,2096921,457494,252978,51020
2096921,2096921,457623,252976,51075
2096921,2096921,457661,253054,51059
2096921,2096921,457502,253021,51706
2096921,2096921,457485,252924,51020
2096921,2096921,457426,252904,51706
2096921,2096921,457527,252863,51020
2096921,2096921,457610,253049,51706
2096921,2096921,457603,253100,51059
2096921,2096921,457706,252974,51020
2096921,2096921,457743,252959,51107
2096921,2096921,457621,252993,51706
2096921,2096921,457526,252917,51075
2096921,2096921,457439,252901,51020
2096921,2096921,457583,252844,51146
2096921,2096921,457667,253007,51059
2096921,2096921,457602,252945,51020
2096921,2096921,457718,252995,51059
2096921,2096921,457797,253077,51706
2096921,2096921,457740,253025,51020
2096921,2096921,457580,252947,51020
2096921,2096921,457517,252862,51075
2096921,2096921,457661,252771,51193
2096921,2096921,457735,253010,51043
2096921,2096921,457777,253033,51059
2096921,2096921,457814,252909,51020
2096921,2096921,457874,253021,51193
2096921,2096921,457740,253063,51020
2096921,2096921,457674,252968,51020
2096921,2096921,457638,252880,51020
2096921,2096921,457689,252784,51193
2096921,2096921,457769,253008,51020
2096921,2096921,457702,253066,51020
2096921,2096921,457763,252983,51020
2096921,2096921,457885,253037,51020
2096921,2096921,457784,253076,51020
2096921,2096921,457663,252943,51075
2096921,2096921,457568,252895,51706
2096921,2096921,457622,252757,51059
2096921,2096921,457701,252897,51020
2096921,2096921,457706,252900,51020
2096921,2096921,457789,252935,51020
2096921,2096921,457788,252898,51059
2096921,2096921,457730,253006,51020
2096921,2096921,457797,252912,51020
2096921,2096921,457646,252826,51020
2096921,2096921,457657,252713,51107
2096921,2096921,457689,252958,51201
2096921,2096921,457719,252966,51059
2096921,2096921,457769,252822,51020
2096921,2096921,457710,252894,51146
2096921,2096921,457576,252877,51075
2096921,2096921,457508,252828,51706
2096921,2096921,457460,252753,51043
2096921,2096921,457539,252654,51193
2096921,2096921,457539,252844,51020
2096921,2096921,457497,252869,51201
2096921,2096921,457532,252830,51020
2096921,2096921,457516,252807,51146
2096921,2096921,457489,252807,51020
2096921,2096921,457397,252757,51020
2096921,2096921,457297,252718,51059
2096921,2096921,457324,252644,51107
2096921,2096921,457472,252747,51020
2096921,2096921,457468,252782,51059
2096921,2096921,457481,252757,51706
2096921,2096921,457466,252803,51146
2096921,2096921,457380,252751,51020
2096921,2096921,457381,252723,51020
2096921,2096921,457193,252656,51020
2096921,2096921,457240,252578,51075
2096921,2096921,457297,252732,51201
2096921,2096921,457277,252741,50972
2096921,2096921,457384,252662,51059
2096921,2096921,457391,252729,51059
2096921,2096921,457263,252686,51059
2096921,2096921,457251,252640,51059
2096921,2096921,457104,252589,51020
2096921,2096921,456867,252429,51146
2096921,2096921,456790,252515,51706
2096921,2096921,456794,252494,51020
2096921,2096921,456842,252441,51043
2096921,2096921,456563,252492,51107
2096921,2096921,456442,252420,51706
2096921,2096921,456358,252270,51201
2096921,2096921,456234,252299,51020
2096921,2096921,455764,252190,51107
2096921,2096921,455848,252184,51059
2096921,2096921,455797,252077,51059
2096921,2096921,455799,252106,51059
2096921,2096921,455105,251962,51193
2096921,2096921,454841,251910,51059
2096921,2096921,454815,251863,51020
2096921,2096921,454633,251758,51059
2096921,2096921,453956,251480,51193
2096921,2096921,453867,251613,51020
2096921,2096921,453852,251535,51706
2096921,2096921,453960,251533,51020
2096921,2096921,452378,251028,51107
2096921,2096921,451884,250916,51059
2096921,2096921,451759,250778,51020
2096921,2096921,451606,250659,51020
2096921,2096921,449765,250080,51146
2096921,2096921,449387,249970,51201
2096921,2096921,449284,250022,51059
2096921,2096921,449308,249978,51706
2096921,2096921,447845,249617,51107
2096921,2096921,447437,249387,51020
2096921,2096921,447379,249293,51201
2096921,2096921,447266,249307,51059
2096921,2096921,446180,248929,51059
2096921,2096921,445887,248996,51020
2096921,2096921,445955,248897,51020
2096921,2096921,446003,248829,51020
2096921,2096921,445170,248635,51020
2096921,2096921,444780,248589,51201
2096921,2096921,444690,248508,51059
2096921,2096921,444720,248477,51043
2096921,2096921,444249,248193,51107
2096921,2096921,444045,248308,51020
2096921,2096921,444006,248431,51059
2096921,2096921,444102,248217,51020
2096921,2096921,443758,248184,51107
2096921,2096921,443550,248151,51059
2096921,2096921,443469,248102,51020
2096921,2096921,443343,248063,51075
2096921,2096921,443143,247800,51233
2096921,2096921,443141,247905,51059
2096921,2096921,443080,247858,51059
2096921,2096921,443158,247868,51059
2096921,2096921,443111,248008,51193
2096921,2096921,442905,247870,51706
2096921,2096921,442876,247811,51020
2096921,2096921,442800,247754,51059
2096921,2096921,442937,247765,51146
2096921,2096921,442935,247904,51706
2096921,2096921,442891,247922,51020
2096921,2096921,442929,247855,51020
2096921,2096921,443235,247884,51193
2096921,2096921,443033,247938,51043
2096921,2096921,442944,247846,51706
2096921,2096921,442922,247804,51020
2096921,2096921,443034,247681,51146
2096921,2096921,443025,247839,51059
2096921,2096921,443031,247905,51059
2096921,2096921,443114,247903,51706
2096921,2096921,443253,247931,51107
2096921,2096921,443199,247874,51059
2096921,2096921,443110,247779,51059
2096921,2096921,443017,247879,51059
2096921,2096921,443459,247970,51107
2096921,2096921,443616,247975,51059
2096921,2096921,443515,247992,51020
2096921,2096921,443485,247996,51043
2096921,2096921,443854,248212,51107
2096921,2096921,443934,248056,51020
2096921,2096921,443891,247994,51020
2096921,2096921,443674,248011,51020
2096921,2096921,444069,248046,51146
2096921,2096921,444233,248206,51706
2096921,2096921,444226,248160,51059
2096921,2096921,444291,248259,51020
2096921,2096921,444628,248367,51146
2096921,2096921,444655,248430,51043
2096921,2096921,444646,248340,51020
2096921,2096921,444502,248311,51059
2096921,2096921,444910,248347,51146
2096921,2096921,445137,248458,51020
2096921,2096921,444993,248479,51020
2096921,2096921,444990,248477,51020
2096921,2096921,445310,248584,51706
2096921,2096921,445407,248551,51043
2096921,2096921,445308,248482,51020
2096921,2096921,445114,248496,51020
2096921,2096921,445558,248523,51146
2096921,2096921,445868,248655,51020
2096921,2096921,445752,248589,51020
2096921,2096921,445683,248620,51020
2096921,2096921,446016,248782,51107
2096921,2096921,446077,248722,51020
2096921,2096921,446048,248654,51706
2096921,2096921,445935,248632,51020
2096921,2096921,446322,248636,51020
2096921,2096921,446519,248866,51020
2096921,2096921,446526,248828,51020
2096921,2096921,446479,248792,51020
2096921,2096921,446839,248958,51059
2096921,2096921,446890,248969,51043
2096921,2096921,446817,248987,51059
2096921,2096921,446698,248917,51706
2096921,2096921,447098,248988,51107
2096921,2096921,447354,249127,51020
2096921,2096921,447334,249122,51020
2096921,2096921,447304,249132,51020
2096921,2096921,447606,249309,51107
2096921,2096921,447655,249197,51059
2096921,2096921,447600,249082,51020
2096921,2096921,447477,249122,51020
2096921,2096921,447764,249116,51706
2096921,2096921,447922,249285,51020
2096921,2096921,447876,249203,51706
2096921,2096921,448021,249275,51043
2096921,2096921,448175,249395,51107
2096921,2096921,448226,249356,51075
2096921,2096921,448152,249254,51020
2096921,2096921,448037,249228,51706
2096921,2096921,448322,249183,51146
2096921,2096921,448373,249340,51059
2096921,2096921,448329,249360,51020
2096921,2096921,448475,249324,51020
2096921,2096921,448569,249470,51201
2096921,2096921,448540,249474,51706
2096921,2096921,448474,249382,50972
2096921,2096921,448287,249370,51020
2096921,2096921,448479,249276,51107
2096921,2096921,448647,249420,51020
2096921,2096921,448567,249357,51020
2096921,2096921,448593,249398,51075
2096921,2096921,448642,249487,50972
2096921,2096921,448561,249472,51020
2096921,2096921,448494,249325,51059
2096921,2096921,448344,249274,51020
2096921,2096921,448463,249257,51020
2096921,2096921,448494,249428,51706
2096921,2096921,448485,249357,51020
2096921,2096921,448461,249323,51059
2096921,2096921,448427,249317,51107
2096921,2096921,448248,249301,51020
2096921,2096921,448278,249204,51020
2096921,2096921,448168,249138,51020
2096921,2096921,448090,249019,51146
2096921,2096921,448126,249254,51706
2096921,2096921,448134,249209,51020
2096921,2096921,448160,249189,51020
2096921,2096921,448103,249153,51193
2096921,2096921,447979,249080,51075
2096921,2096921,447895,249102,51043
2096921,2096921,447699,249053,51706
2096921,2096921,447715,248921,51193
2096921,2096921,447744,249070,51020
2096921,2096921,447709,249042,51020
2096921,2096921,447796,249112,51201
2096921,2096921,447566,249129,51193
2096921,2096921,447602,249042,51706
2096921,2096921,447568,248918,51020
2096921,2096921,447449,248916,51059
2096921,2096921,447402,248896,51146
2096921,2096921,447483,248955,51020
2096921,2096921,447536,248900,51075
2096921,2096921,447587,248902,51075
2096921,2096921,447622,248941,51146
2096921,2096921,447451,248954,51075
2096921,2096921,447330,248879,51706
2096921,2096921,447305,248830,51059
2096921,2096921,447454,248733,51020
2096921,2096921,447494,248936,51020
2096921,2096921,447511,248985,51075
2096921,2096921,447469,248929,51020
2096921,2096921,447524,248980,51020
2096921,2096921,447536,248918,51020
2096921,2096921,447421,248870,51706
2096921,2096921,447247,248842,51043
2096921,2096921,447396,248739,51020
2096921,2096921,447615,249030,51020
2096921,2096921,447571,248945,51059
2096921,2096921,447587,248899,51706
2096921,2096921,447765,249104,51146
2096921,2096921,447790,249061,51075
2096921,2096921,447758,248967,51020
2096921,2096921,447651,248864,51706
2096921,2096921,448051,248979,51146
2096921,2096921,448117,249148,51059
2096921,2096921,448143,249110,51706
2096921,2096921,448181,248995,51201
2096921,2096921,448436,249135,51146
2096921,2096921,448371,249148,51059
2096921,2096921,448300,249189,51059
2096921,2096921,448237,249039,51059
2096921,2096921,448518,249054,51706
2096921,2096921,448613,249249,50972
2096921,2096921,448602,249239,50972
2096921,2096921,448605,249175,50972
2096921,2096921,448844,249288,51059
2096921,2096921,448834,249320,51075
2096921,2096921,448789,249249,50972
2096921,2096921,448711,249224,50972
2096921,2096921,448932,249239,51059
2096921,2096921,449096,249404,51706
2096921,2096921,449064,249409,50972
2096921,2096921,449126,249338,50972
2096921,2096921,449298,249473,51706
2096921,2096921,449122,249378,50972
2096921,2096921,449130,249389,50972
2096921,2096921,449061,249250,50972
2096921,2096921,449313,249297,51020
2096921,2096921,449387,249548,50972
2096921,2096921,449377,249474,50933
2096921,2096921,449449,249407,50972
2096921,2096921,449741,249592,51059
2096921,2096921,449519,249564,50972
2096921,2096921,449512,249485,50972
2096921,2096921,449447,249422,50972
2096921,2096921,449755,249378,51075
2096921,2096921,449796,249487,50972
2096921,2096921,449735,249610,50933
2096921,2096921,449801,249600,51201
2096921,2096921,449952,249661,51059
2096921,2096921,449959,249574,50972
2096921,2096921,449888,249602,50972
2096921,2096921,449760,249459,50972
2096921,2096921,450002,249482,51193
2096921,2096921,450113,249636,50972
2096921,2096921,450125,249579,51075
2096921,2096921,450083,249641,51020
2096921,2096921,450276,249743,51146
2096921,2096921,450200,249728,50972
2096921,2096921,450208,249663,50972
2096921,2096921,450044,249493,50972
2096921,2096921,450325,249541,51201
2096921,2096921,450479,249743,51020
2096921,2096921,450482,249697,51059
2096921,2096921,450538,249704,51020
2096921,2096921,450759,249821,51201
2096921,2096921,450611,249764,51706
2096921,2096921,450469,249740,51020
2096921,2096921,450417,249603,51020
2096921,2096921,450762,249566,51146
2096921,2096921,450793,249764,51043
2096921,2096921,450708,249745,51020
2096921,2096921,450740,249817,51020
2096921,2096921,450965,249901,51020
2096921,2096921,450952,249778,51020
2096921,2096921,450884,249789,51020
2096921,2096921,450775,249699,51020
2096921,2096921,451011,249739,51020
2096921,2096921,451156,249859,51020
2096921,2096921,451218,249807,51043
2096921,2096921,451117,249864,50972
2096921,2096921,451265,249970,51107
2096921,2096921,451212,249941,51020
2096921,2096921,451158,249870,51075
2096921,2096921,451047,249705,51706
2096921,2096921,451263,249790,51201
2096921,2096921,451304,249987,51020
2096921,2096921,451260,249927,51059
2096921,2096921,451271,249874,51059
2096921,2096921,451496,250047,51146
2096921,2096921,451447,249920,51075
2096921,2096921,451338,249949,50972
2096921,2096921,451245,249842,51020
2096921,2096921,451519,249832,51107
2096921,2096921,451622,249993,51706
2096921,2096921,451580,249989,51201
2096921,2096921,451620,249975,51020
2096921,2096921,451731,250137,51107
2096921,2096921,451624,249966,50972
2096921,2096921,451624,249906,50972
2096921,2096921,451481,249848,51706
2096921,2096921,451671,249899,51146
2096921,2096921,451740,250016,51075
2096921,2096921,451809,249983,51059
2096921,2096921,451818,249966,51075
2096921,2096921,451880,250145,51146
2096921,2096921,451869,250045,51020
2096921,2096921,451834,250017,51020
2096921,2096921,451788,249803,51059
2096921,2096921,451904,249839,51020
2096921,2096921,451943,250092,51706
2096921,2096921,451835,250115,51059
2096921,2096921,451833,250104,51059
2096921,2096921,452064,250110,51201
2096921,2096921,451996,250081,51020
2096921,2096921,451914,250012,51020
2096921,2096921,451714,249946,51059
2096921,2096921,451900,249957,51201
2096921,2096921,452073,250021,51706
2096921,2096921,452032,249992,51706
2096921,2096921,452071,250054,51020
2096921,2096921,452139,250196,51146
2096921,2096921,452092,250072,51075
2096921,2096921,452024,249941,51075
2096921,2096921,451971,249914,51706
2096921,2096921,452083,249932,51107
2096921,2096921,452079,250072,51020
2096921,2096921,452118,250062,51706
2096921,2096921,452207,250064,51201
2096921,2096921,452251,250140,51146
2096921,2096921,452148,250163,51706
2096921,2096921,452045,250095,51020
2096921,2096921,452015,249958,51075
2096921,2096921,452204,249937,51107
2096921,2096921,452183,250074,51706
2096921,2096921,452179,250140,50972
2096921,2096921,452196,250098,51020
2096921,2096921,452294,250117,51107
2096921,2096921,452201,250085,51059
2096921,2096921,452117,250003,51020
2096921,2096921,452056,249972,51059
2096921,2096921,452204,249948,51146
2096921,2096921,452251,250097,51201
2096921,2096921,452232,250000,51020
2096921,2096921,452253,250070,51020
2096921,2096921,452271,250114,51059
2096921,2096921,452259,250018,51020
2096921,2096921,452244,249950,51020
2096921,2096921,452134,249955,51020
2096921,2096921,452238,249912,51020
2096921,2096921,452287,250215,51020
2096921,2096921,452277,250139,51075
2096921,2096921,452314,249999,51059
2096921,2096921,452464,250061,51146
2096921,2096921,452298,250079,51020
2096921,2096921,452191,249990,51059
2096921,2096921,452131,249881,51706
2096921,2096921,452379,249917,51146
2096921,2096921,452407,250008,51075
2096921,2096921,452310,250036,51706
2096921,2096921,452387,250045,51059
2096921,2096921,452444,250154,51107
2096921,2096921,452432,250019,51059
2096921,2096921,452281,249955,51075
2096921,2096921,452134,249885,51201
2096921,2096921,452351,249825,51193
2096921,2096921,452383,250023,51059
2096921,2096921,452353,250059,51075
2096921,2096921,452405,250035,51706
2096921,2096921,452504,250074,51193
2096921,2096921,452458,250076,51043
2096921,2096921,452332,250030,51706
2096921,2096921,452208,249867,51075
2096921,2096921,452472,249778,51146
2096921,2096921,452438,250057,51020
2096921,2096921,452363,250019,51059
2096921,2096921,452449,250017,51020
2096921,2096921,452543,250048,51107
2096921,2096921,452389,250050,51706
2096921,2096921,452302,249952,51020
2096921,2096921,452222,249849,51201
2096921,2096921,452375,249819,51107
2096921,2096921,452319,249886,50972
2096921,2096921,452355,249931,51075
2096921,2096921,452278,249970,50972
2096921,2096921,452478,250028,50972
2096921,2096921,452328,249938,50972
2096921,2096921,452288,249885,50972
2096921,2096921,452159,249870,50972
2096921,2096921,452264,249752,51059
2096921,2096921,452296,249931,51706
2096921,2096921,452225,249881,50933
2096921,2096921,452262,249865,50972
2096921,2096921,452298,249909,51059
2096921,2096921,452181,249863,50972
2096921,2096921,452082,249815,50972
2096921,2096921,452051,249741,51075
2096921,2096921,452221,249710,51107
2096921,2096921,452195,249841,50972
2096921,2096921,452126,249895,51075
2096921,2096921,452229,249883,50972
2096921,2096921,452296,249905,51146
2096921,2096921,452146,249923,50972
2096921,2096921,452036,249832,50972
2096921,2096921,451977,249780,50972
2096921,2096921,452110,249723,51201
2096921,2096921,452168,249831,51020
2096921,2096921,452050,249810,50972
2096921,2096921,452185,249749,51020
2096921,2096921,452080,249822,51107
2096921,2096921,452030,249751,51706
2096921,2096921,451928,249737,50972
2096921,2096921,451892,249577,50972
2096921,2096921,452074,249607,51107
2096921,2096921,452009,249768,50972
2096921,2096921,451928,249723,50972
2096921,2096921,452028,249747,51201
2096921,2096921,451965,249726,50972
2096921,2096921,451874,249720,51201
2096921,2096921,451824,249751,51706
2096921,2096921,451822,249610,51020
2096921,2096921,451579,249484,51107
2096921,2096921,451484,249546,51059
2096921,2096921,451479,249648,51059
2096921,2096921,451474,249625,51706
2096921,2096921,451289,249515,51107
2096921,2096921,451047,249361,51059
2096921,2096921,450980,249379,51020
2096921,2096921,450970,249352,51706
2096921,2096921,450589,249183,51107
2096921,2096921,450581,249195,51020
2096921,2096921,450461,249229,51020
2096921,2096921,450435,249231,51201
2096921,2096921,449824,249131,51059
2096921,2096921,449621,248938,51043
2096921,2096921,449553,248824,51020
2096921,2096921,449423,248751,50972
2096921,2096921,448839,248501,51201
2096921,2096921,448723,248613,51020
2096921,2096921,448647,248556,51020
2096921,2096921,448703,248637,51059
2096921,2096921,447149,248184,51193
2096921,2096921,446594,247995,51020
2096921,2096921,446525,247929,50972
2096921,2096921,446462,247820,50972
2096921,2096921,444702,247207,51107
2096921,2096921,444231,247106,51043
2096921,2096921,444137,247079,51706
2096921,2096921,444128,247119,51020
2096921,2096921,442731,246683,51146
2096921,2096921,442386,246454,51020
2096921,2096921,442200,246508,51043
2096921,2096921,442100,246425,51706
2096921,2096921,441160,246081,51020
2096921,2096921,440884,246047,51075
2096921,2096921,440897,246002,51020
2096921,2096921,440771,246028,51706
2096921,2096921,439967,245785,51059
2096921,2096921,439766,245761,50972
2096921,2096921,439741,245660,51706
2096921,2096921,439640,245481,50972
2096921,2096921,439175,245411,50972
2096921,2096921,439029,245572,50972
2096921,2096921,439005,245461,50972
2096921,2096921,439036,245401,50972
2096921,2096921,438660,245447,51075
2096921,2096921,438485,245219,50972
2096921,2096921,438443,245180,51706
2096921,2096921,438361,245066,50972
2096921,2096921,438192,245107,51059
2096921,2096921,438141,245165,51706
2096921,2096921,438148,245128,51706
2096921,2096921,438192,245144,50972
2096921,2096921,438144,245271,51107
2096921,2096921,438090,245137,50972
2096921,2096921,438038,245071,50972
2096921,2096921,437962,244970,50972
2096921,2096921,438001,244987,51075
2096921,2096921,438029,245171,50972
2096921,2096921,438006,245091,50972
2096921,2096921,438028,245088,50972
2096921,2096921,438212,245216,51201
2096921,2096921,438153,245158,51020
2096921,2096921,438203,245137,50972
2096921,2096921,438046,245001,50972
2096921,2096921,438233,245022,51107
2096921,2096921,438261,245157,51075
2096921,2096921,438220,245212,50972
2096921,2096921,438241,245230,51020
2096921,2096921,438493,245316,51146
2096921,2096921,438377,245186,51020
2096921,2096921,438214,245136,51043
2096921,2096921,438267,245013,51706
2096921,2096921,438695,245206,50972
2096921,2096921,438783,245286,51020
2096921,2096921,438733,245317,51706
2096921,2096921,438766,245309,51020
2096921,2096921,439095,245537,51020
2096921,2096921,439115,245387,50972
2096921,2096921,439087,245448,51075
2096921,2096921,438932,245332,50972
2096921,2096921,439362,245396,51706
2096921,2096921,439492,245624,51020
2096921,2096921,439544,245597,50972
2096921,2096921,439543,245598,50972
2096921,2096921,439945,245732,51201
2096921,2096921,439943,245754,50972
2096921,2096921,439879,245721,51706
2096921,2096921,439806,245554,51020
2096921,2096921,440307,245689,51107
2096921,2096921,440326,245805,51706
2096921,2096921,440358,245825,50972
2096921,2096921,440326,245834,50972
2096921,2096921,440694,245983,51201
2096921,2096921,440719,245845,51020
2096921,2096921,440542,245874,50972
2096921,2096921,440414,245827,50972
2096921,2096921,440950,245932,51059
2096921,2096921,441112,246045,50972
2096921,2096921,441048,246026,50972
2096921,2096921,441069,246041,50972
2096921,2096921,441400,246311,51146
2096921,2096921,441557,246160,50972
2096921,2096921,441349,246054,51020
2096921,2096921,441164,245984,51706
2096921,2096921,441702,246113,51706
2096921,2096921,441839,246234,51075
2096921,2096921,441879,246218,51706
2096921,2096921,441838,246270,51706
2096921,2096921,442172,246456,51059
2096921,2096921,442162,246394,50972
2096921,2096921,442137,246322,51706
2096921,2096921,442058,246215,50972
2096921,2096921,442594,246301,51059
2096921,2096921,442731,246545,51706
2096921,2096921,442656,246550,50972
2096921,2096921,442628,246585,50972
2096921,2096921,443061,246747,51059
2096921,2096921,443130,246614,51020
2096921,2096921,443083,246624,51706
2096921,2096921,442900,246528,51059
2096921,2096921,443300,246627,51146
2096921,2096921,443445,246783,51706
2096921,2096921,443420,246749,51020
2096921,2096921,443390,246770,51020
2096921,2096921,443676,246958,51201
2096921,2096921,443698,246922,51020
2096921,2096921,443693,246742,51706
2096921,2096921,443573,246667,51043
2096921,2096921,443819,246818,51193
2096921,2096921,443932,246899,51020
2096921,2096921,443884,246880,51706
2096921,2096921,443978,246865,51201
2096921,2096921,444136,246965,51107
2096921,2096921,443960,246975,51706
2096921,2096921,443988,246882,51059
2096921,2096921,443892,246766,51020
2096921,2096921,444145,246792,51107
2096921,2096921,444167,246945,51020
2096921,2096921,444148,247061,51706
2096921,2096921,444217,247100,51020
2096921,2096921,444258,247080,51107
2096921,2096921,444155,246931,51020
2096921,2096921,444069,246921,50972
2096921,2096921,444017,246809,51706
2096921,2096921,444125,246887,51020
2096921,2096921,444181,246947,51059
2096921,2096921,444155,246922,51020
2096921,2096921,444177,247031,51020
2096921,2096921,444115,246929,51107
2096921,2096921,443947,246960,51020
2096921,2096921,444013,246899,51020
2096921,2096921,443836,246776,51020
2096921,2096921,443871,246782,51107
2096921,2096921,443832,246872,51020
2096921,2096921,443805,246888,51020
2096921,2096921,443880,246899,51020
2096921,2096921,443826,246845,51020
2096921,2096921,443614,246803,51075
2096921,2096921,443611,246772,51020
2096921,2096921,443543,246622,51075
2096921,2096921,443559,246562,51146
2096921,2096921,443578,246775,50972
2096921,2096921,443486,246725,50972
2096921,2096921,443492,246788,51075
2096921,2096921,443439,246770,51146
2096921,2096921,443378,246712,50972
2096921,2096921,443277,246600,51043
2096921,2096921,443286,246534,51706
2096921,2096921,443359,246718,51107
2096921,2096921,443394,246725,51201
2096921,2096921,443424,246689,50972
2096921,2096921,443441,246610,50972
2096921,2096921,443460,246754,51706
2096921,2096921,443241,246660,51020
2096921,2096921,443237,246591,51201
2096921,2096921,443213,246461,51706
2096921,2096921,443293,246515,51107
2096921,2096921,443337,246706,51706
2096921,2096921,443291,246684,51020
2096921,2096921,443361,246662,51020
2096921,2096921,443573,246681,50972
2096921,2096921,443374,246692,50972
2096921,2096921,443332,246590,51020
2096921,2096921,443229,246482,51075
2096921,2096921,443500,246495,50972
2096921,2096921,443490,246685,51020
2096921,2096921,443428,246639,51020
2096921,2096921,443507,246750,51043
2096921,2096921,443829,246885,51706
2096921,2096921,443821,246835,50972
2096921,2096921,443749,246717,51043
2096921,2096921,443686,246612,50972
2096921,2096921,444039,246749,51059
2096921,2096921,444162,246895,51075
2096921,2096921,444131,246877,50972
2096921,2096921,444168,246905,50972
2096921,2096921,444456,246979,51107
2096921,2096921,444361,247038,51706
2096921,2096921,444358,246981,51020
2096921,2096921,444346,246798,51020
2096921,2096921,444645,246945,51107
2096921,2096921,444689,247139,51706
2096921,2096921,444640,247073,51020
2096921,2096921,444745,247128,51020
2096921,2096921,445042,247231,51193
2096921,2096921,444962,247131,51020
2096921,2096921,444890,247097,51020
2096921,2096921,444882,247093,51020
2096921,2096921,445123,247158,51146
2096921,2096921,445202,247188,51020
2096921,2096921,445164,247232,51020
2096921,2096921,445175,247280,51020
2096921,2096921,445399,247397,51146
2096921,2096921,445414,247215,50972
2096921,2096921,445300,247241,51020
2096921,2096921,445263,247141,51075
2096921,2096921,445570,247341,51075
2096921,2096921,445698,247385,51020
2096921,2096921,445740,247428,51020
2096921,2096921,445660,247428,51075
2096921,2096921,445983,247549,51059
2096921,2096921,445867,247480,51059
2096921,2096921,445817,247475,51020
2096921,2096921,445820,247322,51075
2096921,2096921,446220,247452,51059
2096921,2096921,446232,247569,51020
2096921,2096921,446216,247616,51706
2096921,2096921,446254,247649,51201
2096921,2096921,446414,247795,51107
2096921,2096921,446409,247578,51020
2096921,2096921,446340,247556,51020
2096921,2096921,446262,247459,51075
2096921,2096921,446613,247631,51146
2096921,2096921,446736,247734,51043
2096921,2096921,446593,247697,51020
2096921,2096921,446615,247743,51201
2096921,2096921,446765,247871,51107
2096921,2096921,446820,247701,51706
2096921,2096921,446818,247670,51020
2096921,2096921,446760,247482,51201
2096921,2096921,446973,247668,51107
2096921,2096921,447136,247854,51043
2096921,2096921,447052,247755,51020
2096921,2096921,447166,247828,51020
2096921,2096921,447365,247959,51107
2096921,2096921,447226,247902,50972
2096921,2096921,447247,247818,50972
2096921,2096921,447125,247656,50972
2096921,2096921,447383,247806,51146
2096921,2096921,447509,248004,50972
2096921,2096921,447465,248048,51706
2096921,2096921,447478,248058,50972
2096921,2096921,447766,248088,51059
2096921,2096921,447751,248011,50972
2096921,2096921,447578,247945,50972
2096921,2096921,447559,247843,51020
2096921,2096921,447754,248016,51059
2096921,2096921,447895,248073,51075
2096921,2096921,447844,248014,51706
2096921,2096921,447881,248096,50972
2096921,2096921,447989,248154,50972
2096921,2096921,447963,248195,51706
2096921,2096921,447998,248055,50972
2096921,2096921,447945,247948,51706
2096921,2096921,448109,248049,51075
2096921,2096921,448200,248289,51075
2096921,2096921,448157,248217,50972
2096921,2096921,448244,248233,50972
2096921,2096921,448494,248295,51107
2096921,2096921,448274,248243,51020
2096921,2096921,448262,248238,51020
2096921,2096921,448263,248086,51075
2096921,2096921,448466,248182,51146
2096921,2096921,448545,248314,50972
2096921,2096921,448465,248322,51020
2096921,2096921,448531,248382,51020
2096921,2096921,448825,248430,51233
2096921,2096921,448552,248312,51706
2096921,2096921,448525,248231,51020
2096921,2096921,448528,248174,51075
2096921,2096921,448778,248317,51706
2096921,2096921,448868,248345,51020
2096921,2096921,448785,248363,51075
2096921,2096921,448890,248417,51043
2096921,2096921,448940,248524,51107
2096921,2096921,448943,248388,51020
2096921,2096921,448855,248341,51020
2096921,2096921,448812,248164,51075
2096921,2096921,449051,248367,51146
2096921,2096921,449055,248515,51020
2096921,2096921,449057,248529,51075
2096921,2096921,449102,248595,51020
2096921,2096921,449229,248576,51107
2096921,2096921,449161,248536,51020
2096921,2096921,449073,248476,50972
2096921,2096921,449058,248349,51020
2096921,2096921,449309,248502,51020
2096921,2096921,449359,248567,51706
2096921,2096921,449222,248494,51075
2096921,2096921,449274,248646,51043
2096921,2096921,449470,248727,51107
2096921,2096921,449403,248506,51020
2096921,2096921,449278,248458,51020
2096921,2096921,449213,248412,51059
2096921,2096921,449466,248538,51059
2096921,2096921,449495,248498,51020
2096921,2096921,449444,248557,51020
2096921,2096921,449494,248602,51020
2096921,2096921,449597,248661,51146
2096921,2096921,449706,248688,51706
2096921,2096921,449600,248635,51020
2096921,2096921,449475,248419,51020
2096921,2096921,449659,248585,51146
2096921,2096921,449660,248708,51706
2096921,2096921,449608,248687,51020
2096921,2096921,449588,248674,51059
2096921,2096921,449880,248741,51201
2096921,2096921,449730,248696,51020
2096921,2096921,449669,248658,51706
2096921,2096921,449569,248516,51020
2096921,2096921,449774,248724,51146
2096921,2096921,449929,248779,51059
2096921,2096921,449859,248717,51020
2096921,2096921,449850,248771,51059
2096921,2096921,449970,248879,51146
2096921,2096921,449938,248737,51059
2096921,2096921,449945,248700,51020
2096921,2096921,449842,248643,51059
2096921,2096921,450064,248741,51059
2096921,2096921,450072,248807,51075
2096921,2096921,450009,248725,51059
2096921,2096921,450050,248756,51059
2096921,2096921,450152,248854,51107
2096921,2096921,450062,248859,51020
2096921,2096921,449999,248765,51075
2096921,2096921,450037,248593,51059
2096921,2096921,450104,248676,51107
2096921,2096921,450242,248859,51075
2096921,2096921,450196,248814,51706
2096921,2096921,450223,248865,51020
2096921,2096921,450356,248937,51107
2096921,2096921,450342,248800,51020
2096921,2096921,450201,248812,51020
2096921,2096921,450173,248802,51706
2096921,2096921,450339,248841,51146
2096921,2096921,450418,248862,51059
2096921,2096921,450383,248953,51059
2096921,2096921,450400,248978,51706
2096921,2096921,450441,249065,51233
2096921,2096921,450412,248959,51706
2096921,2096921,450342,248878,51043
2096921,2096921,450298,248689,51706
2096921,2096921,450405,248827,51107
2096921,2096921,450447,248955,51059
2096921,2096921,450502,248903,51020
2096921,2096921,450592,248959,50972
2096921,2096921,450523,249050,51059
2096921,2096921,450376,248997,50972
2096921,2096921,450401,248905,50972
2096921,2096921,450314,248759,51201
2096921,2096921,450547,248835,51020
2096921,2096921,450544,248927,51020
2096921,2096921,450447,248928,51020
2096921,2096921,450603,249021,50972
2096921,2096921,450567,249117,50972
2096921,2096921,450531,248959,51020
2096921,2096921,450507,248852,51706
2096921,2096921,450404,248777,51020
2096921,2096921,450575,248938,51020
2096921,2096921,450588,248949,51020
2096921,2096921,450609,248892,51020
2096921,2096921,450609,248941,50972
2096921,2096921,450523,249048,51107
2096921,2096921,450515,248930,51020
2096921,2096921,450485,248874,50972
2096921,2096921,450415,248715,50972
2096921,2096921,450434,248784,51075
2096921,2096921,450486,248981,51020
2096921,2096921,450429,248961,50972
2096921,2096921,450519,248908,50972
2096921,2096921,450607,248978,51107
2096921,2096921,450565,248921,50972
2096921,2096921,450537,248936,51020
2096921,2096921,450492,248858,51020
2096921,2096921,450579,248834,51706
2096921,2096921,450505,248945,50972
2096921,2096921,450515,248958,50972
2096921,2096921,450499,249045,51020
2096921,2096921,450594,249076,51107
2096921,2096921,450567,248901,51020
2096921,2096921,450549,248864,50972
2096921,2096921,450490,248769,51706
2096921,2096921,450583,248941,51107
2096921,2096921,450562,249067,51020
2096921,2096921,450589,248952,51706
2096921,2096921,450646,248971,51020
2096921,2096921,450546,249058,51146
2096921,2096921,450505,248994,51020
2096921,2096921,450477,248951,51020
2096921,2096921,450470,248794,51706
2096921,2096921,450228,248772,51107
2096921,2096921,450087,248881,51075
2096921,2096921,450132,248888,51706
2096921,2096921,450207,248860,51020
2096921,2096921,450015,248752,51075
2096921,2096921,449803,248718,51020
2096921,2096921,449736,248725,51201
2096921,2096921,449703,248526,51706
2096921,2096921,449278,248556,51201
2096921,2096921,449201,248556,51201
2096921,2096921,449193,248527,51020
2096921,2096921,449205,248575,51020
2096921,2096921,448614,248336,51107
2096921,2096921,448421,248268,51020
2096921,2096921,448202,248234,51201
2096921,2096921,448278,248067,51020
2096921,2096921,447645,247939,51107
2096921,2096921,447429,247983,51059
2096921,2096921,447491,247956,51059
2096921,2096921,447577,247999,51706
2096921,2096921,446030,247546,51193
2096921,2096921,445461,247374,51059
2096921,2096921,445378,247409,51020
2096921,2096921,445342,247182,51020
2096921,2096921,443509,246670,51193
2096921,2096921,443017,246602,51059
2096921,2096921,442887,246612,51075
2096921,2096921,443048,246630,51020
2096921,2096921,441699,246112,51146
2096921,2096921,441227,245964,51020
2096921,2096921,441128,245967,51020
2096921,2096921,441093,245906,51020
2096921,2096921,440147,245529,51146
2096921,2096921,439859,245537,51020
2096921,2096921,439777,245489,51075
2096921,2096921,439774,245544,51020
2096921,2096921,439062,245356,51146
2096921,2096921,438818,245089,51020
2096921,2096921,438751,245163,51201
2096921,2096921,438634,244970,51020
2096921,2096921,438213,244966,51107
2096921,2096921,438151,244978,51706
2096921,2096921,438118,244929,51020
2096921,2096921,438126,244938,51020
2096921,2096921,437725,244905,51146
2096921,2096921,437545,244773,51706
2096921,2096921,437501,244713,51020
2096921,2096921,437450,244593,51059
2096921,2096921,437275,244592,51146
2096921,2096921,437284,244723,51706
2096921,2096921,437236,244730,51020
2096921,2096921,437271,244734,51059
2096921,2096921,437185,244682,51146
2096921,2096921,437134,244583,51706
2096921,2096921,437017,244556,51201
2096921,2096921,436905,244460,51020
2096921,2096921,437116,244552,51193
2096921,2096921,437107,244601,51059
2096921,2096921,437152,244604,51059
2096921,2096921,437176,244590,51059
2096921,2096921,437335,244776,51193
2096921,2096921,437241,244676,51059
2096921,2096921,437227,244570,51059
2096921,2096921,437201,244381,51059
2096921,2096921,437371,244631,51706
2096921,2096921,437378,244774,51706
2096921,2096921,437451,244721,51075
2096921,2096921,437492,244705,51059
2096921,2096921,437592,244778,51193
2096921,2096921,437551,244812,51043
2096921,2096921,437431,244789,51059
2096921,2096921,437376,244592,50972
2096921,2096921,437860,244741,51146
2096921,2096921,437924,244813,51706
2096921,2096921,437932,244869,51020
2096921,2096921,438035,245015,51059
2096921,2096921,438413,245132,51107
2096921,2096921,438305,245045,51706
2096921,2096921,438285,244966,51059
2096921,2096921,438152,244907,51059
2096921,2096921,438661,245138,51059
2096921,2096921,438827,245146,51059
2096921,2096921,438707,245092,51059
2096921,2096921,438877,245213,51059
2096921,2096921,439207,245284,51146
2096921,2096921,439248,245343,51059
2096921,2096921,439237,245270,51020
2096921,2096921,439050,245205,51075
2096921,2096921,439599,245383,51146
2096921,2096921,439627,245448,51706
2096921,2096921,439656,245535,51059
2096921,2096921,439796,245491,51059
2096921,2096921,440091,245571,51193
2096921,2096921,440054,245566,51059
2096921,2096921,439936,245531,51059
2096921,2096921,439922,245422,51059
2096921,2096921,440417,245738,51193
2096921,2096921,440414,245726,51059
2096921,2096921,440396,245672,51059
2096921,2096921,440370,245780,51706
2096921,2096921,440849,245956,51107
2096921,2096921,440850,245842,51706
2096921,2096921,440718,245748,51059
2096921,2096921,440664,245680,51075
2096921,2096921,441144,245894,51146
2096921,2096921,441347,246024,51107
2096921,2096921,441334,245960,51020
2096921,2096921,441328,245988,51059
2096921,2096921,441655,246222,51233
2096921,2096921,441694,246102,51059
2096921,2096921,441669,245983,51020
2096921,2096921,441683,245940,51075
2096921,2096921,442161,246213,51146
2096921,2096921,442160,246287,51020
2096921,2096921,442178,246205,51059
2096921,2096921,442313,246293,51059
2096921,2096921,442683,246409,51020
2096921,2096921,442643,246456,51706
2096921,2096921,442562,246338,51020
2096921,2096921,442501,246197,51201
2096921,2096921,442920,246462,51020
2096921,2096921,443024,246499,51706
2096921,2096921,443033,246451,51059
2096921,2096921,443075,246572,51059
2096921,2096921,443387,246757,51201
2096921,2096921,443337,246669,51020
2096921,2096921,443305,246576,51020
2096921,2096921,443175,246453,51201
2096921,2096921,443550,246640,51146
2096921,2096921,443569,246753,51020
2096921,2096921,443690,246645,51043
2096921,2096921,443672,246765,51020
2096921,2096921,443751,246847,51146
2096921,2096921,443646,246805,51020
2096921,2096921,443670,246732,51043
2096921,2096921,443649,246630,51020
2096921,2096921,443919,246833,51193
2096921,2096921,443940,246928,51020
2096921,2096921,443873,246827,51059
2096921,2096921,443980,246877,51020
2096921,2096921,444046,246957,51193
2096921,2096921,443892,246849,51020
2096921,2096921,443753,246805,51706
2096921,2096921,443759,246672,51059
2096921,2096921,443930,246789,51706
2096921,2096921,443912,246904,51706
2096921,2096921,443925,246843,51075
2096921,2096921,443992,246895,51059
2096921,2096921,443949,246894,51107
2096921,2096921,443878,246863,51020
2096921,2096921,443831,246781,51043
2096921,2096921,443801,246658,51020
2096921,2096921,443687,246755,51107
2096921,2096921,443687,246888,51706
2096921,2096921,443698,246731,51059
2096921,2096921,443758,246706,51059
2096921,2096921,443625,246801,51020
2096921,2096921,443498,246786,51020
2096921,2096921,443541,246697,51043
2096921,2096921,443512,246510,51020
2096921,2096921,443554,246627,51107
2096921,2096921,443484,246768,51706
2096921,2096921,443431,246742,51020
2096921,2096921,443514,246696,51020
2096921,2096921,443386,246716,51107
2096921,2096921,443315,246677,51020
2096921,2096921,443217,246594,51020
2096921,2096921,443241,246492,51020
2096921,2096921,443358,246676,51193
2096921,2096921,443381,246664,51706
2096921,2096921,443407,246694,51059
2096921,2096921,443515,246746,51020
2096921,2096921,443465,246820,51193
2096921,2096921,443370,246655,51706
2096921,2096921,443275,246581,51043
2096921,2096921,443258,246448,51020
2096921,2096921,443406,246651,51146
2096921,2096921,443406,246799,51706
2096921,2096921,443460,246668,51059
2096921,2096921,443533,246702,51043
2096921,2096921,443620,246804,51146
2096921,2096921,443472,246746,51020
2096921,2096921,443433,246774,51075
2096921,2096921,443496,246503,51059
2096921,2096921,443755,246721,51201
2096921,2096921,443710,246824,51059
2096921,2096921,443686,246812,51020
2096921,2096921,443843,246879,51059
2096921,2096921,444168,246973,51107
2096921,2096921,444069,246890,51020
2096921,2096921,443925,246837,51020
2096921,2096921,443950,246689,51059
2096921,2096921,444437,246977,50972
2096921,2096921,444468,247100,50972
2096921,2096921,444402,247048,51706
2096921,2096921,444498,247123,50972
2096921,2096921,444805,247265,50972
2096921,2096921,444744,247178,50972
2096921,2096921,444660,247055,50972
2096921,2096921,444663,246949,51706
2096921,2096921,444908,247164,51059
2096921,2096921,444982,247299,51020
2096921,2096921,444964,247226,51706
2096921,2096921,445130,247266,50972
2096921,2096921,445387,247344,51107
2096921,2096921,445246,247369,50972
2096921,2096921,445239,247316,51075
2096921,2096921,445198,247196,50972
2096921,2096921,445516,247391,51107
2096921,2096921,445566,247480,50972
2096921,2096921,445544,247501,50972
2096921,2096921,445656,247480,50972
2096921,2096921,445793,247641,51107
2096921,2096921,445776,247470,50972
2096921,2096921,445655,247446,50972
2096921,2096921,445628,247351,51706
2096921,2096921,446101,247584,51107
2096921,2096921,446177,247732,51706
2096921,2096921,446073,247666,51020
2096921,2096921,446198,247690,50972
2096921,2096921,446409,247855,51107
2096921,2096921,446315,247639,50972
2096921,2096921,446270,247615,50972
2096921,2096921,446296,247531,50972
2096921,2096921,446642,247752,51201
2096921,2096921,446629,247921,51075
2096921,2096921,446677,247860,50972
2096921,2096921,446759,247835,50972
2096921,2096921,447006,247939,50972
2096921,2096921,446838,247859,51075
2096921,2096921,446802,247841,50972
2096921,2096921,446870,247804,51706
2096921,2096921,447169,247950,51059
2096921,2096921,447235,248023,51059
2096921,2096921,447152,248011,51020
2096921,2096921,447242,247975,51059
2096921,2096921,447435,248186,51107
2096921,2096921,447472,248102,51043
2096921,2096921,447345,247924,51075
2096921,2096921,447235,247911,51059
2096921,2096921,447578,248158,51146
2096921,2096921,447746,248245,51059
2096921,2096921,447732,248149,51020
2096921,2096921,447792,248179,51020
2096921,2096921,447917,248458,51146
2096921,2096921,447934,248317,51020
2096921,2096921,447913,248169,51075
2096921,2096921,447945,248085,51059
2096921,2096921,448168,248327,51233
2096921,2096921,448252,248469,51020
2096921,2096921,448194,248369,51075
2096921,2096921,448347,248357,51020
2096921,2096921,448473,248447,51193
2096921,2096921,448397,248426,51059
2096921,2096921,448289,248369,51059
2096921,2096921,448254,248289,51020
2096921,2096921,448611,248487,51146
2096921,2096921,448661,248549,51059
2096921,2096921,448670,248520,51706
2096921,2096921,448720,248572,51020
2096921,2096921,448875,248628,51107
2096921,2096921,448911,248644,51059
2096921,2096921,448840,248564,51059
2096921,2096921,448730,248476,51020
2096921,2096921,449067,248726,51020
2096921,2096921,449028,248780,51020
2096921,2096921,449136,248669,51020
2096921,2096921,449217,248653,51043
2096921,2096921,449315,248814,51020
2096921,2096921,449194,248797,51020
2096921,2096921,449193,248668,50972
2096921,2096921,449201,248583,51201
2096921,2096921,449410,248711,51107
2096921,2096921,449446,248930,51059
2096921,2096921,449535,248794,51075
2096921,2096921,449617,248819,51020
2096921,2096921,449743,248982,51107
2096921,2096921,449634,248950,51706
2096921,2096921,449556,248834,51043
2096921,2096921,449477,248815,51043
2096921,2096921,449813,248933,51146
2096921,2096921,449949,248938,50972
2096921,2096921,449859,248945,51020
2096921,2096921,449923,249068,51020
2096921,2096921,450013,249150,51146
2096921,2096921,449985,249012,51706
2096921,2096921,449938,248980,51020
2096921,2096921,449919,248891,51020
2096921,2096921,450207,249086,51146
2096921,2096921,450285,249147,51706
2096921,2096921,450215,249095,51020
2096921,2096921,450248,249148,51020
2096921,2096921,450381,249251,51107
2096921,2096921,450253,249135,51706
2096921,2096921,450146,249017,51020
2096921,2096921,450189,248972,51020
2096921,2096921,450459,249163,51146
2096921,2096921,450440,249158,51020
2096921,2096921,450484,249153,51706
2096921,2096921,450548,249229,51706
2096921,2096921,450761,249357,51107
2096921,2096921,450667,249231,51020
2096921,2096921,450426,249159,51706
2096921,2096921,450457,249129,51706
2096921,2096921,450616,249242,51020
2096921,2096921,450759,249293,51020
2096921,2096921,450712,249169,51020
2096921,2096921,450727,249238,51075
2096921,2096921,450836,249410,51706
2096921,2096921,450832,249240,51020
2096921,2096921,450738,249269,51075
2096921,2096921,450754,249182,51020
2096921,2096921,450907,249385,51107
2096921,2096921,450985,249426,51059
2096921,2096921,450965,249415,51059
2096921,2096921,451096,249365,51059
2096921,2096921,451125,249481,51146
2096921,2096921,451127,249440,51059
2096921,2096921,450956,249481,51059
2096921,2096921,450872,249302,51043
2096921,2096921,451208,249444,51146
2096921,2096921,451196,249399,51020
2096921,2096921,451180,249348,51075
2096921,2096921,451280,249513,51059
2096921,2096921,451349,249512,51706
2096921,2096921,451406,249485,51020
2096921,2096921,451287,249399,51020
2096921,2096921,451220,249430,51020
2096921,2096921,451407,249551,51146
2096921,2096921,451474,249615,51201
2096921,2096921,451515,249586,51020
2096921,2096921,451544,249548,51706
2096921,2096921,451578,249724,51146
2096921,2096921,451576,249632,51020
2096921,2096921,451519,249556,51706
2096921,2096921,451482,249482,51706
2096921,2096921,451730,249641,51146
2096921,2096921,451767,249697,51075
2096921,2096921,451806,249603,51059
2096921,2096921,451816,249663,51020
2096921,2096921,451920,249809,51059
2096921,2096921,451780,249703,51020
2096921,2096921,451678,249682,51020
2096921,2096921,451722,249613,51020
2096921,2096921,451936,249779,51107
2096921,2096921,452004,249808,51020
2096921,2096921,451928,249756,51059
2096921,2096921,451999,249853,51020
2096921,2096921,452084,249818,51107
2096921,2096921,452048,249777,50972
2096921,2096921,451986,249702,51020
2096921,2096921,451935,249638,51020
2096921,2096921,452094,249773,51107
2096921,2096921,452115,249843,51075
2096921,2096921,452164,249735,50972
2096921,2096921,452250,249778,51020
2096921,2096921,452253,249922,51107
2096921,2096921,452211,249892,51020
2096921,2096921,452126,249835,50972
2096921,2096921,452083,249749,50972
2096921,2096921,452222,249859,51146
2096921,2096921,452245,249970,51075
2096921,2096921,452272,249927,50972
2096921,2096921,452357,249941,50972
2096921,2096921,452439,250027,51706
2096921,2096921,452380,249919,51075
2096921,2096921,452243,249876,50972
2096921,2096921,452224,249763,51706
2096921,2096921,452421,249960,51146
2096921,2096921,452375,249977,50972
2096921,2096921,452353,249903,50972
2096921,2096921,452480,249987,51020
2096921,2096921,452527,250121,51059
2096921,2096921,452439,249967,51020
2096921,2096921,452381,249936,51075
2096921,2096921,452306,249852,50972
2096921,2096921,452454,249977,51146
2096921,2096921,452459,250037,51020
2096921,2096921,452518,249993,50972
2096921,2096921,452658,250061,50972
2096921,2096921,452649,250149,51059
2096921,2096921,452440,250109,51706
2096921,2096921,452475,250081,50972
2096921,2096921,452492,249967,50972
2096921,2096921,452643,250061,50972
2096921,2096921,452587,250146,51020
2096921,2096921,452492,250078,51706
2096921,2096921,452618,250039,51706
2096921,2096921,452704,250145,51107
2096921,2096921,452556,250039,51020
2096921,2096921,452447,250051,50972
2096921,2096921,452474,249946,51020
2096921,2096921,452642,250161,51107
2096921,2096921,452800,250163,51020
2096921,2096921,452781,250211,51020
2096921,2096921,452838,250109,51075
2096921,2096921,452815,250239,51146
2096921,2096921,452697,250178,51020
2096921,2096921,452610,250050,51020
2096921,2096921,452631,249965,50972
2096921,2096921,452487,250038,51146
2096921,2096921,452390,250108,51201
2096921,2096921,452400,250080,51020
2096921,2096921,452553,250037,51706
2096921,2096921,452296,250047,51193
2096921,2096921,452012,249978,51075
2096921,2096921,451991,249914,51706
2096921,2096921,452040,249851,51020
2096921,2096921,451666,249805,51146
2096921,2096921,451491,249771,50972
2096921,2096921,451516,249770,51706
2096921,2096921,451601,249855,51706
2096921,2096921,450979,249707,51146
2096921,2096921,450672,249557,51075
2096921,2096921,450596,249511,51020
2096921,2096921,450550,249516,51020
2096921,2096921,450129,249417,51075
2096921,2096921,449891,249340,51020
2096921,2096921,449837,249317,51201
2096921,2096921,449921,249331,51043
2096921,2096921,448422,248920,51020
2096921,2096921,447863,248711,51020
2096921,2096921,447831,248621,51020
2096921,2096921,447822,248547,51020
2096921,2096921,446019,247994,51107
2096921,2096921,445524,247967,51020
2096921,2096921,445532,247889,51020
2096921,2096921,445694,247922,51043
2096921,2096921,444209,247474,51107
2096921,2096921,443696,247360,51059
2096921,2096921,443595,247339,51020
2096921,2096921,443618,247179,51059
2096921,2096921,442718,246998,51146
2096921,2096921,442416,246960,51075
2096921,2096921,442413,246998,51020
2096921,2096921,442495,246942,51020
2096921,2096921,441711,246776,51193
2096921,2096921,441319,246544,51020
2096921,2096921,441240,246520,51020
2096921,2096921,441244,246441,51059
2096921,2096921,440795,246467,51193
2096921,2096921,440695,246396,51020
2096921,2096921,440742,246387,51706
2096921,2096921,440793,246289,51020
