2096921,2096921,163503,684931,0
2096921,2096921,163681,684740,0
2096921,2096921,163765,684625,0
2096921,2096921,163996,684628,0
2096921,2096921,164031,684645,0
2096921,2096921,163945,684713,0
2096921,2096921,163951,684633,0
2096921,2096921,164158,684825,0
2096921,2096921,163871,684913,0
2096921,2096921,163826,684871,0
2096921,2096921,163829,684784,0
2096921,2096921,163775,684571,0
2096921,2096921,163866,684795,0
2096921,2096921,163761,684877,0
2096921,2096921,164107,684793,0
2096921,2096921,163961,684675,0
2096921,2096921,163971,684811,0
2096921,2096921,163953,684796,0
2096921,2096921,164081,684911,0
2096921,2096921,164417,684944,0
2096921,2096921,164049,684975,0
2096921,2096921,164145,684959,0
2096921,2096921,164067,684933,0
2096921,2096921,164097,685200,0
2096921,2096921,164105,685035,0
2096921,2096921,164125,684850,0
2096921,2096921,163874,685247,0
2096921,2096921,164168,685278,0
2096921,2096921,164217,685237,0
2096921,2096921,164364,685357,0
2096921,2096921,164260,685069,0
2096921,2096921,164192,685243,0
2096921,2096921,164254,685056,0
2096921,2096921,164323,685510,0
2096921,2096921,164093,685204,0
2096921,2096921,164334,685133,0
2096921,2096921,164270,684995,0
2096921,2096921,164145,685257,0
2096921,2096921,164294,685473,0
2096921,2096921,164495,685174,0
2096921,2096921,164121,685233,0
2096921,2096921,164084,685389,0
2096921,2096921,164232,685507,0
2096921,2096921,164261,685292,0
2096921,2096921,164418,685247,0
2096921,2096921,164388,685419,0
2096921,2096921,164148,685201,0
2096921,2096921,164206,685284,0
2096921,2096921,164453,684901,0
2096921,2096921,164479,685022,0
2096921,2096921,164294,685078,0
2096921,2096921,164109,685421,0
2096921,2096921,164412,685607,0
2096921,2096921,164260,685294,0
2096921,2096921,164131,685478,0
2096921,2096921,164217,685366,0
2096921,2096921,164290,685574,0
2096921,2096921,164312,685309,0
2096921,2096921,164224,685421,0
2096921,2096921,164364,685301,0
2096921,2096921,164347,685368,0
2096921,2096921,164245,685317,0
2096921,2096921,164175,685117,0
2096921,2096921,164317,685408,0
2096921,2096921,164398,685270,0
2096921,2096921,163928,685027,0
2096921,2096921,164164,685400,0
2096921,2096921,164129,685474,0
2096921,2096921,164215,685372,0
2096921,2096921,164289,685369,0
2096921,2096921,164462,685315,0
2096921,2096921,164340,685330,0
2096921,2096921,164306,685421,0
2096921,2096921,164282,685526,0
2096921,2096921,164304,685167,0
2096921,2096921,164231,685649,0
2096921,2096921,164194,685764,0
2096921,2096921,164143,685552,0
2096921,2096921,164222,685573,0
2096921,2096921,164485,685627,0
2096921,2096921,164122,685440,0
2096921,2096921,164069,685605,0
2096921,2096921,164170,685698,0
2096921,2096921,164492,685546,0
2096921,2096921,164388,685751,0
2096921,2096921,164378,685747,0
2096921,2096921,164078,685363,0
2096921,2096921,164338,685373,0
2096921,2096921,164352,685567,0
2096921,2096921,164361,685738,0
2096921,2096921,164044,685600,0
2096921,2096921,164278,685354,0
2096921,2096921,164294,685322,0
2096921,2096921,164361,685306,0
2096921,2096921,164133,685292,0
2096921,2096921,164154,685381,0
2096921,2096921,164144,685451,0
2096921,2096921,164525,685413,0
2096921,2096921,164098,685309,0
2096921,2096921,164081,684924,0
2096921,2096921,164463,685062,0
2096921,2096921,164389,684906,0
2096921,2096921,164224,685056,0
2096921,2096921,163880,684650,0
2096921,2096921,163772,684892,0
2096921,2096921,163708,684780,0
2096921,2096921,164038,684553,0
2096921,2096921,164148,684844,0
2096921,2096921,163703,684101,0
2096921,2096921,163462,683732,0
2096921,2096921,163475,683649,0
2096921,2096921,163311,683737,0
2096921,2096921,163536,683587,0
2096921,2096921,163043,683063,0
2096921,2096921,162998,682867,0
2096921,2096921,163113,682923,0
2096921,2096921,162930,682711,0
2096921,2096921,163114,682577,0
2096921,2096921,162918,682176,0
2096921,2096921,162803,681698,0
2096921,2096921,162944,681776,0
2096921,2096921,163098,681727,0
2096921,2096921,162296,681744,0
2096921,2096921,162005,680047,0
2096921,2096921,161618,679730,0
2096921,2096921,161446,679450,0
2096921,2096921,161240,679329,0
2096921,2096921,161366,679546,0
2096921,2096921,160476,677563,0
2096921,2096921,160381,676846,0
2096921,2096921,160110,676815,0
2096921,2096921,160268,676617,0
2096921,2096921,160037,676234,0
2096921,2096921,159619,674783,0
2096921,2096921,159268,674148,0
2096921,2096921,159129,674192,0
2096921,2096921,158969,674354,0
2096921,2096921,159098,674204,0
2096921,2096921,158684,673456,0
2096921,2096921,158669,672907,0
2096921,2096921,158444,672784,0
2096921,2096921,158563,672621,0
2096921,2096921,158677,672584,0
2096921,2096921,158274,671874,0
2096921,2096921,158186,671426,0
2096921,2096921,158104,671739,0
2096921,2096921,158203,671673,0
2096921,2096921,158114,671508,0
2096921,2096921,157855,671034,0
2096921,2096921,157643,670914,0
2096921,2096921,157733,670776,0
2096921,2096921,157420,670439,0
2096921,2096921,157343,670597,0
2096921,2096921,157539,670236,0
2096921,2096921,157295,670443,0
2096921,2096921,157254,669939,0
2096921,2096921,156919,669814,0
2096921,2096921,157176,669976,0
2096921,2096921,157316,669774,0
2096921,2096921,157095,669460,0
2096921,2096921,157046,669411,0
2096921,2096921,157166,669252,0
2096921,2096921,157296,669262,0
2096921,2096921,157055,669344,0
2096921,2096921,157112,669034,0
2096921,2096921,157219,668873,0
2096921,2096921,156935,669150,0
2096921,2096921,157160,669319,0
2096921,2096921,156928,669269,0
2096921,2096921,157049,669090,0
2096921,2096921,156912,668921,0
2096921,2096921,156835,669176,0
2096921,2096921,156648,669024,0
2096921,2096921,156986,669359,0
2096921,2096921,157156,669140,0
2096921,2096921,157257,669169,0
2096921,2096921,157351,668902,0
2096921,2096921,157130,669427,0
2096921,2096921,157236,669426,0
2096921,2096921,157511,669342,0
2096921,2096921,157217,669340,0
2096921,2096921,156987,669332,0
2096921,2096921,156971,669475,0
2096921,2096921,157046,669259,0
2096921,2096921,157359,669113,0
2096921,2096921,157276,669204,0
2096921,2096921,157210,669286,0
2096921,2096921,157153,669114,0
2096921,2096921,157373,669694,0
2096921,2096921,157385,669588,0
2096921,2096921,157401,669509,0
2096921,2096921,157154,669601,0
2096921,2096921,157511,669811,0
2096921,2096921,157402,669781,0
2096921,2096921,157559,669903,0
2096921,2096921,157426,669968,0
2096921,2096921,157449,670046,0
2096921,2096921,157614,669959,0
2096921,2096921,157635,670203,0
2096921,2096921,157564,670541,0
2096921,2096921,157445,670527,0
2096921,2096921,157906,670597,0
2096921,2096921,157310,670391,0
2096921,2096921,157723,670694,0
2096921,2096921,157645,670680,0
2096921,2096921,158021,670672,0
2096921,2096921,157773,670749,0
2096921,2096921,157866,670592,0
2096921,2096921,158126,670914,0
2096921,2096921,157927,671058,0
2096921,2096921,157850,670977,0
2096921,2096921,157832,671124,0
2096921,2096921,157864,670664,0
2096921,2096921,158070,670814,0
2096921,2096921,158063,671205,0
2096921,2096921,158174,670933,0
2096921,2096921,158097,671191,0
2096921,2096921,158123,671064,0
2096921,2096921,158496,671242,0
2096921,2096921,158437,671190,0
2096921,2096921,158397,671622,0
2096921,2096921,158393,671640,0
2096921,2096921,158285,671863,0
2096921,2096921,158619,671537,0
2096921,2096921,158877,671791,0
2096921,2096921,158382,671813,0
2096921,2096921,158933,672008,0
2096921,2096921,158622,671950,0
2096921,2096921,158825,672275,0
2096921,2096921,158968,672205,0
2096921,2096921,159077,672139,0
2096921,2096921,158599,672064,0
2096921,2096921,158733,672252,0
2096921,2096921,158749,672283,0
2096921,2096921,158785,672593,0
2096921,2096921,158982,672563,0
2096921,2096921,158914,672403,0
2096921,2096921,159289,672421,0
2096921,2096921,159083,672522,0
2096921,2096921,159276,672862,0
2096921,2096921,159104,672904,0
2096921,2096921,159168,672924,0
2096921,2096921,159028,672679,0
2096921,2096921,159207,672951,0
2096921,2096921,159035,673056,0
2096921,2096921,158958,673356,0
2096921,2096921,159367,673309,0
2096921,2096921,159526,673254,0
2096921,2096921,159351,673368,0
2096921,2096921,159316,673081,0
2096921,2096921,159648,673228,0
2096921,2096921,159649,673334,0
2096921,2096921,159510,673545,0
2096921,2096921,159737,673313,0
2096921,2096921,159571,673372,0
2096921,2096921,159446,673670,0
2096921,2096921,159728,673741,0
2096921,2096921,159710,673411,0
2096921,2096921,159545,673690,0
2096921,2096921,159700,673450,0
2096921,2096921,160004,673878,0
2096921,2096921,159864,673315,0
2096921,2096921,159598,673659,0
2096921,2096921,159284,673595,0
2096921,2096921,159791,673668,0
2096921,2096921,159863,673537,0
2096921,2096921,159933,673394,0
2096921,2096921,159585,673481,0
2096921,2096921,159714,673589,0
2096921,2096921,159770,673772,0
2096921,2096921,159867,673458,0
2096921,2096921,159554,673323,0
2096921,2096921,159667,673289,0
2096921,2096921,159706,673141,0
2096921,2096921,159509,673301,0
2096921,2096921,159561,672982,0
2096921,2096921,159369,673264,0
2096921,2096921,159540,673193,0
2096921,2096921,159757,673074,0
2096921,2096921,159696,672883,0
2096921,2096921,159803,672952,0
2096921,2096921,159479,672771,0
2096921,2096921,159611,672916,0
2096921,2096921,159416,672813,0
2096921,2096921,159457,672374,0
2096921,2096921,159337,672496,0
2096921,2096921,159146,672594,0
2096921,2096921,159766,672554,0
2096921,2096921,159630,672712,0
2096921,2096921,159534,672562,0
2096921,2096921,159346,672284,0
2096921,2096921,159300,672445,0
2096921,2096921,159202,672506,0
2096921,2096921,159456,672196,0
2096921,2096921,159239,671759,0
2096921,2096921,159054,671963,0
2096921,2096921,159303,671978,0
2096921,2096921,159547,671896,0
2096921,2096921,159205,671590,0
2096921,2096921,159130,671478,0
2096921,2096921,159176,671880,0
2096921,2096921,159108,671648,0
2096921,2096921,159194,671497,0
2096921,2096921,159005,671086,0
2096921,2096921,158951,671180,0
2096921,2096921,158897,671146,0
2096921,2096921,159045,671251,0
2096921,2096921,158839,671236,0
2096921,2096921,158655,671023,0
2096921,2096921,158767,671099,0
2096921,2096921,158820,670875,0
2096921,2096921,158857,670807,0
2096921,2096921,158945,670840,0
2096921,2096921,158841,670676,0
2096921,2096921,159114,670678,0
2096921,2096921,158583,670553,0
2096921,2096921,158886,670641,0
2096921,2096921,158627,670576,0
2096921,2096921,158952,670694,0
2096921,2096921,158949,670940,0
2096921,2096921,158831,670622,0
2096921,2096921,158790,670686,0
2096921,2096921,158558,670370,0
2096921,2096921,158762,670343,0
2096921,2096921,158665,670115,0
2096921,2096921,158649,670201,0
2096921,2096921,158805,670126,0
2096921,2096921,158585,670116,0
2096921,2096921,158930,670356,0
2096921,2096921,158947,670251,0
2096921,2096921,158512,670279,0
2096921,2096921,158876,670163,0
2096921,2096921,158702,670283,0
2096921,2096921,158964,670525,0
2096921,2096921,158845,670544,0
2096921,2096921,158883,670310,0
2096921,2096921,158706,670364,0
2096921,2096921,158994,670580,0
2096921,2096921,158983,670611,0
2096921,2096921,159255,670645,0
2096921,2096921,159098,670740,0
2096921,2096921,159108,670516,0
2096921,2096921,159174,670530,0
2096921,2096921,158776,670806,0
2096921,2096921,159108,670649,0
2096921,2096921,158959,670571,0
2096921,2096921,159066,670591,0
2096921,2096921,159108,670474,0
2096921,2096921,159003,670826,0
2096921,2096921,159128,670858,0
2096921,2096921,159188,670831,0
2096921,2096921,159058,670757,0
2096921,2096921,159439,670774,0
2096921,2096921,159325,670932,0
2096921,2096921,159281,670857,0
2096921,2096921,159225,670632,0
2096921,2096921,159302,670648,0
2096921,2096921,159384,670866,0
2096921,2096921,159563,670999,0
2096921,2096921,159414,670692,0
2096921,2096921,159453,670547,0
2096921,2096921,159126,670766,0
2096921,2096921,158969,670830,0
2096921,2096921,159488,670790,0
2096921,2096921,159019,670795,0
2096921,2096921,159357,670683,0
2096921,2096921,159520,670629,0
2096921,2096921,159314,670685,0
2096921,2096921,159615,671039,0
2096921,2096921,159449,671027,0
2096921,2096921,159066,670721,0
2096921,2096921,159333,670712,0
2096921,2096921,159331,670707,0
2096921,2096921,159515,670785,0
2096921,2096921,159697,670946,0
2096921,2096921,159862,670846,0
2096921,2096921,159700,670867,0
2096921,2096921,159657,670865,0
2096921,2096921,159716,670937,0
2096921,2096921,159357,670968,0
2096921,2096921,159409,670932,0
2096921,2096921,159510,670717,0
2096921,2096921,159716,671073,0
2096921,2096921,159753,670956,0
2096921,2096921,159727,670766,0
2096921,2096921,159962,670658,0
2096921,2096921,159816,670700,0
2096921,2096921,159921,671091,0
2096921,2096921,159718,670463,0
2096921,2096921,159762,670562,0
2096921,2096921,159988,670624,0
2096921,2096921,159549,670826,0
2096921,2096921,159936,670820,0
2096921,2096921,159598,670838,0
2096921,2096921,159871,670738,0
2096921,2096921,159779,671077,0
2096921,2096921,159759,670967,0
2096921,2096921,159785,670958,0
2096921,2096921,159849,671096,0
2096921,2096921,159961,671204,0
2096921,2096921,159890,670934,0
2096921,2096921,159834,670843,0
2096921,2096921,159753,670881,0
2096921,2096921,159609,671036,0
2096921,2096921,159731,670906,0
2096921,2096921,159822,671071,0
2096921,2096921,160116,670938,0
2096921,2096921,159878,671212,0
2096921,2096921,159996,670677,0
2096921,2096921,159803,670991,0
2096921,2096921,160087,671157,0
2096921,2096921,159699,670892,0
2096921,2096921,160016,671013,0
2096921,2096921,159639,670829,0
2096921,2096921,159826,670745,0
2096921,2096921,160084,670682,0
2096921,2096921,159820,670854,0
2096921,2096921,160075,670907,0
2096921,2096921,159941,670687,0
2096921,2096921,159764,670781,0
2096921,2096921,159700,670803,0
2096921,2096921,159882,671003,0
2096921,2096921,160042,670867,0
2096921,2096921,159939,670634,0
2096921,2096921,159838,670830,0
2096921,2096921,160156,670797,0
2096921,2096921,159887,670586,0
2096921,2096921,159945,670639,0
2096921,2096921,160253,670782,0
2096921,2096921,160151,670502,0
2096921,2096921,160002,670683,0
2096921,2096921,159778,670474,0
2096921,2096921,159986,670393,0
2096921,2096921,159952,670714,0
2096921,2096921,160032,670489,0
2096921,2096921,159915,670647,0
2096921,2096921,159951,670685,0
2096921,2096921,160187,670352,0
2096921,2096921,160017,670444,0
2096921,2096921,160048,670677,0
2096921,2096921,160156,670679,0
2096921,2096921,160072,670378,0
2096921,2096921,160174,670696,0
2096921,2096921,160112,670637,0
2096921,2096921,160217,670533,0
2096921,2096921,159849,670562,0
2096921,2096921,159783,670472,0
2096921,2096921,160049,670512,0
2096921,2096921,159964,670514,0
2096921,2096921,160072,670560,0
2096921,2096921,160197,670473,0
2096921,2096921,160063,670352,0
2096921,2096921,160159,670432,0
2096921,2096921,159988,670163,0
2096921,2096921,159913,670500,0
2096921,2096921,159979,670356,0
2096921,2096921,160094,670616,0
2096921,2096921,160203,670391,0
2096921,2096921,160009,670382,0
2096921,2096921,160050,670352,0
2096921,2096921,160282,670138,0
2096921,2096921,160228,670126,0
2096921,2096921,160104,670293,0
2096921,2096921,160074,670020,0
2096921,2096921,160334,670344,0
2096921,2096921,160182,669924,0
2096921,2096921,160287,670154,0
2096921,2096921,160251,669835,0
2096921,2096921,160160,670079,0
2096921,2096921,159896,669996,0
2096921,2096921,160056,670148,0
2096921,2096921,160041,669920,0
2096921,2096921,160315,670024,0
2096921,2096921,160151,669985,0
2096921,2096921,160311,669892,0
2096921,2096921,160162,669895,0
2096921,2096921,160419,669891,0
2096921,2096921,160304,669788,0
2096921,2096921,160119,669875,0
2096921,2096921,160256,669980,0
2096921,2096921,160285,669798,0
2096921,2096921,160148,669933,0
2096921,2096921,160174,669462,0
2096921,2096921,159928,669575,0
2096921,2096921,159990,669397,0
2096921,2096921,160029,669699,0
2096921,2096921,160239,669569,0
2096921,2096921,160040,669597,0
2096921,2096921,160030,669858,0
2096921,2096921,160076,669691,0
2096921,2096921,160153,669438,0
2096921,2096921,159975,669427,0
2096921,2096921,159944,669308,0
2096921,2096921,159841,669456,0
2096921,2096921,159809,669323,0
2096921,2096921,159923,669178,0
2096921,2096921,159924,669126,0
2096921,2096921,159984,669201,0
2096921,2096921,159916,669170,0
2096921,2096921,160022,669345,0
2096921,2096921,159968,669328,0
2096921,2096921,160010,669245,0
2096921,2096921,160036,669161,0
2096921,2096921,160196,669074,0
2096921,2096921,159946,668915,0
2096921,2096921,160054,669172,0
2096921,2096921,160053,668787,0
2096921,2096921,160121,668918,0
2096921,2096921,159970,669102,0
2096921,2096921,160094,668876,0
2096921,2096921,160082,668979,0
2096921,2096921,160158,668891,0
2096921,2096921,159871,668933,0
2096921,2096921,159551,668853,0
2096921,2096921,160015,668817,0
2096921,2096921,160014,668795,0
2096921,2096921,159723,668840,0
2096921,2096921,159844,668550,0
2096921,2096921,160019,668579,0
2096921,2096921,160308,668742,0
2096921,2096921,160038,668567,0
2096921,2096921,159934,668612,0
2096921,2096921,159868,668365,0
2096921,2096921,159785,668421,0
2096921,2096921,160087,668513,0
2096921,2096921,159832,668618,0
2096921,2096921,159693,668508,0
2096921,2096921,159820,668569,0
2096921,2096921,159826,668467,0
2096921,2096921,160136,668359,0
2096921,2096921,160054,668351,0
2096921,2096921,159971,668351,0
2096921,2096921,159829,668147,0
2096921,2096921,159974,668184,0
2096921,2096921,159719,667928,0
2096921,2096921,160039,667948,0
2096921,2096921,159764,668121,0
2096921,2096921,159824,668177,0
2096921,2096921,159866,668189,0
2096921,2096921,160004,668291,0
2096921,2096921,159851,668010,0
2096921,2096921,159781,668023,0
2096921,2096921,159786,668218,0
2096921,2096921,159902,668060,0
2096921,2096921,159936,668037,0
2096921,2096921,159846,668031,0
2096921,2096921,160094,668308,0
2096921,2096921,159753,668412,0
2096921,2096921,160072,668223,0
2096921,2096921,159990,667674,0
2096921,2096921,159611,667930,0
2096921,2096921,159497,667811,0
2096921,2096921,159849,667829,0
2096921,2096921,159608,667780,0
2096921,2096921,159637,667517,0
2096921,2096921,159724,667883,0
2096921,2096921,159845,667761,0
2096921,2096921,159591,667680,0
2096921,2096921,160080,667300,0
2096921,2096921,159961,667255,0
2096921,2096921,159921,667548,0
2096921,2096921,159750,667499,0
2096921,2096921,159995,667673,0
2096921,2096921,159793,667201,0
2096921,2096921,159486,667202,0
2096921,2096921,159735,667361,0
2096921,2096921,159706,667224,0
2096921,2096921,159659,667446,0
2096921,2096921,159791,667173,0
2096921,2096921,159605,667078,0
2096921,2096921,159403,667269,0
2096921,2096921,159420,667156,0
2096921,2096921,159807,667105,0
2096921,2096921,159668,667014,0
2096921,2096921,159221,666862,0
2096921,2096921,159324,667166,0
2096921,2096921,159607,667199,0
2096921,2096921,159702,666991,0
2096921,2096921,159676,666940,0
2096921,2096921,159947,666985,0
2096921,2096921,159626,666892,0
2096921,2096921,159509,667051,0
2096921,2096921,159673,666690,0
2096921,2096921,159539,666478,0
2096921,2096921,159138,666533,0
2096921,2096921,159475,666686,0
2096921,2096921,159387,666580,0
2096921,2096921,159443,666555,0
2096921,2096921,159449,666515,0
2096921,2096921,159308,666738,0
2096921,2096921,159506,666781,0
2096921,2096921,159780,666122,0
2096921,2096921,159706,666207,0
2096921,2096921,159249,666453,0
2096921,2096921,159366,666575,0
2096921,2096921,159478,666372,0
2096921,2096921,159623,666532,0
2096921,2096921,159373,666079,0
2096921,2096921,159625,665804,0
2096921,2096921,159322,665808,0
2096921,2096921,159202,665609,0
2096921,2096921,159191,665629,0
2096921,2096921,159121,665940,0
2096921,2096921,158844,665660,0
2096921,2096921,158843,665211,0
2096921,2096921,159034,665188,0
2096921,2096921,158758,665165,0
2096921,2096921,158954,665205,0
2096921,2096921,158420,664675,0
2096921,2096921,158603,664595,0
2096921,2096921,158851,664176,0
2096921,2096921,158745,664315,0
2096921,2096921,158476,664443,0
2096921,2096921,158156,663739,0
2096921,2096921,157969,663605,0
2096921,2096921,158164,663395,0
2096921,2096921,157967,663459,0
2096921,2096921,158033,663266,0
2096921,2096921,157691,662650,0
2096921,2096921,157609,662276,0
2096921,2096921,157702,662350,0
2096921,2096921,157609,662170,0
2096921,2096921,157482,662101,0
2096921,2096921,156894,660304,0
2096921,2096921,156807,659793,0
2096921,2096921,156418,659829,0
2096921,2096921,156525,659894,0
2096921,2096921,156671,659982,0
2096921,2096921,155564,657985,0
2096921,2096921,155388,657410,0
2096921,2096921,155623,657366,0
2096921,2096921,155665,657233,0
2096921,2096921,155423,657393,0
2096921,2096921,154640,655562,0
2096921,2096921,154729,655248,0
2096921,2096921,154386,655119,0
2096921,2096921,154418,655122,0
2096921,2096921,154106,655117,0
2096921,2096921,154119,654144,0
2096921,2096921,153586,653571,0
2096921,2096921,153825,653551,0
2096921,2096921,153865,653482,0
2096921,2096921,153801,653588,0
2096921,2096921,153402,652287,0
2096921,2096921,153357,652350,0
2096921,2096921,153416,652327,0
2096921,2096921,153498,652086,0
2096921,2096921,153333,652227,0
2096921,2096921,153046,651608,0
2096921,2096921,152928,651651,0
2096921,2096921,152840,651454,0
2096921,2096921,152975,651541,0
2096921,2096921,152919,651146,0
2096921,2096921,152371,651127,0
2096921,2096921,152676,651202,0
2096921,2096921,152754,650887,0
2096921,2096921,152882,650981,0
2096921,2096921,152997,651061,0
2096921,2096921,152638,650341,0
2096921,2096921,152622,650526,0
2096921,2096921,152342,650337,0
2096921,2096921,152634,650194,0
2096921,2096921,152443,650194,0
2096921,2096921,152232,650241,0
2096921,2096921,152514,650238,0
2096921,2096921,152396,650032,0
2096921,2096921,152358,650120,0
2096921,2096921,152638,650328,0
2096921,2096921,152597,650301,0
2096921,2096921,152345,650262,0
2096921,2096921,152323,650238,0
2096921,2096921,152257,649973,0
2096921,2096921,152139,650192,0
2096921,2096921,152240,650339,0
2096921,2096921,152351,650656,0
2096921,2096921,152477,650299,0
2096921,2096921,152265,650354,0
2096921,2096921,152380,650559,0
2096921,2096921,152611,650719,0
2096921,2096921,152339,650567,0
2096921,2096921,152549,650505,0
2096921,2096921,152678,650373,0
2096921,2096921,152489,650331,0
2096921,2096921,152632,650542,0
2096921,2096921,152324,650941,0
2096921,2096921,152346,650473,0
2096921,2096921,152636,650295,0
2096921,2096921,152704,650435,0
2096921,2096921,152836,651200,0
2096921,2096921,152526,651122,0
2096921,2096921,152795,650821,0
2096921,2096921,152702,650790,0
2096921,2096921,152547,650881,0
2096921,2096921,152731,651392,0
2096921,2096921,152884,651288,0
2096921,2096921,152911,651226,0
2096921,2096921,153080,651226,0
2096921,2096921,153011,651398,0
2096921,2096921,153141,651761,0
2096921,2096921,153333,651712,0
2096921,2096921,153116,651799,0
2096921,2096921,153262,651646,0
2096921,2096921,153184,651526,0
2096921,2096921,153331,652174,0
2096921,2096921,153477,652311,0
2096921,2096921,153635,652341,0
2096921,2096921,153580,652361,0
2096921,2096921,153682,652680,0
2096921,2096921,153849,652754,0
2096921,2096921,153529,652612,0
2096921,2096921,153434,653235,0
2096921,2096921,153589,652886,0
2096921,2096921,153579,652855,0
2096921,2096921,153726,653200,0
2096921,2096921,154083,652978,0
2096921,2096921,153771,653005,0
2096921,2096921,153870,653164,0
2096921,2096921,153825,653140,0
2096921,2096921,154025,653542,0
2096921,2096921,153965,653701,0
2096921,2096921,154092,653701,0
2096921,2096921,153935,653479,0
2096921,2096921,153644,653516,0
2096921,2096921,154013,653802,0
2096921,2096921,154166,654171,0
2096921,2096921,154050,654138,0
2096921,2096921,153994,654133,0
2096921,2096921,154135,653964,0
2096921,2096921,154570,654696,0
2096921,2096921,154453,654970,0
2096921,2096921,154436,654299,0
2096921,2096921,154506,654636,0
2096921,2096921,154281,654613,0
2096921,2096921,154703,654973,0
2096921,2096921,154604,655196,0
2096921,2096921,154343,655315,0
2096921,2096921,154685,655120,0
2096921,2096921,154827,655187,0
2096921,2096921,154825,655410,0
2096921,2096921,155010,655541,0
2096921,2096921,154879,655759,0
2096921,2096921,155163,655467,0
2096921,2096921,154797,655840,0
2096921,2096921,155225,656040,0
2096921,2096921,154850,656134,0
2096921,2096921,155029,656195,0
2096921,2096921,155091,655927,0
2096921,2096921,155471,656050,0
2096921,2096921,155428,656673,0
2096921,2096921,155229,656572,0
2096921,2096921,155332,656406,0
2096921,2096921,155519,656519,0
2096921,2096921,155311,656524,0
2096921,2096921,155158,656477,0
2096921,2096921,155424,656849,0
2096921,2096921,155589,656901,0
2096921,2096921,155464,656928,0
2096921,2096921,155402,656807,0
2096921,2096921,155569,657203,0
2096921,2096921,155555,657131,0
2096921,2096921,155797,657050,0
2096921,2096921,155513,657197,0
2096921,2096921,154956,657147,0
2096921,2096921,155369,657190,0
2096921,2096921,155734,657477,0
2096921,2096921,155401,657023,0
2096921,2096921,155587,657272,0
2096921,2096921,155602,657281,0
2096921,2096921,155564,657219,0
2096921,2096921,155468,657254,0
2096921,2096921,155371,657196,0
2096921,2096921,155634,657269,0
2096921,2096921,155645,657138,0
2096921,2096921,155606,657393,0
2096921,2096921,155613,657147,0
2096921,2096921,155708,657731,0
2096921,2096921,155842,657494,0
2096921,2096921,155804,657694,0
2096921,2096921,155699,657324,0
2096921,2096921,155688,657287,0
2096921,2096921,155500,657577,0
2096921,2096921,155741,657445,0
2096921,2096921,155700,657140,0
2096921,2096921,155723,657247,0
2096921,2096921,155416,657106,0
2096921,2096921,155577,657070,0
2096921,2096921,155671,657460,0
2096921,2096921,155802,657446,0
2096921,2096921,155569,657097,0
2096921,2096921,155961,657287,0
2096921,2096921,155433,657338,0
2096921,2096921,155354,657165,0
2096921,2096921,155621,657062,0
2096921,2096921,155474,656730,0
2096921,2096921,155481,657349,0
2096921,2096921,155222,657199,0
2096921,2096921,155658,657098,0
2096921,2096921,155528,657114,0
2096921,2096921,155630,656668,0
2096921,2096921,155425,657049,0
2096921,2096921,155315,657241,0
2096921,2096921,155348,656591,0
2096921,2096921,155406,656459,0
2096921,2096921,155159,656460,0
2096921,2096921,155514,656561,0
2096921,2096921,155264,656630,0
2096921,2096921,155436,656684,0
2096921,2096921,155408,656937,0
2096921,2096921,155223,656893,0
2096921,2096921,155546,656866,0
2096921,2096921,155606,656920,0
2096921,2096921,155340,656787,0
2096921,2096921,155352,656705,0
2096921,2096921,155473,656877,0
2096921,2096921,155525,656884,0
2096921,2096921,155491,656456,0
2096921,2096921,155597,656612,0
2096921,2096921,155448,656933,0
2096921,2096921,155310,656502,0
2096921,2096921,155337,656799,0
2096921,2096921,155077,656453,0
2096921,2096921,155391,656505,0
2096921,2096921,155476,656634,0
2096921,2096921,155379,656884,0
2096921,2096921,155297,656781,0
2096921,2096921,155649,656729,0
2096921,2096921,155409,656775,0
2096921,2096921,155537,656823,0
2096921,2096921,155536,656831,0
2096921,2096921,155414,656736,0
2096921,2096921,155302,657163,0
2096921,2096921,155281,656868,0
2096921,2096921,155502,656983,0
2096921,2096921,155668,657196,0
2096921,2096921,155513,657251,0
2096921,2096921,155718,657090,0
2096921,2096921,155929,657093,0
2096921,2096921,155644,657260,0
2096921,2096921,155872,657688,0
2096921,2096921,155673,657930,0
2096921,2096921,155712,657861,0
2096921,2096921,155782,657705,0
2096921,2096921,155895,657562,0
2096921,2096921,156037,657864,0
2096921,2096921,156185,658182,0
2096921,2096921,155904,658049,0
2096921,2096921,156118,658108,0
2096921,2096921,156135,658073,0
2096921,2096921,156418,658205,0
2096921,2096921,156084,658205,0
2096921,2096921,156265,658444,0
2096921,2096921,156109,658669,0
2096921,2096921,156150,658731,0
2096921,2096921,156251,658523,0
2096921,2096921,156423,658619,0
2096921,2096921,156207,658875,0
2096921,2096921,156150,658739,0
2096921,2096921,156355,658971,0
2096921,2096921,156520,659090,0
2096921,2096921,156388,659152,0
2096921,2096921,156225,658744,0
2096921,2096921,156490,659250,0
2096921,2096921,156239,658753,0
2096921,2096921,156333,659300,0
2096921,2096921,156642,658978,0
2096921,2096921,156656,659092,0
2096921,2096921,156437,658989,0
2096921,2096921,156423,659267,0
2096921,2096921,156447,659627,0
2096921,2096921,156921,659745,0
2096921,2096921,156661,659971,0
2096921,2096921,156584,659603,0
2096921,2096921,156600,659563,0
2096921,2096921,156696,659600,0
2096921,2096921,156767,659609,0
2096921,2096921,156753,659699,0
2096921,2096921,156818,660172,0
2096921,2096921,157106,660128,0
2096921,2096921,157150,660514,0
2096921,2096921,156977,660429,0
2096921,2096921,156985,660387,0
2096921,2096921,156978,660206,0
2096921,2096921,157028,660083,0
2096921,2096921,156954,660227,0
2096921,2096921,157072,660543,0
2096921,2096921,157129,660468,0
2096921,2096921,156680,660653,0
2096921,2096921,157052,660920,0
2096921,2096921,157217,660888,0
2096921,2096921,157100,660720,0
2096921,2096921,157067,660789,0
2096921,2096921,157230,660670,0
2096921,2096921,157181,660567,0
2096921,2096921,157484,660878,0
2096921,2096921,157551,660862,0
2096921,2096921,157645,660857,0
2096921,2096921,157465,661043,0
2096921,2096921,157230,661377,0
2096921,2096921,157563,661543,0
2096921,2096921,157662,661670,0
2096921,2096921,157466,661553,0
2096921,2096921,157344,661352,0
2096921,2096921,157331,661390,0
2096921,2096921,157160,661449,0
2096921,2096921,157603,661722,0
2096921,2096921,157590,661814,0
2096921,2096921,157486,661869,0
2096921,2096921,157389,661927,0
2096921,2096921,157486,662074,0
2096921,2096921,157541,662046,0
2096921,2096921,157523,662275,0
2096921,2096921,157398,662312,0
2096921,2096921,157529,662366,0
2096921,2096921,157889,662491,0
2096921,2096921,157962,662543,0
2096921,2096921,157828,662559,0
2096921,2096921,158118,662432,0
2096921,2096921,158318,662619,0
2096921,2096921,157914,662668,0
2096921,2096921,157683,662670,0
2096921,2096921,158084,662633,0
2096921,2096921,157960,662887,0
2096921,2096921,158099,662771,0
2096921,2096921,157995,663006,0
2096921,2096921,157909,663029,0
2096921,2096921,157982,662997,0
2096921,2096921,158068,663138,0
2096921,2096921,157890,662856,0
2096921,2096921,158028,663387,0
2096921,2096921,158208,663632,0
2096921,2096921,158175,663458,0
2096921,2096921,158328,663296,0
2096921,2096921,158207,663434,0
2096921,2096921,158193,663568,0
2096921,2096921,158284,663475,0
2096921,2096921,158499,663597,0
2096921,2096921,158277,663736,0
2096921,2096921,158388,663666,0
2096921,2096921,158316,663793,0
2096921,2096921,158442,663980,0
2096921,2096921,158631,663974,0
2096921,2096921,158279,664096,0
2096921,2096921,158463,663825,0
2096921,2096921,158546,664056,0
2096921,2096921,158469,664272,0
2096921,2096921,158537,664283,0
2096921,2096921,158366,664556,0
2096921,2096921,158512,664443,0
2096921,2096921,158695,664482,0
2096921,2096921,158597,664624,0
2096921,2096921,158641,664571,0
2096921,2096921,158478,664976,0
2096921,2096921,158510,664882,0
2096921,2096921,158825,664717,0
2096921,2096921,158535,664842,0
2096921,2096921,158662,664930,0
2096921,2096921,158295,665190,0
2096921,2096921,158497,664809,0
2096921,2096921,158801,665137,0
2096921,2096921,158708,665172,0
2096921,2096921,158801,665633,0
2096921,2096921,158749,665328,0
2096921,2096921,158822,665034,0
2096921,2096921,159353,665531,0
2096921,2096921,158693,665466,0
2096921,2096921,159087,665404,0
2096921,2096921,159086,665520,0
2096921,2096921,159104,665291,0
2096921,2096921,159182,665579,0
2096921,2096921,159052,665775,0
2096921,2096921,159182,665634,0
2096921,2096921,159309,665686,0
2096921,2096921,158788,665716,0
2096921,2096921,158915,665852,0
2096921,2096921,159144,666165,0
2096921,2096921,159015,666375,0
2096921,2096921,158999,666128,0
2096921,2096921,159213,666262,0
2096921,2096921,159166,666240,0
2096921,2096921,159023,666591,0
2096921,2096921,159276,666213,0
2096921,2096921,159320,666414,0
2096921,2096921,159033,666469,0
2096921,2096921,159230,666919,0
2096921,2096921,159237,666735,0
2096921,2096921,159525,666373,0
2096921,2096921,159193,666526,0
2096921,2096921,159229,666526,0
2096921,2096921,159452,666798,0
2096921,2096921,159263,666736,0
2096921,2096921,159630,666781,0
2096921,2096921,159425,666717,0
2096921,2096921,159082,666872,0
2096921,2096921,159217,667095,0
2096921,2096921,159416,667190,0
2096921,2096921,159727,667028,0
2096921,2096921,159589,667220,0
2096921,2096921,159504,666975,0
2096921,2096921,159638,667351,0
2096921,2096921,159750,667388,0
2096921,2096921,159597,667690,0
2096921,2096921,159513,667621,0
2096921,2096921,159370,667424,0
2096921,2096921,159797,667522,0
2096921,2096921,159449,667681,0
2096921,2096921,159770,667719,0
2096921,2096921,159849,667749,0
2096921,2096921,159463,667770,0
2096921,2096921,159797,667862,0
2096921,2096921,159691,668016,0
2096921,2096921,159879,668311,0
2096921,2096921,159736,667909,0
2096921,2096921,159817,667892,0
2096921,2096921,159965,668079,0
2096921,2096921,159765,668305,0
2096921,2096921,159497,668297,0
2096921,2096921,159853,668694,0
2096921,2096921,159832,668474,0
2096921,2096921,159892,668395,0
2096921,2096921,159894,668628,0
2096921,2096921,160078,668877,0
2096921,2096921,159932,668722,0
2096921,2096921,159893,668488,0
2096921,2096921,159910,668836,0
2096921,2096921,159801,668754,0
2096921,2096921,159685,668950,0
2096921,2096921,159892,668888,0
2096921,2096921,160047,668757,0
2096921,2096921,160243,669291,0
2096921,2096921,160127,669318,0
2096921,2096921,160010,669455,0
2096921,2096921,160142,669251,0
2096921,2096921,160031,669045,0
2096921,2096921,160040,669305,0
2096921,2096921,160348,669485,0
2096921,2096921,160277,669596,0
2096921,2096921,160358,669474,0
2096921,2096921,160302,669119,0
2096921,2096921,160372,669837,0
2096921,2096921,160228,669851,0
2096921,2096921,160297,669755,0
2096921,2096921,160621,669820,0
2096921,2096921,160251,669596,0
2096921,2096921,160256,669869,0
2096921,2096921,160467,669932,0
2096921,2096921,160713,670001,0
2096921,2096921,160408,670168,0
2096921,2096921,160430,669764,0
2096921,2096921,160499,670188,0
2096921,2096921,160655,670142,0
2096921,2096921,160770,670446,0
2096921,2096921,160713,670309,0
2096921,2096921,160696,670619,0
2096921,2096921,160477,670797,0
2096921,2096921,160661,670772,0
2096921,2096921,160575,670481,0
2096921,2096921,160845,670679,0
2096921,2096921,160412,670510,0
2096921,2096921,160683,670655,0
2096921,2096921,160549,670540,0
2096921,2096921,160545,670685,0
2096921,2096921,160717,670796,0
2096921,2096921,160456,670658,0
2096921,2096921,160375,671087,0
2096921,2096921,160732,670868,0
2096921,2096921,160734,670922,0
2096921,2096921,160872,671069,0
2096921,2096921,160702,671457,0
2096921,2096921,160793,671332,0
2096921,2096921,160774,671196,0
2096921,2096921,160588,671235,0
2096921,2096921,160667,671182,0
2096921,2096921,160503,671284,0
2096921,2096921,160653,671139,0
2096921,2096921,160798,671275,0
2096921,2096921,160664,671333,0
2096921,2096921,160599,671554,0
2096921,2096921,160730,671617,0
2096921,2096921,160763,671631,0
2096921,2096921,160775,671756,0
2096921,2096921,160509,671828,0
2096921,2096921,160290,671839,0
2096921,2096921,160490,672081,0
2096921,2096921,160684,671836,0
2096921,2096921,160846,672072,0
2096921,2096921,160745,672148,0
2096921,2096921,160862,672114,0
2096921,2096921,160931,672096,0
2096921,2096921,161243,672136,0
2096921,2096921,161053,672365,0
2096921,2096921,161230,672134,0
2096921,2096921,160667,672436,0
2096921,2096921,160977,672060,0
2096921,2096921,161109,672731,0
2096921,2096921,160999,672729,0
2096921,2096921,160896,672724,0
2096921,2096921,160841,672677,0
2096921,2096921,161361,672410,0
2096921,2096921,161487,672118,0
2096921,2096921,160841,672564,0
2096921,2096921,160868,672172,0
2096921,2096921,160728,672339,0
2096921,2096921,160757,672234,0
2096921,2096921,160799,672121,0
2096921,2096921,160762,672256,0
2096921,2096921,160592,672274,0
2096921,2096921,160924,672137,0
2096921,2096921,160971,671925,0
2096921,2096921,160536,671600,0
2096921,2096921,160509,671690,0
2096921,2096921,160308,671796,0
2096921,2096921,160585,671599,0
2096921,2096921,160683,671599,0
2096921,2096921,160061,671157,0
2096921,2096921,160003,671217,0
2096921,2096921,160303,670867,0
2096921,2096921,159936,670844,0
2096921,2096921,160099,670855,0
2096921,2096921,159605,670289,0
2096921,2096921,159681,670296,0
2096921,2096921,159900,670274,0
2096921,2096921,159957,669994,0
2096921,2096921,159530,670183,0
2096921,2096921,159273,668623,0
2096921,2096921,158895,668428,0
2096921,2096921,158896,668262,0
2096921,2096921,158861,668349,0
2096921,2096921,158913,668525,0
2096921,2096921,157814,666677,0
2096921,2096921,157747,665713,0
2096921,2096921,157437,665452,0
2096921,2096921,157710,665676,0
2096921,2096921,157816,665934,0
2096921,2096921,156868,664396,0
2096921,2096921,156554,664038,0
2096921,2096921,156601,663924,0
2096921,2096921,156643,664136,0
2096921,2096921,156656,664124,0
2096921,2096921,156258,663025,0
2096921,2096921,156025,662690,0
2096921,2096921,156020,662814,0
2096921,2096921,155890,662936,0
2096921,2096921,155892,663010,0
2096921,2096921,155983,662305,0
2096921,2096921,155582,661880,0
2096921,2096921,155714,661894,0
2096921,2096921,155598,661774,0
2096921,2096921,155686,661840,0
2096921,2096921,155254,661316,0
2096921,2096921,155161,661442,0
2096921,2096921,155132,661467,0
2096921,2096921,155403,661429,0
2096921,2096921,155164,661263,0
2096921,2096921,155139,661095,0
2096921,2096921,155249,660956,0
2096921,2096921,154933,661079,0
2096921,2096921,154964,661021,0
2096921,2096921,155161,660882,0
2096921,2096921,155016,660569,0
2096921,2096921,154989,660554,0
2096921,2096921,155070,660558,0
2096921,2096921,155187,660707,0
2096921,2096921,154872,660685,0
2096921,2096921,154701,660401,0
2096921,2096921,154735,660633,0
2096921,2096921,155107,660848,0
2096921,2096921,154814,660959,0
2096921,2096921,155090,660978,0
2096921,2096921,155088,660944,0
2096921,2096921,155152,661040,0
2096921,2096921,155208,661234,0
2096921,2096921,155274,661312,0
2096921,2096921,155190,660784,0
2096921,2096921,155066,661220,0
2096921,2096921,155521,661277,0
2096921,2096921,155155,661646,0
2096921,2096921,155171,661596,0
2096921,2096921,155002,661606,0
2096921,2096921,155434,661925,0
2096921,2096921,155394,661975,0
2096921,2096921,155482,662422,0
2096921,2096921,155500,661875,0
2096921,2096921,155392,661902,0
2096921,2096921,155699,662312,0
2096921,2096921,155655,662293,0
2096921,2096921,155496,662215,0
2096921,2096921,155494,662355,0
2096921,2096921,155517,662250,0
2096921,2096921,155761,662801,0
2096921,2096921,155866,662984,0
2096921,2096921,155784,663319,0
2096921,2096921,155953,663272,0
2096921,2096921,155656,663149,0
2096921,2096921,155891,663667,0
2096921,2096921,155639,663809,0
2096921,2096921,155954,663711,0
2096921,2096921,156096,664091,0
2096921,2096921,156124,663685,0
2096921,2096921,156351,664292,0
2096921,2096921,156416,664418,0
2096921,2096921,156254,664686,0
2096921,2096921,156603,664698,0
2096921,2096921,156051,664694,0
2096921,2096921,156363,664986,0
2096921,2096921,156356,665311,0
2096921,2096921,156627,665217,0
2096921,2096921,156675,665192,0
2096921,2096921,156873,665142,0
2096921,2096921,156755,665736,0
2096921,2096921,156726,665980,0
2096921,2096921,156817,666160,0
2096921,2096921,156856,665708,0
2096921,2096921,156833,665700,0
2096921,2096921,156942,666586,0
2096921,2096921,156885,666420,0
2096921,2096921,156909,666252,0
2096921,2096921,157317,666502,0
2096921,2096921,157085,666779,0
2096921,2096921,157379,667093,0
2096921,2096921,157435,667174,0
2096921,2096921,157419,667275,0
2096921,2096921,157531,667322,0
2096921,2096921,157612,667229,0
2096921,2096921,157654,668043,0
2096921,2096921,157593,668010,0
2096921,2096921,157503,668156,0
2096921,2096921,157616,667986,0
2096921,2096921,157851,668101,0
2096921,2096921,157784,668774,0
2096921,2096921,158188,668852,0
2096921,2096921,157932,668709,0
2096921,2096921,158095,668552,0
2096921,2096921,157968,668871,0
2096921,2096921,158058,669746,0
2096921,2096921,158226,669632,0
2096921,2096921,158261,669652,0
2096921,2096921,158101,669673,0
2096921,2096921,158260,669530,0
2096921,2096921,158495,669894,0
2096921,2096921,158534,670096,0
2096921,2096921,158382,670427,0
2096921,2096921,158305,670237,0
2096921,2096921,158275,670264,0
2096921,2096921,158828,670726,0
2096921,2096921,158995,670846,0
2096921,2096921,158835,670874,0
2096921,2096921,159127,671002,0
2096921,2096921,159114,670788,0
2096921,2096921,158846,671496,0
2096921,2096921,159211,671648,0
2096921,2096921,159164,671877,0
2096921,2096921,159064,671739,0
2096921,2096921,158984,671827,0
2096921,2096921,159129,671848,0
2096921,2096921,159297,671952,0
2096921,2096921,159093,672384,0
2096921,2096921,159557,672394,0
2096921,2096921,159386,672362,0
2096921,2096921,159579,672749,0
2096921,2096921,159432,672437,0
2096921,2096921,159196,672889,0
2096921,2096921,159272,672594,0
2096921,2096921,159421,672525,0
2096921,2096921,159444,673123,0
2096921,2096921,159360,673096,0
2096921,2096921,159409,673105,0
2096921,2096921,159324,673048,0
2096921,2096921,159673,673278,0
2096921,2096921,159962,673618,0
2096921,2096921,159889,673578,0
2096921,2096921,159831,673613,0
2096921,2096921,159712,673525,0
2096921,2096921,159553,673371,0
2096921,2096921,159928,673584,0
2096921,2096921,159578,673598,0
2096921,2096921,159834,673136,0
2096921,2096921,159527,673661,0
2096921,2096921,160009,673613,0
2096921,2096921,159916,674071,0
2096921,2096921,159771,674032,0
2096921,2096921,159747,673644,0
2096921,2096921,159988,673802,0
2096921,2096921,159776,673917,0
2096921,2096921,159725,673734,0
2096921,2096921,159819,673981,0
2096921,2096921,159679,673975,0
2096921,2096921,159544,673968,0
2096921,2096921,159709,674152,0
2096921,2096921,159794,674144,0
2096921,2096921,159714,674188,0
2096921,2096921,159644,674156,0
2096921,2096921,159828,673913,0
2096921,2096921,159667,673903,0
2096921,2096921,159696,674061,0
2096921,2096921,159675,674021,0
2096921,2096921,159792,674077,0
2096921,2096921,159853,673988,0
2096921,2096921,159593,674225,0
2096921,2096921,159899,674058,0
2096921,2096921,160024,673941,0
2096921,2096921,159647,674106,0
2096921,2096921,159711,674144,0
2096921,2096921,159831,674107,0
2096921,2096921,159451,674153,0
2096921,2096921,159842,673838,0
2096921,2096921,159586,674136,0
2096921,2096921,159871,674148,0
2096921,2096921,159384,674405,0
2096921,2096921,159796,674114,0
2096921,2096921,159612,674214,0
2096921,2096921,159715,674269,0
2096921,2096921,159867,674217,0
2096921,2096921,159786,674179,0
2096921,2096921,159697,674325,0
2096921,2096921,159943,674413,0
2096921,2096921,159577,674771,0
2096921,2096921,159719,674456,0
2096921,2096921,159920,674585,0
2096921,2096921,159724,674610,0
2096921,2096921,159849,674758,0
2096921,2096921,159586,674818,0
2096921,2096921,159899,674797,0
2096921,2096921,159710,674691,0
2096921,2096921,160029,675016,0
2096921,2096921,159836,675195,0
2096921,2096921,159920,674918,0
2096921,2096921,159935,675358,0
2096921,2096921,160174,674758,0
2096921,2096921,160357,674919,0
2096921,2096921,160133,675181,0
2096921,2096921,160274,675434,0
2096921,2096921,160263,675475,0
2096921,2096921,160200,675118,0
2096921,2096921,160465,675593,0
2096921,2096921,160387,676116,0
2096921,2096921,160049,675943,0
2096921,2096921,160453,676047,0
2096921,2096921,160212,675855,0
2096921,2096921,160539,676354,0
2096921,2096921,160415,676621,0
2096921,2096921,160260,676300,0
2096921,2096921,160246,676057,0
2096921,2096921,160467,676027,0
2096921,2096921,160515,676540,0
2096921,2096921,160382,676624,0
2096921,2096921,160607,676794,0
2096921,2096921,160603,676801,0
2096921,2096921,160742,676989,0
2096921,2096921,160794,677198,0
2096921,2096921,160811,677430,0
2096921,2096921,160643,677116,0
2096921,2096921,160903,677057,0
2096921,2096921,160704,676793,0
2096921,2096921,160750,677177,0
2096921,2096921,160996,677639,0
2096921,2096921,161209,677642,0
2096921,2096921,161063,677366,0
2096921,2096921,160705,677641,0
2096921,2096921,161177,678075,0
2096921,2096921,161674,677945,0
2096921,2096921,161355,677938,0
2096921,2096921,161165,677872,0
2096921,2096921,161162,678142,0
2096921,2096921,161199,678137,0
2096921,2096921,161150,678441,0
2096921,2096921,161090,678121,0
2096921,2096921,161134,678541,0
2096921,2096921,161304,678727,0
2096921,2096921,161602,678890,0
2096921,2096921,161638,678744,0
2096921,2096921,161662,678781,0
2096921,2096921,161450,678857,0
2096921,2096921,161581,678962,0
2096921,2096921,161755,678976,0
2096921,2096921,161440,679330,0
2096921,2096921,161625,679161,0
2096921,2096921,161818,679122,0
2096921,2096921,161504,679437,0
2096921,2096921,161857,679383,0
2096921,2096921,161775,679566,0
2096921,2096921,161712,679396,0
2096921,2096921,161553,679471,0
2096921,2096921,161655,679806,0
2096921,2096921,162038,679868,0
2096921,2096921,161943,679927,0
2096921,2096921,161771,680199,0
2096921,2096921,161923,680106,0
2096921,2096921,161884,680221,0
2096921,2096921,162055,680199,0
2096921,2096921,162272,680221,0
2096921,2096921,162266,680282,0
2096921,2096921,162146,680532,0
2096921,2096921,162171,680194,0
2096921,2096921,162366,680419,0
2096921,2096921,162044,680399,0
2096921,2096921,161914,680947,0
2096921,2096921,162338,680957,0
2096921,2096921,162375,680816,0
2096921,2096921,162359,681126,0
2096921,2096921,162380,681181,0
2096921,2096921,162108,680915,0
2096921,2096921,162172,681112,0
2096921,2096921,162364,680691,0
2096921,2096921,162572,681335,0
2096921,2096921,162065,681259,0
2096921,2096921,162130,681176,0
2096921,2096921,162574,681294,0
2096921,2096921,162463,681423,0
2096921,2096921,162535,681379,0
2096921,2096921,162631,681271,0
2096921,2096921,162731,681688,0
2096921,2096921,162326,681879,0
2096921,2096921,162480,681464,0
2096921,2096921,162773,681847,0
2096921,2096921,162737,682248,0
2096921,2096921,162701,681986,0
2096921,2096921,162959,682041,0
2096921,2096921,162803,681945,0
2096921,2096921,162885,682163,0
2096921,2096921,162808,682376,0
2096921,2096921,162746,682212,0
2096921,2096921,163021,682257,0
2096921,2096921,162879,682116,0
2096921,2096921,162594,682527,0
2096921,2096921,162749,682493,0
2096921,2096921,163130,682349,0
2096921,2096921,163138,682622,0
2096921,2096921,162969,682576,0
2096921,2096921,163019,682890,0
2096921,2096921,162933,682991,0
2096921,2096921,163125,682642,0
2096921,2096921,162805,682915,0
2096921,2096921,163061,682898,0
2096921,2096921,162909,682966,0
2096921,2096921,163121,682944,0
2096921,2096921,163352,683012,0
2096921,2096921,163354,682876,0
2096921,2096921,163190,683149,0
2096921,2096921,163176,683118,0
2096921,2096921,163330,683167,0
2096921,2096921,163093,683016,0
2096921,2096921,163294,683011,0
2096921,2096921,163189,683166,0
2096921,2096921,163530,682892,0
2096921,2096921,163390,683374,0
2096921,2096921,163536,683250,0
2096921,2096921,163362,683490,0
2096921,2096921,163500,683631,0
2096921,2096921,163408,683650,0
2096921,2096921,163475,683399,0
2096921,2096921,163358,683582,0
2096921,2096921,163166,683767,0
2096921,2096921,163257,683832,0
2096921,2096921,163325,683749,0
2096921,2096921,163801,683554,0
2096921,2096921,163603,683662,0
2096921,2096921,163453,683677,0
2096921,2096921,163386,683733,0
2096921,2096921,163432,683610,0
2096921,2096921,163789,683786,0
2096921,2096921,163397,683903,0
2096921,2096921,163402,683558,0
2096921,2096921,163640,683879,0
2096921,2096921,163576,683807,0
2096921,2096921,163704,683805,0
2096921,2096921,163505,683493,0
2096921,2096921,163329,683905,0
2096921,2096921,163324,683883,0
2096921,2096921,163396,683833,0
2096921,2096921,163808,683870,0
2096921,2096921,163447,684132,0
2096921,2096921,163242,684040,0
2096921,2096921,163391,684045,0
2096921,2096921,163456,684204,0
2096921,2096921,163775,684153,0
2096921,2096921,163620,684178,0
2096921,2096921,163563,684186,0
2096921,2096921,163678,684134,0
2096921,2096921,163660,684352,0
2096921,2096921,163692,684174,0
2096921,2096921,163490,684571,0
2096921,2096921,163586,684406,0
2096921,2096921,163399,684386,0
2096921,2096921,163702,684327,0
2096921,2096921,163782,684401,0
2096921,2096921,163824,684719,0
2096921,2096921,163922,684352,0
2096921,2096921,164090,684671,0
2096921,2096921,163768,684822,0
2096921,2096921,163709,684618,0
2096921,2096921,163813,684412,0
2096921,2096921,164178,684486,0
2096921,2096921,163940,684557,0
2096921,2096921,164078,684594,0
2096921,2096921,163866,684878,0
2096921,2096921,163868,684725,0
2096921,2096921,163898,684688,0
2096921,2096921,164036,684601,0
2096921,2096921,163754,684749,0
2096921,2096921,163627,684697,0
2096921,2096921,163864,684753,0
2096921,2096921,163903,684379,0
2096921,2096921,164058,684603,0
2096921,2096921,163711,684820,0
2096921,2096921,164018,684722,0
2096921,2096921,163870,684754,0
2096921,2096921,164061,684929,0
2096921,2096921,163994,684911,0
2096921,2096921,164214,684833,0
2096921,2096921,163989,684949,0
2096921,2096921,164058,684722,0
2096921,2096921,164253,685087,0
2096921,2096921,164009,685175,0
2096921,2096921,164001,685156,0
2096921,2096921,164058,685001,0
2096921,2096921,164195,684954,0
2096921,2096921,164018,685056,0
2096921,2096921,163990,685035,0
2096921,2096921,163905,685169,0
2096921,2096921,163979,685266,0
2096921,2096921,164000,684843,0
2096921,2096921,163898,685215,0
2096921,2096921,163869,685070,0
2096921,2096921,164048,685292,0
2096921,2096921,164166,685132,0
2096921,2096921,164047,685028,0
2096921,2096921,164215,685397,0
2096921,2096921,164117,685352,0
2096921,2096921,164143,685532,0
2096921,2096921,164343,685205,0
2096921,2096921,164306,684907,0
2096921,2096921,164166,685254,0
2096921,2096921,164129,685357,0
2096921,2096921,164270,685068,0
2096921,2096921,164262,685472,0
2096921,2096921,164202,685236,0
2096921,2096921,163998,685370,0
2096921,2096921,164488,685312,0
2096921,2096921,164031,685549,0
2096921,2096921,164000,685466,0
2096921,2096921,164467,685337,0
2096921,2096921,164088,685243,0
2096921,2096921,164038,685387,0
2096921,2096921,164177,685678,0
2096921,2096921,164383,685370,0
2096921,2096921,164093,685367,0
2096921,2096921,164323,685629,0
2096921,2096921,164221,685879,0
2096921,2096921,164479,685702,0
2096921,2096921,164303,685596,0
2096921,2096921,164266,685593,0
2096921,2096921,164274,685384,0
2096921,2096921,164187,685551,0
2096921,2096921,164263,685360,0
2096921,2096921,164326,685290,0
2096921,2096921,164030,685138,0
2096921,2096921,164288,685258,0
2096921,2096921,164299,685305,0
2096921,2096921,164445,685601,0
2096921,2096921,164417,685651,0
2096921,2096921,164500,685354,0
2096921,2096921,164512,685321,0
2096921,2096921,164284,685605,0
2096921,2096921,164196,685603,0
2096921,2096921,164220,685592,0
2096921,2096921,164575,685366,0
2096921,2096921,164553,685448,0
2096921,2096921,164461,685479,0
2096921,2096921,164545,685662,0
2096921,2096921,164352,685486,0
2096921,2096921,164403,685661,0
2096921,2096921,164352,685727,0
2096921,2096921,164350,685661,0
2096921,2096921,164603,685401,0
2096921,2096921,164198,685594,0
2096921,2096921,164229,685359,0
2096921,2096921,164176,685326,0
2096921,2096921,164273,685647,0
2096921,2096921,164460,685668,0
2096921,2096921,164495,685477,0
2096921,2096921,164402,685278,0
2096921,2096921,164328,685527,0
2096921,2096921,164296,685408,0
2096921,2096921,163944,685283,0
2096921,2096921,164098,685395,0
2096921,2096921,164141,685362,0
2096921,2096921,164093,685590,0
2096921,2096921,164028,685406,0
2096921,2096921,164107,685284,0
2096921,2096921,164409,685559,0
2096921,2096921,164410,685353,0
2096921,2096921,164164,685679,0
2096921,2096921,164038,685606,0
2096921,2096921,164136,685428,0
2096921,2096921,164028,685437,0
2096921,2096921,163870,685741,0
2096921,2096921,164230,685434,0
2096921,2096921,164487,685616,0
2096921,2096921,164124,685091,0
2096921,2096921,164093,684960,0
2096921,2096921,164166,685048,0
2096921,2096921,164030,685159,0
2096921,2096921,163962,685243,0
2096921,2096921,164294,684629,0
2096921,2096921,163844,684493,0
2096921,2096921,163808,684658,0
2096921,2096921,164091,684622,0
2096921,2096921,163880,684877,0
2096921,2096921,163650,684244,0
2096921,2096921,163668,683904,0
2096921,2096921,163693,684124,0
2096921,2096921,163564,683776,0
2096921,2096921,163400,683707,0
2096921,2096921,163358,683248,0
2096921,2096921,163132,683161,0
2096921,2096921,163000,682777,0
2096921,2096921,163220,682999,0
2096921,2096921,163013,682826,0
2096921,2096921,162630,682063,0
2096921,2096921,162486,681666,0
2096921,2096921,162429,681929,0
2096921,2096921,162793,681590,0
2096921,2096921,162484,681943,0
2096921,2096921,161844,680082,0
2096921,2096921,161626,679731,0
2096921,2096921,161596,679385,0
2096921,2096921,161397,679294,0
2096921,2096921,161640,679540,0
2096921,2096921,160444,677278,0
2096921,2096921,160200,677001,0
2096921,2096921,160433,676821,0
2096921,2096921,160435,676658,0
2096921,2096921,160357,676813,0
2096921,2096921,159433,675087,0
2096921,2096921,159575,674822,0
2096921,2096921,159443,674629,0
2096921,2096921,159621,674442,0
2096921,2096921,159286,674367,0
2096921,2096921,158831,673381,0
2096921,2096921,158300,673225,0
2096921,2096921,158584,672754,0
2096921,2096921,158520,672874,0
2096921,2096921,158535,673082,0
2096921,2096921,158061,672138,0
2096921,2096921,158465,671700,0
2096921,2096921,158319,671573,0
2096921,2096921,158004,671660,0
2096921,2096921,157783,671676,0
2096921,2096921,157358,670941,0
2096921,2096921,157772,671007,0
2096921,2096921,157671,670645,0
2096921,2096921,157875,670756,0
2096921,2096921,157499,670715,0
2096921,2096921,157432,670160,0
2096921,2096921,157280,669955,0
2096921,2096921,157133,670206,0
2096921,2096921,157171,670442,0
2096921,2096921,157131,670108,0
2096921,2096921,157049,669647,0
2096921,2096921,157049,669566,0
2096921,2096921,157036,669549,0
2096921,2096921,157006,670042,0
2096921,2096921,157377,669762,0
2096921,2096921,157139,669336,0
2096921,2096921,157263,669405,0
2096921,2096921,157172,669266,0
2096921,2096921,157056,669393,0
2096921,2096921,157126,669269,0
2096921,2096921,156984,669233,0
2096921,2096921,156946,669515,0
2096921,2096921,156986,669383,0
2096921,2096921,157200,669522,0
2096921,2096921,157182,669079,0
2096921,2096921,156823,669352,0
2096921,2096921,157169,669562,0
2096921,2096921,157134,669510,0
2096921,2096921,156897,669578,0
2096921,2096921,157044,669534,0
2096921,2096921,157313,669391,0
2096921,2096921,157021,669834,0
2096921,2096921,157035,669852,0
2096921,2096921,157141,669732,0
2096921,2096921,157272,669808,0
2096921,2096921,157244,669766,0
2096921,2096921,157185,669259,0
2096921,2096921,157471,669579,0
2096921,2096921,157474,669718,0
2096921,2096921,157414,669414,0
2096921,2096921,157390,669800,0
2096921,2096921,157358,669833,0
2096921,2096921,157376,670086,0
2096921,2096921,157429,670087,0
2096921,2096921,157138,670185,0
2096921,2096921,157404,670183,0
2096921,2096921,157781,670552,0
2096921,2096921,157486,670198,0
2096921,2096921,157552,670021,0
2096921,2096921,157517,670400,0
2096921,2096921,158053,670561,0
2096921,2096921,158091,670893,0
2096921,2096921,158016,670717,0
2096921,2096921,157563,670515,0
2096921,2096921,157763,670711,0
2096921,2096921,157949,670970,0
2096921,2096921,157819,670968,0
2096921,2096921,157763,670648,0
2096921,2096921,157896,670546,0
2096921,2096921,158221,670642,0
2096921,2096921,158016,671051,0
2096921,2096921,158140,671214,0
2096921,2096921,158191,671253,0
2096921,2096921,158427,671131,0
2096921,2096921,158337,671454,0
2096921,2096921,158521,671421,0
2096921,2096921,158422,671671,0
2096921,2096921,158194,671670,0
2096921,2096921,158116,671473,0
2096921,2096921,158218,671832,0
2096921,2096921,158483,671562,0
2096921,2096921,158614,672079,0
2096921,2096921,158479,671729,0
2096921,2096921,158430,671644,0
2096921,2096921,158176,671655,0
2096921,2096921,158614,672111,0
2096921,2096921,158581,672191,0
2096921,2096921,158592,672221,0
2096921,2096921,158456,672011,0
2096921,2096921,158599,671803,0
2096921,2096921,158773,672355,0
2096921,2096921,158866,672557,0
2096921,2096921,158637,672765,0
2096921,2096921,158706,672793,0
2096921,2096921,158755,672515,0
2096921,2096921,159023,672689,0
2096921,2096921,159083,672716,0
2096921,2096921,159052,673010,0
2096921,2096921,159020,672714,0
2096921,2096921,158965,672582,0
2096921,2096921,159096,673445,0
2096921,2096921,159146,673287,0
2096921,2096921,159068,673134,0
2096921,2096921,158969,673095,0
2096921,2096921,159130,673274,0
2096921,2096921,159336,673183,0
2096921,2096921,159318,673600,0
2096921,2096921,159259,673628,0
2096921,2096921,159475,673359,0
2096921,2096921,159478,673510,0
2096921,2096921,159513,673682,0
2096921,2096921,159411,673995,0
2096921,2096921,159765,673800,0
2096921,2096921,159655,673548,0
2096921,2096921,159569,673554,0
2096921,2096921,159456,673663,0
2096921,2096921,159593,673725,0
2096921,2096921,159528,673941,0
2096921,2096921,159736,673576,0
2096921,2096921,159826,673644,0
2096921,2096921,159945,673544,0
2096921,2096921,159863,673859,0
2096921,2096921,159801,674137,0
2096921,2096921,159892,674263,0
2096921,2096921,160065,673898,0
2096921,2096921,159795,673880,0
2096921,2096921,159916,674058,0
2096921,2096921,159961,674026,0
2096921,2096921,159816,673927,0
2096921,2096921,160047,673896,0
2096921,2096921,160024,673888,0
2096921,2096921,159803,673767,0
2096921,2096921,160122,673786,0
2096921,2096921,159916,673908,0
2096921,2096921,159895,674072,0
2096921,2096921,159702,673658,0
2096921,2096921,159532,673690,0
2096921,2096921,159765,673708,0
2096921,2096921,159577,673603,0
2096921,2096921,159922,673530,0
2096921,2096921,159685,673506,0
2096921,2096921,159810,673529,0
2096921,2096921,159608,673791,0
2096921,2096921,159619,673870,0
2096921,2096921,159624,673783,0
2096921,2096921,159425,673001,0
2096921,2096921,159580,673391,0
2096921,2096921,159733,673185,0
2096921,2096921,159500,673123,0
2096921,2096921,159581,673017,0
2096921,2096921,159496,672867,0
2096921,2096921,159218,672273,0
2096921,2096921,159167,672712,0
2096921,2096921,159148,672706,0
2096921,2096921,159378,672519,0
2096921,2096921,159432,672302,0
2096921,2096921,159417,672333,0
2096921,2096921,159172,672322,0
2096921,2096921,159315,672317,0
2096921,2096921,159150,672421,0
2096921,2096921,159207,672126,0
2096921,2096921,159180,671782,0
2096921,2096921,159416,671798,0
2096921,2096921,159282,671998,0
2096921,2096921,159138,671867,0
2096921,2096921,159288,671880,0
2096921,2096921,159264,671431,0
2096921,2096921,159165,671689,0
2096921,2096921,158985,671194,0
2096921,2096921,159032,671583,0
2096921,2096921,159051,671632,0
2096921,2096921,159010,671583,0
2096921,2096921,158982,671554,0
2096921,2096921,159051,671287,0
2096921,2096921,158803,671361,0
2096921,2096921,159003,671171,0
2096921,2096921,158993,671073,0
2096921,2096921,158942,671125,0
2096921,2096921,158991,671354,0
2096921,2096921,159141,671004,0
2096921,2096921,158903,671036,0
2096921,2096921,158785,670987,0
2096921,2096921,158975,671230,0
2096921,2096921,158873,670770,0
2096921,2096921,158826,670655,0
2096921,2096921,158754,670810,0
2096921,2096921,158831,671031,0
2096921,2096921,158796,671052,0
2096921,2096921,158878,670780,0
2096921,2096921,158845,670740,0
2096921,2096921,158841,670837,0
2096921,2096921,158916,670669,0
2096921,2096921,158910,670571,0
2096921,2096921,158925,670874,0
2096921,2096921,159020,670530,0
2096921,2096921,159094,670599,0
2096921,2096921,159211,670951,0
2096921,2096921,159534,670615,0
2096921,2096921,159014,670423,0
2096921,2096921,158964,670613,0
2096921,2096921,159054,671019,0
2096921,2096921,159031,671158,0
2096921,2096921,158995,670955,0
2096921,2096921,159281,670991,0
2096921,2096921,158945,670805,0
2096921,2096921,159046,670967,0
2096921,2096921,159478,671145,0
2096921,2096921,159302,671176,0
2096921,2096921,159150,671039,0
2096921,2096921,159164,671335,0
2096921,2096921,159049,671054,0
2096921,2096921,159524,671253,0
2096921,2096921,159340,670882,0
2096921,2096921,159428,671430,0
2096921,2096921,159451,671352,0
2096921,2096921,159338,671025,0
2096921,2096921,159452,671227,0
2096921,2096921,159619,671046,0
2096921,2096921,159355,671060,0
2096921,2096921,159476,671359,0
2096921,2096921,159553,671028,0
2096921,2096921,159297,671212,0
2096921,2096921,159437,671231,0
2096921,2096921,159350,671255,0
2096921,2096921,159074,671453,0
2096921,2096921,159512,671077,0
2096921,2096921,159359,671232,0
2096921,2096921,159798,671235,0
2096921,2096921,159592,671071,0
2096921,2096921,159653,671262,0
2096921,2096921,159325,671300,0
2096921,2096921,159347,671245,0
2096921,2096921,159600,671465,0
2096921,2096921,159644,671475,0
2096921,2096921,159420,671432,0
2096921,2096921,159796,671407,0
2096921,2096921,159764,671601,0
2096921,2096921,159633,671090,0
2096921,2096921,159613,671123,0
2096921,2096921,159713,671278,0
2096921,2096921,159658,671337,0
2096921,2096921,159556,671362,0
2096921,2096921,159532,671331,0
2096921,2096921,159813,671507,0
2096921,2096921,159793,671531,0
2096921,2096921,160042,671580,0
2096921,2096921,159985,671053,0
2096921,2096921,159718,671746,0
2096921,2096921,159845,671599,0
2096921,2096921,159706,671902,0
2096921,2096921,159890,671079,0
2096921,2096921,159944,671097,0
2096921,2096921,159597,671075,0
2096921,2096921,159798,671502,0
2096921,2096921,159590,671438,0
2096921,2096921,159830,671509,0
2096921,2096921,159786,670944,0
2096921,2096921,159860,671228,0
2096921,2096921,159813,671421,0
2096921,2096921,159658,671549,0
2096921,2096921,159962,671316,0
2096921,2096921,159705,671363,0
2096921,2096921,159695,671486,0
2096921,2096921,159882,671576,0
2096921,2096921,160002,671609,0
2096921,2096921,159922,671313,0
2096921,2096921,159931,671415,0
2096921,2096921,159887,671567,0
2096921,2096921,160110,671346,0
2096921,2096921,160082,671347,0
2096921,2096921,159863,671618,0
2096921,2096921,159983,671576,0
2096921,2096921,159863,671710,0
2096921,2096921,160020,671484,0
2096921,2096921,160076,671491,0
2096921,2096921,159907,671499,0
2096921,2096921,160101,671337,0
2096921,2096921,160227,671322,0
2096921,2096921,160377,671341,0
2096921,2096921,160212,671439,0
2096921,2096921,160239,671471,0
2096921,2096921,160033,671607,0
2096921,2096921,159852,671153,0
2096921,2096921,160092,670966,0
2096921,2096921,160058,671227,0
2096921,2096921,160052,671422,0
2096921,2096921,160118,671355,0
2096921,2096921,160166,671311,0
2096921,2096921,160140,671279,0
2096921,2096921,160135,671549,0
2096921,2096921,160214,671206,0
2096921,2096921,160291,671416,0
2096921,2096921,160268,671299,0
2096921,2096921,160156,671268,0
2096921,2096921,159860,671079,0
2096921,2096921,160103,671104,0
2096921,2096921,160247,671022,0
2096921,2096921,160554,670851,0
2096921,2096921,160328,671277,0
2096921,2096921,160292,671051,0
2096921,2096921,160407,671107,0
2096921,2096921,160323,671319,0
2096921,2096921,160083,671316,0
2096921,2096921,159999,671004,0
2096921,2096921,160116,671079,0
2096921,2096921,160169,670980,0
2096921,2096921,160178,670865,0
2096921,2096921,160027,670609,0
2096921,2096921,160197,670755,0
2096921,2096921,160086,670884,0
2096921,2096921,160492,671432,0
2096921,2096921,160293,670992,0
2096921,2096921,159950,670933,0
2096921,2096921,159997,670884,0
2096921,2096921,160013,671062,0
2096921,2096921,160084,671003,0
2096921,2096921,160216,670860,0
2096921,2096921,159974,670824,0
2096921,2096921,160430,670921,0
2096921,2096921,160345,670772,0
2096921,2096921,160290,670839,0
2096921,2096921,160121,670827,0
2096921,2096921,160368,670570,0
2096921,2096921,160415,670490,0
2096921,2096921,160282,670721,0
2096921,2096921,160123,670702,0
2096921,2096921,160063,670536,0
2096921,2096921,160191,670396,0
2096921,2096921,160151,670571,0
2096921,2096921,160188,670461,0
2096921,2096921,160413,670672,0
2096921,2096921,160407,670739,0
2096921,2096921,160127,670324,0
2096921,2096921,160218,670723,0
2096921,2096921,160038,670766,0
2096921,2096921,160070,670639,0
2096921,2096921,160129,670405,0
2096921,2096921,160141,670371,0
2096921,2096921,160363,670275,0
2096921,2096921,160292,670419,0
2096921,2096921,160084,670230,0
2096921,2096921,160508,670426,0
2096921,2096921,160321,670386,0
2096921,2096921,160379,670381,0
2096921,2096921,160019,670491,0
2096921,2096921,160279,669952,0
2096921,2096921,160260,670039,0
2096921,2096921,160157,669970,0
2096921,2096921,160305,670100,0
2096921,2096921,160027,670244,0
2096921,2096921,160548,670209,0
2096921,2096921,160327,669891,0
2096921,2096921,160189,669869,0
2096921,2096921,159965,669867,0
2096921,2096921,160000,669974,0
2096921,2096921,160125,669765,0
2096921,2096921,160265,669577,0
2096921,2096921,160286,669434,0
2096921,2096921,160141,669527,0
2096921,2096921,160346,670030,0
2096921,2096921,160239,669825,0
2096921,2096921,160190,669769,0
2096921,2096921,160216,669527,0
2096921,2096921,160134,669551,0
2096921,2096921,160203,669530,0
2096921,2096921,160199,669442,0
2096921,2096921,160122,669568,0
2096921,2096921,160076,669488,0
2096921,2096921,160376,669404,0
2096921,2096921,160338,669663,0
2096921,2096921,160245,669449,0
2096921,2096921,159970,669574,0
2096921,2096921,160299,669502,0
2096921,2096921,160051,669621,0
2096921,2096921,159897,669671,0
2096921,2096921,160214,669222,0
2096921,2096921,160017,669385,0
2096921,2096921,160086,669255,0
2096921,2096921,160044,669405,0
2096921,2096921,160125,669214,0
2096921,2096921,160287,669132,0
2096921,2096921,160368,669280,0
2096921,2096921,160174,669072,0
2096921,2096921,160033,669089,0
2096921,2096921,160020,669371,0
2096921,2096921,160040,668933,0
2096921,2096921,160075,668865,0
2096921,2096921,160093,669006,0
2096921,2096921,160152,669016,0
2096921,2096921,159980,668928,0
2096921,2096921,159923,669015,0
2096921,2096921,160001,668873,0
2096921,2096921,160115,669101,0
2096921,2096921,159865,668720,0
2096921,2096921,159957,668877,0
2096921,2096921,159906,668612,0
2096921,2096921,160074,668789,0
2096921,2096921,160072,668632,0
2096921,2096921,160379,668654,0
2096921,2096921,160051,668776,0
2096921,2096921,160108,668304,0
2096921,2096921,160009,668348,0
2096921,2096921,160323,668463,0
2096921,2096921,160050,668504,0
2096921,2096921,159997,668526,0
2096921,2096921,160070,668460,0
2096921,2096921,159912,668330,0
2096921,2096921,159856,668341,0
2096921,2096921,160097,668309,0
2096921,2096921,159858,668424,0
2096921,2096921,159899,668428,0
2096921,2096921,160246,668323,0
2096921,2096921,160065,668355,0
2096921,2096921,159890,668349,0
2096921,2096921,159707,668336,0
2096921,2096921,159694,667974,0
2096921,2096921,159870,668051,0
2096921,2096921,159665,668076,0
2096921,2096921,159803,668070,0
2096921,2096921,159743,667950,0
2096921,2096921,159852,667707,0
2096921,2096921,159964,667762,0
2096921,2096921,159746,668006,0
2096921,2096921,159735,667591,0
2096921,2096921,159710,667805,0
2096921,2096921,159730,667412,0
2096921,2096921,159776,667718,0
2096921,2096921,159835,667563,0
2096921,2096921,159792,667650,0
2096921,2096921,159913,667522,0
2096921,2096921,159716,667869,0
2096921,2096921,159892,667611,0
2096921,2096921,159904,667287,0
2096921,2096921,159691,667218,0
2096921,2096921,159790,667407,0
2096921,2096921,159963,667290,0
2096921,2096921,159751,667520,0
2096921,2096921,159676,667102,0
2096921,2096921,159784,666892,0
2096921,2096921,159781,667404,0
2096921,2096921,159510,667527,0
2096921,2096921,159556,667461,0
2096921,2096921,159830,667238,0
2096921,2096921,159732,667029,0
2096921,2096921,159547,667109,0
2096921,2096921,159536,667139,0
2096921,2096921,159797,667100,0
2096921,2096921,159739,667088,0
2096921,2096921,159405,666987,0
2096921,2096921,159581,667259,0
2096921,2096921,159647,666915,0
2096921,2096921,159570,666742,0
2096921,2096921,159520,666891,0
2096921,2096921,159387,666800,0
2096921,2096921,159535,666975,0
2096921,2096921,159456,666851,0
2096921,2096921,159506,666603,0
2096921,2096921,159215,666471,0
2096921,2096921,159450,667073,0
2096921,2096921,159639,666715,0
2096921,2096921,159441,666422,0
2096921,2096921,159534,665988,0
2096921,2096921,159244,666108,0
2096921,2096921,159186,666242,0
2096921,2096921,159318,666413,0
2096921,2096921,159151,665617,0
2096921,2096921,159016,665516,0
2096921,2096921,159180,665706,0
2096921,2096921,158991,665614,0
2096921,2096921,159057,665592,0
2096921,2096921,158756,664558,0
2096921,2096921,158828,664812,0
2096921,2096921,158732,664606,0
2096921,2096921,158872,664663,0
2096921,2096921,158614,664659,0
2096921,2096921,158280,663664,0
2096921,2096921,158242,663424,0
2096921,2096921,158184,663715,0
2096921,2096921,158431,663631,0
2096921,2096921,158137,663686,0
2096921,2096921,157955,663108,0
2096921,2096921,157822,662841,0
2096921,2096921,157751,662897,0
2096921,2096921,157601,662537,0
2096921,2096921,157943,662616,0
2096921,2096921,156925,660733,0
2096921,2096921,156892,660265,0
2096921,2096921,156652,659970,0
2096921,2096921,156742,660379,0
2096921,2096921,156721,660365,0
2096921,2096921,155887,657921,0
2096921,2096921,155652,657688,0
2096921,2096921,155605,657325,0
2096921,2096921,155558,657484,0
2096921,2096921,155390,657409,0
2096921,2096921,154733,655776,0
2096921,2096921,154434,655522,0
2096921,2096921,154682,655358,0
2096921,2096921,154664,655328,0
2096921,2096921,154742,655409,0
2096921,2096921,154122,654116,0
2096921,2096921,154080,653835,0
2096921,2096921,153841,653602,0
2096921,2096921,153705,653804,0
2096921,2096921,153780,653776,0
2096921,2096921,153468,652579,0
2096921,2096921,153275,652502,0
2096921,2096921,153400,652373,0
2096921,2096921,153210,652245,0
2096921,2096921,153423,652585,0
2096921,2096921,153132,651864,0
2096921,2096921,153020,651823,0
2096921,2096921,152716,651996,0
2096921,2096921,153128,651774,0
2096921,2096921,152892,651688,0
2096921,2096921,152843,651177,0
2096921,2096921,152569,651213,0
2096921,2096921,152760,651062,0
2096921,2096921,152724,650778,0
2096921,2096921,152719,650829,0
2096921,2096921,152434,650947,0
2096921,2096921,152175,650689,0
2096921,2096921,152636,650788,0
2096921,2096921,152319,650389,0
2096921,2096921,152184,650708,0
2096921,2096921,152050,650407,0
2096921,2096921,152302,650215,0
2096921,2096921,152555,650062,0
2096921,2096921,152521,649956,0
2096921,2096921,152402,650378,0
2096921,2096921,152648,650278,0
2096921,2096921,152442,650215,0
2096921,2096921,152477,650204,0
2096921,2096921,152030,650176,0
2096921,2096921,152032,650286,0
2096921,2096921,152449,650288,0
2096921,2096921,152432,650311,0
2096921,2096921,152340,650467,0
2096921,2096921,152168,650304,0
2096921,2096921,152526,650536,0
2096921,2096921,152436,650214,0
2096921,2096921,152619,650356,0
2096921,2096921,152734,650204,0
2096921,2096921,152679,650645,0
2096921,2096921,152683,650629,0
2096921,2096921,152978,650867,0
2096921,2096921,152854,650709,0
2096921,2096921,152840,650566,0
2096921,2096921,152737,650593,0
2096921,2096921,152653,650754,0
2096921,2096921,152639,650868,0
2096921,2096921,152599,650999,0
2096921,2096921,152946,651101,0
2096921,2096921,152961,650964,0
2096921,2096921,152797,651061,0
2096921,2096921,153107,651520,0
2096921,2096921,153102,651578,0
2096921,2096921,153069,651450,0
2096921,2096921,152993,651501,0
2096921,2096921,152781,651568,0
2096921,2096921,153028,651932,0
2096921,2096921,152953,651747,0
2096921,2096921,153014,652021,0
2096921,2096921,153052,651916,0
2096921,2096921,153068,652027,0
2096921,2096921,153142,652258,0
2096921,2096921,153574,652373,0
2096921,2096921,153664,652396,0
2096921,2096921,153618,652446,0
2096921,2096921,153433,652527,0
2096921,2096921,153681,652894,0
2096921,2096921,153552,652487,0
2096921,2096921,153641,653077,0
2096921,2096921,153604,652798,0
2096921,2096921,153506,653063,0
2096921,2096921,153795,653426,0
2096921,2096921,153664,652900,0
2096921,2096921,153562,653534,0
2096921,2096921,153799,653299,0
2096921,2096921,153791,653695,0
2096921,2096921,154134,653979,0
2096921,2096921,154081,653824,0
2096921,2096921,153899,653565,0
2096921,2096921,153999,653893,0
2096921,2096921,153983,653636,0
2096921,2096921,154146,654068,0
2096921,2096921,153966,653899,0
2096921,2096921,154082,654166,0
2096921,2096921,154297,653976,0
2096921,2096921,154503,653993,0
2096921,2096921,154401,654587,0
2096921,2096921,154492,654861,0
2096921,2096921,154145,654703,0
2096921,2096921,154458,654594,0
2096921,2096921,154469,654667,0
2096921,2096921,154416,654911,0
2096921,2096921,154474,655393,0
2096921,2096921,154757,655526,0
2096921,2096921,154837,654935,0
2096921,2096921,154773,655006,0
2096921,2096921,154771,655348,0
2096921,2096921,154995,655872,0
2096921,2096921,154805,655923,0
2096921,2096921,155006,655750,0
2096921,2096921,155140,655765,0
2096921,2096921,155372,655928,0
2096921,2096921,155073,656021,0
2096921,2096921,155230,656195,0
2096921,2096921,155186,656020,0
2096921,2096921,155118,656223,0
2096921,2096921,154986,656217,0
2096921,2096921,154913,656255,0
2096921,2096921,155400,656220,0
2096921,2096921,155434,656364,0
2096921,2096921,155588,656425,0
2096921,2096921,155481,656675,0
2096921,2096921,155326,656697,0
2096921,2096921,155496,656886,0
2096921,2096921,155809,657271,0
2096921,2096921,155479,656688,0
2096921,2096921,155541,657265,0
2096921,2096921,155705,657292,0
2096921,2096921,155428,656953,0
2096921,2096921,155618,657023,0
2096921,2096921,155360,657060,0
2096921,2096921,155501,657166,0
2096921,2096921,155590,657242,0
2096921,2096921,155546,657197,0
2096921,2096921,155584,657362,0
2096921,2096921,155768,657496,0
2096921,2096921,155642,657518,0
2096921,2096921,155567,657531,0
2096921,2096921,155572,657388,0
2096921,2096921,155570,657479,0
2096921,2096921,155708,657398,0
2096921,2096921,155903,657458,0
2096921,2096921,155741,657232,0
2096921,2096921,155812,657525,0
2096921,2096921,155448,657435,0
2096921,2096921,155601,657242,0
2096921,2096921,155563,657437,0
2096921,2096921,155542,657343,0
2096921,2096921,155761,657399,0
2096921,2096921,155322,657670,0
2096921,2096921,155619,657642,0
2096921,2096921,155610,657303,0
2096921,2096921,155785,657216,0
2096921,2096921,155561,657283,0
2096921,2096921,155555,657508,0
2096921,2096921,155843,657386,0
2096921,2096921,155960,657134,0
2096921,2096921,155603,657469,0
2096921,2096921,155784,657449,0
2096921,2096921,155621,657491,0
2096921,2096921,155949,657119,0
2096921,2096921,155483,657037,0
2096921,2096921,155498,656784,0
2096921,2096921,155495,657009,0
2096921,2096921,155688,657415,0
2096921,2096921,155782,657072,0
2096921,2096921,155362,656962,0
2096921,2096921,155572,656866,0
2096921,2096921,155441,657145,0
2096921,2096921,155260,656716,0
2096921,2096921,155737,656880,0
2096921,2096921,155436,656574,0
2096921,2096921,155352,656737,0
2096921,2096921,155229,656761,0
2096921,2096921,155619,656698,0
2096921,2096921,155398,656843,0
2096921,2096921,155113,656544,0
2096921,2096921,155223,657051,0
2096921,2096921,155125,656815,0
2096921,2096921,155513,656409,0
2096921,2096921,155413,656400,0
2096921,2096921,155167,656778,0
2096921,2096921,155103,656652,0
2096921,2096921,155221,656413,0
2096921,2096921,155366,656558,0
2096921,2096921,155451,656603,0
2096921,2096921,155513,656760,0
2096921,2096921,155597,657173,0
2096921,2096921,155587,657032,0
2096921,2096921,155445,657082,0
2096921,2096921,155515,656991,0
2096921,2096921,155532,656839,0
2096921,2096921,155602,656981,0
2096921,2096921,155321,656778,0
2096921,2096921,155437,657034,0
2096921,2096921,155551,656918,0
2096921,2096921,155313,656962,0
2096921,2096921,155863,656995,0
2096921,2096921,155292,657118,0
2096921,2096921,155263,656954,0
2096921,2096921,155487,656944,0
2096921,2096921,155871,657403,0
2096921,2096921,155588,657179,0
2096921,2096921,155786,657175,0
2096921,2096921,155475,657187,0
2096921,2096921,155411,657647,0
2096921,2096921,155839,657863,0
2096921,2096921,155894,658046,0
2096921,2096921,155949,657796,0
2096921,2096921,155770,657835,0
2096921,2096921,155886,658011,0
2096921,2096921,156126,658292,0
2096921,2096921,156042,658098,0
2096921,2096921,155919,658072,0
2096921,2096921,156070,658229,0
2096921,2096921,155842,658326,0
2096921,2096921,155818,658269,0
2096921,2096921,156319,658411,0
2096921,2096921,156119,658502,0
2096921,2096921,155872,658578,0
2096921,2096921,155831,658535,0
2096921,2096921,156222,658513,0
2096921,2096921,156111,658532,0
2096921,2096921,156412,658889,0
2096921,2096921,156159,658843,0
2096921,2096921,156335,658869,0
2096921,2096921,156361,659194,0
2096921,2096921,156579,658725,0
2096921,2096921,156400,659327,0
2096921,2096921,156231,659307,0
2096921,2096921,156311,659162,0
2096921,2096921,156309,659019,0
2096921,2096921,156450,659016,0
2096921,2096921,156272,659212,0
2096921,2096921,156438,659419,0
2096921,2096921,156377,659196,0
2096921,2096921,156691,659557,0
2096921,2096921,156690,659401,0
2096921,2096921,156644,659648,0
2096921,2096921,156805,659722,0
2096921,2096921,156800,659313,0
2096921,2096921,156907,659641,0
2096921,2096921,156894,659556,0
2096921,2096921,156912,659802,0
2096921,2096921,156839,659897,0
2096921,2096921,156861,659971,0
2096921,2096921,156921,660174,0
2096921,2096921,156872,660495,0
2096921,2096921,156665,660178,0
2096921,2096921,156818,660097,0
2096921,2096921,157177,660138,0
2096921,2096921,156902,660407,0
2096921,2096921,157069,660469,0
2096921,2096921,157080,660566,0
2096921,2096921,156977,660432,0
2096921,2096921,156940,660435,0
2096921,2096921,157130,660803,0
2096921,2096921,157186,660665,0
2096921,2096921,157299,660677,0
2096921,2096921,157119,660803,0
2096921,2096921,157205,660721,0
2096921,2096921,157162,661120,0
2096921,2096921,157154,661122,0
2096921,2096921,157288,661383,0
2096921,2096921,157414,661195,0
2096921,2096921,157394,661047,0
2096921,2096921,157438,661725,0
2096921,2096921,157371,661258,0
2096921,2096921,157447,661359,0
2096921,2096921,157631,661214,0
2096921,2096921,157486,661338,0
2096921,2096921,157463,661734,0
2096921,2096921,157424,661622,0
2096921,2096921,157524,661815,0
2096921,2096921,157493,661961,0
2096921,2096921,157729,661933,0
2096921,2096921,157675,662225,0
2096921,2096921,157671,661962,0
2096921,2096921,157627,662052,0
2096921,2096921,157842,662014,0
2096921,2096921,157803,662105,0
2096921,2096921,157892,662066,0
2096921,2096921,158060,662083,0
2096921,2096921,157783,662021,0
2096921,2096921,157871,662322,0
2096921,2096921,157754,662263,0
2096921,2096921,157911,662583,0
2096921,2096921,157981,662612,0
2096921,2096921,158005,662643,0
2096921,2096921,157907,662967,0
2096921,2096921,158060,662833,0
2096921,2096921,158060,662992,0
2096921,2096921,158022,662803,0
2096921,2096921,157836,663036,0
2096921,2096921,158175,663284,0
2096921,2096921,158247,663407,0
2096921,2096921,158092,663460,0
2096921,2096921,157886,663355,0
2096921,2096921,157902,663381,0
2096921,2096921,158059,663276,0
2096921,2096921,158126,663205,0
2096921,2096921,158285,663312,0
2096921,2096921,157978,663546,0
2096921,2096921,158152,663803,0
2096921,2096921,158257,663814,0
2096921,2096921,158433,663639,0
2096921,2096921,158256,663553,0
2096921,2096921,158474,663737,0
2096921,2096921,158497,664006,0
2096921,2096921,158627,664031,0
2096921,2096921,158539,663789,0
2096921,2096921,158705,664296,0
2096921,2096921,158633,664249,0
2096921,2096921,158861,663988,0
2096921,2096921,158640,664206,0
2096921,2096921,158603,664062,0
2096921,2096921,158842,664557,0
2096921,2096921,158720,664613,0
2096921,2096921,158701,664486,0
2096921,2096921,158615,664413,0
2096921,2096921,158695,664732,0
2096921,2096921,158784,664358,0
2096921,2096921,158692,664870,0
2096921,2096921,158635,664581,0
2096921,2096921,158977,664475,0
2096921,2096921,158729,664739,0
2096921,2096921,159073,664997,0
2096921,2096921,158910,664978,0
2096921,2096921,159006,665185,0
2096921,2096921,158656,665116,0
2096921,2096921,158642,665076,0
2096921,2096921,158575,665439,0
2096921,2096921,158830,665206,0
2096921,2096921,158837,665264,0
2096921,2096921,159070,665302,0
2096921,2096921,158900,665175,0
2096921,2096921,158942,665460,0
2096921,2096921,158772,665718,0
2096921,2096921,158739,665359,0
2096921,2096921,158814,665171,0
2096921,2096921,159049,665285,0
2096921,2096921,159147,665852,0
2096921,2096921,159109,665796,0
2096921,2096921,159222,665615,0
2096921,2096921,159040,665715,0
2096921,2096921,159068,665877,0
2096921,2096921,159079,666110,0
2096921,2096921,158945,665807,0
2096921,2096921,159252,665996,0
2096921,2096921,159127,666125,0
2096921,2096921,159156,665934,0
2096921,2096921,159408,666213,0
2096921,2096921,159127,666327,0
2096921,2096921,159271,666265,0
2096921,2096921,159360,666316,0
2096921,2096921,159082,666266,0
2096921,2096921,159459,666462,0
2096921,2096921,159564,666666,0
2096921,2096921,159440,667032,0
2096921,2096921,159203,666822,0
2096921,2096921,159505,666875,0
2096921,2096921,159235,666935,0
2096921,2096921,159330,666847,0
2096921,2096921,159361,666959,0
2096921,2096921,159417,667016,0
2096921,2096921,159296,666889,0
2096921,2096921,159571,666773,0
2096921,2096921,159768,667230,0
2096921,2096921,159616,667267,0
2096921,2096921,159385,667209,0
2096921,2096921,159536,667139,0
2096921,2096921,159804,667128,0
2096921,2096921,159562,667407,0
2096921,2096921,159561,667388,0
2096921,2096921,159792,667540,0
2096921,2096921,159522,667264,0
2096921,2096921,159620,667583,0
2096921,2096921,159691,667441,0
2096921,2096921,159639,667691,0
2096921,2096921,159629,667689,0
2096921,2096921,159687,667785,0
2096921,2096921,159726,667846,0
2096921,2096921,159736,667856,0
2096921,2096921,159860,668014,0
2096921,2096921,159817,668071,0
2096921,2096921,159641,667969,0
2096921,2096921,159775,668392,0
2096921,2096921,159853,668119,0
2096921,2096921,159492,668304,0
2096921,2096921,159926,668454,0
2096921,2096921,160003,668383,0
2096921,2096921,160102,668539,0
2096921,2096921,160106,668560,0
2096921,2096921,160058,668836,0
2096921,2096921,159961,668581,0
2096921,2096921,159952,668469,0
2096921,2096921,160146,669134,0
2096921,2096921,160118,669006,0
2096921,2096921,160103,668979,0
2096921,2096921,160345,668793,0
2096921,2096921,160294,668967,0
2096921,2096921,160258,668977,0
2096921,2096921,160035,669317,0
2096921,2096921,160177,669135,0
2096921,2096921,160156,669340,0
2096921,2096921,160451,669073,0
2096921,2096921,160303,669629,0
2096921,2096921,160342,669541,0
2096921,2096921,160114,669686,0
2096921,2096921,160114,669542,0
2096921,2096921,160350,669573,0
2096921,2096921,160504,669801,0
2096921,2096921,160418,669663,0
2096921,2096921,159946,669742,0
2096921,2096921,160205,669470,0
2096921,2096921,160289,669471,0
2096921,2096921,160276,670042,0
2096921,2096921,160144,670037,0
2096921,2096921,160472,669934,0
2096921,2096921,160332,669856,0
2096921,2096921,160182,669809,0
2096921,2096921,160298,670186,0
2096921,2096921,160345,670053,0
2096921,2096921,160237,670250,0
2096921,2096921,160297,670138,0
2096921,2096921,160503,670244,0
2096921,2096921,160406,670285,0
2096921,2096921,160579,670668,0
2096921,2096921,160310,670525,0
2096921,2096921,160532,670468,0
2096921,2096921,160707,670392,0
2096921,2096921,160447,670566,0
2096921,2096921,160466,670383,0
2096921,2096921,160470,670624,0
2096921,2096921,160578,670658,0
2096921,2096921,160576,670678,0
2096921,2096921,160626,670755,0
2096921,2096921,160842,670743,0
2096921,2096921,160766,670898,0
2096921,2096921,160586,670823,0
2096921,2096921,160520,670826,0
2096921,2096921,160450,670870,0
2096921,2096921,160808,671112,0
2096921,2096921,160476,670968,0
2096921,2096921,160390,671159,0
2096921,2096921,160911,671216,0
2096921,2096921,160782,671389,0
2096921,2096921,160853,671642,0
2096921,2096921,160685,671682,0
2096921,2096921,160688,671269,0
2096921,2096921,160859,671018,0
2096921,2096921,160902,671638,0
2096921,2096921,160740,671316,0
2096921,2096921,160621,671297,0
2096921,2096921,160904,671368,0
2096921,2096921,161010,671047,0
2096921,2096921,160906,671601,0
2096921,2096921,160955,671952,0
2096921,2096921,160680,672106,0
2096921,2096921,160494,672229,0
2096921,2096921,160785,671724,0
2096921,2096921,160811,671946,0
2096921,2096921,160921,671961,0
2096921,2096921,160840,672014,0
2096921,2096921,160942,672097,0
2096921,2096921,161063,672178,0
2096921,2096921,160845,671931,0
2096921,2096921,160764,671884,0
2096921,2096921,160602,671916,0
2096921,2096921,160603,671840,0
2096921,2096921,160624,671702,0
2096921,2096921,160439,671680,0
2096921,2096921,160623,671846,0
2096921,2096921,160788,671780,0
2096921,2096921,160854,671901,0
2096921,2096921,160654,672198,0
2096921,2096921,160425,671284,0
2096921,2096921,160251,671238,0
2096921,2096921,160362,670980,0
2096921,2096921,160415,670917,0
2096921,2096921,160459,671141,0
2096921,2096921,159983,670477,0
2096921,2096921,160254,670276,0
2096921,2096921,160025,670419,0
2096921,2096921,160235,670647,0
2096921,2096921,160210,670869,0
2096921,2096921,159815,669919,0
2096921,2096921,159505,669595,0
2096921,2096921,159428,669790,0
2096921,2096921,159653,669598,0
2096921,2096921,159582,669624,0
2096921,2096921,158813,668381,0
2096921,2096921,158795,668011,0
2096921,2096921,158631,667873,0
2096921,2096921,158940,667958,0
2096921,2096921,158854,667740,0
2096921,2096921,157700,666003,0
2096921,2096921,157442,665626,0
2096921,2096921,157617,665563,0
2096921,2096921,157488,665375,0
2096921,2096921,157585,665169,0
2096921,2096921,156485,664092,0
2096921,2096921,156448,663596,0
2096921,2096921,156625,663482,0
2096921,2096921,156532,663355,0
2096921,2096921,156823,663473,0
2096921,2096921,156134,662496,0
2096921,2096921,156177,662415,0
2096921,2096921,155975,662130,0
2096921,2096921,155824,662322,0
2096921,2096921,155963,662333,0
2096921,2096921,155504,661611,0
2096921,2096921,155620,661403,0
2096921,2096921,155722,661422,0
2096921,2096921,155516,661778,0
2096921,2096921,155818,661718,0
2096921,2096921,155287,660950,0
2096921,2096921,155584,660907,0
2096921,2096921,155069,660620,0
2096921,2096921,155156,660794,0
2096921,2096921,155107,660558,0
2096921,2096921,154913,660502,0
2096921,2096921,154854,660299,0
2096921,2096921,155024,660485,0
2096921,2096921,154794,660750,0
2096921,2096921,155126,660575,0
2096921,2096921,154906,660222,0
2096921,2096921,154777,660608,0
2096921,2096921,154496,660315,0
2096921,2096921,154907,660364,0
2096921,2096921,154692,660552,0
2096921,2096921,154953,660458,0
2096921,2096921,155048,660502,0
2096921,2096921,154712,660466,0
2096921,2096921,154959,660769,0
2096921,2096921,154965,660461,0
2096921,2096921,155112,660639,0
2096921,2096921,154914,660622,0
2096921,2096921,154889,660726,0
2096921,2096921,154710,660714,0
2096921,2096921,154891,660776,0
2096921,2096921,154809,661208,0
2096921,2096921,155037,661418,0
2096921,2096921,155221,661108,0
2096921,2096921,155183,661077,0
2096921,2096921,155070,661008,0
2096921,2096921,155222,661216,0
2096921,2096921,155258,661722,0
2096921,2096921,155243,661675,0
2096921,2096921,155349,661670,0
2096921,2096921,155242,661626,0
2096921,2096921,155427,661924,0
2096921,2096921,155368,662002,0
2096921,2096921,155571,661868,0
2096921,2096921,155219,661613,0
2096921,2096921,155542,661676,0
2096921,2096921,155356,662466,0
2096921,2096921,155362,662658,0
2096921,2096921,155696,662787,0
2096921,2096921,155741,662790,0
2096921,2096921,155935,662819,0
2096921,2096921,155879,663249,0
2096921,2096921,155737,663283,0
2096921,2096921,155990,663390,0
2096921,2096921,156199,663470,0
2096921,2096921,155868,663294,0
2096921,2096921,156218,663794,0
2096921,2096921,156147,664221,0
2096921,2096921,156320,664205,0
2096921,2096921,156058,663879,0
2096921,2096921,155829,664130,0
2096921,2096921,156273,664733,0
2096921,2096921,156585,665041,0
2096921,2096921,156332,664557,0
2096921,2096921,156620,664748,0
2096921,2096921,156276,664885,0
2096921,2096921,156721,665629,0
2096921,2096921,156893,665489,0
2096921,2096921,156675,665437,0
2096921,2096921,156539,665639,0
2096921,2096921,156776,665507,0
2096921,2096921,157033,666162,0
2096921,2096921,157145,666380,0
2096921,2096921,157152,665870,0
2096921,2096921,157147,666220,0
2096921,2096921,157067,666243,0
2096921,2096921,157378,666743,0
2096921,2096921,157436,666698,0
2096921,2096921,157329,666749,0
2096921,2096921,157211,667061,0
2096921,2096921,157205,666896,0
2096921,2096921,157467,667554,0
2096921,2096921,157611,667498,0
2096921,2096921,157555,667489,0
2096921,2096921,157718,667974,0
2096921,2096921,157737,667777,0
2096921,2096921,157950,668124,0
2096921,2096921,158019,668536,0
2096921,2096921,157992,668419,0
2096921,2096921,157831,668385,0
2096921,2096921,157691,668350,0
2096921,2096921,158140,669029,0
2096921,2096921,158256,669040,0
2096921,2096921,158200,669035,0
2096921,2096921,158141,669196,0
2096921,2096921,158001,668936,0
2096921,2096921,158443,669876,0
2096921,2096921,158659,669965,0
2096921,2096921,158396,669823,0
2096921,2096921,158434,669696,0
2096921,2096921,158207,669978,0
2096921,2096921,158609,670205,0
2096921,2096921,158739,670481,0
2096921,2096921,158649,670382,0
2096921,2096921,158703,670869,0
2096921,2096921,158645,670345,0
2096921,2096921,158882,670872,0
2096921,2096921,158968,671409,0
2096921,2096921,159101,671175,0
2096921,2096921,158789,671185,0
2096921,2096921,158893,671231,0
2096921,2096921,159119,671598,0
2096921,2096921,159236,671670,0
2096921,2096921,158985,671963,0
2096921,2096921,159080,671788,0
2096921,2096921,159083,671621,0
2096921,2096921,159316,672016,0
2096921,2096921,159287,672325,0
2096921,2096921,159326,672249,0
2096921,2096921,159307,672308,0
2096921,2096921,159084,672222,0
2096921,2096921,159540,672546,0
2096921,2096921,159340,672681,0
2096921,2096921,159452,672838,0
2096921,2096921,159537,672793,0
2096921,2096921,159724,672531,0
2096921,2096921,159692,672527,0
2096921,2096921,159679,673038,0
2096921,2096921,159502,673074,0
2096921,2096921,159765,672983,0
2096921,2096921,159424,672881,0
2096921,2096921,159414,672927,0
2096921,2096921,159288,673318,0
2096921,2096921,159654,673191,0
2096921,2096921,159520,673500,0
2096921,2096921,159489,673260,0
2096921,2096921,159696,673487,0
2096921,2096921,159790,673826,0
2096921,2096921,159763,673556,0
2096921,2096921,159646,673673,0
2096921,2096921,159473,673649,0
2096921,2096921,159841,673723,0
2096921,2096921,159691,673784,0
2096921,2096921,159657,673376,0
2096921,2096921,159602,673568,0
2096921,2096921,159729,673761,0
2096921,2096921,159694,673880,0
2096921,2096921,159624,673870,0
2096921,2096921,159540,673685,0
2096921,2096921,159814,673720,0
2096921,2096921,159975,673637,0
2096921,2096921,159706,673841,0
2096921,2096921,159687,673692,0
2096921,2096921,159901,673571,0
2096921,2096921,159896,673688,0
2096921,2096921,159865,673901,0
2096921,2096921,159654,673915,0
2096921,2096921,159761,673535,0
2096921,2096921,159853,673958,0
2096921,2096921,159494,673684,0
2096921,2096921,159513,673611,0
2096921,2096921,159464,673600,0
2096921,2096921,159505,673539,0
2096921,2096921,159479,673914,0
2096921,2096921,159699,673571,0
2096921,2096921,159557,673736,0
2096921,2096921,159619,673744,0
2096921,2096921,160117,673798,0
2096921,2096921,159813,673807,0
2096921,2096921,159616,674114,0
2096921,2096921,159510,674060,0
2096921,2096921,159777,673992,0
2096921,2096921,159950,674016,0
2096921,2096921,159909,674072,0
2096921,2096921,159783,674136,0
2096921,2096921,159839,674238,0
2096921,2096921,159797,674503,0
2096921,2096921,159958,674200,0
2096921,2096921,159624,674529,0
2096921,2096921,159762,674288,0
2096921,2096921,159563,674392,0
2096921,2096921,160008,674381,0
2096921,2096921,159860,674506,0
2096921,2096921,160077,674559,0
2096921,2096921,159893,674944,0
2096921,2096921,159734,674595,0
2096921,2096921,159922,675122,0
2096921,2096921,160191,675063,0
2096921,2096921,159930,675021,0
2096921,2096921,159843,675265,0
2096921,2096921,159865,674882,0
2096921,2096921,160145,675549,0
2096921,2096921,160256,675343,0
2096921,2096921,160175,675451,0
2096921,2096921,160366,675677,0
2096921,2096921,160009,675369,0
2096921,2096921,160339,676006,0
2096921,2096921,160615,675966,0
2096921,2096921,160506,675977,0
2096921,2096921,160560,675747,0
2096921,2096921,160098,675997,0
2096921,2096921,160360,676614,0
2096921,2096921,160401,676604,0
2096921,2096921,160588,676708,0
2096921,2096921,160823,676797,0
2096921,2096921,160762,676736,0
2096921,2096921,160597,676900,0
2096921,2096921,160933,677267,0
2096921,2096921,160737,677142,0
2096921,2096921,161033,677327,0
2096921,2096921,160533,676668,0
2096921,2096921,160946,677286,0
2096921,2096921,160889,677357,0
2096921,2096921,161101,677372,0
2096921,2096921,161037,677427,0
2096921,2096921,161116,677296,0
2096921,2096921,160960,677808,0
2096921,2096921,161168,677729,0
2096921,2096921,160802,677919,0
2096921,2096921,161014,678047,0
2096921,2096921,160905,677742,0
2096921,2096921,160994,678034,0
2096921,2096921,161173,677991,0
2096921,2096921,161335,677891,0
2096921,2096921,161149,678068,0
2096921,2096921,161331,678108,0
2096921,2096921,161577,678884,0
2096921,2096921,161413,678632,0
2096921,2096921,161349,678939,0
2096921,2096921,161474,678879,0
2096921,2096921,161641,678670,0
2096921,2096921,161731,679060,0
2096921,2096921,161640,678999,0
2096921,2096921,161555,678782,0
2096921,2096921,161743,678891,0
2096921,2096921,161694,679070,0
2096921,2096921,161764,679407,0
2096921,2096921,161799,679467,0
2096921,2096921,161864,679521,0
2096921,2096921,161792,679725,0
2096921,2096921,161826,679249,0
2096921,2096921,161846,679440,0
2096921,2096921,162003,679610,0
2096921,2096921,161994,679843,0
2096921,2096921,161898,680271,0
2096921,2096921,161869,679986,0
2096921,2096921,161927,680012,0
2096921,2096921,162234,680469,0
2096921,2096921,162146,680092,0
2096921,2096921,161958,680465,0
2096921,2096921,162095,680018,0
2096921,2096921,162111,680372,0
2096921,2096921,161860,680787,0
2096921,2096921,162353,680917,0
2096921,2096921,162233,680676,0
2096921,2096921,162404,680416,0
2096921,2096921,162368,681058,0
2096921,2096921,162558,680857,0
2096921,2096921,162508,680807,0
2096921,2096921,162295,681105,0
2096921,2096921,162174,680880,0
2096921,2096921,162300,680984,0
2096921,2096921,162632,681375,0
2096921,2096921,162064,681479,0
2096921,2096921,162366,681370,0
2096921,2096921,162219,681269,0
2096921,2096921,162538,681562,0
2096921,2096921,162352,681854,0
2096921,2096921,162670,682013,0
2096921,2096921,162563,681877,0
2096921,2096921,162717,681753,0
2096921,2096921,162693,681892,0
2096921,2096921,162455,682098,0
2096921,2096921,162923,682122,0
2096921,2096921,162726,682079,0
2096921,2096921,162761,682420,0
2096921,2096921,162908,682438,0
2096921,2096921,162863,682562,0
2096921,2096921,163169,682095,0
2096921,2096921,162679,682180,0
2096921,2096921,162712,682304,0
2096921,2096921,162970,682646,0
2096921,2096921,162711,682706,0
2096921,2096921,162827,682183,0
2096921,2096921,162841,682287,0
2096921,2096921,162703,682677,0
2096921,2096921,162857,682741,0
2096921,2096921,162820,682679,0
2096921,2096921,163237,682969,0
2096921,2096921,163003,682937,0
2096921,2096921,163023,682716,0
2096921,2096921,163148,682915,0
2096921,2096921,162746,682949,0
2096921,2096921,163033,682833,0
2096921,2096921,163267,682704,0
2096921,2096921,163307,682690,0
2096921,2096921,163327,683126,0
2096921,2096921,163416,682890,0
2096921,2096921,163356,683376,0
2096921,2096921,162948,683111,0
2096921,2096921,163068,683112,0
2096921,2096921,163282,683105,0
2096921,2096921,163327,683363,0
2096921,2096921,163242,683662,0
2096921,2096921,163089,683485,0
2096921,2096921,163301,683429,0
2096921,2096921,163453,683374,0
2096921,2096921,163190,683587,0
2096921,2096921,163249,683860,0
2096921,2096921,163549,683355,0
2096921,2096921,163387,683364,0
2096921,2096921,163592,683440,0
2096921,2096921,163500,683840,0
2096921,2096921,163039,683777,0
2096921,2096921,163617,683879,0
2096921,2096921,163295,683870,0
2096921,2096921,163724,683817,0
2096921,2096921,163613,683948,0
2096921,2096921,163308,683800,0
2096921,2096921,163459,684047,0
2096921,2096921,163725,683880,0
2096921,2096921,163692,683783,0
2096921,2096921,163669,684019,0
2096921,2096921,163506,684082,0
2096921,2096921,163557,683741,0
2096921,2096921,163767,683936,0
2096921,2096921,163453,683886,0
2096921,2096921,163519,684110,0
2096921,2096921,163448,684413,0
2096921,2096921,163538,684238,0
2096921,2096921,163621,683837,0
2096921,2096921,163635,684120,0
2096921,2096921,163582,684170,0
2096921,2096921,164014,684477,0
2096921,2096921,163706,684221,0
2096921,2096921,163840,684145,0
2096921,2096921,163985,684254,0
2096921,2096921,163726,684441,0
2096921,2096921,163691,684329,0
2096921,2096921,163810,684126,0
2096921,2096921,163809,684483,0
2096921,2096921,163825,684282,0
2096921,2096921,163673,684528,0
2096921,2096921,163687,684413,0
2096921,2096921,163944,684457,0
2096921,2096921,164016,684433,0
2096921,2096921,163735,684590,0
2096921,2096921,163638,684477,0
2096921,2096921,163665,684412,0
2096921,2096921,163702,684601,0
2096921,2096921,163942,684441,0
2096921,2096921,163888,684676,0
2096921,2096921,163694,684891,0
2096921,2096921,163831,684661,0
2096921,2096921,163846,684573,0
2096921,2096921,163719,684636,0
2096921,2096921,164012,684954,0
2096921,2096921,163891,684782,0
2096921,2096921,163922,684882,0
2096921,2096921,163819,684501,0
2096921,2096921,163854,685018,0
2096921,2096921,163613,685043,0
2096921,2096921,164061,684903,0
2096921,2096921,163998,684487,0
2096921,2096921,163981,684708,0
2096921,2096921,163794,684672,0
2096921,2096921,163802,684993,0
2096921,2096921,164275,685266,0
2096921,2096921,163842,684803,0
2096921,2096921,164135,685053,0
2096921,2096921,164153,685033,0
2096921,2096921,164289,685110,0
2096921,2096921,163930,685100,0
2096921,2096921,163959,684922,0
2096921,2096921,164050,684898,0
2096921,2096921,163906,684888,0
2096921,2096921,164496,684980,0
2096921,2096921,164078,685208,0
2096921,2096921,164268,685156,0
2096921,2096921,164336,685004,0
2096921,2096921,164134,685090,0
2096921,2096921,164297,685296,0
2096921,2096921,164130,685259,0
2096921,2096921,163998,685268,0
2096921,2096921,163768,685172,0
2096921,2096921,164177,685369,0
2096921,2096921,163994,685423,0
2096921,2096921,164188,685442,0
2096921,2096921,164167,685344,0
2096921,2096921,164198,685173,0
2096921,2096921,164117,685175,0
2096921,2096921,164240,685336,0
2096921,2096921,164340,685500,0
2096921,2096921,164488,685079,0
2096921,2096921,164247,685258,0
2096921,2096921,164254,685118,0
2096921,2096921,164298,685321,0
2096921,2096921,164409,685402,0
2096921,2096921,164516,685214,0
2096921,2096921,164518,685302,0
2096921,2096921,164262,685429,0
2096921,2096921,164133,685524,0
2096921,2096921,164195,685303,0
2096921,2096921,164320,685410,0
2096921,2096921,164339,685602,0
2096921,2096921,164336,685466,0
2096921,2096921,164319,685420,0
2096921,2096921,164365,685767,0
2096921,2096921,164490,685270,0
2096921,2096921,164410,685388,0
2096921,2096921,164241,685582,0
2096921,2096921,164499,685640,0
2096921,2096921,164262,685669,0
2096921,2096921,164256,685646,0
2096921,2096921,164134,685254,0
2096921,2096921,164156,685402,0
2096921,2096921,164144,685558,0
2096921,2096921,164282,685649,0
2096921,2096921,164289,685403,0
2096921,2096921,164324,685428,0
2096921,2096921,164395,685115,0
2096921,2096921,164416,685471,0
2096921,2096921,164378,685613,0
2096921,2096921,164241,685418,0
2096921,2096921,164260,685300,0
2096921,2096921,164322,685545,0
2096921,2096921,164483,685408,0
2096921,2096921,164243,685693,0
2096921,2096921,164531,685647,0
2096921,2096921,164292,685225,0
2096921,2096921,163831,685663,0
2096921,2096921,164173,685617,0
2096921,2096921,164366,685427,0
2096921,2096921,164470,685145,0
2096921,2096921,164399,685462,0
2096921,2096921,164364,685396,0
2096921,2096921,164296,685396,0
2096921,2096921,164303,685361,0
2096921,2096921,163977,685673,0
2096921,2096921,164091,685421,0
2096921,2096921,164307,685463,0
2096921,2096921,164296,685497,0
2096921,2096921,164287,685599,0
2096921,2096921,164247,685585,0
2096921,2096921,164172,685093,0
2096921,2096921,164093,685481,0
2096921,2096921,164182,685277,0
2096921,2096921,164315,685546,0
2096921,2096921,164452,685609,0
2096921,2096921,164246,685232,0
2096921,2096921,164260,685565,0
2096921,2096921,164286,685462,0
2096921,2096921,164065,685328,0
2096921,2096921,163793,685675,0
2096921,2096921,164137,685551,0
2096921,2096921,164139,685591,0
2096921,2096921,163966,685321,0
2096921,2096921,163948,684945,0
2096921,2096921,164026,684877,0
2096921,2096921,163903,685018,0
2096921,2096921,164148,685060,0
2096921,2096921,164084,684770,0
2096921,2096921,163866,684607,0
2096921,2096921,163970,684781,0
2096921,2096921,163944,684469,0
2096921,2096921,164088,684645,0
2096921,2096921,163919,684070,0
2096921,2096921,163780,683700,0
2096921,2096921,163589,683517,0
2096921,2096921,163631,683733,0
2096921,2096921,163332,684001,0
2096921,2096921,162953,683223,0
2096921,2096921,163011,682918,0
2096921,2096921,163243,682896,0
2096921,2096921,163245,682909,0
2096921,2096921,163106,682542,0
2096921,2096921,162897,682053,0
2096921,2096921,162613,681950,0
2096921,2096921,162726,682040,0
2096921,2096921,162905,682025,0
2096921,2096921,162848,682008,0
2096921,2096921,161616,680149,0
2096921,2096921,161433,679808,0
2096921,2096921,161445,679673,0
2096921,2096921,161730,679639,0
2096921,2096921,161435,679356,0
2096921,2096921,160657,677223,0
2096921,2096921,160435,676808,0
2096921,2096921,160434,676972,0
2096921,2096921,160391,676894,0
2096921,2096921,160184,676550,0
2096921,2096921,159529,675177,0
2096921,2096921,159194,674665,0
2096921,2096921,159419,674861,0
2096921,2096921,159305,674466,0
2096921,2096921,159315,674745,0
2096921,2096921,158719,673446,0
2096921,2096921,158482,673082,0
2096921,2096921,158717,672774,0
2096921,2096921,158835,672846,0
2096921,2096921,158568,672866,0
2096921,2096921,158125,672054,0
2096921,2096921,157873,671868,0
2096921,2096921,158040,671756,0
2096921,2096921,157981,671965,0
2096921,2096921,158044,671947,0
2096921,2096921,157871,671036,0
2096921,2096921,157795,670973,0
2096921,2096921,157569,671085,0
2096921,2096921,157695,670847,0
2096921,2096921,157356,670960,0
2096921,2096921,157668,670453,0
2096921,2096921,157414,670130,0
2096921,2096921,157287,669998,0
2096921,2096921,157297,670123,0
2096921,2096921,157348,670461,0
2096921,2096921,157152,670140,0
2096921,2096921,157330,669850,0
2096921,2096921,157374,669766,0
2096921,2096921,157065,669622,0
2096921,2096921,157037,669671,0
2096921,2096921,157242,669541,0
2096921,2096921,157129,669609,0
2096921,2096921,157196,669695,0
2096921,2096921,157090,669569,0
2096921,2096921,157306,669612,0
2096921,2096921,157368,669474,0
2096921,2096921,157271,669234,0
2096921,2096921,157249,669498,0
2096921,2096921,156963,669587,0
2096921,2096921,157300,669349,0
2096921,2096921,157209,669486,0
2096921,2096921,157270,669491,0
2096921,2096921,157164,669687,0
2096921,2096921,157301,669676,0
2096921,2096921,157421,670004,0
2096921,2096921,157466,670059,0
2096921,2096921,157239,669842,0
2096921,2096921,157261,669528,0
2096921,2096921,156910,669605,0
2096921,2096921,157150,669708,0
2096921,2096921,157167,669488,0
2096921,2096921,157136,669610,0
2096921,2096921,157050,669710,0
2096921,2096921,157384,669754,0
2096921,2096921,157330,669898,0
2096921,2096921,157241,670076,0
2096921,2096921,157461,670114,0
2096921,2096921,157438,670146,0
2096921,2096921,157623,670125,0
2096921,2096921,157285,669761,0
2096921,2096921,157343,670086,0
2096921,2096921,157426,670245,0
2096921,2096921,157573,670335,0
2096921,2096921,157422,670755,0
2096921,2096921,157547,670554,0
2096921,2096921,157614,670630,0
2096921,2096921,157515,670965,0
2096921,2096921,157570,671012,0
2096921,2096921,157821,671063,0
2096921,2096921,157862,670897,0
2096921,2096921,157679,671017,0
2096921,2096921,158042,671181,0
2096921,2096921,157866,671119,0
2096921,2096921,158113,670790,0
2096921,2096921,158162,670853,0
2096921,2096921,158428,671710,0
2096921,2096921,158164,671559,0
2096921,2096921,158324,671725,0
2096921,2096921,158494,671492,0
2096921,2096921,158347,671448,0
2096921,2096921,158071,671753,0
2096921,2096921,158214,671648,0
2096921,2096921,158283,671873,0
2096921,2096921,158464,671826,0
2096921,2096921,158315,671888,0
2096921,2096921,158624,672302,0
2096921,2096921,158705,671995,0
2096921,2096921,158686,672035,0
2096921,2096921,158262,672106,0
2096921,2096921,158683,672143,0
2096921,2096921,158727,672436,0
2096921,2096921,159047,672205,0
2096921,2096921,158907,672493,0
2096921,2096921,158918,672386,0
2096921,2096921,158863,672510,0
2096921,2096921,159144,672654,0
2096921,2096921,159002,672781,0
2096921,2096921,158961,672681,0
2096921,2096921,159050,672444,0
2096921,2096921,158846,672718,0
2096921,2096921,159142,673288,0
2096921,2096921,159043,672946,0
2096921,2096921,159443,673147,0
2096921,2096921,159018,673244,0
2096921,2096921,159193,673257,0
2096921,2096921,159402,673301,0
2096921,2096921,159497,673439,0
2096921,2096921,159238,673635,0
2096921,2096921,159225,673701,0
2096921,2096921,159215,673533,0
2096921,2096921,159380,673515,0
2096921,2096921,159500,673982,0
2096921,2096921,159775,673705,0
2096921,2096921,159762,673670,0
2096921,2096921,159725,673645,0
2096921,2096921,159893,674025,0
2096921,2096921,159452,674262,0
2096921,2096921,159748,674075,0
2096921,2096921,159734,674253,0
2096921,2096921,159813,674097,0
2096921,2096921,159637,674196,0
2096921,2096921,159630,673952,0
2096921,2096921,159407,674148,0
2096921,2096921,159717,674131,0
2096921,2096921,159615,674276,0
2096921,2096921,159907,674593,0
2096921,2096921,160027,674190,0
2096921,2096921,159707,674338,0
2096921,2096921,159952,674622,0
2096921,2096921,159685,673783,0
2096921,2096921,160104,674278,0
2096921,2096921,159939,674295,0
2096921,2096921,159656,674590,0
2096921,2096921,159223,674493,0
2096921,2096921,159923,674205,0
2096921,2096921,160030,674249,0
2096921,2096921,159810,674498,0
2096921,2096921,159917,674320,0
2096921,2096921,159822,674332,0
2096921,2096921,159887,674214,0
2096921,2096921,160124,673871,0
2096921,2096921,159963,674116,0
2096921,2096921,159882,674047,0
2096921,2096921,159862,674132,0
2096921,2096921,160077,674016,0
2096921,2096921,159895,674019,0
2096921,2096921,159861,673788,0
2096921,2096921,159761,674061,0
2096921,2096921,159836,674040,0
2096921,2096921,159582,673794,0
2096921,2096921,159510,673664,0
2096921,2096921,159684,673624,0
2096921,2096921,159907,673461,0
2096921,2096921,159464,673819,0
2096921,2096921,159740,673610,0
2096921,2096921,159821,673429,0
2096921,2096921,159877,673411,0
2096921,2096921,159737,673368,0
2096921,2096921,159771,673069,0
2096921,2096921,159726,673426,0
2096921,2096921,159442,673172,0
2096921,2096921,159497,672809,0
2096921,2096921,159251,672616,0
2096921,2096921,159368,672753,0
2096921,2096921,159268,672724,0
2096921,2096921,159296,672630,0
2096921,2096921,159122,672321,0
2096921,2096921,159418,672690,0
2096921,2096921,159252,672269,0
2096921,2096921,159211,672275,0
2096921,2096921,159074,672138,0
2096921,2096921,159126,672179,0
2096921,2096921,159207,672204,0
2096921,2096921,159358,672236,0
2096921,2096921,159036,672370,0
2096921,2096921,159045,672007,0
2096921,2096921,159231,671904,0
2096921,2096921,159171,671818,0
2096921,2096921,159305,671773,0
2096921,2096921,159103,671680,0
2096921,2096921,159040,671562,0
2096921,2096921,159064,671600,0
2096921,2096921,159136,671440,0
2096921,2096921,158899,671463,0
2096921,2096921,158991,671612,0
2096921,2096921,159000,671417,0
2096921,2096921,158954,671267,0
2096921,2096921,159112,671333,0
2096921,2096921,159035,670986,0
2096921,2096921,159045,671334,0
2096921,2096921,159076,671458,0
2096921,2096921,158999,671296,0
2096921,2096921,159136,671322,0
2096921,2096921,158743,671512,0
2096921,2096921,158931,671208,0
2096921,2096921,159148,671281,0
2096921,2096921,158820,671362,0
2096921,2096921,159081,671440,0
2096921,2096921,159180,671318,0
2096921,2096921,159234,671247,0
2096921,2096921,159060,671307,0
2096921,2096921,158892,671205,0
2096921,2096921,158802,671085,0
2096921,2096921,159009,671106,0
2096921,2096921,159129,671281,0
2096921,2096921,159458,671474,0
2096921,2096921,159063,671520,0
2096921,2096921,159321,671384,0
2096921,2096921,159119,671535,0
2096921,2096921,159230,671484,0
2096921,2096921,159184,671504,0
2096921,2096921,159241,671200,0
2096921,2096921,159455,671484,0
2096921,2096921,159418,671633,0
2096921,2096921,159551,671675,0
2096921,2096921,159436,671611,0
2096921,2096921,159487,671473,0
2096921,2096921,159651,671778,0
2096921,2096921,159586,671758,0
2096921,2096921,159555,671693,0
2096921,2096921,159553,671859,0
2096921,2096921,159634,671750,0
2096921,2096921,159543,671702,0
2096921,2096921,159604,671710,0
2096921,2096921,159587,671577,0
2096921,2096921,159709,671777,0
2096921,2096921,159726,671814,0
2096921,2096921,159705,671507,0
2096921,2096921,159771,671782,0
2096921,2096921,159441,671758,0
2096921,2096921,159653,671531,0
2096921,2096921,159317,671729,0
2096921,2096921,159672,671967,0
2096921,2096921,159736,671773,0
2096921,2096921,159909,671582,0
2096921,2096921,159880,671934,0
2096921,2096921,159728,671884,0
2096921,2096921,159783,671700,0
2096921,2096921,159616,671525,0
2096921,2096921,159446,671782,0
2096921,2096921,159934,671426,0
2096921,2096921,159791,671785,0
2096921,2096921,160057,671915,0
2096921,2096921,159899,671835,0
2096921,2096921,159717,671743,0
2096921,2096921,159913,671992,0
2096921,2096921,159732,671959,0
2096921,2096921,159614,671792,0
2096921,2096921,159814,671887,0
2096921,2096921,159825,671884,0
2096921,2096921,159610,671724,0
2096921,2096921,159802,671808,0
2096921,2096921,159843,671634,0
2096921,2096921,159739,671756,0
2096921,2096921,159862,671996,0
2096921,2096921,160056,671881,0
2096921,2096921,160041,672006,0
2096921,2096921,159717,672120,0
2096921,2096921,160029,672240,0
2096921,2096921,160082,671386,0
2096921,2096921,160122,671690,0
2096921,2096921,159902,672061,0
2096921,2096921,159775,671844,0
2096921,2096921,160074,671802,0
2096921,2096921,159973,671970,0
2096921,2096921,160292,672128,0
2096921,2096921,159999,671955,0
2096921,2096921,160038,671901,0
2096921,2096921,160197,671723,0
2096921,2096921,159949,671643,0
2096921,2096921,160005,671927,0
2096921,2096921,160032,671877,0
2096921,2096921,159731,671943,0
2096921,2096921,159969,671567,0
2096921,2096921,160346,671850,0
2096921,2096921,160367,672086,0
2096921,2096921,160118,672026,0
2096921,2096921,160316,672180,0
2096921,2096921,160033,671890,0
2096921,2096921,160172,671840,0
2096921,2096921,160172,671906,0
2096921,2096921,160168,671977,0
2096921,2096921,160263,671822,0
2096921,2096921,160359,671823,0
2096921,2096921,160074,671955,0
2096921,2096921,160236,671786,0
2096921,2096921,160140,671703,0
2096921,2096921,160193,671618,0
2096921,2096921,160092,671814,0
2096921,2096921,160163,671842,0
2096921,2096921,160187,671491,0
2096921,2096921,160283,671639,0
2096921,2096921,160169,671605,0
2096921,2096921,160166,671738,0
2096921,2096921,160394,671860,0
2096921,2096921,160441,671492,0
2096921,2096921,160334,671489,0
2096921,2096921,160049,671447,0
2096921,2096921,160101,671457,0
2096921,2096921,160246,671465,0
2096921,2096921,160160,671729,0
2096921,2096921,160350,671536,0
2096921,2096921,160212,671440,0
2096921,2096921,160354,671706,0
2096921,2096921,160255,671744,0
2096921,2096921,160196,671651,0
2096921,2096921,160393,671388,0
2096921,2096921,160400,671350,0
2096921,2096921,160644,671491,0
2096921,2096921,160140,671722,0
2096921,2096921,160203,671421,0
2096921,2096921,160360,671496,0
2096921,2096921,160498,671258,0
2096921,2096921,160524,671275,0
2096921,2096921,160448,671351,0
2096921,2096921,160187,671359,0
2096921,2096921,160556,671138,0
2096921,2096921,160262,671591,0
2096921,2096921,160475,671714,0
2096921,2096921,160416,671427,0
2096921,2096921,160460,671007,0
2096921,2096921,160429,671238,0
2096921,2096921,160511,671012,0
2096921,2096921,160391,671127,0
2096921,2096921,160388,671330,0
2096921,2096921,160243,671185,0
2096921,2096921,160402,671455,0
2096921,2096921,160425,671091,0
2096921,2096921,160030,671270,0
2096921,2096921,160315,671265,0
2096921,2096921,160466,671017,0
2096921,2096921,160296,671200,0
2096921,2096921,160191,671213,0
2096921,2096921,160428,671219,0
2096921,2096921,160380,671307,0
2096921,2096921,160547,671013,0
2096921,2096921,160237,670926,0
2096921,2096921,160411,670934,0
2096921,2096921,160411,670866,0
2096921,2096921,160424,670743,0
2096921,2096921,160205,670746,0
2096921,2096921,160450,670658,0
2096921,2096921,160468,670907,0
2096921,2096921,160231,670804,0
2096921,2096921,160324,670613,0
2096921,2096921,160509,670946,0
2096921,2096921,160347,670768,0
2096921,2096921,160319,670689,0
2096921,2096921,159953,670621,0
2096921,2096921,160216,670475,0
2096921,2096921,160275,670573,0
2096921,2096921,160264,670653,0
2096921,2096921,160189,670645,0
2096921,2096921,160139,670773,0
2096921,2096921,160206,670892,0
2096921,2096921,160504,670493,0
2096921,2096921,160211,670739,0
2096921,2096921,160154,670620,0
2096921,2096921,160036,670368,0
2096921,2096921,160146,670251,0
2096921,2096921,160149,670263,0
2096921,2096921,160165,670345,0
2096921,2096921,160231,670198,0
2096921,2096921,160359,670130,0
2096921,2096921,160280,670276,0
2096921,2096921,160099,670230,0
2096921,2096921,160119,670119,0
2096921,2096921,160239,670331,0
2096921,2096921,160256,669843,0
2096921,2096921,160171,670129,0
2096921,2096921,160143,670155,0
2096921,2096921,160270,669991,0
2096921,2096921,160265,669935,0
2096921,2096921,160408,669728,0
2096921,2096921,160343,669846,0
2096921,2096921,160584,669976,0
2096921,2096921,160392,669977,0
2096921,2096921,160428,669837,0
2096921,2096921,160341,670109,0
2096921,2096921,160368,670035,0
2096921,2096921,159992,669537,0
2096921,2096921,160246,669601,0
2096921,2096921,160119,669735,0
2096921,2096921,160149,669610,0
2096921,2096921,160288,669867,0
2096921,2096921,160245,669875,0
2096921,2096921,160059,669793,0
2096921,2096921,160268,669604,0
2096921,2096921,160415,669575,0
2096921,2096921,159889,669332,0
2096921,2096921,159969,669536,0
2096921,2096921,160111,669387,0
2096921,2096921,160271,669321,0
2096921,2096921,160238,669393,0
2096921,2096921,159878,669449,0
2096921,2096921,160248,669129,0
2096921,2096921,160035,669192,0
2096921,2096921,159917,669282,0
2096921,2096921,159937,669355,0
2096921,2096921,160049,669313,0
2096921,2096921,160037,668984,0
2096921,2096921,160097,668738,0
2096921,2096921,160188,669146,0
2096921,2096921,160229,668871,0
2096921,2096921,160089,668682,0
2096921,2096921,160072,669073,0
2096921,2096921,160075,669052,0
2096921,2096921,159780,668935,0
2096921,2096921,160024,669022,0
2096921,2096921,159768,669056,0
2096921,2096921,159931,668819,0
2096921,2096921,160077,668773,0
2096921,2096921,159813,668880,0
2096921,2096921,159709,668936,0
2096921,2096921,159992,668669,0
2096921,2096921,159979,668756,0
2096921,2096921,160108,668542,0
2096921,2096921,159966,668346,0
2096921,2096921,160143,668397,0
2096921,2096921,160040,668563,0
2096921,2096921,159767,668194,0
2096921,2096921,159906,668360,0
2096921,2096921,159900,668592,0
2096921,2096921,160128,667973,0
2096921,2096921,159674,668323,0
2096921,2096921,160115,668578,0
2096921,2096921,160015,668451,0
2096921,2096921,160176,668414,0
2096921,2096921,159885,668063,0
2096921,2096921,159853,668082,0
2096921,2096921,159572,667966,0
2096921,2096921,159734,667930,0
2096921,2096921,160218,667924,0
2096921,2096921,159953,667948,0
2096921,2096921,159818,668246,0
2096921,2096921,159698,668243,0
2096921,2096921,159797,667596,0
2096921,2096921,159808,667516,0
2096921,2096921,160032,667708,0
2096921,2096921,159803,668054,0
2096921,2096921,159713,667850,0
2096921,2096921,159739,667664,0
2096921,2096921,159782,667264,0
2096921,2096921,159996,667592,0
2096921,2096921,159740,667589,0
2096921,2096921,159844,667754,0
2096921,2096921,159650,667514,0
2096921,2096921,159859,667453,0
2096921,2096921,159725,667585,0
2096921,2096921,159629,667388,0
2096921,2096921,159838,667371,0
2096921,2096921,159631,667152,0
2096921,2096921,159688,667181,0
2096921,2096921,159740,667288,0
2096921,2096921,159668,667362,0
2096921,2096921,159802,667446,0
2096921,2096921,159724,667351,0
2096921,2096921,159641,667129,0
2096921,2096921,159547,667160,0
2096921,2096921,159775,667233,0
2096921,2096921,159605,666845,0
2096921,2096921,159620,666999,0
2096921,2096921,159539,666734,0
2096921,2096921,159497,666619,0
2096921,2096921,159629,666858,0
2096921,2096921,159337,666228,0
2096921,2096921,159398,666343,0
2096921,2096921,159346,666476,0
2096921,2096921,159216,666451,0
2096921,2096921,159092,666369,0
2096921,2096921,159149,665908,0
2096921,2096921,159195,665691,0
2096921,2096921,159084,665935,0
2096921,2096921,159248,666082,0
2096921,2096921,159194,665673,0
2096921,2096921,158711,664966,0
2096921,2096921,158956,665316,0
2096921,2096921,158812,665285,0
2096921,2096921,158777,664973,0
2096921,2096921,158774,665051,0
2096921,2096921,158476,664102,0
2096921,2096921,158271,664100,0
2096921,2096921,158540,664085,0
2096921,2096921,158354,663830,0
2096921,2096921,158550,663822,0
2096921,2096921,157837,662985,0
2096921,2096921,157846,662922,0
2096921,2096921,157881,663128,0
2096921,2096921,157945,663299,0
2096921,2096921,157857,662849,0
2096921,2096921,156966,660550,0
2096921,2096921,156898,660627,0
2096921,2096921,156710,660565,0
2096921,2096921,156826,660514,0
2096921,2096921,156799,660680,0
2096921,2096921,155982,658311,0
2096921,2096921,155605,657993,0
2096921,2096921,155475,657462,0
2096921,2096921,155652,657764,0
2096921,2096921,155294,657765,0
2096921,2096921,154597,656156,0
2096921,2096921,154573,655614,0
2096921,2096921,154646,655248,0
2096921,2096921,155002,655436,0
2096921,2096921,154615,655614,0
2096921,2096921,154230,654286,0
2096921,2096921,154151,654054,0
2096921,2096921,153938,653677,0
2096921,2096921,153949,653828,0
2096921,2096921,153674,653788,0
2096921,2096921,153524,652686,0
2096921,2096921,153369,652411,0
2096921,2096921,153533,652597,0
2096921,2096921,153165,652490,0
2096921,2096921,153257,652437,0
2096921,2096921,153104,651785,0
2096921,2096921,153008,651613,0
2096921,2096921,153192,651687,0
2096921,2096921,152917,651783,0
2096921,2096921,152875,651611,0
2096921,2096921,152862,651340,0
2096921,2096921,152610,651266,0
2096921,2096921,152775,651151,0
2096921,2096921,152816,650949,0
2096921,2096921,152953,651050,0
2096921,2096921,152688,650679,0
2096921,2096921,152642,650768,0
2096921,2096921,152660,650724,0
2096921,2096921,152302,650692,0
2096921,2096921,152457,650911,0
2096921,2096921,152545,650357,0
2096921,2096921,152535,650699,0
2096921,2096921,152461,650491,0
2096921,2096921,152456,650737,0
2096921,2096921,152373,650539,0
2096921,2096921,152489,650847,0
2096921,2096921,152254,650577,0
2096921,2096921,152556,650466,0
2096921,2096921,152559,650391,0
2096921,2096921,152617,650146,0
2096921,2096921,152349,650332,0
2096921,2096921,152422,650695,0
2096921,2096921,152483,650635,0
2096921,2096921,152385,650627,0
2096921,2096921,152229,650672,0
2096921,2096921,152627,650674,0
2096921,2096921,152614,650699,0
2096921,2096921,152516,650599,0
2096921,2096921,152813,650671,0
2096921,2096921,152497,650486,0
2096921,2096921,152686,650459,0
2096921,2096921,152680,650559,0
2096921,2096921,152625,650537,0
2096921,2096921,152464,650476,0
2096921,2096921,152721,650587,0
2096921,2096921,153059,650783,0
2096921,2096921,152922,651241,0
2096921,2096921,152625,651073,0
2096921,2096921,152882,651197,0
2096921,2096921,152648,650888,0
2096921,2096921,153075,651159,0
2096921,2096921,153123,651447,0
2096921,2096921,153161,651321,0
2096921,2096921,153078,651693,0
2096921,2096921,153004,651872,0
2096921,2096921,153122,652139,0
2096921,2096921,153296,652032,0
2096921,2096921,153139,651800,0
2096921,2096921,153067,651916,0
2096921,2096921,152822,651872,0
2096921,2096921,153355,652112,0
2096921,2096921,153458,652372,0
2096921,2096921,153297,652189,0
2096921,2096921,153346,652433,0
2096921,2096921,153255,652426,0
2096921,2096921,153559,652918,0
2096921,2096921,153770,652775,0
2096921,2096921,153745,652821,0
2096921,2096921,153660,652985,0
2096921,2096921,153623,652587,0
2096921,2096921,153409,653177,0
2096921,2096921,153702,653259,0
2096921,2096921,153772,653155,0
2096921,2096921,153488,653042,0
2096921,2096921,153639,652987,0
2096921,2096921,153791,653383,0
2096921,2096921,153807,653656,0
2096921,2096921,153916,653704,0
2096921,2096921,153914,653504,0
2096921,2096921,154027,653546,0
2096921,2096921,154208,654355,0
2096921,2096921,154190,654073,0
2096921,2096921,154044,654034,0
2096921,2096921,154347,654199,0
2096921,2096921,154349,654347,0
2096921,2096921,154187,654457,0
2096921,2096921,154355,654753,0
2096921,2096921,154315,654398,0
2096921,2096921,154313,654718,0
2096921,2096921,154234,654597,0
2096921,2096921,154442,654895,0
2096921,2096921,154700,654872,0
2096921,2096921,154930,655055,0
2096921,2096921,154754,655185,0
2096921,2096921,154459,654877,0
2096921,2096921,154491,655667,0
2096921,2096921,155027,655596,0
2096921,2096921,155043,655504,0
2096921,2096921,155079,655774,0
2096921,2096921,154829,655662,0
2096921,2096921,155146,656124,0
2096921,2096921,155078,655908,0
2096921,2096921,155161,655859,0
2096921,2096921,155002,655972,0
2096921,2096921,155015,656260,0
2096921,2096921,155161,656510,0
2096921,2096921,155456,656409,0
