2096921,2096921,194295,627240,0
2096921,2096921,194552,626871,0
2096921,2096921,194653,626986,0
2096921,2096921,194312,627235,0
2096921,2096921,194617,626753,0
2096921,2096921,194603,627286,0
2096921,2096921,194826,627196,0
2096921,2096921,194621,627764,0
2096921,2096921,194476,627268,0
2096921,2096921,194284,627331,0
2096921,2096921,194599,627388,0
2096921,2096921,194572,627556,0
2096921,2096921,194808,627206,0
2096921,2096921,194735,627539,0
2096921,2096921,194564,627429,0
2096921,2096921,195055,627321,0
2096921,2096921,194692,627553,0
2096921,2096921,194940,627520,0
2096921,2096921,194900,627527,0
2096921,2096921,194752,627658,0
2096921,2096921,194950,627983,0
2096921,2096921,194986,627903,0
2096921,2096921,194797,628122,0
2096921,2096921,194837,627754,0
2096921,2096921,194589,628115,0
2096921,2096921,194741,627877,0
2096921,2096921,194862,627904,0
2096921,2096921,194698,628101,0
2096921,2096921,194995,627905,0
2096921,2096921,194862,628026,0
2096921,2096921,195268,628101,0
2096921,2096921,194918,628225,0
2096921,2096921,194711,628261,0
2096921,2096921,194888,628119,0
2096921,2096921,195046,628037,0
2096921,2096921,195116,628158,0
2096921,2096921,195019,628301,0
2096921,2096921,195141,628459,0
2096921,2096921,194833,628157,0
2096921,2096921,195150,628426,0
2096921,2096921,195332,628745,0
2096921,2096921,195119,628543,0
2096921,2096921,195019,628474,0
2096921,2096921,195079,628368,0
2096921,2096921,195232,628712,0
2096921,2096921,195205,628298,0
2096921,2096921,195282,628671,0
2096921,2096921,195365,628521,0
2096921,2096921,195359,629100,0
2096921,2096921,195368,628971,0
2096921,2096921,195291,629053,0
2096921,2096921,195491,628965,0
2096921,2096921,195056,628975,0
2096921,2096921,195055,628544,0
2096921,2096921,195220,628944,0
2096921,2096921,195050,628878,0
2096921,2096921,195336,628987,0
2096921,2096921,195292,628872,0
2096921,2096921,195237,629016,0
2096921,2096921,195132,629174,0
2096921,2096921,195233,628969,0
2096921,2096921,195318,629272,0
2096921,2096921,195337,628953,0
2096921,2096921,195376,628989,0
2096921,2096921,195154,629009,0
2096921,2096921,195288,629160,0
2096921,2096921,195165,629626,0
2096921,2096921,195389,629539,0
2096921,2096921,195186,629030,0
2096921,2096921,195325,629389,0
2096921,2096921,195358,629327,0
2096921,2096921,195428,629196,0
2096921,2096921,195291,629395,0
2096921,2096921,195421,629335,0
2096921,2096921,195365,629391,0
2096921,2096921,195372,629614,0
2096921,2096921,195382,629647,0
2096921,2096921,195387,629411,0
2096921,2096921,195442,629621,0
2096921,2096921,195278,629471,0
2096921,2096921,195430,629441,0
2096921,2096921,195394,629619,0
2096921,2096921,195530,629419,0
2096921,2096921,195261,629579,0
2096921,2096921,195202,629339,0
2096921,2096921,195562,629500,0
2096921,2096921,195627,629876,0
2096921,2096921,195576,629743,0
2096921,2096921,195629,629923,0
2096921,2096921,195471,629862,0
2096921,2096921,195597,629923,0
2096921,2096921,195441,629668,0
2096921,2096921,195473,629602,0
2096921,2096921,195297,629684,0
2096921,2096921,195596,630314,0
2096921,2096921,195708,630027,0
2096921,2096921,195811,630313,0
2096921,2096921,195568,629869,0
2096921,2096921,195408,630143,0
2096921,2096921,195205,630051,0
2096921,2096921,195481,630042,0
2096921,2096921,195343,630218,0
2096921,2096921,195351,630150,0
2096921,2096921,195370,629815,0
2096921,2096921,195283,630249,0
2096921,2096921,195405,630142,0
2096921,2096921,195517,630144,0
2096921,2096921,195577,630017,0
2096921,2096921,195568,629829,0
2096921,2096921,195656,629735,0
2096921,2096921,195696,629859,0
2096921,2096921,195428,629515,0
2096921,2096921,195250,629694,0
2096921,2096921,195291,629995,0
2096921,2096921,195187,629583,0
2096921,2096921,195066,629732,0
2096921,2096921,194991,629382,0
2096921,2096921,195008,629122,0
2096921,2096921,195037,629462,0
2096921,2096921,195066,628917,0
2096921,2096921,194631,629358,0
2096921,2096921,194777,628883,0
2096921,2096921,194575,628783,0
2096921,2096921,194666,628847,0
2096921,2096921,195024,628562,0
2096921,2096921,194414,628831,0
2096921,2096921,194320,628306,0
2096921,2096921,194478,628088,0
2096921,2096921,194457,627887,0
2096921,2096921,194571,628385,0
2096921,2096921,193731,628263,0
2096921,2096921,193444,627129,0
2096921,2096921,193513,626679,0
2096921,2096921,193261,626546,0
2096921,2096921,193559,626496,0
2096921,2096921,192653,626412,0
2096921,2096921,192158,624941,0
2096921,2096921,192589,624800,0
2096921,2096921,192400,624846,0
2096921,2096921,192336,624341,0
2096921,2096921,191824,624397,0
2096921,2096921,191647,623610,0
2096921,2096921,191699,623272,0
2096921,2096921,191450,623188,0
2096921,2096921,191355,623058,0
2096921,2096921,191260,623227,0
2096921,2096921,191128,622548,0
2096921,2096921,190931,622177,0
2096921,2096921,190661,622260,0
2096921,2096921,190691,622263,0
2096921,2096921,190514,622350,0
2096921,2096921,190541,621836,0
2096921,2096921,190888,621562,0
2096921,2096921,190519,621490,0
2096921,2096921,190423,621256,0
2096921,2096921,190088,621255,0
2096921,2096921,190052,621104,0
2096921,2096921,189929,620923,0
2096921,2096921,190271,620878,0
2096921,2096921,190281,621047,0
2096921,2096921,190090,620910,0
2096921,2096921,189967,620848,0
2096921,2096921,190063,620840,0
2096921,2096921,190185,620426,0
2096921,2096921,190358,620544,0
2096921,2096921,189907,620817,0
2096921,2096921,189860,620799,0
2096921,2096921,189670,620730,0
2096921,2096921,190130,620654,0
2096921,2096921,190187,620194,0
2096921,2096921,189996,620423,0
2096921,2096921,189907,620617,0
2096921,2096921,189945,620494,0
2096921,2096921,189730,620619,0
2096921,2096921,190196,620534,0
2096921,2096921,189933,620607,0
2096921,2096921,190147,620660,0
2096921,2096921,189846,620815,0
2096921,2096921,189804,620849,0
2096921,2096921,189779,620967,0
2096921,2096921,189971,620682,0
2096921,2096921,190189,620718,0
2096921,2096921,189862,621007,0
2096921,2096921,190174,620845,0
2096921,2096921,189856,620639,0
2096921,2096921,190136,620981,0
2096921,2096921,190221,620882,0
2096921,2096921,190427,620838,0
2096921,2096921,190602,621405,0
2096921,2096921,190305,621075,0
2096921,2096921,190234,621048,0
2096921,2096921,190303,621352,0
2096921,2096921,190065,621163,0
2096921,2096921,189979,621086,0
2096921,2096921,190235,621226,0
2096921,2096921,190093,621469,0
2096921,2096921,190670,621757,0
2096921,2096921,190468,621795,0
2096921,2096921,190623,621684,0
2096921,2096921,190511,621745,0
2096921,2096921,190546,621817,0
2096921,2096921,190537,622154,0
2096921,2096921,190708,622261,0
2096921,2096921,190597,622249,0
2096921,2096921,190519,622035,0
2096921,2096921,190670,622426,0
2096921,2096921,190752,622554,0
2096921,2096921,191129,622618,0
2096921,2096921,190831,622779,0
2096921,2096921,190804,622753,0
2096921,2096921,190793,622526,0
2096921,2096921,190961,623139,0
2096921,2096921,191113,623260,0
2096921,2096921,190925,623211,0
2096921,2096921,191067,623329,0
2096921,2096921,191213,622874,0
2096921,2096921,191169,623495,0
2096921,2096921,191211,623420,0
2096921,2096921,191579,623635,0
2096921,2096921,191633,623756,0
2096921,2096921,191768,623611,0
2096921,2096921,191704,624176,0
2096921,2096921,191689,623970,0
2096921,2096921,191709,623905,0
2096921,2096921,191642,624190,0
2096921,2096921,191639,624123,0
2096921,2096921,191521,624382,0
2096921,2096921,191869,624502,0
2096921,2096921,192175,624129,0
2096921,2096921,191983,624438,0
2096921,2096921,191840,624491,0
2096921,2096921,192175,624860,0
2096921,2096921,191771,625091,0
2096921,2096921,191978,624788,0
2096921,2096921,192258,624875,0
2096921,2096921,192490,624951,0
2096921,2096921,192421,625365,0
2096921,2096921,192416,625366,0
2096921,2096921,192215,625759,0
2096921,2096921,192150,625504,0
2096921,2096921,192625,625613,0
2096921,2096921,192610,625922,0
2096921,2096921,192477,626152,0
2096921,2096921,192496,625927,0
2096921,2096921,192741,625813,0
2096921,2096921,192686,625907,0
2096921,2096921,192787,626088,0
2096921,2096921,192465,626488,0
2096921,2096921,192671,626668,0
2096921,2096921,192659,626408,0
2096921,2096921,192893,626119,0
2096921,2096921,192674,626661,0
2096921,2096921,192986,626988,0
2096921,2096921,192943,627133,0
2096921,2096921,192843,626939,0
2096921,2096921,193067,627133,0
2096921,2096921,193347,627269,0
2096921,2096921,193261,627375,0
2096921,2096921,193462,627612,0
2096921,2096921,193663,627647,0
2096921,2096921,193271,627350,0
2096921,2096921,193560,628005,0
2096921,2096921,193498,627974,0
2096921,2096921,193321,627771,0
2096921,2096921,193497,627833,0
2096921,2096921,193546,627565,0
2096921,2096921,193445,627734,0
2096921,2096921,193196,628000,0
2096921,2096921,193411,627759,0
2096921,2096921,193190,628016,0
2096921,2096921,193745,627835,0
2096921,2096921,193659,628048,0
2096921,2096921,193610,628424,0
2096921,2096921,193663,628526,0
2096921,2096921,193344,628259,0
2096921,2096921,193842,628349,0
2096921,2096921,193660,628381,0
2096921,2096921,193786,628369,0
2096921,2096921,194143,628399,0
2096921,2096921,193688,628260,0
2096921,2096921,193796,628059,0
2096921,2096921,193764,628631,0
2096921,2096921,193643,628471,0
2096921,2096921,193575,628388,0
2096921,2096921,193417,628612,0
2096921,2096921,193476,628279,0
2096921,2096921,193670,628698,0
2096921,2096921,193792,628711,0
2096921,2096921,194097,628595,0
2096921,2096921,194073,628819,0
2096921,2096921,193907,628771,0
2096921,2096921,193925,628779,0
2096921,2096921,193836,628644,0
2096921,2096921,193832,628510,0
2096921,2096921,193919,628634,0
2096921,2096921,193807,628690,0
2096921,2096921,194093,628483,0
2096921,2096921,193758,628794,0
2096921,2096921,193566,629116,0
2096921,2096921,193495,628819,0
2096921,2096921,193420,628730,0
2096921,2096921,193791,628773,0
2096921,2096921,193454,628356,0
2096921,2096921,193710,628684,0
2096921,2096921,193845,628441,0
2096921,2096921,193565,628535,0
2096921,2096921,193817,628508,0
2096921,2096921,193732,628514,0
2096921,2096921,193814,628681,0
2096921,2096921,193551,628559,0
2096921,2096921,193454,628684,0
2096921,2096921,193467,628709,0
2096921,2096921,193601,628645,0
2096921,2096921,193705,628588,0
2096921,2096921,193685,628610,0
2096921,2096921,193916,628510,0
2096921,2096921,193737,628593,0
2096921,2096921,193608,628669,0
2096921,2096921,193973,628836,0
2096921,2096921,193689,628610,0
2096921,2096921,194004,628784,0
2096921,2096921,193756,628788,0
2096921,2096921,193997,628566,0
2096921,2096921,193611,628784,0
2096921,2096921,193450,628685,0
2096921,2096921,193826,628914,0
2096921,2096921,193718,629090,0
2096921,2096921,193933,628921,0
2096921,2096921,193633,628817,0
2096921,2096921,193605,629012,0
2096921,2096921,193596,629081,0
2096921,2096921,193779,629141,0
2096921,2096921,193888,629209,0
2096921,2096921,193761,629099,0
2096921,2096921,193803,629245,0
2096921,2096921,194063,629359,0
2096921,2096921,193796,629250,0
2096921,2096921,193664,629249,0
2096921,2096921,194045,629387,0
2096921,2096921,193943,629477,0
2096921,2096921,194126,629456,0
2096921,2096921,194169,629528,0
2096921,2096921,194391,629829,0
2096921,2096921,193883,629556,0
2096921,2096921,194297,629526,0
2096921,2096921,194346,629461,0
2096921,2096921,194214,629649,0
2096921,2096921,194417,630290,0
2096921,2096921,194427,630038,0
2096921,2096921,194554,630363,0
2096921,2096921,194568,630070,0
2096921,2096921,194529,630281,0
2096921,2096921,194252,630285,0
2096921,2096921,194216,630301,0
2096921,2096921,194135,630248,0
2096921,2096921,194471,630261,0
2096921,2096921,194456,630562,0
2096921,2096921,194670,630678,0
2096921,2096921,194479,630992,0
2096921,2096921,195034,630706,0
2096921,2096921,194833,630581,0
2096921,2096921,194961,631304,0
2096921,2096921,194705,631227,0
2096921,2096921,194638,631252,0
2096921,2096921,194817,631194,0
2096921,2096921,194723,631327,0
2096921,2096921,195288,631471,0
2096921,2096921,195149,631518,0
2096921,2096921,195267,631696,0
2096921,2096921,195175,631547,0
2096921,2096921,195092,631637,0
2096921,2096921,195461,631847,0
2096921,2096921,195335,631892,0
2096921,2096921,195191,631585,0
2096921,2096921,195036,631637,0
2096921,2096921,195115,631462,0
2096921,2096921,195053,632052,0
2096921,2096921,195183,631807,0
2096921,2096921,195277,631630,0
2096921,2096921,195303,631760,0
2096921,2096921,195516,632294,0
2096921,2096921,195570,632456,0
2096921,2096921,195292,632524,0
2096921,2096921,195402,632280,0
2096921,2096921,195664,632248,0
2096921,2096921,195224,632157,0
2096921,2096921,195492,632670,0
2096921,2096921,195455,632842,0
2096921,2096921,195416,632734,0
2096921,2096921,195751,632611,0
2096921,2096921,195711,632467,0
2096921,2096921,195735,632818,0
2096921,2096921,195889,633212,0
2096921,2096921,195911,632879,0
2096921,2096921,195828,632634,0
2096921,2096921,195706,632885,0
2096921,2096921,195799,633023,0
2096921,2096921,195679,633449,0
2096921,2096921,195762,633303,0
2096921,2096921,195806,633491,0
2096921,2096921,195943,632763,0
2096921,2096921,196110,633343,0
2096921,2096921,195692,633450,0
2096921,2096921,196038,633264,0
2096921,2096921,195745,633488,0
2096921,2096921,195858,633568,0
2096921,2096921,196063,633684,0
2096921,2096921,196193,633850,0
2096921,2096921,196340,633679,0
2096921,2096921,196165,633576,0
2096921,2096921,196503,633888,0
2096921,2096921,196588,634005,0
2096921,2096921,196626,634076,0
2096921,2096921,196216,634258,0
2096921,2096921,196043,634361,0
2096921,2096921,196283,634068,0
2096921,2096921,196577,634428,0
2096921,2096921,196512,634471,0
2096921,2096921,196370,634940,0
2096921,2096921,196256,634396,0
2096921,2096921,196461,634467,0
2096921,2096921,196209,634982,0
2096921,2096921,196407,634828,0
2096921,2096921,196398,634543,0
2096921,2096921,196316,634866,0
2096921,2096921,196682,634520,0
2096921,2096921,196274,634565,0
2096921,2096921,196706,634762,0
2096921,2096921,196836,634787,0
2096921,2096921,196638,634990,0
2096921,2096921,196659,634641,0
2096921,2096921,196742,634969,0
2096921,2096921,196450,635101,0
2096921,2096921,196482,635110,0
2096921,2096921,196639,635029,0
2096921,2096921,196533,634983,0
2096921,2096921,197170,635258,0
2096921,2096921,197100,635306,0
2096921,2096921,197074,635275,0
2096921,2096921,196669,635552,0
2096921,2096921,196937,635477,0
2096921,2096921,196838,635595,0
2096921,2096921,196947,635761,0
2096921,2096921,196744,635638,0
2096921,2096921,197075,635451,0
2096921,2096921,197221,635683,0
2096921,2096921,196724,635795,0
2096921,2096921,197163,635820,0
2096921,2096921,197381,636039,0
2096921,2096921,197034,636116,0
2096921,2096921,196893,635910,0
2096921,2096921,196938,636016,0
2096921,2096921,196767,636258,0
2096921,2096921,197020,636007,0
2096921,2096921,197130,635858,0
2096921,2096921,197112,635761,0
2096921,2096921,197284,636377,0
2096921,2096921,197242,636281,0
2096921,2096921,196963,636401,0
2096921,2096921,197330,636392,0
2096921,2096921,197202,636371,0
2096921,2096921,197196,636354,0
2096921,2096921,197320,636601,0
2096921,2096921,197346,636607,0
2096921,2096921,196986,636265,0
2096921,2096921,197123,636612,0
2096921,2096921,197253,636374,0
2096921,2096921,197437,636721,0
2096921,2096921,197337,636858,0
2096921,2096921,197713,636817,0
2096921,2096921,197557,636762,0
2096921,2096921,197487,637258,0
2096921,2096921,197242,636932,0
2096921,2096921,197286,636931,0
2096921,2096921,197507,636916,0
2096921,2096921,197362,636766,0
2096921,2096921,197663,636859,0
2096921,2096921,197604,636883,0
2096921,2096921,197494,637128,0
2096921,2096921,197656,636953,0
2096921,2096921,197763,637201,0
2096921,2096921,197914,637495,0
2096921,2096921,197833,637293,0
2096921,2096921,197630,637088,0
2096921,2096921,197381,636950,0
2096921,2096921,197481,636794,0
2096921,2096921,197515,637413,0
2096921,2096921,197648,637275,0
2096921,2096921,197825,637571,0
2096921,2096921,197554,637437,0
2096921,2096921,197916,637239,0
2096921,2096921,197686,637510,0
2096921,2096921,197567,637313,0
2096921,2096921,197631,637621,0
2096921,2096921,197184,637718,0
2096921,2096921,197715,637560,0
2096921,2096921,197788,637740,0
2096921,2096921,198005,637898,0
2096921,2096921,197904,637664,0
2096921,2096921,197615,637670,0
2096921,2096921,197455,637767,0
2096921,2096921,198080,637835,0
2096921,2096921,198000,637681,0
2096921,2096921,198035,637677,0
2096921,2096921,197704,637718,0
2096921,2096921,197936,637903,0
2096921,2096921,197955,637794,0
2096921,2096921,197554,637708,0
2096921,2096921,197947,637838,0
2096921,2096921,197836,637912,0
2096921,2096921,198220,638243,0
2096921,2096921,198233,638159,0
2096921,2096921,198339,638074,0
2096921,2096921,197968,638089,0
2096921,2096921,198011,638083,0
2096921,2096921,198330,638172,0
2096921,2096921,198250,638237,0
2096921,2096921,198103,638282,0
2096921,2096921,198372,638211,0
2096921,2096921,197895,638422,0
2096921,2096921,198021,638301,0
2096921,2096921,198390,638404,0
2096921,2096921,197915,638662,0
2096921,2096921,197946,638663,0
2096921,2096921,197890,638215,0
2096921,2096921,198232,638390,0
2096921,2096921,198158,638332,0
2096921,2096921,198184,638690,0
2096921,2096921,198150,638940,0
2096921,2096921,198423,638723,0
2096921,2096921,198040,638879,0
2096921,2096921,198588,638913,0
2096921,2096921,198424,638982,0
2096921,2096921,198076,638628,0
2096921,2096921,198339,638453,0
2096921,2096921,198338,638637,0
2096921,2096921,198461,638971,0
2096921,2096921,198419,638961,0
2096921,2096921,198567,639066,0
2096921,2096921,198302,638692,0
2096921,2096921,198217,638483,0
2096921,2096921,198341,639192,0
2096921,2096921,198215,638994,0
2096921,2096921,198292,638987,0
2096921,2096921,198338,639050,0
2096921,2096921,198494,638896,0
2096921,2096921,198388,639139,0
2096921,2096921,198526,639028,0
2096921,2096921,198544,639132,0
2096921,2096921,198383,639137,0
2096921,2096921,198422,639321,0
2096921,2096921,198376,638943,0
2096921,2096921,198506,639047,0
2096921,2096921,198548,639339,0
2096921,2096921,198297,639263,0
2096921,2096921,198574,639389,0
2096921,2096921,198782,639493,0
2096921,2096921,198431,639246,0
2096921,2096921,198684,639405,0
2096921,2096921,198450,639524,0
2096921,2096921,198626,639579,0
2096921,2096921,198747,639563,0
2096921,2096921,198591,639661,0
2096921,2096921,198444,639622,0
2096921,2096921,198349,639393,0
2096921,2096921,198600,639432,0
2096921,2096921,198529,639496,0
2096921,2096921,198751,639753,0
2096921,2096921,198867,639753,0
2096921,2096921,198767,639350,0
2096921,2096921,198696,639786,0
2096921,2096921,198692,639585,0
2096921,2096921,198546,639486,0
2096921,2096921,198679,639341,0
2096921,2096921,198634,639403,0
2096921,2096921,198578,639795,0
2096921,2096921,198881,639725,0
2096921,2096921,198688,639425,0
2096921,2096921,198721,639670,0
2096921,2096921,198745,639930,0
2096921,2096921,198670,639536,0
2096921,2096921,198834,639600,0
2096921,2096921,198627,639622,0
2096921,2096921,198557,639609,0
2096921,2096921,198621,639623,0
2096921,2096921,198567,639176,0
2096921,2096921,198622,639682,0
2096921,2096921,198820,639991,0
2096921,2096921,199026,639796,0
2096921,2096921,198769,640292,0
2096921,2096921,198765,639846,0
2096921,2096921,198500,639846,0
2096921,2096921,198516,639965,0
2096921,2096921,198921,639752,0
2096921,2096921,198686,639902,0
2096921,2096921,198805,639999,0
2096921,2096921,198629,639786,0
2096921,2096921,198875,640119,0
2096921,2096921,198764,639904,0
2096921,2096921,198510,639796,0
2096921,2096921,198614,640104,0
2096921,2096921,198586,640287,0
2096921,2096921,198632,639992,0
2096921,2096921,198715,640086,0
2096921,2096921,198859,639848,0
2096921,2096921,198609,640293,0
2096921,2096921,198707,640021,0
2096921,2096921,198610,639647,0
2096921,2096921,198465,639895,0
2096921,2096921,198625,639947,0
2096921,2096921,198537,639678,0
2096921,2096921,198670,639946,0
2096921,2096921,198259,639705,0
2096921,2096921,198101,639556,0
2096921,2096921,198502,639346,0
2096921,2096921,198110,639532,0
2096921,2096921,198157,639232,0
2096921,2096921,198344,639020,0
2096921,2096921,198095,639181,0
2096921,2096921,198185,639027,0
2096921,2096921,197656,638915,0
2096921,2096921,197813,638778,0
2096921,2096921,197699,638730,0
2096921,2096921,197698,638253,0
2096921,2096921,197851,638627,0
2096921,2096921,197442,638299,0
2096921,2096921,197380,637898,0
2096921,2096921,197547,637619,0
2096921,2096921,197440,637610,0
2096921,2096921,197631,637567,0
2096921,2096921,196778,637787,0
2096921,2096921,196663,636590,0
2096921,2096921,196435,636338,0
2096921,2096921,196532,636124,0
2096921,2096921,196506,635797,0
2096921,2096921,195860,635924,0
2096921,2096921,195498,634681,0
2096921,2096921,195721,634431,0
2096921,2096921,195353,634249,0
2096921,2096921,195397,634497,0
2096921,2096921,194739,634344,0
2096921,2096921,194461,633303,0
2096921,2096921,194531,633007,0
2096921,2096921,194557,632794,0
2096921,2096921,194414,632876,0
2096921,2096921,194111,632385,0
2096921,2096921,193820,631704,0
2096921,2096921,193773,631504,0
2096921,2096921,194133,631665,0
2096921,2096921,193957,631360,0
2096921,2096921,193686,631636,0
2096921,2096921,193460,630948,0
2096921,2096921,193391,630730,0
2096921,2096921,193304,630760,0
2096921,2096921,193405,630496,0
2096921,2096921,192830,630975,0
2096921,2096921,193099,630493,0
2096921,2096921,193216,630230,0
2096921,2096921,193275,630223,0
2096921,2096921,192985,630258,0
2096921,2096921,192821,630232,0
2096921,2096921,192914,629948,0
2096921,2096921,192989,630054,0
2096921,2096921,192872,630079,0
2096921,2096921,193038,629723,0
2096921,2096921,193051,630049,0
2096921,2096921,192677,629862,0
2096921,2096921,192823,629364,0
2096921,2096921,192962,629706,0
2096921,2096921,192844,629675,0
2096921,2096921,192629,629920,0
2096921,2096921,192802,629541,0
2096921,2096921,192531,629832,0
2096921,2096921,192753,629771,0
2096921,2096921,192667,629687,0
2096921,2096921,192936,629594,0
2096921,2096921,192849,629770,0
2096921,2096921,192773,629472,0
2096921,2096921,193144,629567,0
2096921,2096921,192980,629475,0
2096921,2096921,193071,629371,0
2096921,2096921,193391,629742,0
2096921,2096921,192985,630033,0
2096921,2096921,192772,629808,0
2096921,2096921,193012,629618,0
2096921,2096921,192848,629976,0
2096921,2096921,193275,629949,0
2096921,2096921,193173,630239,0
2096921,2096921,193301,630426,0
2096921,2096921,193216,630241,0
2096921,2096921,193131,629884,0
2096921,2096921,193207,630503,0
2096921,2096921,193021,630146,0
2096921,2096921,192602,630162,0
2096921,2096921,193161,630173,0
2096921,2096921,193041,630334,0
2096921,2096921,193268,630771,0
2096921,2096921,193370,630652,0
2096921,2096921,193322,630915,0
2096921,2096921,193173,630589,0
2096921,2096921,193449,630634,0
2096921,2096921,193438,630796,0
2096921,2096921,193430,630872,0
2096921,2096921,193276,630772,0
2096921,2096921,193764,631000,0
2096921,2096921,193527,630709,0
2096921,2096921,193708,631467,0
2096921,2096921,193581,631578,0
2096921,2096921,193512,631323,0
2096921,2096921,193928,631403,0
2096921,2096921,194229,631250,0
2096921,2096921,193940,631884,0
2096921,2096921,193984,631877,0
2096921,2096921,193735,631871,0
2096921,2096921,193663,631881,0
2096921,2096921,194194,632085,0
2096921,2096921,194307,632296,0
2096921,2096921,194320,632406,0
2096921,2096921,194026,632220,0
2096921,2096921,194130,632174,0
2096921,2096921,194561,632408,0
2096921,2096921,194325,632436,0
2096921,2096921,193961,632254,0
2096921,2096921,194403,632233,0
2096921,2096921,194472,632195,0
2096921,2096921,194371,632489,0
2096921,2096921,194483,632665,0
2096921,2096921,194381,632992,0
2096921,2096921,194583,633027,0
2096921,2096921,194515,633147,0
2096921,2096921,194671,632736,0
2096921,2096921,195009,633387,0
2096921,2096921,194760,633735,0
2096921,2096921,194521,633545,0
2096921,2096921,194464,633150,0
2096921,2096921,194822,633254,0
2096921,2096921,194703,633805,0
2096921,2096921,194888,633869,0
2096921,2096921,194930,633978,0
2096921,2096921,195021,633933,0
2096921,2096921,195156,633474,0
2096921,2096921,195062,634175,0
2096921,2096921,194875,634350,0
2096921,2096921,194975,634068,0
2096921,2096921,195020,634268,0
2096921,2096921,195024,634376,0
2096921,2096921,195255,634313,0
2096921,2096921,195249,634279,0
2096921,2096921,195087,634688,0
2096921,2096921,195010,634794,0
2096921,2096921,195541,634601,0
2096921,2096921,195564,635051,0
2096921,2096921,195517,634994,0
2096921,2096921,195410,635261,0
2096921,2096921,195562,634991,0
2096921,2096921,195630,634913,0
2096921,2096921,195696,635319,0
2096921,2096921,195907,635155,0
2096921,2096921,196084,635405,0
2096921,2096921,195729,635234,0
2096921,2096921,196095,635517,0
2096921,2096921,196006,635949,0
2096921,2096921,196099,636053,0
2096921,2096921,195969,635740,0
2096921,2096921,195785,635596,0
2096921,2096921,195882,635642,0
2096921,2096921,196093,636028,0
2096921,2096921,196096,635982,0
2096921,2096921,196010,636485,0
2096921,2096921,195797,636235,0
2096921,2096921,196157,635812,0
2096921,2096921,195873,636161,0
2096921,2096921,196112,636186,0
2096921,2096921,196265,636076,0
2096921,2096921,195951,636179,0
2096921,2096921,195887,635927,0
2096921,2096921,195948,635945,0
2096921,2096921,196431,636125,0
2096921,2096921,196156,636238,0
2096921,2096921,196178,636436,0
2096921,2096921,196378,636640,0
2096921,2096921,196208,636579,0
2096921,2096921,196272,636647,0
2096921,2096921,196196,636457,0
2096921,2096921,196615,636476,0
2096921,2096921,196413,636477,0
2096921,2096921,196316,636457,0
2096921,2096921,196483,636400,0
2096921,2096921,196571,636355,0
2096921,2096921,196168,636496,0
2096921,2096921,196568,636556,0
2096921,2096921,196424,636542,0
2096921,2096921,196351,636382,0
2096921,2096921,196223,636523,0
2096921,2096921,196077,636548,0
2096921,2096921,195979,636542,0
2096921,2096921,196333,636462,0
2096921,2096921,196338,636193,0
2096921,2096921,196338,636534,0
2096921,2096921,195888,636116,0
2096921,2096921,196204,636406,0
2096921,2096921,196197,636124,0
2096921,2096921,196122,636287,0
2096921,2096921,196059,636335,0
2096921,2096921,196150,636354,0
2096921,2096921,195932,636295,0
2096921,2096921,195936,636288,0
2096921,2096921,196106,636153,0
2096921,2096921,196116,636129,0
2096921,2096921,195971,636292,0
2096921,2096921,196122,636229,0
2096921,2096921,196125,636227,0
2096921,2096921,196219,636030,0
2096921,2096921,195818,636211,0
2096921,2096921,195950,636100,0
2096921,2096921,195941,636038,0
2096921,2096921,195886,636404,0
2096921,2096921,196148,636264,0
2096921,2096921,195960,636269,0
2096921,2096921,196186,636326,0
2096921,2096921,196079,636227,0
2096921,2096921,196072,636234,0
2096921,2096921,195955,636220,0
2096921,2096921,195786,636482,0
2096921,2096921,195993,636301,0
2096921,2096921,196319,636184,0
2096921,2096921,195977,636268,0
2096921,2096921,196120,636584,0
2096921,2096921,196097,636282,0
2096921,2096921,195912,636257,0
2096921,2096921,196041,636073,0
2096921,2096921,196281,636266,0
2096921,2096921,196467,636378,0
2096921,2096921,196195,636317,0
2096921,2096921,196050,636308,0
2096921,2096921,196280,636317,0
2096921,2096921,195976,636458,0
2096921,2096921,196328,636613,0
2096921,2096921,195821,636096,0
2096921,2096921,196305,636385,0
2096921,2096921,196566,636563,0
2096921,2096921,196256,637058,0
2096921,2096921,196394,637128,0
2096921,2096921,196308,636677,0
2096921,2096921,196080,636668,0
2096921,2096921,196197,636664,0
2096921,2096921,196637,637263,0
2096921,2096921,196820,637372,0
2096921,2096921,196725,637236,0
2096921,2096921,196708,637304,0
2096921,2096921,196788,636931,0
2096921,2096921,196779,637699,0
2096921,2096921,196789,637684,0
2096921,2096921,196779,637629,0
2096921,2096921,196581,637178,0
2096921,2096921,196691,636977,0
2096921,2096921,197161,637223,0
2096921,2096921,197098,637640,0
2096921,2096921,197121,637720,0
2096921,2096921,196865,637869,0
2096921,2096921,196813,637827,0
2096921,2096921,197086,637966,0
2096921,2096921,197168,637706,0
2096921,2096921,197073,638022,0
2096921,2096921,196855,637963,0
2096921,2096921,196864,637717,0
2096921,2096921,197081,638138,0
2096921,2096921,196964,637944,0
2096921,2096921,197039,638394,0
2096921,2096921,196779,638142,0
2096921,2096921,197295,638069,0
2096921,2096921,197286,638353,0
2096921,2096921,197410,638313,0
2096921,2096921,197174,638164,0
2096921,2096921,197127,638344,0
2096921,2096921,197194,638219,0
2096921,2096921,197352,638663,0
2096921,2096921,197559,638505,0
2096921,2096921,197464,638295,0
2096921,2096921,197274,638194,0
2096921,2096921,197347,638300,0
2096921,2096921,197415,638689,0
2096921,2096921,197490,639042,0
2096921,2096921,197687,638768,0
2096921,2096921,197654,638702,0
2096921,2096921,197470,638603,0
2096921,2096921,197349,639067,0
2096921,2096921,197454,639557,0
2096921,2096921,197183,639037,0
2096921,2096921,197470,639161,0
2096921,2096921,197864,639355,0
2096921,2096921,197540,639490,0
2096921,2096921,197569,639427,0
2096921,2096921,197721,639452,0
2096921,2096921,197800,639342,0
2096921,2096921,197928,639422,0
2096921,2096921,197769,639402,0
2096921,2096921,197870,639445,0
2096921,2096921,197772,639500,0
2096921,2096921,197920,639405,0
2096921,2096921,197920,639472,0
2096921,2096921,197795,639647,0
2096921,2096921,198034,639557,0
2096921,2096921,198112,639584,0
2096921,2096921,198150,639626,0
2096921,2096921,198059,639946,0
2096921,2096921,197909,640024,0
2096921,2096921,198093,640002,0
2096921,2096921,197950,640075,0
2096921,2096921,198085,640018,0
2096921,2096921,198195,639716,0
2096921,2096921,198329,640241,0
2096921,2096921,198199,640109,0
2096921,2096921,197708,640100,0
2096921,2096921,197970,640107,0
2096921,2096921,198182,639965,0
2096921,2096921,198085,640313,0
2096921,2096921,198091,640533,0
2096921,2096921,198445,640489,0
2096921,2096921,198160,640333,0
2096921,2096921,198271,640465,0
2096921,2096921,198261,640382,0
2096921,2096921,198146,640583,0
2096921,2096921,198152,640488,0
2096921,2096921,198151,640049,0
2096921,2096921,198312,640135,0
2096921,2096921,198578,640731,0
2096921,2096921,198297,640613,0
2096921,2096921,198431,640817,0
2096921,2096921,198253,641046,0
2096921,2096921,198303,640894,0
2096921,2096921,198761,640925,0
2096921,2096921,198600,640842,0
2096921,2096921,198645,640739,0
2096921,2096921,198297,640769,0
2096921,2096921,198682,640862,0
2096921,2096921,198648,640920,0
2096921,2096921,198764,641006,0
2096921,2096921,198631,640928,0
2096921,2096921,198591,640889,0
2096921,2096921,198471,641113,0
2096921,2096921,198984,640979,0
2096921,2096921,198683,641164,0
2096921,2096921,198586,641100,0
2096921,2096921,198604,641142,0
2096921,2096921,198685,641068,0
2096921,2096921,198553,640871,0
2096921,2096921,198370,641424,0
2096921,2096921,198754,641631,0
2096921,2096921,199031,641438,0
2096921,2096921,198974,641211,0
2096921,2096921,199008,641101,0
2096921,2096921,198807,641111,0
2096921,2096921,198492,641383,0
2096921,2096921,198664,641814,0
2096921,2096921,199046,641624,0
2096921,2096921,198983,641673,0
2096921,2096921,199183,641613,0
2096921,2096921,198997,641584,0
2096921,2096921,199214,641726,0
2096921,2096921,198894,641792,0
2096921,2096921,198970,641568,0
2096921,2096921,198999,641786,0
2096921,2096921,198942,641788,0
2096921,2096921,199071,641866,0
2096921,2096921,198834,641972,0
2096921,2096921,199156,641826,0
2096921,2096921,199282,642024,0
2096921,2096921,199232,641998,0
2096921,2096921,199142,641763,0
2096921,2096921,199051,641624,0
2096921,2096921,199150,642204,0
2096921,2096921,199157,642050,0
2096921,2096921,199148,642093,0
2096921,2096921,199110,641922,0
2096921,2096921,199215,642159,0
2096921,2096921,199187,642305,0
2096921,2096921,199231,642091,0
2096921,2096921,198968,642287,0
2096921,2096921,199085,641998,0
2096921,2096921,199421,642244,0
2096921,2096921,199277,642281,0
2096921,2096921,199363,642171,0
2096921,2096921,199474,642239,0
2096921,2096921,199207,641986,0
2096921,2096921,199121,641910,0
2096921,2096921,199348,642031,0
2096921,2096921,199580,642300,0
2096921,2096921,199497,642495,0
2096921,2096921,199302,642339,0
2096921,2096921,199573,642433,0
2096921,2096921,199302,642391,0
2096921,2096921,199450,642440,0
2096921,2096921,199127,642261,0
2096921,2096921,199216,642199,0
2096921,2096921,199031,642418,0
2096921,2096921,199080,642382,0
2096921,2096921,199369,642493,0
2096921,2096921,199467,642374,0
2096921,2096921,199646,642096,0
2096921,2096921,199360,642344,0
2096921,2096921,199448,642717,0
2096921,2096921,199283,642871,0
2096921,2096921,199552,642464,0
2096921,2096921,199363,642409,0
2096921,2096921,199335,642463,0
2096921,2096921,199409,642409,0
2096921,2096921,199440,642638,0
2096921,2096921,199618,642852,0
2096921,2096921,199362,642645,0
2096921,2096921,199470,642889,0
2096921,2096921,199304,642718,0
2096921,2096921,199524,642714,0
2096921,2096921,199400,642660,0
2096921,2096921,199502,642934,0
2096921,2096921,199504,642688,0
2096921,2096921,199660,643049,0
2096921,2096921,199602,643034,0
2096921,2096921,199496,642857,0
2096921,2096921,199508,642796,0
2096921,2096921,199387,642467,0
2096921,2096921,199502,642903,0
2096921,2096921,199740,642984,0
2096921,2096921,199494,642798,0
2096921,2096921,199649,642542,0
2096921,2096921,199838,642872,0
2096921,2096921,199620,642939,0
2096921,2096921,199490,642995,0
2096921,2096921,199730,642786,0
2096921,2096921,199904,642894,0
2096921,2096921,199846,642808,0
2096921,2096921,199798,643070,0
2096921,2096921,199714,643066,0
2096921,2096921,199606,642906,0
2096921,2096921,199481,643136,0
2096921,2096921,199553,642749,0
2096921,2096921,199902,642836,0
2096921,2096921,199757,642857,0
2096921,2096921,199873,643009,0
2096921,2096921,199680,643325,0
2096921,2096921,199820,642987,0
2096921,2096921,199724,643074,0
2096921,2096921,199709,642969,0
2096921,2096921,199524,643142,0
2096921,2096921,199701,642710,0
2096921,2096921,199714,642745,0
2096921,2096921,199752,643056,0
2096921,2096921,199842,643072,0
2096921,2096921,199794,643148,0
2096921,2096921,199892,643182,0
2096921,2096921,199786,643142,0
2096921,2096921,200105,643301,0
2096921,2096921,199845,643021,0
2096921,2096921,199688,643116,0
2096921,2096921,199642,642996,0
2096921,2096921,199794,642943,0
2096921,2096921,199680,643003,0
2096921,2096921,199750,643180,0
2096921,2096921,199880,643453,0
2096921,2096921,199538,643519,0
2096921,2096921,199648,643345,0
2096921,2096921,199793,643369,0
2096921,2096921,199624,643400,0
2096921,2096921,199568,643203,0
2096921,2096921,199703,643229,0
2096921,2096921,199887,643362,0
2096921,2096921,200092,643099,0
2096921,2096921,199665,643432,0
2096921,2096921,199742,643025,0
2096921,2096921,199629,643119,0
2096921,2096921,199805,643472,0
2096921,2096921,199626,643455,0
2096921,2096921,199847,643517,0
2096921,2096921,199805,643345,0
2096921,2096921,199474,643151,0
2096921,2096921,199514,643112,0
2096921,2096921,199610,643217,0
2096921,2096921,200042,643159,0
2096921,2096921,199618,642968,0
2096921,2096921,199854,643351,0
2096921,2096921,199619,643008,0
2096921,2096921,199633,643098,0
2096921,2096921,199685,643177,0
2096921,2096921,199689,642860,0
2096921,2096921,199810,643060,0
2096921,2096921,199722,643258,0
2096921,2096921,199896,643254,0
2096921,2096921,199885,642929,0
2096921,2096921,199755,642961,0
2096921,2096921,200009,643430,0
2096921,2096921,199848,643362,0
2096921,2096921,199756,643394,0
2096921,2096921,200132,643190,0
2096921,2096921,199483,643005,0
2096921,2096921,199683,643121,0
2096921,2096921,199384,643349,0
2096921,2096921,199747,643105,0
2096921,2096921,199935,643231,0
2096921,2096921,199898,642905,0
2096921,2096921,199703,643172,0
2096921,2096921,199755,643178,0
2096921,2096921,200217,643164,0
2096921,2096921,199982,643249,0
2096921,2096921,199692,643354,0
2096921,2096921,199678,643194,0
2096921,2096921,199589,643164,0
2096921,2096921,199547,643025,0
2096921,2096921,199790,642954,0
2096921,2096921,199765,643007,0
2096921,2096921,199905,642464,0
2096921,2096921,199626,642935,0
2096921,2096921,199444,642715,0
2096921,2096921,199438,642718,0
2096921,2096921,199156,642378,0
2096921,2096921,199570,642326,0
2096921,2096921,198832,642413,0
2096921,2096921,199013,641824,0
2096921,2096921,198983,642087,0
2096921,2096921,199010,641844,0
2096921,2096921,199143,642242,0
2096921,2096921,198677,642309,0
2096921,2096921,199174,641368,0
2096921,2096921,198628,641158,0
2096921,2096921,198832,641238,0
2096921,2096921,198847,641153,0
2096921,2096921,198305,641086,0
2096921,2096921,198289,640880,0
2096921,2096921,198364,640806,0
2096921,2096921,198379,640504,0
2096921,2096921,198364,640579,0
2096921,2096921,197585,640570,0
2096921,2096921,197498,639494,0
2096921,2096921,197461,639366,0
2096921,2096921,197349,638778,0
2096921,2096921,197235,638761,0
2096921,2096921,196887,638702,0
2096921,2096921,196391,637070,0
2096921,2096921,196203,636787,0
2096921,2096921,196324,636773,0
2096921,2096921,196096,636748,0
2096921,2096921,195718,636791,0
2096921,2096921,195433,635414,0
2096921,2096921,195468,635279,0
2096921,2096921,195100,635330,0
2096921,2096921,194918,635249,0
2096921,2096921,194813,635381,0
2096921,2096921,194697,634496,0
2096921,2096921,194504,634017,0
2096921,2096921,194721,633924,0
2096921,2096921,194952,633878,0
2096921,2096921,194529,634182,0
2096921,2096921,194454,633594,0
2096921,2096921,194224,633384,0
2096921,2096921,194138,633225,0
2096921,2096921,194277,633488,0
2096921,2096921,194333,632865,0
2096921,2096921,193716,632719,0
2096921,2096921,193804,632715,0
2096921,2096921,193750,632531,0
2096921,2096921,193858,632718,0
2096921,2096921,193961,632660,0
2096921,2096921,193656,632057,0
2096921,2096921,193978,632046,0
2096921,2096921,193682,632187,0
2096921,2096921,193520,632037,0
2096921,2096921,193430,631998,0
2096921,2096921,193366,631774,0
2096921,2096921,193639,631952,0
2096921,2096921,193514,632063,0
2096921,2096921,193620,632005,0
2096921,2096921,193694,631718,0
2096921,2096921,193412,631727,0
2096921,2096921,193229,631770,0
2096921,2096921,193628,631419,0
2096921,2096921,193589,631846,0
2096921,2096921,193604,631873,0
2096921,2096921,193448,632053,0
2096921,2096921,193574,631962,0
2096921,2096921,193623,631843,0
2096921,2096921,193628,631753,0
2096921,2096921,193652,632063,0
2096921,2096921,193341,631752,0
2096921,2096921,193554,631702,0
2096921,2096921,193593,631838,0
2096921,2096921,193438,631835,0
2096921,2096921,193609,631856,0
2096921,2096921,193819,631949,0
2096921,2096921,193610,632036,0
2096921,2096921,193627,632120,0
2096921,2096921,193654,632026,0
2096921,2096921,193356,632119,0
2096921,2096921,193537,632201,0
2096921,2096921,193723,632254,0
2096921,2096921,193723,632111,0
2096921,2096921,193990,632025,0
2096921,2096921,193623,632342,0
2096921,2096921,193460,632273,0
2096921,2096921,193874,632715,0
2096921,2096921,194122,632388,0
2096921,2096921,193833,632555,0
2096921,2096921,194265,632428,0
2096921,2096921,193951,632821,0
2096921,2096921,193983,632934,0
2096921,2096921,194048,632589,0
2096921,2096921,194326,632814,0
2096921,2096921,194262,632752,0
2096921,2096921,194132,633046,0
2096921,2096921,194141,633077,0
2096921,2096921,194386,633338,0
2096921,2096921,194455,633274,0
2096921,2096921,194714,633123,0
2096921,2096921,194570,633738,0
2096921,2096921,194510,633637,0
2096921,2096921,194519,633613,0
2096921,2096921,194273,633411,0
2096921,2096921,194360,633207,0
2096921,2096921,194599,633691,0
2096921,2096921,194312,633634,0
2096921,2096921,194620,633714,0
2096921,2096921,195029,633898,0
2096921,2096921,194690,633772,0
2096921,2096921,194950,634461,0
2096921,2096921,194755,634181,0
2096921,2096921,194742,634359,0
2096921,2096921,194672,634066,0
2096921,2096921,194705,634008,0
2096921,2096921,194646,634808,0
2096921,2096921,194875,634695,0
2096921,2096921,195039,634720,0
2096921,2096921,194692,634644,0
2096921,2096921,195261,634486,0
2096921,2096921,195254,634881,0
2096921,2096921,195395,634908,0
2096921,2096921,195144,634796,0
2096921,2096921,195429,634712,0
2096921,2096921,195392,634847,0
2096921,2096921,195391,634955,0
2096921,2096921,195594,635262,0
2096921,2096921,195596,635341,0
2096921,2096921,195617,635530,0
2096921,2096921,195745,635492,0
2096921,2096921,195819,635799,0
2096921,2096921,195412,635504,0
2096921,2096921,195456,635635,0
2096921,2096921,195509,635721,0
2096921,2096921,195814,635519,0
2096921,2096921,195506,636091,0
2096921,2096921,195778,635990,0
2096921,2096921,195890,635849,0
2096921,2096921,195936,635826,0
2096921,2096921,196099,636152,0
2096921,2096921,196084,636176,0
2096921,2096921,196153,636395,0
2096921,2096921,196079,636308,0
2096921,2096921,195960,636488,0
2096921,2096921,196048,636445,0
2096921,2096921,196275,636844,0
2096921,2096921,196249,636755,0
2096921,2096921,196341,636902,0
2096921,2096921,196263,636865,0
2096921,2096921,196300,636739,0
2096921,2096921,196301,636986,0
2096921,2096921,196465,637113,0
2096921,2096921,196443,637423,0
2096921,2096921,196205,637023,0
2096921,2096921,196472,636895,0
2096921,2096921,196356,636937,0
2096921,2096921,196247,637235,0
2096921,2096921,196325,637072,0
2096921,2096921,196633,637151,0
2096921,2096921,196502,637038,0
2096921,2096921,196327,637057,0
2096921,2096921,196353,637421,0
2096921,2096921,196567,637409,0
2096921,2096921,196332,637403,0
2096921,2096921,196095,637167,0
2096921,2096921,196326,637254,0
2096921,2096921,196534,637301,0
2096921,2096921,196645,637729,0
2096921,2096921,197062,637668,0
2096921,2096921,196639,637309,0
2096921,2096921,196342,637746,0
2096921,2096921,196389,637525,0
2096921,2096921,196359,637312,0
2096921,2096921,196433,637403,0
2096921,2096921,196368,637686,0
2096921,2096921,196367,637592,0
2096921,2096921,196474,637606,0
2096921,2096921,196601,637376,0
2096921,2096921,196471,637622,0
2096921,2096921,196395,637474,0
2096921,2096921,196631,637437,0
2096921,2096921,196561,637297,0
2096921,2096921,196309,637321,0
2096921,2096921,196311,637547,0
2096921,2096921,196366,637287,0
2096921,2096921,196410,637256,0
2096921,2096921,196485,637118,0
2096921,2096921,196492,637613,0
2096921,2096921,196569,637416,0
2096921,2096921,196290,637006,0
2096921,2096921,196499,637284,0
2096921,2096921,196453,637225,0
2096921,2096921,196467,637008,0
2096921,2096921,196569,637147,0
2096921,2096921,196463,637108,0
2096921,2096921,196478,637127,0
2096921,2096921,196361,636971,0
2096921,2096921,196293,637115,0
2096921,2096921,196348,636949,0
2096921,2096921,196188,636773,0
2096921,2096921,196258,636964,0
2096921,2096921,196008,636719,0
2096921,2096921,196119,636950,0
2096921,2096921,196325,636927,0
2096921,2096921,196496,636909,0
2096921,2096921,196375,636855,0
2096921,2096921,196238,637133,0
2096921,2096921,196153,636845,0
2096921,2096921,196344,636876,0
2096921,2096921,196311,636923,0
2096921,2096921,196384,637052,0
2096921,2096921,196151,636966,0
2096921,2096921,196154,636927,0
2096921,2096921,196070,636857,0
2096921,2096921,196463,636689,0
2096921,2096921,196441,636657,0
2096921,2096921,196453,636958,0
2096921,2096921,196617,637130,0
2096921,2096921,196202,637005,0
2096921,2096921,196327,637284,0
2096921,2096921,196520,636871,0
2096921,2096921,196561,636696,0
2096921,2096921,196239,637247,0
2096921,2096921,196359,636868,0
2096921,2096921,196489,637084,0
2096921,2096921,196311,637068,0
2096921,2096921,196463,637047,0
2096921,2096921,196352,637250,0
2096921,2096921,196782,636852,0
2096921,2096921,196796,637024,0
2096921,2096921,196538,637331,0
2096921,2096921,196622,637408,0
2096921,2096921,196302,637529,0
2096921,2096921,196423,637269,0
2096921,2096921,196739,637378,0
2096921,2096921,196434,637644,0
2096921,2096921,196967,637679,0
2096921,2096921,196754,637816,0
2096921,2096921,196880,637967,0
2096921,2096921,196852,637404,0
2096921,2096921,196906,637987,0
2096921,2096921,196781,637906,0
2096921,2096921,196655,638054,0
2096921,2096921,197085,638049,0
2096921,2096921,197042,637950,0
2096921,2096921,197252,638026,0
2096921,2096921,197004,638091,0
2096921,2096921,196670,638077,0
2096921,2096921,196871,638376,0
2096921,2096921,196952,638094,0
2096921,2096921,197013,638333,0
2096921,2096921,197512,638333,0
2096921,2096921,197201,638169,0
2096921,2096921,196955,638178,0
2096921,2096921,197316,638013,0
2096921,2096921,196980,638404,0
2096921,2096921,197441,638689,0
2096921,2096921,197506,638438,0
2096921,2096921,197247,638369,0
2096921,2096921,197147,638642,0
2096921,2096921,197506,638640,0
2096921,2096921,197103,638770,0
2096921,2096921,197513,638644,0
2096921,2096921,197470,638503,0
2096921,2096921,197337,638656,0
2096921,2096921,197405,638617,0
2096921,2096921,197367,639100,0
2096921,2096921,197635,638894,0
2096921,2096921,197425,638962,0
2096921,2096921,197741,638999,0
2096921,2096921,197764,639461,0
2096921,2096921,197639,639067,0
2096921,2096921,197559,639087,0
2096921,2096921,197440,638748,0
2096921,2096921,197754,639355,0
2096921,2096921,197642,639085,0
2096921,2096921,197997,639446,0
2096921,2096921,197744,639793,0
2096921,2096921,197601,639622,0
2096921,2096921,197897,639437,0
2096921,2096921,197666,639476,0
2096921,2096921,197980,639631,0
2096921,2096921,197737,639729,0
2096921,2096921,197789,639695,0
2096921,2096921,197880,639661,0
2096921,2096921,197971,639600,0
2096921,2096921,198059,639524,0
2096921,2096921,197947,640052,0
2096921,2096921,197960,640033,0
2096921,2096921,197978,639938,0
2096921,2096921,198080,639909,0
2096921,2096921,197891,640194,0
2096921,2096921,198123,639992,0
2096921,2096921,198212,640045,0
2096921,2096921,197694,639874,0
2096921,2096921,198047,640170,0
2096921,2096921,198127,640169,0
2096921,2096921,198416,640228,0
2096921,2096921,198195,640028,0
2096921,2096921,198135,639969,0
2096921,2096921,198146,640367,0
2096921,2096921,198134,640497,0
2096921,2096921,198261,640363,0
2096921,2096921,198241,640452,0
2096921,2096921,198426,640479,0
2096921,2096921,198312,640364,0
2096921,2096921,198193,640433,0
2096921,2096921,198464,640770,0
2096921,2096921,198511,640779,0
2096921,2096921,198486,640704,0
2096921,2096921,198587,640495,0
2096921,2096921,198598,640847,0
2096921,2096921,198483,640803,0
2096921,2096921,198392,641004,0
2096921,2096921,198776,640852,0
2096921,2096921,198641,640790,0
2096921,2096921,198615,641209,0
2096921,2096921,198638,640889,0
2096921,2096921,198645,640851,0
2096921,2096921,198597,641014,0
2096921,2096921,198776,641191,0
2096921,2096921,198467,641352,0
2096921,2096921,198693,640976,0
2096921,2096921,198620,640976,0
2096921,2096921,198550,640791,0
2096921,2096921,198969,640960,0
2096921,2096921,198826,641101,0
2096921,2096921,198737,641104,0
2096921,2096921,198876,641074,0
2096921,2096921,198632,641155,0
2096921,2096921,198888,641362,0
2096921,2096921,198771,641355,0
2096921,2096921,198579,641170,0
2096921,2096921,198782,641418,0
2096921,2096921,198960,641263,0
2096921,2096921,199244,641546,0
2096921,2096921,198887,641592,0
2096921,2096921,198759,641569,0
2096921,2096921,198940,641637,0
2096921,2096921,199194,641483,0
2096921,2096921,198920,641880,0
2096921,2096921,198906,641580,0
2096921,2096921,198735,641888,0
2096921,2096921,198782,641625,0
2096921,2096921,199040,641356,0
2096921,2096921,199004,641825,0
2096921,2096921,199046,641778,0
2096921,2096921,199044,641832,0
2096921,2096921,198831,641745,0
2096921,2096921,199055,641597,0
2096921,2096921,198893,641868,0
2096921,2096921,199131,641742,0
2096921,2096921,198782,641761,0
2096921,2096921,199179,641579,0
2096921,2096921,199074,641670,0
2096921,2096921,199069,642030,0
2096921,2096921,199156,642142,0
2096921,2096921,199054,642015,0
2096921,2096921,199149,641854,0
2096921,2096921,199401,641846,0
2096921,2096921,199094,642002,0
2096921,2096921,199224,642315,0
2096921,2096921,199207,641994,0
2096921,2096921,199151,641862,0
2096921,2096921,198932,641834,0
2096921,2096921,199275,642068,0
2096921,2096921,199426,642194,0
2096921,2096921,199284,642017,0
2096921,2096921,199298,642133,0
2096921,2096921,199431,642132,0
2096921,2096921,199417,642356,0
2096921,2096921,198958,642384,0
2096921,2096921,199058,642207,0
2096921,2096921,199054,642086,0
2096921,2096921,199125,641981,0
2096921,2096921,199439,642249,0
2096921,2096921,198943,641951,0
2096921,2096921,199166,642565,0
2096921,2096921,199154,642306,0
2096921,2096921,199372,642438,0
2096921,2096921,199221,642406,0
2096921,2096921,199134,642423,0
2096921,2096921,199317,642318,0
2096921,2096921,199075,642040,0
2096921,2096921,199443,642408,0
2096921,2096921,199556,642656,0
2096921,2096921,199358,642342,0
2096921,2096921,199506,642158,0
2096921,2096921,199577,642497,0
2096921,2096921,199349,642284,0
2096921,2096921,199506,642336,0
2096921,2096921,199471,642323,0
2096921,2096921,199214,642413,0
2096921,2096921,199321,642263,0
2096921,2096921,199608,642193,0
2096921,2096921,199436,642033,0
2096921,2096921,199555,642323,0
2096921,2096921,199535,642678,0
2096921,2096921,199279,642836,0
2096921,2096921,199435,642478,0
2096921,2096921,199219,642668,0
2096921,2096921,199211,642742,0
2096921,2096921,199266,642711,0
2096921,2096921,199239,642533,0
2096921,2096921,199627,642429,0
2096921,2096921,199558,642768,0
2096921,2096921,199555,642560,0
2096921,2096921,199790,642537,0
2096921,2096921,199580,642956,0
2096921,2096921,199850,642551,0
2096921,2096921,199466,642827,0
2096921,2096921,199667,642690,0
2096921,2096921,199709,642621,0
2096921,2096921,199644,642602,0
2096921,2096921,199526,642996,0
2096921,2096921,199899,642608,0
2096921,2096921,199622,642624,0
2096921,2096921,199725,642662,0
2096921,2096921,199550,642981,0
2096921,2096921,199769,642792,0
2096921,2096921,199723,642729,0
2096921,2096921,199485,643153,0
2096921,2096921,199646,642734,0
2096921,2096921,199640,642955,0
2096921,2096921,199891,642573,0
2096921,2096921,199704,642872,0
2096921,2096921,199619,642932,0
2096921,2096921,199670,642937,0
2096921,2096921,199952,643045,0
2096921,2096921,199672,642847,0
2096921,2096921,199499,643150,0
2096921,2096921,199729,642969,0
2096921,2096921,199545,642859,0
2096921,2096921,199675,642997,0
2096921,2096921,199576,642580,0
2096921,2096921,199597,643250,0
2096921,2096921,199618,642720,0
2096921,2096921,199701,643018,0
2096921,2096921,199790,642992,0
2096921,2096921,199703,642910,0
2096921,2096921,199814,642954,0
2096921,2096921,199923,643007,0
2096921,2096921,199944,642740,0
2096921,2096921,199712,642843,0
2096921,2096921,199853,642846,0
2096921,2096921,199623,642807,0
2096921,2096921,199895,642901,0
2096921,2096921,199947,643065,0
2096921,2096921,200081,643037,0
2096921,2096921,200018,643035,0
2096921,2096921,199815,642755,0
2096921,2096921,199676,642883,0
2096921,2096921,199770,642768,0
2096921,2096921,199530,642669,0
2096921,2096921,199620,642926,0
2096921,2096921,199661,642807,0
2096921,2096921,199909,642860,0
2096921,2096921,199807,642950,0
2096921,2096921,199560,642827,0
2096921,2096921,199755,643017,0
2096921,2096921,199741,642865,0
2096921,2096921,199719,642723,0
2096921,2096921,199625,642952,0
2096921,2096921,199850,642600,0
2096921,2096921,199682,642876,0
2096921,2096921,199780,642847,0
2096921,2096921,199884,642759,0
2096921,2096921,199528,642858,0
2096921,2096921,199821,643015,0
2096921,2096921,199542,642963,0
2096921,2096921,199762,642820,0
2096921,2096921,199487,643029,0
2096921,2096921,199571,643066,0
2096921,2096921,199405,643046,0
2096921,2096921,199253,642706,0
2096921,2096921,199509,642579,0
2096921,2096921,199598,642480,0
2096921,2096921,199605,642512,0
2096921,2096921,199683,642766,0
2096921,2096921,199806,642491,0
2096921,2096921,199607,642667,0
2096921,2096921,199627,642772,0
2096921,2096921,199447,642690,0
2096921,2096921,199439,642783,0
2096921,2096921,199670,642773,0
2096921,2096921,199648,642885,0
2096921,2096921,199479,642626,0
2096921,2096921,199714,642593,0
2096921,2096921,199721,642893,0
2096921,2096921,199671,642725,0
2096921,2096921,199762,642717,0
2096921,2096921,199584,642993,0
2096921,2096921,199264,642638,0
2096921,2096921,199256,642425,0
2096921,2096921,199532,642671,0
2096921,2096921,199640,642346,0
2096921,2096921,199545,642328,0
2096921,2096921,199372,642268,0
2096921,2096921,199294,642165,0
2096921,2096921,199428,642569,0
2096921,2096921,199301,641857,0
2096921,2096921,199245,642124,0
2096921,2096921,199179,641892,0
2096921,2096921,199202,641730,0
2096921,2096921,198908,642041,0
2096921,2096921,199172,641555,0
2096921,2096921,198802,641507,0
2096921,2096921,198956,641479,0
2096921,2096921,199120,641495,0
2096921,2096921,198915,641440,0
2096921,2096921,198629,640948,0
2096921,2096921,198668,640734,0
2096921,2096921,198318,640908,0
2096921,2096921,198650,640654,0
2096921,2096921,198268,640521,0
2096921,2096921,198071,640165,0
2096921,2096921,197995,639855,0
2096921,2096921,198091,639998,0
2096921,2096921,198353,640070,0
2096921,2096921,197396,639894,0
2096921,2096921,197127,638712,0
2096921,2096921,197213,638297,0
2096921,2096921,197182,638362,0
2096921,2096921,197290,637939,0
2096921,2096921,196213,637932,0
2096921,2096921,195864,636495,0
2096921,2096921,195911,636368,0
2096921,2096921,196329,636336,0
2096921,2096921,196147,636160,0
2096921,2096921,195423,636098,0
2096921,2096921,195492,634990,0
2096921,2096921,195340,634707,0
2096921,2096921,195335,634676,0
2096921,2096921,195181,634695,0
2096921,2096921,194689,634544,0
2096921,2096921,194737,633621,0
2096921,2096921,194471,633296,0
2096921,2096921,194525,633076,0
2096921,2096921,194405,633644,0
2096921,2096921,194093,633493,0
2096921,2096921,194009,632913,0
2096921,2096921,193915,632383,0
2096921,2096921,194257,632472,0
2096921,2096921,193830,632183,0
2096921,2096921,193761,632491,0
2096921,2096921,193546,632061,0
2096921,2096921,193439,631732,0
2096921,2096921,193596,632006,0
2096921,2096921,193804,631692,0
2096921,2096921,193466,631833,0
2096921,2096921,193820,631185,0
2096921,2096921,193278,631406,0
2096921,2096921,193278,631427,0
2096921,2096921,193484,631485,0
2096921,2096921,193348,631351,0
2096921,2096921,193400,630889,0
2096921,2096921,193098,630963,0
2096921,2096921,193218,631154,0
2096921,2096921,193117,631067,0
2096921,2096921,193000,631007,0
2096921,2096921,193008,631018,0
2096921,2096921,192923,630871,0
2096921,2096921,193128,630738,0
2096921,2096921,193314,630636,0
2096921,2096921,193015,630784,0
2096921,2096921,193124,630798,0
2096921,2096921,193137,631073,0
2096921,2096921,193439,630875,0
2096921,2096921,193098,630766,0
2096921,2096921,192862,631063,0
2096921,2096921,193502,631146,0
2096921,2096921,193149,631224,0
2096921,2096921,193492,630795,0
2096921,2096921,193267,630740,0
2096921,2096921,193398,631190,0
2096921,2096921,193515,630882,0
2096921,2096921,193394,631007,0
2096921,2096921,193188,631203,0
2096921,2096921,193340,631095,0
2096921,2096921,193451,631005,0
2096921,2096921,193280,631216,0
2096921,2096921,193421,631193,0
2096921,2096921,193307,631069,0
2096921,2096921,193062,630955,0
2096921,2096921,193303,630842,0
2096921,2096921,193588,631170,0
2096921,2096921,193634,631393,0
2096921,2096921,193543,631429,0
2096921,2096921,193785,631414,0
2096921,2096921,193647,631356,0
2096921,2096921,193623,631702,0
2096921,2096921,193673,631889,0
2096921,2096921,193626,631787,0
2096921,2096921,193697,631715,0
2096921,2096921,193495,631627,0
2096921,2096921,193674,631801,0
2096921,2096921,194015,631776,0
2096921,2096921,193699,631964,0
2096921,2096921,193832,632163,0
2096921,2096921,194154,632185,0
2096921,2096921,193925,632362,0
2096921,2096921,194161,632358,0
2096921,2096921,194057,632038,0
2096921,2096921,194022,631859,0
2096921,2096921,194171,632434,0
2096921,2096921,194480,632243,0
2096921,2096921,194461,632704,0
2096921,2096921,194282,632742,0
2096921,2096921,193940,632981,0
2096921,2096921,194338,632694,0
2096921,2096921,194328,633144,0
2096921,2096921,194367,633182,0
2096921,2096921,194503,632987,0
2096921,2096921,194237,632801,0
2096921,2096921,194564,632935,0
2096921,2096921,194568,632951,0
2096921,2096921,194781,633157,0
2096921,2096921,194681,633115,0
2096921,2096921,194300,633084,0
2096921,2096921,194607,633338,0
2096921,2096921,194707,633553,0
2096921,2096921,194768,633471,0
2096921,2096921,194671,633400,0
2096921,2096921,194843,633488,0
2096921,2096921,194861,633297,0
2096921,2096921,194993,633415,0
2096921,2096921,194981,633759,0
2096921,2096921,195061,633849,0
2096921,2096921,195143,633934,0
2096921,2096921,195044,633936,0
2096921,2096921,195233,634429,0
2096921,2096921,195144,633935,0
2096921,2096921,195292,634374,0
2096921,2096921,195214,634010,0
2096921,2096921,195264,634445,0
2096921,2096921,195626,634579,0
2096921,2096921,195777,634656,0
2096921,2096921,195659,634746,0
2096921,2096921,195779,634490,0
2096921,2096921,195625,634410,0
2096921,2096921,195718,634893,0
2096921,2096921,195612,635111,0
2096921,2096921,195507,634774,0
2096921,2096921,195563,634853,0
2096921,2096921,195741,634728,0
2096921,2096921,195818,635214,0
2096921,2096921,196017,635045,0
2096921,2096921,195707,634940,0
2096921,2096921,196074,635342,0
2096921,2096921,195770,635120,0
2096921,2096921,195628,635067,0
2096921,2096921,195950,635224,0
2096921,2096921,196003,635050,0
2096921,2096921,195962,635305,0
2096921,2096921,195792,635433,0
2096921,2096921,195504,635452,0
2096921,2096921,195886,635461,0
2096921,2096921,195856,635394,0
2096921,2096921,195962,635625,0
2096921,2096921,195932,635456,0
2096921,2096921,196089,635667,0
2096921,2096921,196105,635744,0
2096921,2096921,195896,635429,0
2096921,2096921,195835,635627,0
2096921,2096921,196275,635578,0
2096921,2096921,195966,635841,0
2096921,2096921,195924,635536,0
2096921,2096921,196180,635634,0
2096921,2096921,195998,635954,0
2096921,2096921,195973,635552,0
2096921,2096921,195835,635733,0
2096921,2096921,195928,635575,0
2096921,2096921,196050,635294,0
2096921,2096921,196264,635421,0
2096921,2096921,195894,635583,0
2096921,2096921,195985,635739,0
2096921,2096921,195828,635553,0
2096921,2096921,195758,635573,0
2096921,2096921,195907,635544,0
2096921,2096921,195917,635331,0
2096921,2096921,195897,635364,0
2096921,2096921,196152,635266,0
2096921,2096921,196143,635369,0
2096921,2096921,196191,635195,0
2096921,2096921,196139,635512,0
2096921,2096921,195989,635267,0
2096921,2096921,195847,634934,0
2096921,2096921,195706,635037,0
2096921,2096921,195634,635100,0
2096921,2096921,195682,635145,0
2096921,2096921,195759,634904,0
2096921,2096921,195892,635238,0
2096921,2096921,195813,634959,0
2096921,2096921,195555,634950,0
2096921,2096921,195703,634605,0
2096921,2096921,195616,634739,0
2096921,2096921,195566,634767,0
2096921,2096921,195701,634858,0
2096921,2096921,195532,634761,0
2096921,2096921,195596,634710,0
2096921,2096921,195410,634608,0
2096921,2096921,195461,634590,0
2096921,2096921,195247,634833,0
2096921,2096921,195409,634571,0
2096921,2096921,195413,634852,0
2096921,2096921,195610,634287,0
2096921,2096921,195749,634500,0
2096921,2096921,195163,634506,0
2096921,2096921,195409,634680,0
2096921,2096921,195500,634374,0
2096921,2096921,195502,634654,0
2096921,2096921,195581,634963,0
2096921,2096921,195534,634537,0
2096921,2096921,195498,634403,0
2096921,2096921,195768,634262,0
2096921,2096921,195634,634530,0
2096921,2096921,195900,634253,0
2096921,2096921,195689,634573,0
2096921,2096921,195627,634712,0
2096921,2096921,195782,634756,0
2096921,2096921,195447,634657,0
2096921,2096921,195635,634546,0
2096921,2096921,195302,634446,0
2096921,2096921,195489,634454,0
2096921,2096921,195563,634063,0
2096921,2096921,195613,634355,0
2096921,2096921,195505,634586,0
2096921,2096921,195473,634613,0
2096921,2096921,195476,634800,0
2096921,2096921,195658,634250,0
2096921,2096921,195670,634731,0
2096921,2096921,195822,634622,0
2096921,2096921,195777,634583,0
2096921,2096921,195741,634543,0
2096921,2096921,195889,634432,0
2096921,2096921,195870,634772,0
2096921,2096921,195694,635324,0
2096921,2096921,196140,635158,0
2096921,2096921,195885,635038,0
2096921,2096921,195920,634989,0
2096921,2096921,195988,634978,0
2096921,2096921,195860,635143,0
2096921,2096921,195950,635001,0
2096921,2096921,195736,634899,0
2096921,2096921,195545,635117,0
2096921,2096921,196034,635069,0
2096921,2096921,195984,635147,0
2096921,2096921,196117,635326,0
2096921,2096921,196171,635316,0
2096921,2096921,196044,635437,0
2096921,2096921,195997,635157,0
2096921,2096921,195936,635494,0
2096921,2096921,196015,635564,0
2096921,2096921,196197,635240,0
2096921,2096921,196495,635142,0
2096921,2096921,196350,635600,0
2096921,2096921,196413,635546,0
2096921,2096921,196130,635809,0
2096921,2096921,196573,635636,0
2096921,2096921,196358,635637,0
2096921,2096921,196564,635897,0
2096921,2096921,196481,635774,0
2096921,2096921,196250,635576,0
2096921,2096921,196282,635796,0
2096921,2096921,196366,635673,0
2096921,2096921,196426,635475,0
2096921,2096921,196360,635910,0
2096921,2096921,196377,635678,0
2096921,2096921,196500,635940,0
2096921,2096921,196640,635955,0
2096921,2096921,196360,635758,0
2096921,2096921,196657,636064,0
2096921,2096921,196547,635680,0
2096921,2096921,196501,635741,0
2096921,2096921,196199,635863,0
2096921,2096921,196511,636173,0
2096921,2096921,196584,635941,0
2096921,2096921,196853,635911,0
2096921,2096921,196645,636269,0
2096921,2096921,196509,636184,0
2096921,2096921,196879,636347,0
2096921,2096921,196970,636484,0
2096921,2096921,196774,636092,0
2096921,2096921,196667,636196,0
2096921,2096921,196768,636178,0
2096921,2096921,196856,636364,0
2096921,2096921,196689,636675,0
2096921,2096921,196836,636521,0
2096921,2096921,196910,636658,0
2096921,2096921,196843,636289,0
2096921,2096921,197006,636239,0
2096921,2096921,196963,636332,0
2096921,2096921,196620,636446,0
2096921,2096921,196598,636271,0
2096921,2096921,196381,636444,0
2096921,2096921,196966,636328,0
2096921,2096921,196635,636497,0
2096921,2096921,197013,636461,0
2096921,2096921,196956,636647,0
2096921,2096921,196921,636640,0
2096921,2096921,197208,636608,0
2096921,2096921,196892,636804,0
2096921,2096921,197077,636803,0
2096921,2096921,197091,636795,0
2096921,2096921,197023,636855,0
2096921,2096921,196979,636577,0
2096921,2096921,196929,636731,0
2096921,2096921,196880,636639,0
2096921,2096921,197154,636799,0
2096921,2096921,197116,636999,0
2096921,2096921,196999,637036,0
2096921,2096921,197103,637361,0
2096921,2096921,196886,637004,0
2096921,2096921,197283,636605,0
2096921,2096921,197270,636587,0
2096921,2096921,197132,636962,0
2096921,2096921,197031,636883,0
2096921,2096921,197507,636803,0
2096921,2096921,197447,637091,0
2096921,2096921,197512,636783,0
2096921,2096921,197310,637043,0
2096921,2096921,197623,637192,0
2096921,2096921,197213,637217,0
2096921,2096921,197270,637145,0
2096921,2096921,197400,636782,0
2096921,2096921,197146,636915,0
2096921,2096921,197427,637101,0
2096921,2096921,197319,637212,0
2096921,2096921,197567,637393,0
2096921,2096921,197544,637113,0
2096921,2096921,197313,637253,0
2096921,2096921,197641,637294,0
2096921,2096921,197572,637241,0
2096921,2096921,197502,637321,0
2096921,2096921,197269,636741,0
2096921,2096921,197350,637136,0
2096921,2096921,197515,637240,0
2096921,2096921,197721,637176,0
2096921,2096921,197238,637134,0
2096921,2096921,197551,636989,0
2096921,2096921,197513,636977,0
2096921,2096921,197649,637270,0
2096921,2096921,197440,637018,0
2096921,2096921,197438,637280,0
2096921,2096921,197550,637148,0
2096921,2096921,197404,637374,0
2096921,2096921,197373,637595,0
2096921,2096921,197561,637131,0
2096921,2096921,197541,637177,0
2096921,2096921,197511,637188,0
2096921,2096921,197508,637332,0
2096921,2096921,197575,637386,0
2096921,2096921,197609,637191,0
2096921,2096921,197519,637172,0
2096921,2096921,197934,636840,0
2096921,2096921,197775,637440,0
2096921,2096921,197611,637498,0
2096921,2096921,197700,637381,0
2096921,2096921,197666,637087,0
2096921,2096921,197731,637217,0
2096921,2096921,197932,637150,0
2096921,2096921,197891,637320,0
2096921,2096921,197535,637487,0
2096921,2096921,197498,637253,0
2096921,2096921,197284,637375,0
2096921,2096921,197965,637193,0
2096921,2096921,197849,637179,0
2096921,2096921,197761,637245,0
2096921,2096921,197595,637076,0
2096921,2096921,197450,637303,0
2096921,2096921,197447,637646,0
2096921,2096921,197711,637235,0
2096921,2096921,197663,637383,0
2096921,2096921,197614,637150,0
2096921,2096921,197542,637634,0
2096921,2096921,197666,637371,0
2096921,2096921,198016,637041,0
2096921,2096921,197894,637526,0
2096921,2096921,197568,637350,0
2096921,2096921,197547,637445,0
2096921,2096921,197709,637518,0
2096921,2096921,198010,637589,0
2096921,2096921,197554,637308,0
2096921,2096921,197332,637106,0
2096921,2096921,197894,637141,0
2096921,2096921,197601,637380,0
2096921,2096921,197698,637667,0
2096921,2096921,198034,637533,0
2096921,2096921,197713,637461,0
2096921,2096921,198138,636847,0
2096921,2096921,197857,636753,0
2096921,2096921,197899,637490,0
2096921,2096921,197822,636991,0
2096921,2096921,197551,637217,0
2096921,2096921,197791,637477,0
2096921,2096921,197690,636956,0
2096921,2096921,197544,637457,0
2096921,2096921,197652,636947,0
2096921,2096921,197881,637231,0
2096921,2096921,197678,637278,0
2096921,2096921,197694,637310,0
2096921,2096921,198036,637104,0
2096921,2096921,197791,637140,0
2096921,2096921,197484,637142,0
2096921,2096921,197338,637443,0
2096921,2096921,197452,637456,0
2096921,2096921,197730,637260,0
2096921,2096921,198046,637396,0
2096921,2096921,197949,637231,0
2096921,2096921,197722,637322,0
2096921,2096921,197827,637404,0
2096921,2096921,197962,637247,0
2096921,2096921,197915,637626,0
2096921,2096921,197920,637187,0
2096921,2096921,197846,637064,0
2096921,2096921,197999,637054,0
2096921,2096921,197723,637147,0
2096921,2096921,197684,637358,0
2096921,2096921,197817,637460,0
2096921,2096921,197711,637252,0
2096921,2096921,197820,637140,0
2096921,2096921,197865,637116,0
2096921,2096921,197695,637316,0
2096921,2096921,197661,637168,0
2096921,2096921,197793,637104,0
2096921,2096921,197621,637037,0
2096921,2096921,197621,636722,0
2096921,2096921,197835,637013,0
2096921,2096921,197842,637006,0
2096921,2096921,197760,637343,0
2096921,2096921,197823,637153,0
2096921,2096921,197953,637208,0
2096921,2096921,198089,636983,0
2096921,2096921,197779,636785,0
2096921,2096921,197993,636915,0
2096921,2096921,197930,636866,0
2096921,2096921,197632,636977,0
2096921,2096921,197934,637029,0
2096921,2096921,197663,637076,0
2096921,2096921,197840,637401,0
2096921,2096921,197670,637164,0
2096921,2096921,197622,637121,0
2096921,2096921,197812,636983,0
2096921,2096921,197609,636769,0
2096921,2096921,197563,637065,0
2096921,2096921,197867,636558,0
2096921,2096921,197681,636637,0
2096921,2096921,197732,636715,0
2096921,2096921,197766,636964,0
2096921,2096921,197734,636920,0
2096921,2096921,197816,637116,0
2096921,2096921,197705,636977,0
2096921,2096921,197641,636825,0
2096921,2096921,197566,636721,0
2096921,2096921,197739,636588,0
2096921,2096921,197597,636833,0
2096921,2096921,197661,636448,0
2096921,2096921,197578,636981,0
2096921,2096921,197580,636819,0
2096921,2096921,197789,636699,0
2096921,2096921,197847,636535,0
2096921,2096921,197812,636271,0
2096921,2096921,197629,636576,0
2096921,2096921,197692,636628,0
2096921,2096921,197911,636518,0
2096921,2096921,197547,636627,0
2096921,2096921,197852,636315,0
2096921,2096921,197966,636546,0
2096921,2096921,197627,636808,0
2096921,2096921,197658,636570,0
2096921,2096921,197722,636308,0
2096921,2096921,197342,636224,0
2096921,2096921,197489,636216,0
2096921,2096921,197410,636432,0
2096921,2096921,197660,636264,0
2096921,2096921,197580,636535,0
2096921,2096921,197730,636473,0
2096921,2096921,197768,636252,0
2096921,2096921,197692,636599,0
2096921,2096921,197664,636343,0
2096921,2096921,197666,636298,0
2096921,2096921,197661,636395,0
2096921,2096921,197721,636374,0
2096921,2096921,197486,636218,0
2096921,2096921,197469,636278,0
2096921,2096921,197544,636169,0
2096921,2096921,197196,635950,0
2096921,2096921,197646,636162,0
2096921,2096921,197483,636306,0
2096921,2096921,197401,636170,0
2096921,2096921,197672,636143,0
2096921,2096921,197638,636074,0
2096921,2096921,197484,636179,0
2096921,2096921,197489,636034,0
2096921,2096921,197318,636040,0
2096921,2096921,197301,635622,0
2096921,2096921,197301,635510,0
2096921,2096921,197561,635873,0
2096921,2096921,197328,635520,0
2096921,2096921,197047,635516,0
2096921,2096921,197067,635263,0
2096921,2096921,197276,635243,0
2096921,2096921,196817,635170,0
2096921,2096921,196989,635119,0
2096921,2096921,196776,634820,0
2096921,2096921,196690,634643,0
2096921,2096921,196660,634436,0
2096921,2096921,196844,634764,0
2096921,2096921,196768,634607,0
2096921,2096921,196283,634669,0
2096921,2096921,196300,634069,0
2096921,2096921,196423,634014,0
2096921,2096921,196449,633941,0
2096921,2096921,195863,633647,0
2096921,2096921,196034,633426,0
2096921,2096921,196057,633079,0
2096921,2096921,196000,632829,0
2096921,2096921,195958,632931,0
2096921,2096921,195849,633216,0
2096921,2096921,194993,632712,0
2096921,2096921,194953,631307,0
2096921,2096921,194791,631107,0
2096921,2096921,195015,631104,0
2096921,2096921,194698,630923,0
2096921,2096921,193922,630806,0
2096921,2096921,193467,629338,0
2096921,2096921,193755,629122,0
2096921,2096921,194139,628964,0
2096921,2096921,194092,628907,0
2096921,2096921,193370,629201,0
2096921,2096921,193167,627807,0
2096921,2096921,192982,627375,0
2096921,2096921,192787,627179,0
2096921,2096921,192908,627269,0
2096921,2096921,192384,627201,0
2096921,2096921,192513,626335,0
2096921,2096921,191975,626154,0
2096921,2096921,192177,625895,0
2096921,2096921,192150,625826,0
2096921,2096921,191527,625606,0
2096921,2096921,191848,625347,0
2096921,2096921,191369,624920,0
2096921,2096921,191507,625366,0
2096921,2096921,191599,625008,0
2096921,2096921,191102,624996,0
2096921,2096921,191117,624669,0
2096921,2096921,191009,624425,0
2096921,2096921,190863,624172,0
2096921,2096921,191140,624364,0
2096921,2096921,191148,624817,0
2096921,2096921,191329,624004,0
2096921,2096921,191044,623946,0
2096921,2096921,191046,624009,0
2096921,2096921,191086,624024,0
2096921,2096921,190828,623820,0
2096921,2096921,191020,623941,0
2096921,2096921,190766,623704,0
2096921,2096921,190948,623632,0
2096921,2096921,190863,623713,0
2096921,2096921,190925,623586,0
2096921,2096921,190804,623391,0
2096921,2096921,191037,623478,0
2096921,2096921,190861,623389,0
2096921,2096921,190688,623572,0
2096921,2096921,190531,623704,0
2096921,2096921,190560,623287,0
2096921,2096921,190972,623175,0
2096921,2096921,190769,623250,0
2096921,2096921,190670,623154,0
2096921,2096921,190966,623199,0
2096921,2096921,190705,623279,0
2096921,2096921,191005,623311,0
2096921,2096921,191074,623115,0
2096921,2096921,190805,623191,0
2096921,2096921,190930,623177,0
2096921,2096921,190756,623061,0
2096921,2096921,190931,623230,0
2096921,2096921,190802,623429,0
2096921,2096921,190977,623322,0
2096921,2096921,190955,623344,0
2096921,2096921,190936,623458,0
2096921,2096921,190855,623260,0
2096921,2096921,190904,623419,0
2096921,2096921,190717,623085,0
2096921,2096921,190830,623291,0
2096921,2096921,191020,623557,0
2096921,2096921,191119,623665,0
2096921,2096921,190964,623649,0
2096921,2096921,190830,623995,0
2096921,2096921,191246,623768,0
2096921,2096921,190780,623848,0
2096921,2096921,190990,623763,0
2096921,2096921,190992,623500,0
2096921,2096921,190963,623426,0
2096921,2096921,191219,623669,0
2096921,2096921,191118,623935,0
2096921,2096921,191187,623969,0
2096921,2096921,191327,624016,0
2096921,2096921,191332,624126,0
2096921,2096921,191204,624399,0
2096921,2096921,191792,624509,0
2096921,2096921,191373,624402,0
2096921,2096921,191362,624425,0
2096921,2096921,191664,624167,0
2096921,2096921,191608,624312,0
2096921,2096921,191709,624161,0
2096921,2096921,191377,624318,0
2096921,2096921,191750,624532,0
2096921,2096921,191506,624581,0
2096921,2096921,191825,624521,0
2096921,2096921,191874,624986,0
2096921,2096921,191601,624627,0
2096921,2096921,191683,624950,0
2096921,2096921,191518,624602,0
2096921,2096921,191778,624693,0
2096921,2096921,192098,624766,0
2096921,2096921,192134,624598,0
2096921,2096921,191863,624813,0
2096921,2096921,192046,624845,0
2096921,2096921,192038,625137,0
2096921,2096921,192277,625324,0
2096921,2096921,191970,625212,0
2096921,2096921,192049,625116,0
2096921,2096921,191943,624969,0
2096921,2096921,191904,625068,0
2096921,2096921,192086,625060,0
2096921,2096921,192391,625246,0
2096921,2096921,192209,625216,0
2096921,2096921,192157,625160,0
2096921,2096921,192210,625611,0
2096921,2096921,192313,625611,0
2096921,2096921,192497,625802,0
2096921,2096921,192458,625726,0
2096921,2096921,192451,625915,0
2096921,2096921,192726,625894,0
2096921,2096921,193020,625959,0
2096921,2096921,193008,625892,0
2096921,2096921,192686,625966,0
2096921,2096921,192983,626035,0
2096921,2096921,192738,626160,0
2096921,2096921,192791,626331,0
2096921,2096921,192726,626129,0
2096921,2096921,192631,625845,0
2096921,2096921,192483,626307,0
2096921,2096921,192923,626391,0
2096921,2096921,192592,626242,0
2096921,2096921,192642,626705,0
2096921,2096921,193064,626093,0
2096921,2096921,192823,626318,0
2096921,2096921,193116,626645,0
2096921,2096921,193220,626710,0
2096921,2096921,192969,626612,0
2096921,2096921,193043,626549,0
2096921,2096921,193193,626587,0
2096921,2096921,193223,626661,0
2096921,2096921,192972,626560,0
2096921,2096921,192932,626675,0
2096921,2096921,192850,626674,0
2096921,2096921,193319,626779,0
2096921,2096921,193215,626576,0
2096921,2096921,193105,626826,0
2096921,2096921,193012,626740,0
2096921,2096921,193105,626508,0
2096921,2096921,193173,626716,0
2096921,2096921,193238,626490,0
2096921,2096921,193233,626508,0
2096921,2096921,193187,626212,0
2096921,2096921,193303,626403,0
2096921,2096921,193411,626580,0
2096921,2096921,193063,626925,0
2096921,2096921,193475,626316,0
2096921,2096921,193157,626532,0
2096921,2096921,193148,626594,0
2096921,2096921,192921,626340,0
2096921,2096921,192858,626337,0
2096921,2096921,192990,626215,0
2096921,2096921,193193,626244,0
2096921,2096921,193344,626410,0
2096921,2096921,193336,626318,0
2096921,2096921,193141,626540,0
2096921,2096921,193094,626165,0
2096921,2096921,193074,626003,0
2096921,2096921,193124,626257,0
2096921,2096921,193193,625897,0
2096921,2096921,192787,626093,0
2096921,2096921,192826,626072,0
2096921,2096921,192708,625937,0
2096921,2096921,192836,626009,0
2096921,2096921,193217,625898,0
2096921,2096921,192991,625773,0
2096921,2096921,193223,625694,0
2096921,2096921,192944,625412,0
2096921,2096921,192833,625692,0
2096921,2096921,192653,625742,0
2096921,2096921,192584,625505,0
2096921,2096921,192576,625461,0
2096921,2096921,192586,625504,0
2096921,2096921,192778,625473,0
2096921,2096921,192861,625454,0
2096921,2096921,193088,625143,0
2096921,2096921,192426,625406,0
2096921,2096921,192734,625332,0
2096921,2096921,192514,625093,0
2096921,2096921,192478,625376,0
2096921,2096921,192610,625172,0
2096921,2096921,192682,625180,0
2096921,2096921,192434,625079,0
2096921,2096921,192648,624795,0
2096921,2096921,192797,625175,0
2096921,2096921,192490,625194,0
2096921,2096921,192642,625079,0
2096921,2096921,192633,624977,0
2096921,2096921,192334,624926,0
2096921,2096921,192418,624970,0
2096921,2096921,192367,625182,0
2096921,2096921,192240,624967,0
2096921,2096921,192388,625007,0
2096921,2096921,192673,624843,0
2096921,2096921,192478,624903,0
2096921,2096921,192254,624882,0
2096921,2096921,192162,624666,0
2096921,2096921,192410,624671,0
2096921,2096921,192624,624914,0
2096921,2096921,192599,624803,0
2096921,2096921,192521,624764,0
2096921,2096921,192546,624943,0
2096921,2096921,192292,624843,0
2096921,2096921,192339,625158,0
2096921,2096921,192565,624993,0
2096921,2096921,192442,625034,0
2096921,2096921,192718,625130,0
2096921,2096921,192679,625067,0
2096921,2096921,192572,625161,0
2096921,2096921,192619,624902,0
2096921,2096921,192567,624969,0
2096921,2096921,192774,625059,0
2096921,2096921,192896,625067,0
2096921,2096921,192561,625037,0
2096921,2096921,192746,625226,0
2096921,2096921,192711,625324,0
2096921,2096921,193178,625157,0
2096921,2096921,193102,625154,0
2096921,2096921,192901,625170,0
2096921,2096921,192796,625357,0
2096921,2096921,193052,625693,0
2096921,2096921,193051,625324,0
2096921,2096921,192960,625582,0
2096921,2096921,193223,625654,0
2096921,2096921,193108,625369,0
2096921,2096921,193090,625468,0
2096921,2096921,193123,625598,0
2096921,2096921,192946,625570,0
2096921,2096921,192841,625329,0
2096921,2096921,192981,625505,0
2096921,2096921,193210,625491,0
2096921,2096921,192842,625671,0
2096921,2096921,192854,625866,0
2096921,2096921,193367,625608,0
2096921,2096921,193280,625454,0
2096921,2096921,193262,625762,0
2096921,2096921,193412,625883,0
2096921,2096921,193413,625941,0
2096921,2096921,193189,625799,0
2096921,2096921,193125,625874,0
2096921,2096921,193206,625855,0
2096921,2096921,193242,625704,0
2096921,2096921,193254,626010,0
2096921,2096921,193498,625910,0
2096921,2096921,193438,625727,0
2096921,2096921,193239,625827,0
2096921,2096921,193296,625661,0
2096921,2096921,193474,625871,0
2096921,2096921,193361,625756,0
2096921,2096921,193505,625864,0
2096921,2096921,193313,625793,0
2096921,2096921,193456,626019,0
2096921,2096921,193601,625877,0
2096921,2096921,193308,625963,0
2096921,2096921,193506,626184,0
2096921,2096921,193398,626201,0
2096921,2096921,193513,626450,0
2096921,2096921,193362,626215,0
2096921,2096921,193563,626207,0
2096921,2096921,193815,626275,0
2096921,2096921,193767,626020,0
2096921,2096921,193480,626359,0
2096921,2096921,193669,626396,0
2096921,2096921,193448,626305,0
2096921,2096921,193516,626332,0
2096921,2096921,193608,626325,0
2096921,2096921,193754,626460,0
2096921,2096921,193654,626028,0
2096921,2096921,193502,626190,0
2096921,2096921,193737,626496,0
2096921,2096921,193852,626197,0
2096921,2096921,193841,626198,0
2096921,2096921,193955,626430,0
2096921,2096921,194089,626477,0
2096921,2096921,193824,626173,0
2096921,2096921,193983,626332,0
2096921,2096921,193909,626557,0
2096921,2096921,193850,626555,0
2096921,2096921,193791,626620,0
2096921,2096921,193681,626378,0
2096921,2096921,193972,626680,0
2096921,2096921,193779,626777,0
2096921,2096921,193572,626553,0
2096921,2096921,193801,626570,0
2096921,2096921,193860,626304,0
2096921,2096921,193938,626767,0
2096921,2096921,193676,626610,0
2096921,2096921,193768,626689,0
2096921,2096921,194022,626469,0
2096921,2096921,193630,626283,0
2096921,2096921,193874,626548,0
2096921,2096921,194214,626392,0
2096921,2096921,193985,626618,0
2096921,2096921,193919,626759,0
2096921,2096921,193854,626729,0
2096921,2096921,193756,626479,0
2096921,2096921,194062,626732,0
2096921,2096921,193996,626542,0
2096921,2096921,193869,626510,0
2096921,2096921,193887,626657,0
2096921,2096921,194002,626506,0
2096921,2096921,194161,626340,0
2096921,2096921,193983,626860,0
2096921,2096921,193896,626655,0
2096921,2096921,194349,626710,0
2096921,2096921,194142,626696,0
2096921,2096921,194062,626597,0
2096921,2096921,193818,626593,0
2096921,2096921,193874,626708,0
2096921,2096921,193907,626523,0
2096921,2096921,193924,626560,0
2096921,2096921,194077,626822,0
2096921,2096921,194230,626894,0
2096921,2096921,194232,626603,0
2096921,2096921,194126,626600,0
2096921,2096921,194220,626709,0
2096921,2096921,193996,626783,0
2096921,2096921,194112,626386,0
2096921,2096921,193796,626748,0
2096921,2096921,194273,626876,0
2096921,2096921,194281,626625,0
2096921,2096921,194128,626689,0
2096921,2096921,193925,626800,0
2096921,2096921,194094,626766,0
2096921,2096921,194001,626750,0
2096921,2096921,194424,626572,0
2096921,2096921,194159,626760,0
2096921,2096921,194171,626718,0
2096921,2096921,194147,626696,0
2096921,2096921,194310,626720,0
2096921,2096921,194154,626802,0
2096921,2096921,194269,626612,0
2096921,2096921,194379,626722,0
2096921,2096921,194068,626565,0
2096921,2096921,194044,626494,0
2096921,2096921,194224,626345,0
2096921,2096921,194502,626730,0
2096921,2096921,194422,626694,0
2096921,2096921,194202,626705,0
2096921,2096921,194478,626720,0
2096921,2096921,194088,626394,0
2096921,2096921,194283,626345,0
2096921,2096921,194093,626443,0
2096921,2096921,194036,626511,0
2096921,2096921,194462,626287,0
2096921,2096921,194419,626724,0
2096921,2096921,194285,626709,0
2096921,2096921,194493,626805,0
2096921,2096921,194422,626629,0
2096921,2096921,194047,626478,0
2096921,2096921,194348,626645,0
2096921,2096921,194423,626296,0
2096921,2096921,193972,626663,0
2096921,2096921,194128,626393,0
2096921,2096921,194216,626428,0
2096921,2096921,194454,626809,0
2096921,2096921,194506,626558,0
2096921,2096921,194115,626741,0
2096921,2096921,194138,626518,0
2096921,2096921,194133,626457,0
2096921,2096921,194162,626487,0
2096921,2096921,194504,626244,0
2096921,2096921,194485,626174,0
2096921,2096921,194559,626559,0
2096921,2096921,194367,626611,0
2096921,2096921,194137,626468,0
2096921,2096921,194147,626275,0
2096921,2096921,194352,626518,0
2096921,2096921,194113,626539,0
2096921,2096921,194295,626396,0
2096921,2096921,194225,626406,0
2096921,2096921,194294,626086,0
2096921,2096921,194318,626462,0
2096921,2096921,193958,626296,0
2096921,2096921,194281,626523,0
2096921,2096921,194404,626570,0
2096921,2096921,194268,626530,0
2096921,2096921,194182,626394,0
2096921,2096921,194061,626296,0
2096921,2096921,194274,626231,0
2096921,2096921,194376,626063,0
2096921,2096921,194253,626406,0
2096921,2096921,194326,626403,0
2096921,2096921,194246,626480,0
2096921,2096921,194205,626577,0
2096921,2096921,194182,626421,0
2096921,2096921,194214,626343,0
2096921,2096921,194656,626317,0
2096921,2096921,194365,626304,0
2096921,2096921,194163,626571,0
2096921,2096921,194205,626336,0
2096921,2096921,194113,626217,0
2096921,2096921,194103,625963,0
2096921,2096921,194088,626028,0
2096921,2096921,194202,626183,0
2096921,2096921,194207,626149,0
2096921,2096921,194062,626028,0
2096921,2096921,194293,625787,0
2096921,2096921,194370,626017,0
2096921,2096921,194042,626174,0
2096921,2096921,194175,626207,0
2096921,2096921,194333,626013,0
2096921,2096921,194179,625752,0
2096921,2096921,194488,625852,0
2096921,2096921,194230,626088,0
2096921,2096921,194209,626037,0
2096921,2096921,194167,625804,0
2096921,2096921,194128,625835,0
2096921,2096921,194292,626257,0
2096921,2096921,194046,626061,0
2096921,2096921,194162,626106,0
2096921,2096921,194194,625983,0
2096921,2096921,194192,626087,0
2096921,2096921,194047,626123,0
2096921,2096921,194083,626059,0
2096921,2096921,194239,626164,0
2096921,2096921,194263,625892,0
2096921,2096921,194212,625613,0
2096921,2096921,194130,625751,0
2096921,2096921,194085,625932,0
2096921,2096921,193958,626086,0
2096921,2096921,194085,626002,0
2096921,2096921,193929,625931,0
2096921,2096921,194116,625859,0
2096921,2096921,194439,626111,0
2096921,2096921,194191,625463,0
2096921,2096921,194240,625704,0
2096921,2096921,194251,625724,0
2096921,2096921,194264,625455,0
2096921,2096921,194274,625628,0
2096921,2096921,194230,625543,0
2096921,2096921,194364,625745,0
2096921,2096921,194240,625601,0
2096921,2096921,194055,625503,0
2096921,2096921,193856,625378,0
2096921,2096921,193961,625471,0
2096921,2096921,194331,625409,0
2096921,2096921,193984,625528,0
2096921,2096921,194313,625090,0
2096921,2096921,194090,625346,0
2096921,2096921,193862,625201,0
2096921,2096921,194029,625222,0
2096921,2096921,193785,625195,0
2096921,2096921,194211,625021,0
2096921,2096921,194146,625398,0
2096921,2096921,193987,625191,0
2096921,2096921,193916,625188,0
2096921,2096921,194034,624912,0
2096921,2096921,193875,625033,0
2096921,2096921,193941,625121,0
2096921,2096921,193919,624921,0
2096921,2096921,193981,625011,0
2096921,2096921,194143,624996,0
2096921,2096921,193806,624823,0
2096921,2096921,194032,624853,0
2096921,2096921,194066,625205,0
2096921,2096921,194256,625094,0
2096921,2096921,194286,625067,0
2096921,2096921,193859,625195,0
2096921,2096921,193903,624671,0
2096921,2096921,193826,624767,0
2096921,2096921,193766,624830,0
2096921,2096921,193583,624884,0
2096921,2096921,193526,625144,0
2096921,2096921,193879,624946,0
2096921,2096921,193856,625245,0
2096921,2096921,194094,624696,0
2096921,2096921,193929,624805,0
2096921,2096921,194064,624771,0
2096921,2096921,193964,624457,0
2096921,2096921,193505,624411,0
2096921,2096921,193813,624152,0
2096921,2096921,193813,624292,0
2096921,2096921,193633,624223,0
2096921,2096921,193867,624366,0
2096921,2096921,193643,624231,0
2096921,2096921,193678,624218,0
2096921,2096921,193626,623879,0
2096921,2096921,193669,623947,0
2096921,2096921,193276,623753,0
2096921,2096921,193141,623547,0
2096921,2096921,192944,623362,0
2096921,2096921,193087,623016,0
2096921,2096921,193274,623238,0
2096921,2096921,193177,623185,0
2096921,2096921,192936,622928,0
2096921,2096921,192857,622318,0
2096921,2096921,192806,622277,0
2096921,2096921,192427,622272,0
2096921,2096921,192769,622427,0
2096921,2096921,192281,622246,0
2096921,2096921,192066,621631,0
2096921,2096921,192148,621421,0
2096921,2096921,192148,621416,0
2096921,2096921,191965,621368,0
2096921,2096921,191430,620987,0
2096921,2096921,191359,620155,0
2096921,2096921,191246,619802,0
2096921,2096921,191176,619790,0
2096921,2096921,191279,619668,0
2096921,2096921,190579,619171,0
2096921,2096921,190212,617988,0
2096921,2096921,190221,617699,0
2096921,2096921,190135,617714,0
2096921,2096921,190571,617461,0
2096921,2096921,189573,617172,0
2096921,2096921,189368,616354,0
2096921,2096921,189293,616295,0
2096921,2096921,189240,615816,0
2096921,2096921,189107,615940,0
2096921,2096921,188609,615790,0
2096921,2096921,188786,615140,0
2096921,2096921,188445,614667,0
2096921,2096921,188630,614768,0
2096921,2096921,188837,615137,0
2096921,2096921,188305,614621,0
2096921,2096921,188398,613736,0
2096921,2096921,188509,613485,0
2096921,2096921,188273,613581,0
2096921,2096921,188109,613850,0
2096921,2096921,187712,613522,0
2096921,2096921,187667,612806,0
2096921,2096921,187579,613114,0
2096921,2096921,187854,612827,0
2096921,2096921,187668,613093,0
2096921,2096921,187531,612632,0
2096921,2096921,187655,612433,0
2096921,2096921,187399,612340,0
2096921,2096921,187637,612618,0
2096921,2096921,187369,612573,0
2096921,2096921,187229,612375,0
2096921,2096921,186979,612401,0
2096921,2096921,187217,612387,0
2096921,2096921,187404,612103,0
2096921,2096921,187533,612237,0
2096921,2096921,187226,612202,0
2096921,2096921,187165,611940,0
2096921,2096921,187301,611961,0
2096921,2096921,187196,611839,0
2096921,2096921,187224,611872,0
2096921,2096921,187086,611615,0
2096921,2096921,187057,611804,0
2096921,2096921,187144,611841,0
2096921,2096921,187086,611727,0
2096921,2096921,187196,611937,0
2096921,2096921,187420,611908,0
2096921,2096921,187169,612185,0
2096921,2096921,187255,611854,0
2096921,2096921,187696,611867,0
2096921,2096921,187031,611999,0
2096921,2096921,187152,611932,0
2096921,2096921,187149,611768,0
2096921,2096921,187170,611989,0
2096921,2096921,187113,611620,0
2096921,2096921,187315,611818,0
2096921,2096921,187334,611954,0
2096921,2096921,187196,611926,0
2096921,2096921,187376,612095,0
2096921,2096921,187199,611822,0
2096921,2096921,187434,611856,0
2096921,2096921,187008,612096,0
2096921,2096921,187161,611720,0
2096921,2096921,187187,611921,0
2096921,2096921,187494,612149,0
2096921,2096921,187394,612153,0
2096921,2096921,187387,612270,0
2096921,2096921,187705,612394,0
2096921,2096921,187607,611967,0
2096921,2096921,187644,612499,0
2096921,2096921,187638,612182,0
2096921,2096921,187672,612317,0
2096921,2096921,187759,612573,0
2096921,2096921,187950,612681,0
2096921,2096921,187661,612589,0
2096921,2096921,187707,612625,0
2096921,2096921,187654,612833,0
2096921,2096921,188007,612635,0
2096921,2096921,187922,612629,0
2096921,2096921,187776,613051,0
2096921,2096921,188006,612891,0
2096921,2096921,188384,612767,0
2096921,2096921,188372,613094,0
2096921,2096921,188310,612889,0
2096921,2096921,188083,613201,0
2096921,2096921,188139,612834,0
2096921,2096921,188240,612955,0
2096921,2096921,188287,613059,0
2096921,2096921,188143,612928,0
2096921,2096921,188116,613384,0
2096921,2096921,188239,613028,0
2096921,2096921,188421,613215,0
2096921,2096921,188528,613329,0
2096921,2096921,188593,613598,0
2096921,2096921,188544,613152,0
2096921,2096921,188359,613379,0
2096921,2096921,188286,613625,0
2096921,2096921,188327,613747,0
2096921,2096921,188448,613769,0
2096921,2096921,188482,613502,0
2096921,2096921,188349,613694,0
2096921,2096921,188402,613606,0
2096921,2096921,188542,613952,0
2096921,2096921,188722,613841,0
2096921,2096921,188603,613977,0
2096921,2096921,188674,613900,0
2096921,2096921,188688,614002,0
2096921,2096921,188810,614032,0
2096921,2096921,189054,614315,0
2096921,2096921,189048,614328,0
2096921,2096921,189054,614311,0
2096921,2096921,188981,614350,0
2096921,2096921,188941,614013,0
2096921,2096921,188877,614564,0
2096921,2096921,188990,613870,0
2096921,2096921,189105,614188,0
2096921,2096921,189184,614372,0
2096921,2096921,188992,614399,0
2096921,2096921,189101,614584,0
2096921,2096921,189110,614440,0
2096921,2096921,188994,614867,0
2096921,2096921,189149,614813,0
2096921,2096921,189047,614853,0
2096921,2096921,189233,614893,0
2096921,2096921,189125,614629,0
2096921,2096921,189143,614958,0
2096921,2096921,189626,615091,0
2096921,2096921,189339,615112,0
2096921,2096921,189350,615555,0
2096921,2096921,189584,615030,0
2096921,2096921,189418,614926,0
2096921,2096921,189382,614807,0
2096921,2096921,189407,615001,0
2096921,2096921,189555,615335,0
2096921,2096921,189557,615313,0
2096921,2096921,189533,615230,0
2096921,2096921,189604,615087,0
2096921,2096921,189507,615286,0
2096921,2096921,189549,615018,0
2096921,2096921,189364,615063,0
2096921,2096921,189181,615154,0
2096921,2096921,189502,615148,0
2096921,2096921,189542,614852,0
2096921,2096921,189619,615066,0
2096921,2096921,189592,615046,0
2096921,2096921,189626,615388,0
2096921,2096921,189378,615499,0
2096921,2096921,189832,615091,0
2096921,2096921,189345,615159,0
2096921,2096921,189748,614859,0
2096921,2096921,189524,615020,0
2096921,2096921,189318,615197,0
2096921,2096921,189645,615046,0
2096921,2096921,189514,614857,0
2096921,2096921,189659,614750,0
2096921,2096921,189521,614923,0
2096921,2096921,189676,614887,0
2096921,2096921,189525,614613,0
2096921,2096921,189497,614856,0
2096921,2096921,189388,614634,0
2096921,2096921,189287,614558,0
2096921,2096921,189248,614707,0
2096921,2096921,188929,614600,0
2096921,2096921,189201,614471,0
2096921,2096921,189255,614207,0
2096921,2096921,189577,614304,0
2096921,2096921,189454,614358,0
2096921,2096921,189547,614128,0
2096921,2096921,189038,614245,0
2096921,2096921,189072,614222,0
2096921,2096921,189062,614111,0
2096921,2096921,189166,614250,0
2096921,2096921,189033,613763,0
2096921,2096921,188974,614065,0
2096921,2096921,188933,614203,0
2096921,2096921,189363,614181,0
2096921,2096921,188828,614226,0
2096921,2096921,188656,613997,0
2096921,2096921,188677,613779,0
2096921,2096921,188755,613760,0
2096921,2096921,188752,613704,0
2096921,2096921,188627,613774,0
2096921,2096921,188802,613512,0
2096921,2096921,188901,613851,0
2096921,2096921,189150,613537,0
2096921,2096921,189038,613996,0
2096921,2096921,189083,613642,0
2096921,2096921,188663,613776,0
2096921,2096921,188908,613593,0
2096921,2096921,188890,613658,0
2096921,2096921,189007,613473,0
2096921,2096921,188763,613384,0
2096921,2096921,188921,613503,0
2096921,2096921,188765,613188,0
2096921,2096921,188913,613707,0
2096921,2096921,188909,613824,0
2096921,2096921,189123,613689,0
2096921,2096921,189113,613564,0
2096921,2096921,189041,613550,0
2096921,2096921,189042,613545,0
2096921,2096921,188651,613263,0
2096921,2096921,188941,613560,0
2096921,2096921,188877,613762,0
2096921,2096921,189104,613682,0
2096921,2096921,188730,613836,0
2096921,2096921,188996,613780,0
2096921,2096921,189028,613662,0
2096921,2096921,189087,613927,0
2096921,2096921,189267,613931,0
2096921,2096921,189151,613793,0
2096921,2096921,189140,613871,0
2096921,2096921,189176,613606,0
2096921,2096921,189178,613765,0
2096921,2096921,188981,613764,0
2096921,2096921,188938,613666,0
2096921,2096921,189121,613417,0
2096921,2096921,189215,613748,0
2096921,2096921,189382,613977,0
2096921,2096921,189162,613938,0
2096921,2096921,189293,613874,0
2096921,2096921,188971,614029,0
2096921,2096921,188950,614205,0
2096921,2096921,189237,614046,0
2096921,2096921,189547,614139,0
2096921,2096921,189488,614271,0
2096921,2096921,189688,614326,0
2096921,2096921,189633,614253,0
2096921,2096921,189361,614017,0
2096921,2096921,189240,614156,0
2096921,2096921,189244,614406,0
2096921,2096921,189111,614170,0
2096921,2096921,189265,614370,0
2096921,2096921,189379,614392,0
2096921,2096921,189543,614668,0
2096921,2096921,189368,614474,0
2096921,2096921,189394,614585,0
2096921,2096921,189165,614431,0
2096921,2096921,189468,614615,0
2096921,2096921,189653,614584,0
2096921,2096921,189615,614455,0
2096921,2096921,189605,614203,0
2096921,2096921,189586,614268,0
2096921,2096921,189221,614341,0
2096921,2096921,189570,614614,0
2096921,2096921,189588,614357,0
2096921,2096921,189943,614337,0
2096921,2096921,189885,614713,0
2096921,2096921,189798,614721,0
2096921,2096921,189919,614786,0
2096921,2096921,189634,614632,0
2096921,2096921,189656,614544,0
2096921,2096921,189987,614508,0
2096921,2096921,190142,614666,0
2096921,2096921,189805,614593,0
2096921,2096921,190050,614932,0
2096921,2096921,189833,614898,0
2096921,2096921,189992,614717,0
2096921,2096921,189871,614516,0
2096921,2096921,189765,614955,0
2096921,2096921,189674,614975,0
2096921,2096921,189685,614834,0
2096921,2096921,190002,614898,0
2096921,2096921,190113,614738,0
2096921,2096921,190308,614843,0
2096921,2096921,189939,614927,0
2096921,2096921,189898,614849,0
2096921,2096921,189937,614996,0
2096921,2096921,190079,614893,0
2096921,2096921,190095,614857,0
2096921,2096921,190158,615032,0
2096921,2096921,190107,614713,0
2096921,2096921,190142,615310,0
2096921,2096921,189951,615028,0
2096921,2096921,190073,615175,0
2096921,2096921,190349,614889,0
2096921,2096921,190240,615047,0
2096921,2096921,190364,615282,0
2096921,2096921,190104,615267,0
2096921,2096921,190037,615229,0
2096921,2096921,190083,615037,0
2096921,2096921,190064,614788,0
2096921,2096921,190334,614956,0
2096921,2096921,190253,614792,0
2096921,2096921,189969,615337,0
2096921,2096921,190063,615035,0
2096921,2096921,190003,615281,0
2096921,2096921,190299,615307,0
2096921,2096921,190373,615491,0
2096921,2096921,190277,615580,0
2096921,2096921,190566,615319,0
2096921,2096921,190414,615122,0
2096921,2096921,190577,615467,0
2096921,2096921,190410,615240,0
2096921,2096921,190151,615111,0
2096921,2096921,190272,615191,0
2096921,2096921,190369,615351,0
2096921,2096921,190441,615656,0
2096921,2096921,190674,615299,0
2096921,2096921,190637,615424,0
2096921,2096921,190336,615354,0
2096921,2096921,190581,615348,0
2096921,2096921,190550,615145,0
2096921,2096921,190417,615305,0
2096921,2096921,190590,615523,0
2096921,2096921,190758,615226,0
2096921,2096921,190615,615449,0
2096921,2096921,190533,615635,0
2096921,2096921,190391,615620,0
2096921,2096921,190379,615276,0
2096921,2096921,190514,615483,0
2096921,2096921,190567,615342,0
2096921,2096921,190583,615283,0
2096921,2096921,190304,615281,0
2096921,2096921,190581,615624,0
2096921,2096921,190747,615510,0
2096921,2096921,190635,615568,0
2096921,2096921,190644,615775,0
2096921,2096921,190813,615521,0
2096921,2096921,190602,615712,0
2096921,2096921,190746,615555,0
2096921,2096921,190645,615671,0
2096921,2096921,190346,615616,0
2096921,2096921,190761,615516,0
2096921,2096921,190684,615330,0
2096921,2096921,190698,615691,0
2096921,2096921,190510,615681,0
2096921,2096921,190448,615726,0
2096921,2096921,190531,615390,0
2096921,2096921,190939,615436,0
2096921,2096921,190683,616039,0
2096921,2096921,190411,615569,0
2096921,2096921,190538,615743,0
2096921,2096921,190685,615643,0
2096921,2096921,190620,615964,0
2096921,2096921,190449,615823,0
2096921,2096921,190905,615742,0
2096921,2096921,190737,615575,0
2096921,2096921,190461,615735,0
2096921,2096921,190500,615850,0
2096921,2096921,190325,615748,0
2096921,2096921,190325,615754,0
2096921,2096921,190431,615810,0
2096921,2096921,190607,615515,0
2096921,2096921,190980,615327,0
2096921,2096921,190975,615574,0
2096921,2096921,190891,615374,0
2096921,2096921,190773,615685,0
2096921,2096921,190756,615556,0
2096921,2096921,190827,615567,0
2096921,2096921,190763,615634,0
2096921,2096921,190744,615644,0
2096921,2096921,190730,615474,0
2096921,2096921,190848,615668,0
2096921,2096921,190839,615421,0
2096921,2096921,190725,615437,0
2096921,2096921,190660,615901,0
2096921,2096921,190940,615889,0
2096921,2096921,190727,615858,0
2096921,2096921,190832,615773,0
2096921,2096921,190744,615756,0
2096921,2096921,190732,615640,0
2096921,2096921,190704,615391,0
2096921,2096921,190537,615709,0
2096921,2096921,190491,615900,0
2096921,2096921,190734,615670,0
2096921,2096921,190766,615684,0
2096921,2096921,190921,615677,0
2096921,2096921,190961,615476,0
2096921,2096921,190822,615455,0
2096921,2096921,190661,615199,0
2096921,2096921,190939,615472,0
2096921,2096921,190954,615565,0
2096921,2096921,191240,615572,0
2096921,2096921,190805,615410,0
2096921,2096921,190909,615449,0
2096921,2096921,190879,615395,0
2096921,2096921,190749,615636,0
2096921,2096921,190937,615643,0
2096921,2096921,190713,615573,0
2096921,2096921,190807,615840,0
2096921,2096921,190745,615214,0
2096921,2096921,190742,615419,0
2096921,2096921,190756,615546,0
2096921,2096921,190771,615251,0
2096921,2096921,190982,615616,0
2096921,2096921,190973,615597,0
2096921,2096921,190715,615775,0
2096921,2096921,190888,615554,0
2096921,2096921,190818,615849,0
2096921,2096921,190833,615377,0
2096921,2096921,190616,615391,0
2096921,2096921,190846,615472,0
2096921,2096921,190607,615617,0
2096921,2096921,190721,615425,0
2096921,2096921,190913,615516,0
2096921,2096921,190922,615449,0
2096921,2096921,190629,615281,0
2096921,2096921,190686,615563,0
2096921,2096921,190992,615518,0
2096921,2096921,190871,615455,0
2096921,2096921,190737,615337,0
2096921,2096921,190742,615617,0
2096921,2096921,190731,615332,0
2096921,2096921,190670,615529,0
2096921,2096921,190765,615350,0
2096921,2096921,190967,615560,0
2096921,2096921,191244,615336,0
2096921,2096921,190852,615597,0
2096921,2096921,190884,615515,0
2096921,2096921,190901,615520,0
2096921,2096921,190595,615401,0
2096921,2096921,190842,615162,0
2096921,2096921,190671,614919,0
2096921,2096921,191082,615039,0
2096921,2096921,190651,615325,0
2096921,2096921,190683,615548,0
2096921,2096921,190831,615498,0
2096921,2096921,190758,615257,0
2096921,2096921,190626,615315,0
2096921,2096921,190878,615499,0
2096921,2096921,190684,615259,0
2096921,2096921,190674,615489,0
2096921,2096921,191029,615132,0
2096921,2096921,190805,614960,0
2096921,2096921,190760,615266,0
2096921,2096921,190736,615604,0
2096921,2096921,190886,615603,0
2096921,2096921,190858,615237,0
2096921,2096921,190863,615035,0
2096921,2096921,190731,615015,0
2096921,2096921,190905,615020,0
2096921,2096921,191074,615218,0
2096921,2096921,191022,615266,0
2096921,2096921,190883,615386,0
2096921,2096921,190575,615248,0
2096921,2096921,190622,615014,0
2096921,2096921,190730,615062,0
2096921,2096921,190715,615000,0
2096921,2096921,190852,614990,0
2096921,2096921,190845,615027,0
2096921,2096921,190491,614938,0
2096921,2096921,190261,614928,0
2096921,2096921,190478,614867,0
2096921,2096921,190693,614856,0
2096921,2096921,190880,614975,0
2096921,2096921,190636,615212,0
2096921,2096921,190657,615131,0
2096921,2096921,190582,614888,0
2096921,2096921,190915,614981,0
2096921,2096921,190403,614961,0
2096921,2096921,190520,614687,0
2096921,2096921,190574,614839,0
2096921,2096921,190816,614811,0
2096921,2096921,190728,614618,0
2096921,2096921,190533,614595,0
2096921,2096921,190750,614656,0
2096921,2096921,191001,614679,0
2096921,2096921,190824,614488,0
2096921,2096921,190544,614783,0
2096921,2096921,190719,614923,0
2096921,2096921,190595,614804,0
2096921,2096921,190483,614974,0
2096921,2096921,190498,614627,0
2096921,2096921,190329,614449,0
2096921,2096921,190715,614569,0
2096921,2096921,190803,614621,0
2096921,2096921,190961,614788,0
2096921,2096921,190759,614341,0
2096921,2096921,190600,614620,0
2096921,2096921,190712,614432,0
2096921,2096921,190473,614544,0
2096921,2096921,190204,614479,0
2096921,2096921,190216,613984,0
2096921,2096921,190057,614291,0
2096921,2096921,190183,614122,0
2096921,2096921,190449,614327,0
2096921,2096921,190162,614337,0
2096921,2096921,190026,613818,0
2096921,2096921,190264,613594,0
2096921,2096921,189878,613827,0
2096921,2096921,189907,613623,0
2096921,2096921,189650,613555,0
2096921,2096921,189771,613226,0
2096921,2096921,189940,613053,0
2096921,2096921,189557,613206,0
2096921,2096921,189906,613217,0
2096921,2096921,189352,613197,0
2096921,2096921,189241,612668,0
2096921,2096921,189444,612399,0
2096921,2096921,189593,612511,0
2096921,2096921,189700,612626,0
2096921,2096921,189164,612053,0
2096921,2096921,189178,611788,0
2096921,2096921,188952,612059,0
2096921,2096921,188899,611880,0
2096921,2096921,189076,611682,0
2096921,2096921,188258,610875,0
2096921,2096921,188289,610336,0
2096921,2096921,188239,610107,0
2096921,2096921,188066,610254,0
2096921,2096921,188252,610269,0
2096921,2096921,187331,609519,0
2096921,2096921,187138,608103,0
2096921,2096921,186977,608190,0
2096921,2096921,186754,607965,0
2096921,2096921,187288,607798,0
2096921,2096921,186187,607440,0
2096921,2096921,186344,606415,0
2096921,2096921,186360,606467,0
2096921,2096921,186222,606440,0
2096921,2096921,186204,606522,0
2096921,2096921,185538,605706,0
2096921,2096921,185447,605360,0
2096921,2096921,185518,605012,0
2096921,2096921,185416,605164,0
2096921,2096921,185272,605202,0
2096921,2096921,185326,604793,0
2096921,2096921,185304,604515,0
2096921,2096921,185360,604112,0
2096921,2096921,184899,604327,0
2096921,2096921,185152,603958,0
2096921,2096921,184517,603986,0
2096921,2096921,184645,603629,0
2096921,2096921,184887,603838,0
2096921,2096921,184610,603554,0
2096921,2096921,184811,603828,0
2096921,2096921,184736,603791,0
2096921,2096921,184384,603163,0
2096921,2096921,184574,603143,0
2096921,2096921,184562,603095,0
2096921,2096921,184394,603057,0
2096921,2096921,184161,602959,0
2096921,2096921,184017,602973,0
2096921,2096921,184241,602888,0
2096921,2096921,183914,603138,0
2096921,2096921,184106,602778,0
2096921,2096921,184288,602792,0
2096921,2096921,184176,602901,0
2096921,2096921,184295,602681,0
2096921,2096921,184034,602659,0
2096921,2096921,184432,602811,0
2096921,2096921,184259,602599,0
2096921,2096921,184429,602546,0
2096921,2096921,184133,602591,0
2096921,2096921,183887,602581,0
2096921,2096921,184034,602457,0
2096921,2096921,184104,602650,0
2096921,2096921,184254,602768,0
2096921,2096921,184414,602818,0
2096921,2096921,184467,603023,0
2096921,2096921,184498,602788,0
2096921,2096921,184411,602702,0
2096921,2096921,184250,602805,0
2096921,2096921,184497,602763,0
2096921,2096921,184268,602823,0
2096921,2096921,184327,602598,0
2096921,2096921,184510,602995,0
2096921,2096921,184277,602947,0
2096921,2096921,184262,602891,0
2096921,2096921,184298,602941,0
2096921,2096921,184141,602942,0
2096921,2096921,184358,602839,0
2096921,2096921,184134,602857,0
2096921,2096921,184344,602805,0
2096921,2096921,184337,602969,0
2096921,2096921,184636,603251,0
2096921,2096921,184711,603490,0
2096921,2096921,184681,603434,0
2096921,2096921,184942,603423,0
2096921,2096921,184988,603486,0
2096921,2096921,184549,603304,0
2096921,2096921,185026,603323,0
2096921,2096921,184867,603368,0
2096921,2096921,184909,603313,0
2096921,2096921,184863,603362,0
2096921,2096921,185000,603669,0
2096921,2096921,184808,604195,0
2096921,2096921,184982,603699,0
2096921,2096921,184786,604026,0
2096921,2096921,185044,603955,0
2096921,2096921,184879,603699,0
2096921,2096921,184965,604002,0
2096921,2096921,184911,603993,0
2096921,2096921,185030,604317,0
2096921,2096921,185347,604009,0
2096921,2096921,185051,604389,0
2096921,2096921,185384,604468,0
2096921,2096921,185233,604336,0
2096921,2096921,185684,604475,0
2096921,2096921,185317,604302,0
2096921,2096921,185098,604271,0
2096921,2096921,185240,604441,0
2096921,2096921,185507,604795,0
2096921,2096921,185629,605062,0
2096921,2096921,185522,604912,0
2096921,2096921,185428,604877,0
2096921,2096921,185837,604911,0
2096921,2096921,185861,605122,0
2096921,2096921,185797,605256,0
2096921,2096921,185738,605155,0
2096921,2096921,185987,605229,0
2096921,2096921,185795,605083,0
2096921,2096921,185760,605414,0
2096921,2096921,185829,605414,0
2096921,2096921,185865,605231,0
2096921,2096921,185764,605368,0
2096921,2096921,185742,605576,0
2096921,2096921,186072,605372,0
2096921,2096921,186135,605617,0
2096921,2096921,186178,605448,0
2096921,2096921,186277,605428,0
2096921,2096921,185933,605616,0
2096921,2096921,186086,605701,0
2096921,2096921,186123,605739,0
2096921,2096921,186110,605880,0
2096921,2096921,186059,605763,0
2096921,2096921,186108,605965,0
2096921,2096921,186172,606496,0
2096921,2096921,186459,606565,0
2096921,2096921,186366,606719,0
2096921,2096921,186674,606129,0
2096921,2096921,186424,606391,0
2096921,2096921,186468,606574,0
2096921,2096921,186522,606632,0
2096921,2096921,186603,606752,0
2096921,2096921,186827,606738,0
2096921,2096921,186528,606685,0
2096921,2096921,186520,606899,0
2096921,2096921,186819,606559,0
2096921,2096921,186797,606774,0
2096921,2096921,186720,607093,0
2096921,2096921,186837,606845,0
2096921,2096921,186722,606825,0
2096921,2096921,186797,606727,0
2096921,2096921,186794,606836,0
2096921,2096921,186751,606908,0
2096921,2096921,186671,607095,0
2096921,2096921,186613,607055,0
2096921,2096921,187022,606996,0
2096921,2096921,186762,606960,0
2096921,2096921,186803,606942,0
2096921,2096921,186435,606876,0
2096921,2096921,186926,607094,0
2096921,2096921,186944,607187,0
2096921,2096921,187061,606704,0
2096921,2096921,186987,607027,0
2096921,2096921,186893,606987,0
2096921,2096921,187037,606965,0
2096921,2096921,187101,607224,0
2096921,2096921,187077,607044,0
2096921,2096921,187049,607191,0
2096921,2096921,187095,606897,0
2096921,2096921,187074,606904,0
2096921,2096921,186878,607047,0
2096921,2096921,186770,606958,0
2096921,2096921,186666,607233,0
2096921,2096921,186701,607043,0
2096921,2096921,186761,606871,0
2096921,2096921,186621,606822,0
2096921,2096921,186629,606652,0
2096921,2096921,186520,606757,0
2096921,2096921,186361,606949,0
2096921,2096921,186498,606516,0
2096921,2096921,186804,606584,0
2096921,2096921,186954,606903,0
2096921,2096921,187013,606850,0
2096921,2096921,186956,606545,0
2096921,2096921,186781,606559,0
2096921,2096921,186635,606810,0
2096921,2096921,186785,606952,0
2096921,2096921,186674,606677,0
2096921,2096921,186718,606637,0
2096921,2096921,186443,606440,0
2096921,2096921,186795,606443,0
2096921,2096921,186319,606250,0
2096921,2096921,186657,606392,0
2096921,2096921,186758,606436,0
2096921,2096921,186883,606187,0
2096921,2096921,186718,606124,0
2096921,2096921,186655,606414,0
2096921,2096921,186447,606571,0
2096921,2096921,186235,606391,0
2096921,2096921,186317,605962,0
2096921,2096921,186435,606045,0
2096921,2096921,186501,606287,0
2096921,2096921,186648,606410,0
2096921,2096921,186627,606163,0
2096921,2096921,186404,606227,0
2096921,2096921,186437,605998,0
2096921,2096921,186254,606302,0
2096921,2096921,186223,606248,0
2096921,2096921,186257,606299,0
2096921,2096921,186516,605891,0
2096921,2096921,186550,605776,0
2096921,2096921,186447,605945,0
2096921,2096921,186589,606002,0
2096921,2096921,186583,606197,0
2096921,2096921,186700,606047,0
2096921,2096921,186515,606148,0
2096921,2096921,186580,606135,0
2096921,2096921,186647,606292,0
2096921,2096921,186378,605919,0
2096921,2096921,186564,606169,0
2096921,2096921,186618,605852,0
2096921,2096921,186507,606215,0
2096921,2096921,186589,606179,0
2096921,2096921,186732,606214,0
2096921,2096921,186710,606299,0
2096921,2096921,186752,606327,0
2096921,2096921,186476,606405,0
2096921,2096921,186574,606652,0
2096921,2096921,186711,606294,0
2096921,2096921,186756,606537,0
2096921,2096921,187027,606480,0
2096921,2096921,186637,606611,0
2096921,2096921,186820,606748,0
2096921,2096921,187219,606699,0
2096921,2096921,187173,606684,0
2096921,2096921,187270,606723,0
2096921,2096921,187227,606762,0
2096921,2096921,186886,606867,0
2096921,2096921,187017,606702,0
2096921,2096921,186868,607046,0
2096921,2096921,187236,607131,0
2096921,2096921,187023,606970,0
2096921,2096921,187324,606953,0
2096921,2096921,187310,607129,0
2096921,2096921,187292,607286,0
2096921,2096921,187233,607173,0
2096921,2096921,187023,607193,0
2096921,2096921,187278,607117,0
2096921,2096921,186834,607326,0
2096921,2096921,187109,607209,0
2096921,2096921,187158,607371,0
2096921,2096921,187088,607368,0
2096921,2096921,187132,607456,0
2096921,2096921,187293,607608,0
2096921,2096921,187321,607981,0
2096921,2096921,187323,607516,0
2096921,2096921,187368,607793,0
2096921,2096921,187306,607521,0
2096921,2096921,187486,607421,0
2096921,2096921,187374,607608,0
2096921,2096921,187461,607562,0
2096921,2096921,187366,607993,0
2096921,2096921,187461,607976,0
2096921,2096921,187726,608375,0
2096921,2096921,187753,608131,0
2096921,2096921,187801,607963,0
2096921,2096921,187689,608044,0
2096921,2096921,187690,608153,0
2096921,2096921,187474,607814,0
2096921,2096921,187590,608107,0
2096921,2096921,187689,608115,0
2096921,2096921,187591,608169,0
2096921,2096921,187656,608061,0
2096921,2096921,187723,608485,0
2096921,2096921,187583,608251,0
2096921,2096921,187603,608044,0
2096921,2096921,187673,608448,0
2096921,2096921,187648,608063,0
2096921,2096921,187693,608370,0
2096921,2096921,187782,608261,0
2096921,2096921,187869,608644,0
2096921,2096921,187674,608392,0
2096921,2096921,187809,608494,0
2096921,2096921,187909,608467,0
2096921,2096921,187539,608341,0
2096921,2096921,187833,608490,0
2096921,2096921,188238,608559,0
2096921,2096921,187882,608672,0
2096921,2096921,187892,608452,0
2096921,2096921,187688,608531,0
2096921,2096921,188082,608262,0
2096921,2096921,188008,608475,0
2096921,2096921,188114,609135,0
2096921,2096921,188207,608920,0
2096921,2096921,188279,608757,0
2096921,2096921,188377,608986,0
2096921,2096921,187750,608911,0
2096921,2096921,187736,609008,0
2096921,2096921,188060,608900,0
2096921,2096921,188089,608877,0
2096921,2096921,188026,608674,0
2096921,2096921,188115,608930,0
2096921,2096921,188156,608889,0
2096921,2096921,188391,609003,0
2096921,2096921,188456,609549,0
2096921,2096921,188508,609412,0
2096921,2096921,188542,609109,0
2096921,2096921,188424,609267,0
2096921,2096921,188242,609212,0
2096921,2096921,188243,609234,0
2096921,2096921,188507,609263,0
2096921,2096921,188596,609394,0
2096921,2096921,188407,609172,0
2096921,2096921,188583,609228,0
2096921,2096921,188406,608974,0
2096921,2096921,188748,609396,0
2096921,2096921,188591,609290,0
2096921,2096921,188433,609345,0
2096921,2096921,188299,609222,0
2096921,2096921,188580,609065,0
2096921,2096921,188421,609195,0
2096921,2096921,188756,608991,0
2096921,2096921,188339,609452,0
2096921,2096921,188499,609684,0
2096921,2096921,188542,609277,0
2096921,2096921,188497,609742,0
2096921,2096921,188815,609891,0
2096921,2096921,188644,609879,0
2096921,2096921,188463,609837,0
2096921,2096921,188575,609322,0
2096921,2096921,188748,609805,0
2096921,2096921,188631,609943,0
2096921,2096921,188773,609730,0
2096921,2096921,188737,609804,0
2096921,2096921,188608,610144,0
2096921,2096921,188617,609992,0
2096921,2096921,188927,609987,0
2096921,2096921,188774,610028,0
2096921,2096921,188608,609906,0
2096921,2096921,188858,610080,0
2096921,2096921,188964,610214,0
2096921,2096921,189128,610416,0
2096921,2096921,188771,609990,0
2096921,2096921,188734,610087,0
2096921,2096921,188541,610124,0
2096921,2096921,188652,610083,0
2096921,2096921,188879,610056,0
2096921,2096921,189096,609870,0
2096921,2096921,188711,609870,0
2096921,2096921,188879,610104,0
2096921,2096921,188594,609989,0
2096921,2096921,188883,610224,0
2096921,2096921,188596,610404,0
2096921,2096921,188979,610227,0
2096921,2096921,188857,610305,0
2096921,2096921,188861,610061,0
2096921,2096921,188876,610095,0
2096921,2096921,188972,610359,0
2096921,2096921,188964,610197,0
2096921,2096921,189117,610459,0
2096921,2096921,189175,610300,0
2096921,2096921,188896,610474,0
2096921,2096921,189277,610178,0
2096921,2096921,189228,610384,0
2096921,2096921,189232,610721,0
2096921,2096921,189036,610728,0
2096921,2096921,189009,610284,0
2096921,2096921,189070,610355,0
2096921,2096921,188881,610453,0
2096921,2096921,188895,610343,0
2096921,2096921,188750,610184,0
2096921,2096921,188935,610384,0
2096921,2096921,189111,610525,0
2096921,2096921,189035,610518,0
2096921,2096921,189312,610769,0
2096921,2096921,189154,610471,0
2096921,2096921,189230,610778,0
2096921,2096921,189299,610488,0
2096921,2096921,189225,610623,0
2096921,2096921,189289,610394,0
2096921,2096921,189023,610532,0
2096921,2096921,188701,610507,0
2096921,2096921,188988,610547,0
2096921,2096921,189130,610609,0
2096921,2096921,189234,610620,0
2096921,2096921,189299,610688,0
2096921,2096921,189236,610983,0
2096921,2096921,189061,610732,0
2096921,2096921,188955,610661,0
2096921,2096921,189109,610353,0
2096921,2096921,189360,610674,0
2096921,2096921,189207,610459,0
2096921,2096921,189207,610810,0
2096921,2096921,189220,610729,0
2096921,2096921,188927,610718,0
2096921,2096921,189505,610534,0
2096921,2096921,189234,610696,0
2096921,2096921,189046,610655,0
2096921,2096921,189097,610820,0
2096921,2096921,188883,610560,0
2096921,2096921,189190,610841,0
2096921,2096921,189693,610646,0
2096921,2096921,189317,610702,0
2096921,2096921,189452,610750,0
2096921,2096921,189393,610549,0
2096921,2096921,189062,610930,0
2096921,2096921,189466,610854,0
2096921,2096921,188941,610910,0
2096921,2096921,189003,610688,0
2096921,2096921,189266,610698,0
2096921,2096921,189713,610584,0
2096921,2096921,189422,610932,0
2096921,2096921,189297,611066,0
2096921,2096921,189236,611027,0
2096921,2096921,189228,611102,0
2096921,2096921,189378,611057,0
2096921,2096921,189193,610965,0
2096921,2096921,189339,611093,0
2096921,2096921,189238,611042,0
2096921,2096921,189559,610949,0
2096921,2096921,189582,611078,0
2096921,2096921,189407,610951,0
2096921,2096921,189618,610948,0
2096921,2096921,189308,610975,0
2096921,2096921,189252,611252,0
2096921,2096921,189553,611134,0
2096921,2096921,189318,611350,0
2096921,2096921,189550,611100,0
2096921,2096921,189347,610896,0
2096921,2096921,189063,610611,0
2096921,2096921,189394,611035,0
2096921,2096921,189613,611039,0
2096921,2096921,189671,610950,0
2096921,2096921,189496,610903,0
2096921,2096921,189391,611306,0
2096921,2096921,189353,611328,0
2096921,2096921,189477,611523,0
2096921,2096921,189351,611525,0
2096921,2096921,189599,611506,0
2096921,2096921,189660,611340,0
2096921,2096921,189650,611509,0
2096921,2096921,189583,611150,0
2096921,2096921,189421,611133,0
2096921,2096921,189439,611336,0
2096921,2096921,189468,611304,0
2096921,2096921,189435,611319,0
2096921,2096921,189559,611339,0
2096921,2096921,189587,611172,0
2096921,2096921,189559,611206,0
2096921,2096921,189216,611120,0
2096921,2096921,189179,611053,0
2096921,2096921,189515,611288,0
2096921,2096921,189736,611270,0
2096921,2096921,189566,611445,0
2096921,2096921,189680,611442,0
2096921,2096921,189106,611111,0
2096921,2096921,189538,611065,0
2096921,2096921,189486,610930,0
2096921,2096921,189454,611322,0
2096921,2096921,189621,611139,0
2096921,2096921,189467,611106,0
2096921,2096921,189516,611145,0
2096921,2096921,189474,611338,0
2096921,2096921,189627,611309,0
2096921,2096921,189592,611082,0
2096921,2096921,189737,611200,0
2096921,2096921,189680,611435,0
2096921,2096921,189260,611191,0
2096921,2096921,189220,611029,0
2096921,2096921,189095,611122,0
2096921,2096921,189474,611152,0
2096921,2096921,189342,611321,0
2096921,2096921,189389,611174,0
2096921,2096921,189543,611330,0
2096921,2096921,189454,611286,0
2096921,2096921,189654,611153,0
2096921,2096921,189618,611556,0
2096921,2096921,189312,611214,0
2096921,2096921,189452,611261,0
2096921,2096921,189351,611080,0
2096921,2096921,189549,611313,0
2096921,2096921,189590,611035,0
2096921,2096921,189723,611378,0
2096921,2096921,189669,611426,0
2096921,2096921,189385,611226,0
2096921,2096921,189458,611393,0
2096921,2096921,189465,611020,0
2096921,2096921,189700,611159,0
2096921,2096921,189470,610892,0
2096921,2096921,189407,610908,0
2096921,2096921,189171,610821,0
2096921,2096921,189412,610663,0
2096921,2096921,189383,610424,0
2096921,2096921,188976,610877,0
2096921,2096921,189169,610588,0
2096921,2096921,188821,610519,0
2096921,2096921,189302,610506,0
2096921,2096921,189436,610282,0
2096921,2096921,188780,610250,0
2096921,2096921,189217,609831,0
2096921,2096921,189083,609979,0
2096921,2096921,188872,610293,0
2096921,2096921,188868,610064,0
2096921,2096921,188793,610029,0
2096921,2096921,188721,609185,0
2096921,2096921,188591,609316,0
2096921,2096921,188540,609499,0
2096921,2096921,188428,609518,0
2096921,2096921,188200,609233,0
2096921,2096921,188104,608764,0
2096921,2096921,188026,608486,0
2096921,2096921,188000,609117,0
2096921,2096921,188264,608924,0
2096921,2096921,187568,608247,0
2096921,2096921,187291,607580,0
2096921,2096921,187189,607052,0
2096921,2096921,187271,607129,0
2096921,2096921,186946,607265,0
2096921,2096921,186209,606526,0
2096921,2096921,186246,605561,0
2096921,2096921,186243,604907,0
2096921,2096921,185779,605209,0
2096921,2096921,186104,605100,0
2096921,2096921,185654,604640,0
2096921,2096921,185635,603883,0
2096921,2096921,185465,603733,0
2096921,2096921,185497,603807,0
2096921,2096921,185287,603747,0
2096921,2096921,184807,603163,0
2096921,2096921,184763,602827,0
2096921,2096921,184798,602621,0
2096921,2096921,184584,602751,0
2096921,2096921,184764,602440,0
2096921,2096921,184542,602294,0
2096921,2096921,184116,601798,0
2096921,2096921,184316,601839,0
2096921,2096921,184474,601935,0
2096921,2096921,184355,601628,0
2096921,2096921,184026,601391,0
2096921,2096921,184022,601131,0
2096921,2096921,184116,601045,0
2096921,2096921,183904,601078,0
2096921,2096921,183930,601569,0
2096921,2096921,183863,600850,0
2096921,2096921,183594,600897,0
2096921,2096921,183594,600661,0
2096921,2096921,183567,600671,0
2096921,2096921,183604,600704,0
2096921,2096921,183653,600557,0
2096921,2096921,183616,600536,0
2096921,2096921,183671,600527,0
2096921,2096921,183568,600480,0
2096921,2096921,183512,600638,0
2096921,2096921,183678,600465,0
2096921,2096921,183543,600656,0
2096921,2096921,183709,600531,0
2096921,2096921,183771,600470,0
2096921,2096921,183824,600542,0
2096921,2096921,183606,600209,0
2096921,2096921,183410,600307,0
2096921,2096921,183521,600371,0
2096921,2096921,183714,600244,0
2096921,2096921,183632,600020,0
2096921,2096921,183955,600460,0
2096921,2096921,183735,600706,0
2096921,2096921,184030,600336,0
2096921,2096921,183542,600702,0
2096921,2096921,183442,600525,0
2096921,2096921,183711,600728,0
2096921,2096921,183478,600487,0
2096921,2096921,183665,600572,0
2096921,2096921,183838,600740,0
2096921,2096921,183467,600478,0
2096921,2096921,183432,600508,0
2096921,2096921,183788,600673,0
2096921,2096921,183713,600781,0
2096921,2096921,183777,600641,0
2096921,2096921,183818,600714,0
2096921,2096921,183948,600858,0
2096921,2096921,183770,601085,0
2096921,2096921,183891,601326,0
2096921,2096921,183650,601456,0
2096921,2096921,183709,601027,0
2096921,2096921,184435,601050,0
2096921,2096921,184210,601453,0
2096921,2096921,183880,601581,0
2096921,2096921,184096,601506,0
2096921,2096921,184259,601382,0
2096921,2096921,184349,601659,0
2096921,2096921,184314,601732,0
2096921,2096921,183994,601689,0
2096921,2096921,183985,601683,0
2096921,2096921,184135,601724,0
2096921,2096921,184861,601967,0
2096921,2096921,184406,601940,0
2096921,2096921,184575,602010,0
2096921,2096921,184723,602270,0
2096921,2096921,184414,602182,0
2096921,2096921,184703,602290,0
2096921,2096921,184784,601953,0
2096921,2096921,184961,602003,0
2096921,2096921,184646,602086,0
2096921,2096921,184585,602162,0
2096921,2096921,184874,602520,0
2096921,2096921,184843,602572,0
2096921,2096921,184959,602645,0
2096921,2096921,185053,602798,0
2096921,2096921,184988,602552,0
2096921,2096921,184906,602754,0
2096921,2096921,185113,602862,0
2096921,2096921,184999,602690,0
2096921,2096921,185049,602899,0
2096921,2096921,185218,603383,0
2096921,2096921,185154,603655,0
2096921,2096921,185306,603312,0
2096921,2096921,185388,603204,0
2096921,2096921,185134,603537,0
2096921,2096921,185342,603695,0
2096921,2096921,185293,603692,0
2096921,2096921,185368,603838,0
2096921,2096921,185260,603784,0
2096921,2096921,185379,603708,0
2096921,2096921,185543,603651,0
2096921,2096921,185629,603979,0
2096921,2096921,185463,604408,0
2096921,2096921,185492,604187,0
2096921,2096921,185732,604090,0
2096921,2096921,185661,604397,0
2096921,2096921,185591,604473,0
2096921,2096921,185395,604371,0
2096921,2096921,185739,604266,0
2096921,2096921,185692,604603,0
2096921,2096921,185583,604615,0
