2096921,2096921,189268,616050,0
2096921,2096921,189644,615978,0
2096921,2096921,189554,616305,0
2096921,2096921,189852,616224,0
2096921,2096921,189694,615926,0
2096921,2096921,189666,615833,0
2096921,2096921,189639,616118,0
2096921,2096921,189569,616131,0
2096921,2096921,189439,616236,0
2096921,2096921,189704,616256,0
2096921,2096921,190144,616210,0
2096921,2096921,190380,616752,0
2096921,2096921,190309,616661,0
2096921,2096921,190172,616767,0
2096921,2096921,190161,616592,0
2096921,2096921,190080,616851,0
2096921,2096921,190144,617026,0
2096921,2096921,190040,616966,0
2096921,2096921,190214,617393,0
2096921,2096921,190321,617259,0
2096921,2096921,190255,617197,0
2096921,2096921,190650,617334,0
2096921,2096921,190683,617666,0
2096921,2096921,190550,617516,0
2096921,2096921,190043,617531,0
2096921,2096921,190156,617326,0
2096921,2096921,190408,617699,0
2096921,2096921,190417,617854,0
2096921,2096921,190456,617597,0
2096921,2096921,190792,617773,0
2096921,2096921,190718,617772,0
2096921,2096921,190844,617760,0
2096921,2096921,190920,618205,0
2096921,2096921,190735,618124,0
2096921,2096921,190670,617863,0
2096921,2096921,190324,617740,0
2096921,2096921,190656,617896,0
2096921,2096921,190412,618334,0
2096921,2096921,190864,618129,0
2096921,2096921,190986,618393,0
2096921,2096921,190908,618432,0
2096921,2096921,190703,618829,0
2096921,2096921,191041,618572,0
2096921,2096921,190847,618082,0
2096921,2096921,190867,618085,0
2096921,2096921,190892,618321,0
2096921,2096921,190832,618298,0
2096921,2096921,190884,618530,0
2096921,2096921,190880,618623,0
2096921,2096921,191006,618780,0
2096921,2096921,190990,618667,0
2096921,2096921,190884,618529,0
2096921,2096921,191085,618611,0
2096921,2096921,190961,618672,0
2096921,2096921,191036,618430,0
2096921,2096921,190912,618423,0
2096921,2096921,190966,618625,0
2096921,2096921,190925,618647,0
2096921,2096921,190684,618700,0
2096921,2096921,190967,618628,0
2096921,2096921,190861,618347,0
2096921,2096921,190980,618590,0
2096921,2096921,191108,618603,0
2096921,2096921,190787,618879,0
2096921,2096921,190950,618509,0
2096921,2096921,190912,618332,0
2096921,2096921,190896,618552,0
2096921,2096921,190847,618152,0
2096921,2096921,190882,618376,0
2096921,2096921,191021,618303,0
2096921,2096921,191037,618623,0
2096921,2096921,190882,618328,0
2096921,2096921,190899,618237,0
2096921,2096921,190802,618293,0
2096921,2096921,190767,618335,0
2096921,2096921,190761,618124,0
2096921,2096921,190993,618310,0
2096921,2096921,190746,618274,0
2096921,2096921,191065,618404,0
2096921,2096921,190960,618554,0
2096921,2096921,191048,618553,0
2096921,2096921,190767,618256,0
2096921,2096921,190748,618081,0
2096921,2096921,190663,617947,0
2096921,2096921,190667,618197,0
2096921,2096921,190696,618296,0
2096921,2096921,190845,618291,0
2096921,2096921,190606,618254,0
2096921,2096921,190714,618032,0
2096921,2096921,191011,617808,0
2096921,2096921,190850,618169,0
2096921,2096921,190719,618257,0
2096921,2096921,190756,618356,0
2096921,2096921,190933,617945,0
2096921,2096921,190745,618158,0
2096921,2096921,190760,618106,0
2096921,2096921,190814,617981,0
2096921,2096921,190772,618149,0
2096921,2096921,190813,618453,0
2096921,2096921,190590,618370,0
2096921,2096921,190717,618269,0
2096921,2096921,190904,618176,0
2096921,2096921,190758,618533,0
2096921,2096921,191055,618607,0
2096921,2096921,190539,618506,0
2096921,2096921,190964,618692,0
2096921,2096921,190584,618417,0
2096921,2096921,190914,618629,0
2096921,2096921,191009,618681,0
2096921,2096921,191249,618323,0
2096921,2096921,190998,618670,0
2096921,2096921,191352,618652,0
2096921,2096921,191243,618971,0
2096921,2096921,191195,618805,0
2096921,2096921,191319,619146,0
2096921,2096921,190892,618696,0
2096921,2096921,191223,618718,0
2096921,2096921,191049,618972,0
2096921,2096921,191050,618996,0
2096921,2096921,191196,618772,0
2096921,2096921,191363,619074,0
2096921,2096921,191570,619280,0
2096921,2096921,191604,619826,0
2096921,2096921,191454,619509,0
2096921,2096921,191083,619596,0
2096921,2096921,191236,619342,0
2096921,2096921,191436,619459,0
2096921,2096921,191487,619409,0
2096921,2096921,191545,619740,0
2096921,2096921,191690,619925,0
2096921,2096921,191625,619738,0
2096921,2096921,191448,619858,0
2096921,2096921,191677,619889,0
2096921,2096921,191879,620087,0
2096921,2096921,191562,620071,0
2096921,2096921,191531,620009,0
2096921,2096921,191596,619980,0
2096921,2096921,191867,620112,0
2096921,2096921,192046,620019,0
2096921,2096921,192142,620504,0
2096921,2096921,191799,620700,0
2096921,2096921,191804,620405,0
2096921,2096921,191933,620317,0
2096921,2096921,191879,620586,0
2096921,2096921,192033,620619,0
2096921,2096921,191527,620590,0
2096921,2096921,192091,620377,0
2096921,2096921,192353,620465,0
2096921,2096921,191828,620699,0
2096921,2096921,192069,620582,0
2096921,2096921,191893,620672,0
2096921,2096921,192517,620853,0
2096921,2096921,192335,620935,0
2096921,2096921,192307,620585,0
2096921,2096921,192165,621071,0
2096921,2096921,192180,621191,0
2096921,2096921,192104,620986,0
2096921,2096921,192544,621031,0
2096921,2096921,192313,621237,0
2096921,2096921,192480,621304,0
2096921,2096921,192598,621357,0
2096921,2096921,192746,621498,0
2096921,2096921,192297,621521,0
2096921,2096921,192561,621467,0
2096921,2096921,192355,621755,0
2096921,2096921,192460,621084,0
2096921,2096921,192674,621502,0
2096921,2096921,192244,621440,0
2096921,2096921,192631,621715,0
2096921,2096921,192560,621976,0
2096921,2096921,192693,621938,0
2096921,2096921,192764,622193,0
2096921,2096921,193025,622170,0
2096921,2096921,192770,622325,0
2096921,2096921,192842,621911,0
2096921,2096921,192708,622359,0
2096921,2096921,193047,621844,0
2096921,2096921,193021,622105,0
2096921,2096921,193005,622216,0
2096921,2096921,192917,622171,0
2096921,2096921,193137,622223,0
2096921,2096921,193115,622632,0
2096921,2096921,192945,622341,0
2096921,2096921,192556,622450,0
2096921,2096921,192810,622278,0
2096921,2096921,192547,622433,0
2096921,2096921,192976,622585,0
2096921,2096921,192977,622684,0
2096921,2096921,193266,622698,0
2096921,2096921,193435,622942,0
2096921,2096921,192874,622515,0
2096921,2096921,192985,622855,0
2096921,2096921,193119,623244,0
2096921,2096921,193154,623025,0
2096921,2096921,193090,623067,0
2096921,2096921,193179,623096,0
2096921,2096921,193218,623391,0
2096921,2096921,193376,623385,0
2096921,2096921,193362,623390,0
2096921,2096921,193440,623344,0
2096921,2096921,193219,623459,0
2096921,2096921,193405,623336,0
2096921,2096921,193465,623474,0
2096921,2096921,193377,623682,0
2096921,2096921,193396,623451,0
2096921,2096921,193501,623352,0
2096921,2096921,193512,623710,0
2096921,2096921,193451,623777,0
2096921,2096921,193638,623589,0
2096921,2096921,193730,624067,0
2096921,2096921,193684,623857,0
2096921,2096921,193715,623671,0
2096921,2096921,193673,623847,0
2096921,2096921,193693,624013,0
2096921,2096921,193629,624037,0
2096921,2096921,193458,623842,0
2096921,2096921,193795,624041,0
2096921,2096921,193884,624083,0
2096921,2096921,193595,624328,0
2096921,2096921,193655,624206,0
2096921,2096921,193649,624282,0
2096921,2096921,194151,623913,0
2096921,2096921,194072,624304,0
2096921,2096921,193620,624766,0
2096921,2096921,194049,624337,0
2096921,2096921,193766,624489,0
2096921,2096921,194028,624355,0
2096921,2096921,193678,624501,0
2096921,2096921,193799,624425,0
2096921,2096921,194038,624434,0
2096921,2096921,193698,624869,0
2096921,2096921,193802,624973,0
2096921,2096921,194009,624817,0
2096921,2096921,193814,624772,0
2096921,2096921,193961,624646,0
2096921,2096921,194048,624838,0
2096921,2096921,194065,624534,0
2096921,2096921,193989,624892,0
2096921,2096921,194076,624884,0
2096921,2096921,194332,625075,0
2096921,2096921,194135,625212,0
2096921,2096921,194030,625143,0
2096921,2096921,194182,624984,0
2096921,2096921,194226,625130,0
2096921,2096921,193913,625217,0
2096921,2096921,194207,625068,0
2096921,2096921,194209,625157,0
2096921,2096921,194265,625208,0
2096921,2096921,194029,625256,0
2096921,2096921,193976,625182,0
2096921,2096921,194259,625210,0
2096921,2096921,194098,625107,0
2096921,2096921,194114,625308,0
2096921,2096921,193986,625345,0
2096921,2096921,193870,625447,0
2096921,2096921,194125,625296,0
2096921,2096921,194038,625434,0
2096921,2096921,194422,625269,0
2096921,2096921,194331,625473,0
2096921,2096921,194224,625763,0
2096921,2096921,194386,625692,0
2096921,2096921,194285,625400,0
2096921,2096921,194367,625772,0
2096921,2096921,194486,625967,0
2096921,2096921,194247,626030,0
2096921,2096921,194133,625710,0
2096921,2096921,194417,625588,0
2096921,2096921,194567,625352,0
2096921,2096921,194690,625553,0
2096921,2096921,194674,625658,0
2096921,2096921,194564,625769,0
2096921,2096921,194454,626088,0
2096921,2096921,194546,626136,0
2096921,2096921,194603,625995,0
2096921,2096921,194473,625836,0
2096921,2096921,194526,625647,0
2096921,2096921,194621,626097,0
2096921,2096921,194571,625915,0
2096921,2096921,194510,626045,0
2096921,2096921,194568,626233,0
2096921,2096921,194799,625984,0
2096921,2096921,194834,626463,0
2096921,2096921,194854,626201,0
2096921,2096921,194649,626460,0
2096921,2096921,194670,626304,0
2096921,2096921,194510,626064,0
2096921,2096921,194779,626364,0
2096921,2096921,194961,626639,0
2096921,2096921,194722,626501,0
2096921,2096921,194975,626626,0
2096921,2096921,194662,626855,0
2096921,2096921,195000,626571,0
2096921,2096921,194984,626535,0
2096921,2096921,195001,626711,0
2096921,2096921,194729,626540,0
2096921,2096921,194810,626265,0
2096921,2096921,195024,626573,0
2096921,2096921,194918,626635,0
2096921,2096921,194949,626600,0
2096921,2096921,194876,626756,0
2096921,2096921,195095,626746,0
2096921,2096921,194867,626676,0
2096921,2096921,194681,627075,0
2096921,2096921,195029,626795,0
2096921,2096921,195076,626820,0
2096921,2096921,195026,626834,0
2096921,2096921,194631,626715,0
2096921,2096921,194995,626905,0
2096921,2096921,195051,626641,0
2096921,2096921,195141,626795,0
2096921,2096921,195073,627133,0
2096921,2096921,195021,627095,0
2096921,2096921,195060,627143,0
2096921,2096921,195084,627026,0
2096921,2096921,194990,627053,0
2096921,2096921,194740,627276,0
2096921,2096921,194935,627032,0
2096921,2096921,194746,627018,0
2096921,2096921,195126,627149,0
2096921,2096921,195103,627167,0
2096921,2096921,194841,627134,0
2096921,2096921,195209,627129,0
2096921,2096921,195055,627376,0
2096921,2096921,195242,627223,0
2096921,2096921,195009,626952,0
2096921,2096921,194831,627365,0
2096921,2096921,195111,627262,0
2096921,2096921,195012,627285,0
2096921,2096921,194878,627332,0
2096921,2096921,194984,627467,0
2096921,2096921,195534,627483,0
2096921,2096921,195755,627547,0
2096921,2096921,195570,627621,0
2096921,2096921,195104,627561,0
2096921,2096921,195153,627622,0
2096921,2096921,195020,627648,0
2096921,2096921,195095,627657,0
2096921,2096921,195324,627746,0
2096921,2096921,195182,627629,0
2096921,2096921,195035,627512,0
2096921,2096921,195155,627649,0
2096921,2096921,195171,627681,0
2096921,2096921,195055,627744,0
2096921,2096921,194941,627653,0
2096921,2096921,194837,627638,0
2096921,2096921,195202,627529,0
2096921,2096921,195103,627613,0
2096921,2096921,195130,627548,0
2096921,2096921,195216,627479,0
2096921,2096921,195218,627560,0
2096921,2096921,195059,628004,0
2096921,2096921,195441,628006,0
2096921,2096921,195222,627805,0
2096921,2096921,195162,627754,0
2096921,2096921,194945,627766,0
2096921,2096921,195170,627780,0
2096921,2096921,195066,627820,0
2096921,2096921,195177,628118,0
2096921,2096921,195154,628106,0
2096921,2096921,195184,627895,0
2096921,2096921,195251,627959,0
2096921,2096921,195515,628367,0
2096921,2096921,195462,628095,0
2096921,2096921,195436,627873,0
2096921,2096921,195198,627775,0
2096921,2096921,195235,628101,0
2096921,2096921,195002,627835,0
2096921,2096921,195167,628066,0
2096921,2096921,195369,628048,0
2096921,2096921,195267,628015,0
2096921,2096921,195368,628192,0
2096921,2096921,195434,627992,0
2096921,2096921,195384,627951,0
2096921,2096921,195359,628027,0
2096921,2096921,195143,628185,0
2096921,2096921,195371,628289,0
2096921,2096921,195187,627909,0
2096921,2096921,195047,628100,0
2096921,2096921,195011,627416,0
2096921,2096921,195462,627901,0
2096921,2096921,195225,627889,0
2096921,2096921,195116,627945,0
2096921,2096921,195158,627453,0
2096921,2096921,195289,627906,0
2096921,2096921,194977,627758,0
2096921,2096921,194825,627681,0
2096921,2096921,194655,627215,0
2096921,2096921,194705,627218,0
2096921,2096921,194794,627063,0
2096921,2096921,195220,627138,0
2096921,2096921,194867,627365,0
2096921,2096921,194803,627217,0
2096921,2096921,194113,626715,0
2096921,2096921,194479,626504,0
2096921,2096921,194476,626342,0
2096921,2096921,194178,626401,0
2096921,2096921,194107,626481,0
2096921,2096921,193902,626089,0
2096921,2096921,193963,626061,0
2096921,2096921,194157,625503,0
2096921,2096921,194053,625886,0
2096921,2096921,193515,625636,0
2096921,2096921,193276,624590,0
2096921,2096921,193270,624553,0
2096921,2096921,193054,624169,0
2096921,2096921,192952,624109,0
2096921,2096921,192444,623750,0
2096921,2096921,192221,622641,0
2096921,2096921,192170,622468,0
2096921,2096921,192237,622322,0
2096921,2096921,191965,622066,0
2096921,2096921,191473,621874,0
2096921,2096921,191100,620888,0
2096921,2096921,191258,621093,0
2096921,2096921,191611,620956,0
2096921,2096921,191082,620834,0
2096921,2096921,190683,620650,0
2096921,2096921,190816,619693,0
2096921,2096921,190486,619718,0
2096921,2096921,190576,619773,0
2096921,2096921,190802,619778,0
2096921,2096921,190355,619892,0
2096921,2096921,190317,619246,0
2096921,2096921,190147,618918,0
2096921,2096921,190117,619073,0
2096921,2096921,190243,619104,0
2096921,2096921,189844,618760,0
2096921,2096921,189769,618279,0
2096921,2096921,189866,618335,0
2096921,2096921,189832,618317,0
2096921,2096921,189897,618205,0
2096921,2096921,189669,618400,0
2096921,2096921,189600,618154,0
2096921,2096921,189615,618184,0
2096921,2096921,189534,618104,0
2096921,2096921,189622,618024,0
2096921,2096921,189479,618099,0
2096921,2096921,189499,618043,0
2096921,2096921,189622,618056,0
2096921,2096921,189509,617876,0
2096921,2096921,189242,617935,0
2096921,2096921,189514,617724,0
2096921,2096921,189577,617971,0
2096921,2096921,189496,618026,0
2096921,2096921,189712,617978,0
2096921,2096921,189556,617814,0
2096921,2096921,189539,617931,0
2096921,2096921,189208,617548,0
2096921,2096921,189342,617938,0
2096921,2096921,189897,617792,0
2096921,2096921,189417,617956,0
2096921,2096921,189678,618059,0
2096921,2096921,189670,618528,0
2096921,2096921,189655,618289,0
2096921,2096921,189611,617902,0
2096921,2096921,189593,617978,0
2096921,2096921,189471,618316,0
2096921,2096921,189303,618329,0
2096921,2096921,189809,618337,0
2096921,2096921,189710,618494,0
2096921,2096921,189570,618272,0
2096921,2096921,189810,618259,0
2096921,2096921,189867,618607,0
2096921,2096921,189884,618222,0
2096921,2096921,189815,618338,0
2096921,2096921,189886,618097,0
2096921,2096921,189984,618389,0
2096921,2096921,189833,619045,0
2096921,2096921,189874,618886,0
2096921,2096921,190084,619137,0
2096921,2096921,189880,619006,0
2096921,2096921,190056,619020,0
2096921,2096921,190247,619336,0
2096921,2096921,190340,619653,0
2096921,2096921,190286,619275,0
2096921,2096921,189975,618970,0
2096921,2096921,190094,619210,0
2096921,2096921,190292,619668,0
2096921,2096921,190404,619582,0
2096921,2096921,190556,619841,0
2096921,2096921,190415,619813,0
2096921,2096921,190742,619839,0
2096921,2096921,190506,619940,0
2096921,2096921,190528,620085,0
2096921,2096921,190556,620115,0
2096921,2096921,190848,619880,0
2096921,2096921,190644,620072,0
2096921,2096921,190956,620305,0
2096921,2096921,190883,620399,0
2096921,2096921,190728,620518,0
2096921,2096921,190912,620894,0
2096921,2096921,191058,620403,0
2096921,2096921,191134,621212,0
2096921,2096921,191271,620655,0
2096921,2096921,191053,620981,0
2096921,2096921,190776,620431,0
2096921,2096921,190931,621117,0
2096921,2096921,191027,621352,0
2096921,2096921,191062,621554,0
2096921,2096921,191261,621636,0
2096921,2096921,191493,621425,0
2096921,2096921,191415,621715,0
2096921,2096921,191820,621754,0
2096921,2096921,191869,621729,0
2096921,2096921,191292,621465,0
2096921,2096921,191259,621225,0
2096921,2096921,191523,621354,0
2096921,2096921,191795,621815,0
2096921,2096921,191878,622152,0
2096921,2096921,191833,622033,0
2096921,2096921,191695,622222,0
2096921,2096921,191920,622476,0
2096921,2096921,192121,622226,0
2096921,2096921,191812,622402,0
2096921,2096921,191766,622477,0
2096921,2096921,191613,622605,0
2096921,2096921,191957,622658,0
2096921,2096921,192230,622881,0
2096921,2096921,191966,622987,0
2096921,2096921,192018,623157,0
2096921,2096921,191868,623006,0
2096921,2096921,192111,623099,0
2096921,2096921,192411,623120,0
2096921,2096921,192381,623291,0
2096921,2096921,192490,622876,0
2096921,2096921,192580,623181,0
2096921,2096921,192348,623356,0
2096921,2096921,192517,623853,0
2096921,2096921,192595,623509,0
2096921,2096921,192705,623469,0
2096921,2096921,192353,623383,0
2096921,2096921,192621,623767,0
2096921,2096921,192592,623937,0
2096921,2096921,192527,623816,0
2096921,2096921,192608,623578,0
2096921,2096921,192531,624045,0
2096921,2096921,192562,624154,0
2096921,2096921,192545,624174,0
2096921,2096921,192530,624171,0
2096921,2096921,192917,624292,0
2096921,2096921,192707,624344,0
2096921,2096921,192936,624382,0
2096921,2096921,193126,624394,0
2096921,2096921,192920,624490,0
2096921,2096921,192763,624428,0
2096921,2096921,193036,624336,0
2096921,2096921,192804,624429,0
2096921,2096921,192918,624565,0
2096921,2096921,192841,624250,0
2096921,2096921,192908,624607,0
2096921,2096921,192778,624496,0
2096921,2096921,192717,624662,0
2096921,2096921,192986,624626,0
2096921,2096921,192996,624300,0
2096921,2096921,193026,624464,0
2096921,2096921,193035,624679,0
2096921,2096921,192949,624619,0
2096921,2096921,193067,624506,0
2096921,2096921,193246,624701,0
2096921,2096921,193137,624812,0
2096921,2096921,192868,624642,0
2096921,2096921,192829,624590,0
2096921,2096921,192910,624594,0
2096921,2096921,192936,624519,0
2096921,2096921,192718,624385,0
2096921,2096921,192847,624451,0
2096921,2096921,192528,624500,0
2096921,2096921,192804,624405,0
2096921,2096921,193108,624415,0
2096921,2096921,193083,624704,0
2096921,2096921,192961,624644,0
2096921,2096921,193295,624529,0
2096921,2096921,192791,624581,0
2096921,2096921,192742,624557,0
2096921,2096921,192616,624461,0
2096921,2096921,192840,624303,0
2096921,2096921,192687,624283,0
2096921,2096921,192730,624255,0
2096921,2096921,192304,624420,0
2096921,2096921,192667,623980,0
2096921,2096921,192687,624334,0
2096921,2096921,192885,624464,0
2096921,2096921,192729,624201,0
2096921,2096921,192653,624135,0
2096921,2096921,192491,624072,0
2096921,2096921,192318,624073,0
2096921,2096921,192520,624450,0
2096921,2096921,192568,623981,0
2096921,2096921,192848,623924,0
2096921,2096921,192764,624409,0
2096921,2096921,192571,624378,0
2096921,2096921,192976,624177,0
2096921,2096921,192585,624414,0
2096921,2096921,192479,624220,0
2096921,2096921,192852,624110,0
2096921,2096921,192790,624274,0
2096921,2096921,192650,624185,0
2096921,2096921,192857,624335,0
2096921,2096921,192836,623978,0
2096921,2096921,192538,624244,0
2096921,2096921,192747,624308,0
2096921,2096921,192721,624187,0
2096921,2096921,192645,624083,0
2096921,2096921,192652,624339,0
2096921,2096921,192928,624295,0
2096921,2096921,192949,624297,0
2096921,2096921,192683,624473,0
2096921,2096921,193052,624340,0
2096921,2096921,193092,624430,0
2096921,2096921,192675,624491,0
2096921,2096921,192679,624414,0
2096921,2096921,193089,624457,0
2096921,2096921,192850,624648,0
2096921,2096921,192776,624611,0
2096921,2096921,192587,624538,0
2096921,2096921,192714,624613,0
2096921,2096921,193081,624866,0
2096921,2096921,193243,624873,0
2096921,2096921,193049,624800,0
2096921,2096921,193077,624743,0
2096921,2096921,192970,624796,0
2096921,2096921,193184,624908,0
2096921,2096921,192982,625175,0
2096921,2096921,193232,625154,0
2096921,2096921,193353,625147,0
2096921,2096921,193289,625067,0
2096921,2096921,193143,625502,0
2096921,2096921,193610,625378,0
2096921,2096921,193315,625731,0
2096921,2096921,193723,625468,0
2096921,2096921,193539,625543,0
2096921,2096921,193478,625833,0
2096921,2096921,193448,625693,0
2096921,2096921,193332,625789,0
2096921,2096921,193135,625575,0
2096921,2096921,193278,625613,0
2096921,2096921,193652,625793,0
2096921,2096921,193370,625691,0
2096921,2096921,193561,625932,0
2096921,2096921,193519,626021,0
2096921,2096921,193634,625941,0
2096921,2096921,193873,625768,0
2096921,2096921,194111,626033,0
2096921,2096921,193849,626017,0
2096921,2096921,193851,626030,0
2096921,2096921,193943,625875,0
2096921,2096921,193819,626104,0
2096921,2096921,193767,626293,0
2096921,2096921,194078,626325,0
2096921,2096921,194038,626189,0
2096921,2096921,193859,626288,0
2096921,2096921,193962,626447,0
2096921,2096921,194053,626521,0
2096921,2096921,193987,626574,0
2096921,2096921,193851,626667,0
2096921,2096921,193784,626354,0
2096921,2096921,194109,626491,0
2096921,2096921,194113,626471,0
2096921,2096921,194196,626740,0
2096921,2096921,194271,626932,0
2096921,2096921,194258,626884,0
2096921,2096921,194465,626817,0
2096921,2096921,194225,627127,0
2096921,2096921,194419,627109,0
2096921,2096921,194318,627101,0
2096921,2096921,194176,626734,0
2096921,2096921,194251,627075,0
2096921,2096921,194276,627210,0
2096921,2096921,194367,627022,0
2096921,2096921,194318,627017,0
2096921,2096921,194248,627162,0
2096921,2096921,194421,627179,0
2096921,2096921,194432,627354,0
2096921,2096921,194338,627332,0
2096921,2096921,194367,627111,0
2096921,2096921,194557,627343,0
2096921,2096921,194265,627586,0
2096921,2096921,194163,627551,0
2096921,2096921,194567,627826,0
2096921,2096921,194453,627321,0
2096921,2096921,194525,627657,0
2096921,2096921,194800,627537,0
2096921,2096921,194469,627662,0
2096921,2096921,194543,627672,0
2096921,2096921,194529,627412,0
2096921,2096921,194486,627553,0
2096921,2096921,194669,627876,0
2096921,2096921,194522,627727,0
2096921,2096921,194618,628050,0
2096921,2096921,194722,627876,0
2096921,2096921,194731,627948,0
2096921,2096921,194914,628049,0
2096921,2096921,194946,628267,0
2096921,2096921,194749,628205,0
2096921,2096921,194813,627923,0
2096921,2096921,195003,628054,0
2096921,2096921,195192,628142,0
2096921,2096921,194844,628177,0
2096921,2096921,194982,628164,0
2096921,2096921,194653,628263,0
2096921,2096921,194769,628150,0
2096921,2096921,194756,628529,0
2096921,2096921,195083,628144,0
2096921,2096921,194912,628127,0
2096921,2096921,194731,627999,0
2096921,2096921,194798,628354,0
2096921,2096921,194911,628119,0
2096921,2096921,194842,628222,0
2096921,2096921,195133,628400,0
2096921,2096921,195181,628466,0
2096921,2096921,195075,628459,0
2096921,2096921,195540,628380,0
2096921,2096921,195036,628476,0
2096921,2096921,195086,628621,0
2096921,2096921,194980,628319,0
2096921,2096921,195197,628428,0
2096921,2096921,195078,628481,0
2096921,2096921,195155,628550,0
2096921,2096921,194994,628741,0
2096921,2096921,195401,628907,0
2096921,2096921,195148,628890,0
2096921,2096921,195299,628951,0
2096921,2096921,195277,629117,0
2096921,2096921,195171,629160,0
2096921,2096921,195068,628931,0
2096921,2096921,195110,628955,0
2096921,2096921,195304,628873,0
2096921,2096921,195416,629052,0
2096921,2096921,195182,628886,0
2096921,2096921,195219,629234,0
2096921,2096921,195447,629194,0
2096921,2096921,195338,629118,0
2096921,2096921,195426,629041,0
2096921,2096921,195435,628828,0
2096921,2096921,195207,628821,0
2096921,2096921,195215,628998,0
2096921,2096921,195436,629241,0
2096921,2096921,195621,629098,0
2096921,2096921,195572,628900,0
2096921,2096921,195551,628953,0
2096921,2096921,195443,628953,0
2096921,2096921,195624,629311,0
2096921,2096921,195622,629260,0
2096921,2096921,195490,629084,0
2096921,2096921,195380,629225,0
2096921,2096921,195178,629465,0
2096921,2096921,195483,629284,0
2096921,2096921,195574,629677,0
2096921,2096921,195404,629409,0
2096921,2096921,195492,629522,0
2096921,2096921,195475,629365,0
2096921,2096921,195458,629541,0
2096921,2096921,195486,629671,0
2096921,2096921,195514,629491,0
2096921,2096921,195887,629117,0
2096921,2096921,195302,629293,0
2096921,2096921,195719,629444,0
2096921,2096921,195635,629276,0
2096921,2096921,195738,629431,0
2096921,2096921,195437,629514,0
2096921,2096921,195468,629630,0
2096921,2096921,195571,629515,0
2096921,2096921,195848,629462,0
2096921,2096921,195781,629438,0
2096921,2096921,195703,629591,0
2096921,2096921,195669,629645,0
2096921,2096921,195511,629760,0
2096921,2096921,195627,629546,0
2096921,2096921,195754,629763,0
2096921,2096921,195514,629892,0
2096921,2096921,195802,629760,0
2096921,2096921,195801,629671,0
2096921,2096921,195724,629725,0
2096921,2096921,195666,629854,0
2096921,2096921,195469,629604,0
2096921,2096921,195589,629550,0
2096921,2096921,195732,629663,0
2096921,2096921,195545,629587,0
2096921,2096921,195573,629826,0
2096921,2096921,195673,629849,0
2096921,2096921,195922,629913,0
2096921,2096921,195965,630026,0
2096921,2096921,196210,630136,0
2096921,2096921,195573,629866,0
2096921,2096921,196014,629754,0
2096921,2096921,195867,629864,0
2096921,2096921,195882,630268,0
2096921,2096921,195875,629985,0
2096921,2096921,196084,629650,0
2096921,2096921,196061,629745,0
2096921,2096921,195977,629942,0
2096921,2096921,196017,629770,0
2096921,2096921,195885,630010,0
2096921,2096921,195778,629994,0
2096921,2096921,195919,629460,0
2096921,2096921,195868,629698,0
2096921,2096921,195835,629865,0
2096921,2096921,195996,629834,0
2096921,2096921,196119,630058,0
2096921,2096921,195998,630061,0
2096921,2096921,195897,630045,0
2096921,2096921,195964,630096,0
2096921,2096921,196037,629880,0
2096921,2096921,196173,629933,0
2096921,2096921,195977,630201,0
2096921,2096921,196175,629755,0
2096921,2096921,196000,629784,0
2096921,2096921,196193,630086,0
2096921,2096921,196002,629838,0
2096921,2096921,196259,630150,0
2096921,2096921,196221,629892,0
2096921,2096921,196317,630028,0
2096921,2096921,196201,630248,0
2096921,2096921,196276,629988,0
2096921,2096921,196034,630141,0
2096921,2096921,196108,629949,0
2096921,2096921,195929,630143,0
2096921,2096921,196126,630026,0
2096921,2096921,196275,630113,0
2096921,2096921,195982,630041,0
2096921,2096921,195922,630382,0
2096921,2096921,196222,630137,0
2096921,2096921,196092,629933,0
2096921,2096921,196312,629811,0
2096921,2096921,195668,630052,0
2096921,2096921,195699,630318,0
2096921,2096921,195901,630428,0
2096921,2096921,195900,630233,0
2096921,2096921,196078,630046,0
2096921,2096921,196263,629939,0
2096921,2096921,196172,630165,0
2096921,2096921,196294,630320,0
2096921,2096921,196050,630296,0
2096921,2096921,196112,629819,0
2096921,2096921,195899,630131,0
2096921,2096921,195930,630099,0
2096921,2096921,196009,629823,0
2096921,2096921,195974,630303,0
2096921,2096921,196109,630322,0
2096921,2096921,195989,630296,0
2096921,2096921,196148,630204,0
2096921,2096921,196223,630329,0
2096921,2096921,195957,630144,0
2096921,2096921,195629,630289,0
2096921,2096921,195811,630222,0
2096921,2096921,196176,629841,0
2096921,2096921,195951,629977,0
2096921,2096921,195845,629830,0
2096921,2096921,196426,629934,0
2096921,2096921,196202,630254,0
2096921,2096921,196083,630252,0
2096921,2096921,196188,630186,0
2096921,2096921,196038,630072,0
2096921,2096921,196318,630201,0
2096921,2096921,195923,630050,0
2096921,2096921,195867,629860,0
2096921,2096921,195731,630037,0
2096921,2096921,195987,630173,0
2096921,2096921,196229,629839,0
2096921,2096921,196353,630345,0
2096921,2096921,195952,630685,0
2096921,2096921,196252,630578,0
2096921,2096921,196070,630139,0
2096921,2096921,195667,629930,0
2096921,2096921,195781,629897,0
2096921,2096921,195643,629613,0
2096921,2096921,196241,629910,0
2096921,2096921,196065,629600,0
2096921,2096921,195916,629527,0
2096921,2096921,196045,629669,0
2096921,2096921,196028,629970,0
2096921,2096921,195959,629852,0
2096921,2096921,196345,629956,0
2096921,2096921,196044,629811,0
2096921,2096921,196264,629749,0
2096921,2096921,195809,629756,0
2096921,2096921,195901,629892,0
2096921,2096921,195744,629494,0
2096921,2096921,195655,629670,0
2096921,2096921,195703,629526,0
2096921,2096921,195728,629254,0
2096921,2096921,195780,629362,0
2096921,2096921,195495,629503,0
2096921,2096921,195514,629232,0
2096921,2096921,195403,629079,0
2096921,2096921,195426,629141,0
2096921,2096921,195153,628934,0
2096921,2096921,194976,628622,0
2096921,2096921,195254,628603,0
2096921,2096921,195085,628661,0
2096921,2096921,194713,628389,0
2096921,2096921,194802,628449,0
2096921,2096921,194849,628065,0
2096921,2096921,194712,627696,0
2096921,2096921,194781,627637,0
2096921,2096921,194708,627662,0
2096921,2096921,194300,627502,0
2096921,2096921,194303,627111,0
2096921,2096921,194604,627107,0
2096921,2096921,194696,627427,0
2096921,2096921,194611,626970,0
2096921,2096921,193710,626577,0
2096921,2096921,193652,625811,0
2096921,2096921,193631,625159,0
2096921,2096921,193741,625278,0
2096921,2096921,193349,625261,0
2096921,2096921,192338,624576,0
2096921,2096921,192255,623620,0
2096921,2096921,192351,623303,0
2096921,2096921,192345,623470,0
2096921,2096921,192164,623236,0
2096921,2096921,191693,622820,0
2096921,2096921,191745,622033,0
2096921,2096921,191592,621498,0
2096921,2096921,191556,621557,0
2096921,2096921,191315,621452,0
2096921,2096921,190963,621095,0
2096921,2096921,190821,620304,0
2096921,2096921,190780,620273,0
2096921,2096921,190742,620643,0
2096921,2096921,190849,620451,0
2096921,2096921,190523,620304,0
2096921,2096921,190332,619993,0
2096921,2096921,190164,619765,0
2096921,2096921,190383,619766,0
2096921,2096921,190726,619421,0
2096921,2096921,190400,619143,0
2096921,2096921,190187,618684,0
2096921,2096921,190175,618996,0
2096921,2096921,189942,618740,0
2096921,2096921,189985,618749,0
2096921,2096921,189840,618797,0
2096921,2096921,189594,618589,0
2096921,2096921,189537,618691,0
2096921,2096921,189616,618419,0
2096921,2096921,189617,618401,0
2096921,2096921,189723,618438,0
2096921,2096921,189531,618148,0
2096921,2096921,189502,617952,0
2096921,2096921,189618,618023,0
2096921,2096921,189475,618124,0
2096921,2096921,189433,618153,0
2096921,2096921,189506,617904,0
2096921,2096921,189490,618004,0
2096921,2096921,189278,617679,0
2096921,2096921,189447,617855,0
2096921,2096921,189533,617865,0
2096921,2096921,189598,617827,0
2096921,2096921,189800,617972,0
2096921,2096921,189521,617923,0
2096921,2096921,189492,617953,0
2096921,2096921,189632,617619,0
2096921,2096921,189492,617948,0
2096921,2096921,189638,618056,0
2096921,2096921,189708,618027,0
2096921,2096921,189770,617814,0
2096921,2096921,189415,617952,0
2096921,2096921,189605,617915,0
2096921,2096921,189667,617838,0
2096921,2096921,189902,617967,0
2096921,2096921,189930,618120,0
2096921,2096921,189669,618054,0
2096921,2096921,189632,618216,0
2096921,2096921,189474,618003,0
2096921,2096921,189481,618198,0
2096921,2096921,189393,617922,0
2096921,2096921,189920,617923,0
2096921,2096921,189809,618202,0
2096921,2096921,189835,618314,0
2096921,2096921,189724,618276,0
2096921,2096921,189851,618233,0
2096921,2096921,189951,618247,0
2096921,2096921,189992,618560,0
2096921,2096921,189814,618517,0
2096921,2096921,189669,618629,0
2096921,2096921,189868,618460,0
2096921,2096921,190030,618556,0
2096921,2096921,189868,618894,0
2096921,2096921,190190,618983,0
2096921,2096921,190220,618826,0
2096921,2096921,190052,619096,0
2096921,2096921,190156,619171,0
2096921,2096921,190303,619255,0
2096921,2096921,190115,619119,0
2096921,2096921,190457,618884,0
2096921,2096921,190250,618960,0
2096921,2096921,190336,619142,0
2096921,2096921,190458,619279,0
2096921,2096921,190355,619272,0
2096921,2096921,190393,619412,0
2096921,2096921,190566,619179,0
2096921,2096921,190462,619273,0
2096921,2096921,190822,619698,0
2096921,2096921,190446,619747,0
2096921,2096921,190470,619667,0
2096921,2096921,190720,619395,0
2096921,2096921,190832,619675,0
2096921,2096921,190816,619617,0
2096921,2096921,190498,619938,0
2096921,2096921,191010,620064,0
2096921,2096921,190807,620007,0
2096921,2096921,191215,620091,0
2096921,2096921,190981,620280,0
2096921,2096921,191187,620024,0
2096921,2096921,191091,620083,0
2096921,2096921,190656,619931,0
2096921,2096921,191049,620419,0
2096921,2096921,191401,620354,0
2096921,2096921,191230,620358,0
2096921,2096921,190988,620431,0
2096921,2096921,191513,620713,0
2096921,2096921,191471,620650,0
2096921,2096921,191156,620797,0
2096921,2096921,191433,620917,0
2096921,2096921,191297,620756,0
2096921,2096921,191411,620673,0
2096921,2096921,191315,620450,0
2096921,2096921,191451,621042,0
2096921,2096921,191693,621211,0
2096921,2096921,191737,621009,0
2096921,2096921,191707,621101,0
2096921,2096921,191637,621134,0
2096921,2096921,191639,621274,0
2096921,2096921,191566,621296,0
2096921,2096921,191660,621218,0
2096921,2096921,191670,621241,0
2096921,2096921,191408,621724,0
2096921,2096921,191827,621678,0
2096921,2096921,191782,621435,0
2096921,2096921,191959,621898,0
2096921,2096921,192048,621797,0
2096921,2096921,191875,621920,0
2096921,2096921,191689,621897,0
2096921,2096921,191903,621953,0
2096921,2096921,191975,621721,0
2096921,2096921,191897,621725,0
2096921,2096921,191991,621760,0
2096921,2096921,191909,621876,0
2096921,2096921,191934,621956,0
2096921,2096921,191855,622062,0
2096921,2096921,192095,621811,0
2096921,2096921,192275,622016,0
2096921,2096921,191876,621902,0
2096921,2096921,191749,621816,0
2096921,2096921,191855,621617,0
2096921,2096921,192277,622312,0
2096921,2096921,191898,622039,0
2096921,2096921,192072,621644,0
2096921,2096921,192235,622108,0
2096921,2096921,192158,621719,0
2096921,2096921,192126,622196,0
2096921,2096921,192170,621854,0
2096921,2096921,191982,621980,0
2096921,2096921,191760,621775,0
2096921,2096921,192006,621882,0
2096921,2096921,192130,621622,0
2096921,2096921,192058,622049,0
2096921,2096921,191842,621935,0
2096921,2096921,191898,621764,0
2096921,2096921,192217,621880,0
2096921,2096921,192065,621919,0
2096921,2096921,191992,621785,0
2096921,2096921,191659,621404,0
2096921,2096921,191840,621583,0
2096921,2096921,191775,621719,0
2096921,2096921,191700,621577,0
2096921,2096921,192126,621757,0
2096921,2096921,191752,621519,0
2096921,2096921,192306,621393,0
2096921,2096921,191994,621486,0
2096921,2096921,192045,621143,0
2096921,2096921,191752,621199,0
2096921,2096921,191888,621287,0
2096921,2096921,191921,621400,0
2096921,2096921,191773,621147,0
2096921,2096921,191746,621136,0
2096921,2096921,191519,621085,0
2096921,2096921,191478,621236,0
2096921,2096921,191551,620641,0
2096921,2096921,191748,620990,0
2096921,2096921,191924,620887,0
2096921,2096921,191646,620848,0
2096921,2096921,191547,620904,0
2096921,2096921,191550,620919,0
2096921,2096921,191580,620711,0
2096921,2096921,191718,620868,0
2096921,2096921,191365,620867,0
2096921,2096921,191429,620778,0
2096921,2096921,191629,620438,0
2096921,2096921,191794,620997,0
2096921,2096921,191617,621106,0
2096921,2096921,191619,620871,0
2096921,2096921,191365,620993,0
2096921,2096921,191506,620629,0
2096921,2096921,191443,620742,0
2096921,2096921,191215,620688,0
2096921,2096921,191422,621009,0
2096921,2096921,191463,620876,0
2096921,2096921,191376,620755,0
2096921,2096921,191723,620763,0
2096921,2096921,191719,621004,0
2096921,2096921,191239,620678,0
2096921,2096921,191452,620570,0
2096921,2096921,191605,620750,0
2096921,2096921,191458,620896,0
2096921,2096921,191851,620622,0
2096921,2096921,191607,620817,0
2096921,2096921,191260,620799,0
2096921,2096921,191480,620671,0
2096921,2096921,191543,620792,0
2096921,2096921,191623,620743,0
2096921,2096921,191652,620849,0
2096921,2096921,191596,620851,0
2096921,2096921,191984,620759,0
2096921,2096921,191601,620915,0
2096921,2096921,191540,620501,0
2096921,2096921,191775,621028,0
2096921,2096921,191920,621259,0
2096921,2096921,192024,621184,0
2096921,2096921,192068,621127,0
2096921,2096921,192128,621382,0
2096921,2096921,192175,621502,0
2096921,2096921,191838,621428,0
2096921,2096921,191844,621523,0
2096921,2096921,191951,621096,0
2096921,2096921,191861,621194,0
2096921,2096921,191919,621397,0
2096921,2096921,192097,621553,0
2096921,2096921,192062,621611,0
2096921,2096921,192182,621402,0
2096921,2096921,191975,621552,0
2096921,2096921,192325,621738,0
2096921,2096921,192472,621840,0
2096921,2096921,192337,621864,0
2096921,2096921,192137,621763,0
2096921,2096921,192049,621445,0
2096921,2096921,192010,621506,0
2096921,2096921,192280,621538,0
2096921,2096921,192352,621710,0
2096921,2096921,192435,621571,0
2096921,2096921,192177,621907,0
2096921,2096921,192192,621376,0
2096921,2096921,192103,621803,0
2096921,2096921,192234,621670,0
2096921,2096921,192124,621532,0
2096921,2096921,192587,621629,0
2096921,2096921,192399,621753,0
2096921,2096921,192410,621582,0
2096921,2096921,192512,621889,0
2096921,2096921,192328,622042,0
2096921,2096921,192611,621842,0
2096921,2096921,192491,621896,0
2096921,2096921,192401,622429,0
2096921,2096921,192479,622082,0
2096921,2096921,192423,621851,0
2096921,2096921,192396,622075,0
2096921,2096921,192790,622041,0
2096921,2096921,192476,622255,0
2096921,2096921,192537,622214,0
2096921,2096921,192783,622118,0
2096921,2096921,192712,622192,0
2096921,2096921,192635,622191,0
2096921,2096921,192976,622266,0
2096921,2096921,192656,622118,0
2096921,2096921,192512,622384,0
2096921,2096921,192821,622338,0
2096921,2096921,192849,622323,0
2096921,2096921,192987,622115,0
2096921,2096921,192960,622294,0
2096921,2096921,192894,622504,0
2096921,2096921,193047,622314,0
2096921,2096921,193092,622675,0
2096921,2096921,193018,622603,0
2096921,2096921,192916,622838,0
2096921,2096921,192838,622612,0
2096921,2096921,192794,622510,0
2096921,2096921,192947,622716,0
2096921,2096921,192851,622800,0
2096921,2096921,192814,622618,0
2096921,2096921,193036,622611,0
2096921,2096921,192882,622543,0
2096921,2096921,192981,622747,0
2096921,2096921,192962,622791,0
2096921,2096921,193052,622980,0
2096921,2096921,192850,622669,0
2096921,2096921,193191,622403,0
2096921,2096921,193186,622608,0
2096921,2096921,193041,623107,0
2096921,2096921,193056,623054,0
2096921,2096921,193192,622910,0
2096921,2096921,193251,623013,0
2096921,2096921,193318,622990,0
2096921,2096921,193262,622825,0
2096921,2096921,193437,622825,0
2096921,2096921,193174,623127,0
2096921,2096921,193116,622888,0
2096921,2096921,193360,622955,0
2096921,2096921,193442,622921,0
2096921,2096921,193220,623128,0
2096921,2096921,192986,622960,0
2096921,2096921,193331,623322,0
2096921,2096921,193877,623373,0
2096921,2096921,193297,623511,0
2096921,2096921,193543,623242,0
2096921,2096921,193137,623043,0
2096921,2096921,193327,623067,0
2096921,2096921,193539,623161,0
2096921,2096921,193798,623218,0
2096921,2096921,193501,622912,0
2096921,2096921,193420,622965,0
2096921,2096921,193765,623294,0
2096921,2096921,193670,623564,0
2096921,2096921,193474,623444,0
2096921,2096921,193340,623231,0
2096921,2096921,193511,623268,0
2096921,2096921,193685,623307,0
2096921,2096921,193570,623204,0
2096921,2096921,193644,623274,0
2096921,2096921,193469,623344,0
2096921,2096921,193843,623405,0
2096921,2096921,193574,623461,0
2096921,2096921,193462,623603,0
2096921,2096921,193766,623648,0
2096921,2096921,193631,623451,0
2096921,2096921,193427,623122,0
2096921,2096921,193320,623408,0
2096921,2096921,193680,623325,0
2096921,2096921,193622,623762,0
2096921,2096921,193482,623615,0
2096921,2096921,193723,623520,0
2096921,2096921,193909,623942,0
2096921,2096921,193943,623864,0
2096921,2096921,193583,623881,0
2096921,2096921,193701,623439,0
2096921,2096921,193414,623382,0
2096921,2096921,193501,623691,0
2096921,2096921,193437,623644,0
2096921,2096921,193571,623767,0
2096921,2096921,193851,623761,0
2096921,2096921,193870,623629,0
2096921,2096921,193925,623619,0
2096921,2096921,193881,623858,0
2096921,2096921,193498,623688,0
2096921,2096921,193651,623688,0
2096921,2096921,193749,623694,0
2096921,2096921,193253,623440,0
2096921,2096921,193667,623965,0
2096921,2096921,193733,623969,0
2096921,2096921,193928,624121,0
2096921,2096921,194021,623673,0
2096921,2096921,193787,624011,0
2096921,2096921,193632,623716,0
2096921,2096921,193881,623489,0
2096921,2096921,193750,623358,0
2096921,2096921,193908,623721,0
2096921,2096921,193613,624029,0
2096921,2096921,193739,623864,0
2096921,2096921,193751,623687,0
2096921,2096921,194055,623581,0
2096921,2096921,193883,624024,0
2096921,2096921,193747,624092,0
2096921,2096921,193966,623915,0
2096921,2096921,194093,623996,0
2096921,2096921,193959,623782,0
2096921,2096921,193954,623611,0
2096921,2096921,193807,623697,0
2096921,2096921,193700,623807,0
2096921,2096921,193887,623984,0
2096921,2096921,194111,623888,0
2096921,2096921,194159,623835,0
2096921,2096921,193919,623847,0
2096921,2096921,194103,624014,0
2096921,2096921,193838,623785,0
2096921,2096921,193763,623611,0
2096921,2096921,193682,623716,0
2096921,2096921,193934,623713,0
2096921,2096921,194005,624043,0
2096921,2096921,193976,623845,0
2096921,2096921,193962,624176,0
2096921,2096921,194129,624116,0
2096921,2096921,193929,624194,0
2096921,2096921,193998,624132,0
2096921,2096921,193960,623737,0
2096921,2096921,193977,623969,0
2096921,2096921,193830,624012,0
2096921,2096921,193857,624024,0
2096921,2096921,193819,624005,0
2096921,2096921,193779,623830,0
2096921,2096921,193799,623792,0
2096921,2096921,193813,623743,0
2096921,2096921,193840,624187,0
2096921,2096921,194000,624007,0
2096921,2096921,193984,624292,0
2096921,2096921,194181,624115,0
2096921,2096921,193833,624097,0
2096921,2096921,193940,623657,0
2096921,2096921,193905,623979,0
2096921,2096921,194088,624081,0
2096921,2096921,194066,623918,0
2096921,2096921,194428,623661,0
2096921,2096921,194435,624007,0
2096921,2096921,194160,624143,0
2096921,2096921,194223,624345,0
2096921,2096921,194108,623734,0
2096921,2096921,194063,623961,0
2096921,2096921,193983,624251,0
2096921,2096921,194227,624041,0
2096921,2096921,194203,624063,0
2096921,2096921,193996,624495,0
2096921,2096921,194124,624275,0
2096921,2096921,193995,624269,0
2096921,2096921,194229,624069,0
2096921,2096921,193988,624012,0
2096921,2096921,193994,624147,0
2096921,2096921,194116,624258,0
2096921,2096921,194273,624109,0
2096921,2096921,193642,623956,0
2096921,2096921,194167,623950,0
2096921,2096921,194070,624369,0
2096921,2096921,194070,624283,0
2096921,2096921,194131,624079,0
2096921,2096921,194309,624232,0
2096921,2096921,193877,624338,0
2096921,2096921,194311,624274,0
2096921,2096921,193961,623966,0
2096921,2096921,194297,624202,0
2096921,2096921,193932,624391,0
2096921,2096921,193886,624409,0
2096921,2096921,194360,623969,0
2096921,2096921,194393,624184,0
2096921,2096921,194261,624331,0
2096921,2096921,194405,624013,0
2096921,2096921,194265,624294,0
2096921,2096921,194096,624147,0
2096921,2096921,193908,624303,0
2096921,2096921,194097,624226,0
2096921,2096921,193854,624184,0
2096921,2096921,193797,624130,0
2096921,2096921,193861,624043,0
2096921,2096921,194036,624219,0
2096921,2096921,193940,624197,0
2096921,2096921,194147,624243,0
2096921,2096921,194166,624130,0
2096921,2096921,194027,624212,0
2096921,2096921,194040,623731,0
2096921,2096921,193984,623831,0
2096921,2096921,193890,624414,0
2096921,2096921,194124,624294,0
2096921,2096921,194333,624200,0
2096921,2096921,194094,624516,0
2096921,2096921,194421,624300,0
2096921,2096921,194449,623900,0
2096921,2096921,193958,623977,0
2096921,2096921,193942,624299,0
2096921,2096921,193985,624144,0
2096921,2096921,193728,624134,0
2096921,2096921,193984,624178,0
2096921,2096921,193809,624261,0
2096921,2096921,193930,624109,0
2096921,2096921,193759,624175,0
2096921,2096921,193967,624127,0
2096921,2096921,194070,624513,0
2096921,2096921,194001,624189,0
2096921,2096921,194140,624001,0
2096921,2096921,194025,623825,0
2096921,2096921,194111,624067,0
2096921,2096921,194319,624000,0
2096921,2096921,194311,624219,0
2096921,2096921,194330,623998,0
2096921,2096921,193909,624199,0
2096921,2096921,194062,624037,0
2096921,2096921,193793,624199,0
2096921,2096921,194090,624119,0
2096921,2096921,193963,623829,0
2096921,2096921,193640,623695,0
2096921,2096921,194049,624278,0
2096921,2096921,193751,623738,0
2096921,2096921,193825,623631,0
2096921,2096921,193872,623745,0
2096921,2096921,193922,623707,0
2096921,2096921,193996,623570,0
2096921,2096921,193992,623420,0
2096921,2096921,193706,623635,0
2096921,2096921,193472,623555,0
2096921,2096921,193424,623366,0
2096921,2096921,193449,623535,0
2096921,2096921,193512,623100,0
2096921,2096921,193322,622721,0
2096921,2096921,193293,622781,0
2096921,2096921,193676,622786,0
2096921,2096921,193591,622938,0
2096921,2096921,193136,622793,0
2096921,2096921,193041,622487,0
2096921,2096921,193164,622443,0
2096921,2096921,192983,622186,0
2096921,2096921,193116,622202,0
2096921,2096921,192813,622127,0
2096921,2096921,192806,621729,0
2096921,2096921,192817,621531,0
2096921,2096921,192808,621710,0
2096921,2096921,192692,621650,0
2096921,2096921,191847,621101,0
2096921,2096921,192029,620137,0
2096921,2096921,191666,620051,0
2096921,2096921,191682,619854,0
2096921,2096921,191736,619684,0
2096921,2096921,190755,619057,0
2096921,2096921,190401,618037,0
2096921,2096921,190614,617909,0
2096921,2096921,190523,617926,0
2096921,2096921,190615,618143,0
2096921,2096921,189935,617411,0
2096921,2096921,189759,616848,0
2096921,2096921,189666,616527,0
2096921,2096921,189905,616242,0
2096921,2096921,189827,616429,0
2096921,2096921,189475,616209,0
2096921,2096921,189249,615378,0
2096921,2096921,188944,615166,0
2096921,2096921,189517,615333,0
2096921,2096921,189201,615342,0
2096921,2096921,188755,614810,0
2096921,2096921,188534,614610,0
2096921,2096921,188647,614358,0
2096921,2096921,188399,614380,0
2096921,2096921,188621,614190,0
2096921,2096921,188288,614318,0
2096921,2096921,188344,613609,0
2096921,2096921,188222,613906,0
2096921,2096921,188355,613499,0
2096921,2096921,188538,613716,0
2096921,2096921,188340,613853,0
2096921,2096921,188295,613926,0
2096921,2096921,188028,613336,0
2096921,2096921,188052,613363,0
2096921,2096921,188159,613350,0
2096921,2096921,188196,613041,0
2096921,2096921,188084,613009,0
2096921,2096921,187746,613067,0
2096921,2096921,187814,613115,0
2096921,2096921,188017,613316,0
2096921,2096921,187779,612844,0
2096921,2096921,188190,613253,0
2096921,2096921,187607,612865,0
2096921,2096921,187520,612966,0
2096921,2096921,187732,612780,0
2096921,2096921,187944,613103,0
2096921,2096921,187780,612857,0
2096921,2096921,188252,612743,0
2096921,2096921,188345,612908,0
2096921,2096921,188092,613087,0
2096921,2096921,187778,613033,0
2096921,2096921,188188,613136,0
2096921,2096921,187851,613303,0
2096921,2096921,187742,613188,0
2096921,2096921,187626,612927,0
2096921,2096921,187782,613058,0
2096921,2096921,188140,613461,0
2096921,2096921,187952,613165,0
2096921,2096921,188018,613284,0
2096921,2096921,188102,613404,0
2096921,2096921,188240,613198,0
2096921,2096921,188082,613616,0
2096921,2096921,187789,613463,0
2096921,2096921,187931,613266,0
2096921,2096921,188156,613112,0
2096921,2096921,188309,613448,0
2096921,2096921,188378,613828,0
2096921,2096921,188373,613980,0
2096921,2096921,188565,613985,0
2096921,2096921,188298,613862,0
2096921,2096921,188639,613869,0
2096921,2096921,188830,613927,0
2096921,2096921,188487,614355,0
2096921,2096921,188041,614073,0
2096921,2096921,188221,614070,0
2096921,2096921,188331,614094,0
2096921,2096921,188662,614234,0
2096921,2096921,188757,614476,0
2096921,2096921,188835,614421,0
2096921,2096921,188962,614680,0
2096921,2096921,188691,614441,0
2096921,2096921,188907,614553,0
2096921,2096921,188878,614503,0
2096921,2096921,188923,614847,0
2096921,2096921,188980,614678,0
2096921,2096921,189169,615054,0
2096921,2096921,189086,615080,0
2096921,2096921,189123,615027,0
2096921,2096921,189252,615261,0
2096921,2096921,189323,615176,0
2096921,2096921,189276,615091,0
2096921,2096921,189396,615354,0
2096921,2096921,189272,615458,0
2096921,2096921,189225,615552,0
2096921,2096921,189391,615308,0
2096921,2096921,189445,615574,0
2096921,2096921,189298,615751,0
2096921,2096921,189810,615920,0
2096921,2096921,189592,615831,0
2096921,2096921,189611,615902,0
2096921,2096921,189560,616234,0
2096921,2096921,189605,616176,0
2096921,2096921,189447,616249,0
2096921,2096921,189604,616031,0
2096921,2096921,189629,616094,0
2096921,2096921,189952,616039,0
2096921,2096921,189683,616187,0
2096921,2096921,189923,616362,0
2096921,2096921,189909,616546,0
2096921,2096921,189979,616234,0
2096921,2096921,189979,616487,0
2096921,2096921,189940,616939,0
2096921,2096921,189891,616692,0
2096921,2096921,190191,616427,0
2096921,2096921,189978,616597,0
2096921,2096921,189824,617069,0
2096921,2096921,190077,617124,0
2096921,2096921,190002,617232,0
2096921,2096921,190069,617146,0
2096921,2096921,190039,617095,0
2096921,2096921,190527,617578,0
2096921,2096921,190372,617598,0
2096921,2096921,190311,617790,0
2096921,2096921,190528,617395,0
2096921,2096921,190649,617463,0
2096921,2096921,190572,617688,0
2096921,2096921,190512,617868,0
2096921,2096921,191089,617816,0
2096921,2096921,191055,617700,0
2096921,2096921,190613,617964,0
2096921,2096921,190818,617941,0
2096921,2096921,190833,618020,0
2096921,2096921,190758,617879,0
2096921,2096921,190753,617819,0
2096921,2096921,190710,618108,0
2096921,2096921,191041,618014,0
2096921,2096921,191035,618134,0
2096921,2096921,191159,618525,0
2096921,2096921,190865,618405,0
2096921,2096921,191245,618163,0
2096921,2096921,191251,618391,0
2096921,2096921,191171,618365,0
2096921,2096921,190783,618421,0
2096921,2096921,190789,618487,0
2096921,2096921,190820,618455,0
2096921,2096921,190998,618464,0
2096921,2096921,190796,618144,0
2096921,2096921,190998,618385,0
2096921,2096921,190858,618508,0
2096921,2096921,190767,618308,0
2096921,2096921,191233,618568,0
2096921,2096921,191072,618381,0
2096921,2096921,191123,618725,0
2096921,2096921,191050,618587,0
2096921,2096921,190938,618518,0
2096921,2096921,191079,618660,0
2096921,2096921,191052,618597,0
2096921,2096921,191345,618650,0
2096921,2096921,191135,618638,0
2096921,2096921,190898,618601,0
2096921,2096921,190984,618597,0
2096921,2096921,190874,618601,0
2096921,2096921,190869,618415,0
2096921,2096921,190880,618478,0
2096921,2096921,190924,618512,0
2096921,2096921,190747,618613,0
2096921,2096921,190851,618491,0
2096921,2096921,190971,618283,0
2096921,2096921,190960,618688,0
2096921,2096921,190876,618605,0
2096921,2096921,190628,618658,0
2096921,2096921,190752,618506,0
2096921,2096921,190940,618553,0
2096921,2096921,190665,618529,0
2096921,2096921,190890,618212,0
2096921,2096921,190956,618120,0
2096921,2096921,190932,617954,0
2096921,2096921,190876,618170,0
2096921,2096921,190801,618188,0
2096921,2096921,190888,618154,0
2096921,2096921,190779,617966,0
2096921,2096921,190755,618158,0
2096921,2096921,190610,618227,0
2096921,2096921,190880,618267,0
2096921,2096921,190656,618103,0
2096921,2096921,190718,617972,0
2096921,2096921,190727,618220,0
2096921,2096921,191093,618488,0
2096921,2096921,191025,618267,0
2096921,2096921,190722,618607,0
2096921,2096921,190752,618499,0
2096921,2096921,190946,618482,0
2096921,2096921,191054,618087,0
2096921,2096921,190914,618357,0
2096921,2096921,190760,618489,0
2096921,2096921,190900,618532,0
2096921,2096921,190537,618174,0
2096921,2096921,190579,618067,0
2096921,2096921,190842,618337,0
2096921,2096921,190869,618353,0
2096921,2096921,190676,618330,0
2096921,2096921,190870,618261,0
2096921,2096921,191009,618242,0
2096921,2096921,190998,618026,0
2096921,2096921,191021,618138,0
2096921,2096921,191163,618198,0
2096921,2096921,191237,618325,0
2096921,2096921,190864,618887,0
2096921,2096921,190917,618698,0
2096921,2096921,190939,618776,0
2096921,2096921,191012,618742,0
2096921,2096921,191172,618823,0
2096921,2096921,191193,618631,0
2096921,2096921,190790,618667,0
2096921,2096921,190901,618558,0
2096921,2096921,190975,618929,0
2096921,2096921,191206,618930,0
2096921,2096921,191007,618931,0
2096921,2096921,191180,619132,0
2096921,2096921,191399,619134,0
2096921,2096921,191384,619488,0
2096921,2096921,191107,619537,0
2096921,2096921,191375,619307,0
2096921,2096921,191489,619379,0
2096921,2096921,191177,619530,0
2096921,2096921,191355,619423,0
2096921,2096921,191475,619488,0
2096921,2096921,191569,619746,0
2096921,2096921,191441,619756,0
2096921,2096921,191552,619962,0
2096921,2096921,191837,619890,0
2096921,2096921,191904,619784,0
2096921,2096921,191786,620059,0
2096921,2096921,191738,620043,0
2096921,2096921,191428,619968,0
2096921,2096921,191722,620074,0
2096921,2096921,191762,620143,0
2096921,2096921,191597,620572,0
2096921,2096921,191891,620114,0
2096921,2096921,191653,620226,0
2096921,2096921,191914,620213,0
2096921,2096921,191614,620531,0
2096921,2096921,191517,620731,0
2096921,2096921,192029,620311,0
2096921,2096921,192036,620364,0
2096921,2096921,191933,620307,0
2096921,2096921,191992,620689,0
2096921,2096921,192089,620864,0
2096921,2096921,192192,620892,0
2096921,2096921,192065,620913,0
2096921,2096921,192345,620817,0
2096921,2096921,191930,620696,0
2096921,2096921,192141,620828,0
2096921,2096921,191895,620866,0
2096921,2096921,191992,621220,0
2096921,2096921,192253,621126,0
2096921,2096921,192360,621447,0
2096921,2096921,192303,621417,0
2096921,2096921,192358,621368,0
2096921,2096921,192120,621268,0
2096921,2096921,192194,621544,0
2096921,2096921,192512,621781,0
2096921,2096921,192363,621818,0
2096921,2096921,192418,621315,0
2096921,2096921,192408,621448,0
2096921,2096921,192471,621745,0
2096921,2096921,192627,621396,0
2096921,2096921,192492,621505,0
2096921,2096921,192589,621645,0
2096921,2096921,192372,621669,0
2096921,2096921,192440,621870,0
2096921,2096921,192585,621993,0
2096921,2096921,192440,621848,0
2096921,2096921,192321,621926,0
2096921,2096921,192782,621854,0
2096921,2096921,192550,621899,0
2096921,2096921,192640,621837,0
2096921,2096921,192649,622161,0
2096921,2096921,192855,622338,0
2096921,2096921,192789,622562,0
2096921,2096921,192629,622376,0
2096921,2096921,192790,622442,0
2096921,2096921,192507,622771,0
2096921,2096921,192986,622539,0
2096921,2096921,193026,622239,0
2096921,2096921,193205,622561,0
2096921,2096921,192820,622839,0
2096921,2096921,192906,622539,0
2096921,2096921,193076,622722,0
2096921,2096921,193191,622634,0
2096921,2096921,193301,622992,0
2096921,2096921,193374,622666,0
2096921,2096921,192938,623049,0
2096921,2096921,192885,622887,0
2096921,2096921,192912,622900,0
2096921,2096921,193323,622905,0
2096921,2096921,193158,623400,0
2096921,2096921,193243,623340,0
2096921,2096921,193412,623349,0
2096921,2096921,193353,623533,0
2096921,2096921,193119,623198,0
2096921,2096921,193441,623305,0
2096921,2096921,193586,623224,0
2096921,2096921,193367,623136,0
2096921,2096921,193515,623067,0
2096921,2096921,193733,623089,0
2096921,2096921,193412,623558,0
2096921,2096921,193361,623278,0
2096921,2096921,193362,623501,0
2096921,2096921,193092,623515,0
2096921,2096921,193450,623607,0
2096921,2096921,193427,623683,0
2096921,2096921,193445,623741,0
2096921,2096921,193412,623417,0
2096921,2096921,193275,623350,0
2096921,2096921,193633,623836,0
2096921,2096921,193688,623841,0
2096921,2096921,193597,623790,0
2096921,2096921,193754,623890,0
2096921,2096921,194040,623930,0
2096921,2096921,193549,624058,0
2096921,2096921,193798,624005,0
2096921,2096921,193855,624274,0
2096921,2096921,193739,623910,0
2096921,2096921,193467,624030,0
2096921,2096921,193562,624049,0
2096921,2096921,193671,624163,0
2096921,2096921,193839,624207,0
2096921,2096921,193895,624270,0
2096921,2096921,194001,624303,0
2096921,2096921,193783,624608,0
2096921,2096921,194034,624625,0
2096921,2096921,193723,624775,0
2096921,2096921,193780,624712,0
2096921,2096921,193949,624840,0
2096921,2096921,193817,624488,0
2096921,2096921,194127,625183,0
2096921,2096921,194091,624795,0
2096921,2096921,193957,624717,0
2096921,2096921,194288,624823,0
2096921,2096921,194196,624730,0
2096921,2096921,193803,624745,0
2096921,2096921,193802,624635,0
2096921,2096921,194111,624740,0
2096921,2096921,193732,625249,0
2096921,2096921,193827,624864,0
2096921,2096921,193993,624893,0
2096921,2096921,193894,625164,0
2096921,2096921,194061,625006,0
2096921,2096921,194236,625147,0
2096921,2096921,194378,624962,0
2096921,2096921,194316,625599,0
2096921,2096921,194207,625285,0
2096921,2096921,194019,625286,0
2096921,2096921,194252,624938,0
2096921,2096921,193963,625257,0
2096921,2096921,194158,625414,0
2096921,2096921,194410,625545,0
2096921,2096921,194222,625087,0
2096921,2096921,194206,625688,0
2096921,2096921,194249,625231,0
2096921,2096921,194307,625657,0
2096921,2096921,194145,625631,0
2096921,2096921,194013,625164,0
2096921,2096921,194042,625267,0
2096921,2096921,194194,625654,0
2096921,2096921,194206,625536,0
2096921,2096921,194265,625682,0
2096921,2096921,194551,625730,0
2096921,2096921,194471,625662,0
2096921,2096921,194381,625659,0
2096921,2096921,194393,625652,0
2096921,2096921,194144,625967,0
2096921,2096921,194245,625705,0
2096921,2096921,194532,625511,0
2096921,2096921,194726,625927,0
2096921,2096921,194594,625978,0
2096921,2096921,194624,625958,0
2096921,2096921,194505,625961,0
2096921,2096921,194825,625798,0
2096921,2096921,194555,626024,0
2096921,2096921,194693,626184,0
2096921,2096921,194720,626117,0
2096921,2096921,194063,626398,0
2096921,2096921,194527,626187,0
2096921,2096921,194603,626083,0
2096921,2096921,194619,626052,0
2096921,2096921,194827,626001,0
2096921,2096921,194959,626272,0
2096921,2096921,194803,625871,0
2096921,2096921,194715,626375,0
2096921,2096921,194693,626242,0
2096921,2096921,194783,626231,0
2096921,2096921,194605,626286,0
2096921,2096921,194686,626366,0
2096921,2096921,194552,626399,0
2096921,2096921,194916,626361,0
2096921,2096921,194772,626412,0
2096921,2096921,194725,626338,0
2096921,2096921,194515,626345,0
2096921,2096921,194564,626629,0
2096921,2096921,194795,626669,0
2096921,2096921,194684,626623,0
2096921,2096921,194848,626711,0
2096921,2096921,194728,626464,0
2096921,2096921,194624,626813,0
2096921,2096921,194526,626659,0
2096921,2096921,194753,626942,0
2096921,2096921,195000,626603,0
2096921,2096921,194825,626964,0
2096921,2096921,194874,626823,0
2096921,2096921,195055,627260,0
2096921,2096921,195126,626706,0
2096921,2096921,194764,626815,0
2096921,2096921,194993,626835,0
2096921,2096921,195022,626811,0
2096921,2096921,194891,626842,0
2096921,2096921,195131,627196,0
2096921,2096921,195049,627026,0
2096921,2096921,195034,626966,0
2096921,2096921,195545,627081,0
2096921,2096921,195157,627086,0
2096921,2096921,194789,627040,0
2096921,2096921,194884,627187,0
2096921,2096921,195305,627093,0
2096921,2096921,195096,627058,0
2096921,2096921,195064,627006,0
2096921,2096921,195223,627249,0
2096921,2096921,195014,627147,0
2096921,2096921,195247,626912,0
2096921,2096921,195118,627136,0
2096921,2096921,195072,627498,0
2096921,2096921,194880,627429,0
2096921,2096921,194889,627126,0
2096921,2096921,195043,627197,0
2096921,2096921,194978,627330,0
2096921,2096921,195166,627439,0
2096921,2096921,195063,627317,0
2096921,2096921,194964,627358,0
2096921,2096921,194833,627368,0
2096921,2096921,195041,627548,0
2096921,2096921,195269,627649,0
2096921,2096921,195404,627496,0
2096921,2096921,195021,627576,0
2096921,2096921,194918,627621,0
2096921,2096921,194986,627521,0
2096921,2096921,195233,627479,0
2096921,2096921,194973,627633,0
2096921,2096921,195344,627425,0
2096921,2096921,195146,627685,0
2096921,2096921,195377,627729,0
2096921,2096921,195145,627640,0
2096921,2096921,195118,627671,0
2096921,2096921,195169,627382,0
2096921,2096921,195037,627664,0
2096921,2096921,195127,627579,0
2096921,2096921,195289,627787,0
2096921,2096921,195301,628135,0
2096921,2096921,195265,627710,0
2096921,2096921,195371,627955,0
2096921,2096921,195082,627752,0
2096921,2096921,195319,627669,0
2096921,2096921,195487,627734,0
2096921,2096921,195216,627564,0
2096921,2096921,195366,627636,0
2096921,2096921,195448,627584,0
2096921,2096921,195186,627808,0
2096921,2096921,195395,627398,0
2096921,2096921,195199,627961,0
2096921,2096921,195409,628088,0
2096921,2096921,195294,627827,0
2096921,2096921,195350,627744,0
2096921,2096921,195318,628015,0
2096921,2096921,195401,628094,0
2096921,2096921,195378,628167,0
2096921,2096921,195419,627876,0
2096921,2096921,195189,627726,0
2096921,2096921,195212,627772,0
2096921,2096921,195112,627964,0
2096921,2096921,195312,627586,0
2096921,2096921,195066,627804,0
2096921,2096921,195170,627587,0
2096921,2096921,194926,627456,0
2096921,2096921,194948,627217,0
2096921,2096921,195266,627526,0
2096921,2096921,194917,627403,0
2096921,2096921,195128,627256,0
2096921,2096921,194666,627236,0
2096921,2096921,194998,627397,0
2096921,2096921,194721,627170,0
2096921,2096921,194514,627067,0
2096921,2096921,194263,626734,0
2096921,2096921,194164,626497,0
2096921,2096921,194361,626505,0
2096921,2096921,194305,626514,0
2096921,2096921,194052,626060,0
2096921,2096921,194023,625756,0
2096921,2096921,193966,625829,0
2096921,2096921,193974,625793,0
2096921,2096921,194128,625692,0
2096921,2096921,193380,625393,0
2096921,2096921,192927,624636,0
2096921,2096921,193205,624300,0
2096921,2096921,192943,624510,0
2096921,2096921,192948,624163,0
2096921,2096921,192322,623303,0
2096921,2096921,192282,622554,0
2096921,2096921,192199,622434,0
2096921,2096921,191843,622403,0
2096921,2096921,192174,622332,0
2096921,2096921,191547,621565,0
2096921,2096921,191378,620943,0
2096921,2096921,191215,620671,0
2096921,2096921,191192,620547,0
2096921,2096921,191018,620788,0
2096921,2096921,190885,620157,0
2096921,2096921,190374,619694,0
2096921,2096921,190663,619898,0
2096921,2096921,190651,619662,0
2096921,2096921,190695,619637,0
2096921,2096921,190191,619390,0
2096921,2096921,190447,619253,0
2096921,2096921,189637,618710,0
2096921,2096921,189897,618763,0
2096921,2096921,189945,618766,0
2096921,2096921,189676,618983,0
2096921,2096921,189772,618439,0
2096921,2096921,190320,618103,0
2096921,2096921,190120,618304,0
2096921,2096921,190005,618506,0
2096921,2096921,189985,618394,0
2096921,2096921,189650,618210,0
2096921,2096921,189573,617861,0
2096921,2096921,189277,617872,0
2096921,2096921,189366,618198,0
2096921,2096921,189432,617944,0
2096921,2096921,189326,617672,0
2096921,2096921,189463,617732,0
2096921,2096921,189536,617884,0
2096921,2096921,189662,617719,0
2096921,2096921,189448,617692,0
2096921,2096921,189424,618038,0
2096921,2096921,189349,617914,0
2096921,2096921,189152,617833,0
2096921,2096921,189378,617789,0
2096921,2096921,189331,617978,0
2096921,2096921,189561,617785,0
2096921,2096921,189450,618022,0
2096921,2096921,189386,617902,0
2096921,2096921,189519,617596,0
2096921,2096921,189673,617914,0
2096921,2096921,189726,618147,0
2096921,2096921,189292,617971,0
2096921,2096921,189526,617684,0
2096921,2096921,189622,617904,0
2096921,2096921,189633,618028,0
2096921,2096921,189526,618169,0
2096921,2096921,189715,618252,0
2096921,2096921,189838,617949,0
2096921,2096921,189783,618111,0
2096921,2096921,189767,618208,0
2096921,2096921,189714,618338,0
2096921,2096921,189705,618013,0
2096921,2096921,189762,618335,0
2096921,2096921,189658,618487,0
2096921,2096921,189868,618880,0
2096921,2096921,190051,618747,0
2096921,2096921,190285,618910,0
2096921,2096921,190118,618969,0
2096921,2096921,189875,619045,0
2096921,2096921,190335,619304,0
2096921,2096921,190339,619235,0
2096921,2096921,190344,619227,0
2096921,2096921,189761,619061,0
2096921,2096921,190095,619081,0
2096921,2096921,190445,619261,0
2096921,2096921,190491,619530,0
2096921,2096921,190154,619716,0
2096921,2096921,190473,619681,0
2096921,2096921,190260,619798,0
2096921,2096921,190632,619789,0
2096921,2096921,190764,619825,0
2096921,2096921,190697,619875,0
2096921,2096921,190321,619922,0
2096921,2096921,190428,619975,0
2096921,2096921,190812,620482,0
2096921,2096921,190692,620363,0
2096921,2096921,190343,620644,0
2096921,2096921,190598,620544,0
2096921,2096921,190921,620508,0
2096921,2096921,190953,620705,0
2096921,2096921,190854,620796,0
2096921,2096921,191072,620762,0
2096921,2096921,191049,621042,0
2096921,2096921,190951,620861,0
2096921,2096921,191038,621151,0
2096921,2096921,191226,621208,0
2096921,2096921,191367,621110,0
2096921,2096921,191649,621272,0
2096921,2096921,191357,621071,0
2096921,2096921,191034,621179,0
2096921,2096921,191050,621478,0
2096921,2096921,191526,621846,0
2096921,2096921,191122,621604,0
2096921,2096921,191405,621488,0
2096921,2096921,191327,621971,0
2096921,2096921,191422,621853,0
2096921,2096921,191702,622107,0
2096921,2096921,191332,622089,0
2096921,2096921,191426,621836,0
2096921,2096921,191980,622258,0
2096921,2096921,191786,622406,0
2096921,2096921,191424,622342,0
2096921,2096921,191867,622414,0
2096921,2096921,191919,622119,0
2096921,2096921,192081,622579,0
2096921,2096921,192082,622832,0
2096921,2096921,192397,622880,0
2096921,2096921,192303,623290,0
2096921,2096921,192415,622822,0
2096921,2096921,192277,623042,0
2096921,2096921,192174,623197,0
2096921,2096921,192143,623339,0
2096921,2096921,192049,622896,0
2096921,2096921,192275,623159,0
2096921,2096921,192372,623032,0
2096921,2096921,192326,623388,0
2096921,2096921,192271,623883,0
2096921,2096921,192335,623739,0
2096921,2096921,192422,623589,0
2096921,2096921,192705,623575,0
2096921,2096921,192756,623984,0
2096921,2096921,192783,623928,0
2096921,2096921,192538,623868,0
2096921,2096921,192781,624095,0
2096921,2096921,192825,623798,0
2096921,2096921,192720,623879,0
2096921,2096921,192748,623924,0
2096921,2096921,192879,624202,0
2096921,2096921,192643,624229,0
2096921,2096921,192885,624626,0
2096921,2096921,192893,624480,0
2096921,2096921,192857,624385,0
2096921,2096921,192489,624009,0
2096921,2096921,192804,624113,0
2096921,2096921,192875,624268,0
2096921,2096921,192762,624423,0
2096921,2096921,192960,624848,0
2096921,2096921,192949,624648,0
2096921,2096921,193153,624386,0
2096921,2096921,192905,624580,0
2096921,2096921,193032,624615,0
2096921,2096921,192905,624356,0
2096921,2096921,192996,624678,0
2096921,2096921,192779,624829,0
2096921,2096921,192690,624532,0
2096921,2096921,192727,624558,0
2096921,2096921,193055,624204,0
2096921,2096921,193141,624337,0
2096921,2096921,192918,624388,0
2096921,2096921,192654,624192,0
2096921,2096921,192783,624182,0
2096921,2096921,192471,624134,0
2096921,2096921,192553,624180,0
2096921,2096921,192553,624655,0
2096921,2096921,192633,624344,0
2096921,2096921,192806,624415,0
2096921,2096921,192798,624575,0
2096921,2096921,192981,624505,0
2096921,2096921,192955,624456,0
2096921,2096921,192874,624253,0
2096921,2096921,192816,624148,0
2096921,2096921,192843,624363,0
2096921,2096921,192590,624122,0
2096921,2096921,192683,624004,0
2096921,2096921,192695,624154,0
2096921,2096921,192796,624518,0
2096921,2096921,192796,624227,0
2096921,2096921,192850,624189,0
2096921,2096921,192911,624327,0
2096921,2096921,192990,624508,0
2096921,2096921,192877,624180,0
2096921,2096921,192630,624054,0
2096921,2096921,192621,624331,0
2096921,2096921,192708,624426,0
2096921,2096921,192545,624181,0
2096921,2096921,192776,624065,0
2096921,2096921,192963,623995,0
2096921,2096921,192790,623997,0
2096921,2096921,192649,624339,0
2096921,2096921,192710,624258,0
2096921,2096921,192502,624199,0
2096921,2096921,192484,624146,0
2096921,2096921,192484,623987,0
2096921,2096921,192691,624005,0
2096921,2096921,192644,624274,0
2096921,2096921,192521,623896,0
2096921,2096921,192902,624396,0
2096921,2096921,192922,624578,0
2096921,2096921,192833,624432,0
2096921,2096921,192999,624106,0
2096921,2096921,192926,624387,0
2096921,2096921,192579,624288,0
2096921,2096921,192731,624459,0
2096921,2096921,192995,624478,0
2096921,2096921,193154,624411,0
2096921,2096921,192715,624635,0
2096921,2096921,192693,624463,0
2096921,2096921,192642,624631,0
2096921,2096921,192831,624737,0
2096921,2096921,192860,624614,0
2096921,2096921,193067,624688,0
2096921,2096921,193159,624654,0
2096921,2096921,192993,624603,0
2096921,2096921,192780,624734,0
2096921,2096921,192943,624817,0
2096921,2096921,192966,625007,0
2096921,2096921,193649,624991,0
2096921,2096921,193744,625036,0
2096921,2096921,193391,625248,0
2096921,2096921,193202,625278,0
2096921,2096921,193489,625045,0
2096921,2096921,193484,625506,0
2096921,2096921,192911,625418,0
2096921,2096921,193202,625285,0
2096921,2096921,193118,625579,0
2096921,2096921,193511,625403,0
2096921,2096921,193273,625324,0
2096921,2096921,193461,625398,0
2096921,2096921,193502,625599,0
2096921,2096921,193578,625704,0
2096921,2096921,193479,625475,0
2096921,2096921,193648,625755,0
2096921,2096921,193401,625656,0
2096921,2096921,193589,625945,0
2096921,2096921,193888,625989,0
2096921,2096921,193910,625758,0
2096921,2096921,193747,625739,0
2096921,2096921,193699,626003,0
2096921,2096921,193715,626344,0
2096921,2096921,193541,625999,0
2096921,2096921,193685,626230,0
2096921,2096921,193456,626130,0
2096921,2096921,193646,626211,0
2096921,2096921,193900,625989,0
2096921,2096921,193992,626155,0
2096921,2096921,194039,626335,0
2096921,2096921,194118,626502,0
2096921,2096921,194097,626519,0
2096921,2096921,193947,626730,0
2096921,2096921,193962,626764,0
2096921,2096921,193953,626614,0
2096921,2096921,193842,626402,0
2096921,2096921,193963,626457,0
2096921,2096921,193827,626615,0
2096921,2096921,194300,626538,0
2096921,2096921,194202,626678,0
2096921,2096921,194237,626862,0
2096921,2096921,194336,627049,0
2096921,2096921,194148,626845,0
2096921,2096921,194007,626908,0
2096921,2096921,194173,626974,0
2096921,2096921,193956,626886,0
2096921,2096921,194057,626800,0
2096921,2096921,194208,626940,0
2096921,2096921,194257,626954,0
2096921,2096921,193987,627257,0
2096921,2096921,194383,626974,0
2096921,2096921,194395,627054,0
2096921,2096921,194538,627053,0
2096921,2096921,194627,627337,0
2096921,2096921,194403,627200,0
2096921,2096921,194348,627285,0
2096921,2096921,194285,626987,0
2096921,2096921,194182,627074,0
2096921,2096921,194368,627337,0
2096921,2096921,194503,627590,0
2096921,2096921,194396,627644,0
2096921,2096921,194675,627611,0
2096921,2096921,194703,627432,0
2096921,2096921,194763,627631,0
2096921,2096921,194702,627594,0
2096921,2096921,194474,627751,0
2096921,2096921,194480,627793,0
2096921,2096921,194609,627513,0
2096921,2096921,194774,627543,0
2096921,2096921,194561,627926,0
2096921,2096921,194567,627858,0
2096921,2096921,194888,628140,0
2096921,2096921,194525,627816,0
2096921,2096921,194812,627980,0
2096921,2096921,194603,627844,0
2096921,2096921,194686,628068,0
2096921,2096921,194766,628004,0
2096921,2096921,194830,627979,0
2096921,2096921,194785,628199,0
2096921,2096921,194897,628356,0
2096921,2096921,194748,627989,0
2096921,2096921,194827,628088,0
2096921,2096921,194814,628149,0
2096921,2096921,194796,628253,0
2096921,2096921,194892,628418,0
2096921,2096921,194892,628607,0
2096921,2096921,194988,628498,0
2096921,2096921,194925,628423,0
2096921,2096921,195094,628212,0
2096921,2096921,194931,628650,0
2096921,2096921,194936,628458,0
2096921,2096921,195236,628920,0
2096921,2096921,195014,628437,0
2096921,2096921,195087,628477,0
2096921,2096921,195161,628250,0
2096921,2096921,195318,628520,0
2096921,2096921,195072,628281,0
2096921,2096921,195073,628452,0
2096921,2096921,194975,628394,0
2096921,2096921,195047,628656,0
2096921,2096921,194872,628959,0
2096921,2096921,195309,628766,0
2096921,2096921,194901,628943,0
2096921,2096921,195221,628748,0
2096921,2096921,195121,628868,0
2096921,2096921,194942,629184,0
2096921,2096921,194987,628565,0
2096921,2096921,195081,628634,0
2096921,2096921,195010,628944,0
2096921,2096921,195224,629077,0
2096921,2096921,195212,628930,0
2096921,2096921,195352,628895,0
2096921,2096921,195320,629145,0
2096921,2096921,195428,629285,0
2096921,2096921,195404,628792,0
2096921,2096921,194947,628787,0
2096921,2096921,195416,628713,0
2096921,2096921,195093,628923,0
2096921,2096921,195314,629135,0
2096921,2096921,195220,629203,0
2096921,2096921,195438,629135,0
2096921,2096921,195709,629374,0
2096921,2096921,195474,629176,0
2096921,2096921,195396,629279,0
2096921,2096921,195800,629189,0
2096921,2096921,195502,629202,0
2096921,2096921,195522,629007,0
2096921,2096921,195561,628908,0
2096921,2096921,195795,628987,0
2096921,2096921,195511,629470,0
2096921,2096921,195537,629407,0
2096921,2096921,195632,629466,0
2096921,2096921,195884,629484,0
2096921,2096921,195798,629678,0
2096921,2096921,195814,629358,0
2096921,2096921,195553,629456,0
2096921,2096921,195132,629255,0
2096921,2096921,195521,629414,0
2096921,2096921,195941,629659,0
2096921,2096921,195912,629577,0
2096921,2096921,195472,629609,0
2096921,2096921,195588,629628,0
2096921,2096921,195715,629560,0
2096921,2096921,195611,629840,0
2096921,2096921,195693,629555,0
2096921,2096921,195880,629642,0
2096921,2096921,195530,629430,0
2096921,2096921,195387,629147,0
2096921,2096921,195556,629532,0
2096921,2096921,195966,629457,0
2096921,2096921,195531,629886,0
2096921,2096921,195801,629595,0
2096921,2096921,195570,629791,0
2096921,2096921,195714,629764,0
2096921,2096921,195546,629568,0
2096921,2096921,195686,629470,0
2096921,2096921,195592,629551,0
2096921,2096921,195919,629977,0
2096921,2096921,196050,629764,0
2096921,2096921,195892,629744,0
2096921,2096921,195675,629714,0
2096921,2096921,195908,629570,0
2096921,2096921,195580,629862,0
2096921,2096921,195758,630027,0
2096921,2096921,195878,629890,0
2096921,2096921,195801,629601,0
2096921,2096921,195771,629566,0
2096921,2096921,195696,629579,0
2096921,2096921,195667,629782,0
2096921,2096921,195579,629671,0
2096921,2096921,195703,629796,0
2096921,2096921,195980,630095,0
2096921,2096921,196092,630106,0
2096921,2096921,195907,630084,0
2096921,2096921,196172,630264,0
2096921,2096921,195916,629759,0
2096921,2096921,195770,630177,0
2096921,2096921,196056,630341,0
2096921,2096921,196048,630162,0
2096921,2096921,195989,630274,0
2096921,2096921,196139,630036,0
2096921,2096921,196059,630143,0
2096921,2096921,196250,630099,0
2096921,2096921,195824,630310,0
2096921,2096921,196054,630131,0
2096921,2096921,195665,630235,0
2096921,2096921,195834,629992,0
2096921,2096921,195848,630180,0
2096921,2096921,195778,630015,0
2096921,2096921,195912,629939,0
2096921,2096921,195974,630072,0
2096921,2096921,196233,630192,0
2096921,2096921,196099,630325,0
2096921,2096921,196010,630330,0
2096921,2096921,195967,630262,0
2096921,2096921,196112,630246,0
2096921,2096921,195867,630308,0
2096921,2096921,196014,629990,0
2096921,2096921,196006,630084,0
2096921,2096921,196319,629704,0
2096921,2096921,196178,630133,0
2096921,2096921,196231,630164,0
2096921,2096921,195885,630506,0
2096921,2096921,196037,630374,0
2096921,2096921,195956,630387,0
2096921,2096921,195856,630326,0
2096921,2096921,195761,629886,0
2096921,2096921,196201,630085,0
2096921,2096921,196095,630352,0
2096921,2096921,196204,630282,0
2096921,2096921,196226,630252,0
2096921,2096921,196293,630192,0
2096921,2096921,196017,630328,0
2096921,2096921,196138,630268,0
2096921,2096921,196041,630267,0
2096921,2096921,196107,629812,0
2096921,2096921,196001,630216,0
2096921,2096921,196083,630144,0
2096921,2096921,195948,630027,0
2096921,2096921,195833,630075,0
2096921,2096921,196000,630119,0
2096921,2096921,196193,630133,0
2096921,2096921,195967,630296,0
2096921,2096921,196032,630381,0
2096921,2096921,195931,630189,0
2096921,2096921,196003,629830,0
2096921,2096921,195895,630017,0
2096921,2096921,195851,630026,0
2096921,2096921,195905,630061,0
2096921,2096921,195868,630021,0
2096921,2096921,196116,629995,0
2096921,2096921,196189,630279,0
2096921,2096921,196024,629971,0
2096921,2096921,195766,630285,0
2096921,2096921,196177,629978,0
2096921,2096921,196125,630280,0
2096921,2096921,196051,629934,0
2096921,2096921,196174,630272,0
2096921,2096921,196232,629952,0
2096921,2096921,196193,630183,0
2096921,2096921,196083,630072,0
2096921,2096921,196093,630359,0
2096921,2096921,196198,630076,0
2096921,2096921,195883,630085,0
2096921,2096921,195838,630107,0
2096921,2096921,195843,630044,0
2096921,2096921,195628,629882,0
2096921,2096921,195659,630075,0
2096921,2096921,195897,630099,0
2096921,2096921,195937,629933,0
2096921,2096921,195875,629985,0
2096921,2096921,196105,630198,0
2096921,2096921,196134,630172,0
2096921,2096921,195822,630011,0
2096921,2096921,196032,629668,0
2096921,2096921,195602,630043,0
2096921,2096921,195911,629763,0
2096921,2096921,196062,629668,0
2096921,2096921,195680,629737,0
2096921,2096921,195505,629721,0
2096921,2096921,195703,629678,0
2096921,2096921,195743,629779,0
2096921,2096921,195853,629736,0
2096921,2096921,195668,629749,0
2096921,2096921,195711,629423,0
2096921,2096921,195513,629482,0
2096921,2096921,195946,629115,0
2096921,2096921,195717,629214,0
2096921,2096921,195699,628968,0
2096921,2096921,195365,628426,0
2096921,2096921,195631,628951,0
2096921,2096921,195294,628732,0
2096921,2096921,195284,628582,0
2096921,2096921,195054,628284,0
2096921,2096921,195013,628143,0
2096921,2096921,195033,627917,0
2096921,2096921,194820,627922,0
2096921,2096921,195026,628011,0
2096921,2096921,194573,627732,0
2096921,2096921,194539,627396,0
2096921,2096921,194535,627246,0
2096921,2096921,194283,627108,0
2096921,2096921,194419,626917,0
2096921,2096921,193593,626426,0
2096921,2096921,193664,625819,0
2096921,2096921,193241,625451,0
2096921,2096921,193457,625362,0
2096921,2096921,193276,625455,0
2096921,2096921,192486,624583,0
2096921,2096921,192633,623670,0
2096921,2096921,192534,623468,0
2096921,2096921,192318,623432,0
2096921,2096921,192473,623433,0
2096921,2096921,191862,622753,0
2096921,2096921,191638,622201,0
2096921,2096921,191731,622104,0
2096921,2096921,191438,621658,0
2096921,2096921,191574,621581,0
2096921,2096921,190986,621457,0
2096921,2096921,191036,620865,0
2096921,2096921,190845,620609,0
2096921,2096921,191175,620640,0
2096921,2096921,191048,620687,0
2096921,2096921,190832,620102,0
2096921,2096921,190256,619994,0
2096921,2096921,190360,620015,0
2096921,2096921,190410,619562,0
2096921,2096921,190460,619721,0
2096921,2096921,190222,619585,0
2096921,2096921,189905,618807,0
2096921,2096921,189952,619079,0
2096921,2096921,190032,619106,0
2096921,2096921,190406,619096,0
2096921,2096921,190191,618751,0
2096921,2096921,190168,618699,0
2096921,2096921,189869,618552,0
2096921,2096921,189792,618424,0
2096921,2096921,189780,618304,0
2096921,2096921,189784,618449,0
2096921,2096921,189795,618149,0
2096921,2096921,189679,618311,0
2096921,2096921,189722,618271,0
2096921,2096921,189593,618249,0
2096921,2096921,189688,618254,0
2096921,2096921,189590,617864,0
2096921,2096921,189372,618137,0
2096921,2096921,189587,617956,0
2096921,2096921,189657,617801,0
2096921,2096921,189712,618133,0
2096921,2096921,189532,617977,0
2096921,2096921,189477,617831,0
2096921,2096921,189737,618012,0
2096921,2096921,189708,618161,0
2096921,2096921,189977,617978,0
2096921,2096921,189725,618279,0
2096921,2096921,189498,618264,0
2096921,2096921,189604,618212,0
2096921,2096921,189775,618097,0
2096921,2096921,189600,618297,0
2096921,2096921,189831,617867,0
2096921,2096921,189813,618066,0
2096921,2096921,189847,617894,0
2096921,2096921,189579,618186,0
2096921,2096921,189807,618353,0
2096921,2096921,189621,618406,0
2096921,2096921,189805,617982,0
2096921,2096921,189601,618091,0
2096921,2096921,189552,617963,0
2096921,2096921,189896,618299,0
2096921,2096921,189826,618436,0
2096921,2096921,189978,618537,0
2096921,2096921,190093,618423,0
2096921,2096921,189930,618711,0
2096921,2096921,190011,618442,0
2096921,2096921,190065,618571,0
2096921,2096921,190145,618774,0
2096921,2096921,189758,618811,0
2096921,2096921,189722,618672,0
2096921,2096921,190190,618982,0
2096921,2096921,190236,618866,0
2096921,2096921,190236,618981,0
2096921,2096921,190112,618993,0
2096921,2096921,190094,619152,0
2096921,2096921,190498,618901,0
2096921,2096921,190303,618863,0
2096921,2096921,190631,619171,0
2096921,2096921,190259,619380,0
2096921,2096921,190169,619189,0
2096921,2096921,190573,619091,0
2096921,2096921,190619,619490,0
2096921,2096921,190871,619377,0
2096921,2096921,190569,619586,0
2096921,2096921,190972,619399,0
2096921,2096921,190780,619844,0
2096921,2096921,190564,619948,0
2096921,2096921,190855,619639,0
2096921,2096921,190551,619648,0
2096921,2096921,190591,619586,0
2096921,2096921,190908,620030,0
2096921,2096921,190785,620123,0
2096921,2096921,190792,619951,0
2096921,2096921,190863,620097,0
2096921,2096921,190727,619954,0
2096921,2096921,191424,620143,0
2096921,2096921,191248,620314,0
2096921,2096921,191259,620494,0
2096921,2096921,190984,620544,0
2096921,2096921,191087,620438,0
2096921,2096921,191276,620609,0
2096921,2096921,191000,620671,0
2096921,2096921,191134,620899,0
2096921,2096921,191341,620917,0
2096921,2096921,191400,620977,0
2096921,2096921,191443,620899,0
2096921,2096921,191225,620788,0
2096921,2096921,191628,620924,0
2096921,2096921,191443,620848,0
2096921,2096921,191350,621069,0
2096921,2096921,191537,621248,0
2096921,2096921,191577,621097,0
2096921,2096921,191621,621135,0
2096921,2096921,191536,621253,0
2096921,2096921,191651,621397,0
2096921,2096921,191979,621533,0
2096921,2096921,191569,621583,0
2096921,2096921,191407,621577,0
2096921,2096921,191846,621414,0
2096921,2096921,191860,621664,0
2096921,2096921,191906,622068,0
2096921,2096921,191636,621746,0
2096921,2096921,192072,621776,0
2096921,2096921,192034,622117,0
2096921,2096921,192109,621672,0
2096921,2096921,192245,621865,0
2096921,2096921,191829,621819,0
2096921,2096921,191561,621653,0
2096921,2096921,191966,621573,0
2096921,2096921,192002,622076,0
2096921,2096921,191787,622032,0
2096921,2096921,191951,622202,0
2096921,2096921,191934,621896,0
2096921,2096921,191855,622441,0
2096921,2096921,192091,622069,0
2096921,2096921,192424,622247,0
2096921,2096921,192340,622233,0
2096921,2096921,192264,622177,0
2096921,2096921,192270,622005,0
2096921,2096921,192448,621905,0
2096921,2096921,192061,622270,0
2096921,2096921,192294,622240,0
2096921,2096921,192457,622254,0
2096921,2096921,192475,622246,0
2096921,2096921,191884,622383,0
2096921,2096921,192220,622283,0
2096921,2096921,192167,622074,0
2096921,2096921,192215,621706,0
2096921,2096921,192103,621852,0
2096921,2096921,192181,622159,0
2096921,2096921,192144,622026,0
2096921,2096921,192292,622074,0
2096921,2096921,192345,622196,0
2096921,2096921,192390,622099,0
2096921,2096921,192453,622209,0
2096921,2096921,191932,621880,0
2096921,2096921,191843,622091,0
2096921,2096921,192019,621515,0
2096921,2096921,191972,621693,0
2096921,2096921,192144,621912,0
2096921,2096921,191931,622067,0
2096921,2096921,191980,621730,0
2096921,2096921,192143,621653,0
2096921,2096921,191846,621645,0
2096921,2096921,192038,621603,0
2096921,2096921,191965,621572,0
2096921,2096921,192038,621599,0
2096921,2096921,191943,621497,0
2096921,2096921,192059,621129,0
2096921,2096921,192011,621267,0
2096921,2096921,191862,621318,0
2096921,2096921,191761,621352,0
2096921,2096921,191973,621335,0
2096921,2096921,191972,621463,0
2096921,2096921,191972,621245,0
2096921,2096921,191755,621172,0
2096921,2096921,191910,620821,0
2096921,2096921,191705,621419,0
2096921,2096921,191699,620973,0
2096921,2096921,191517,621186,0
2096921,2096921,191737,621269,0
2096921,2096921,191961,620915,0
2096921,2096921,191671,621166,0
2096921,2096921,191689,621015,0
2096921,2096921,191921,620827,0
2096921,2096921,191965,620907,0
2096921,2096921,191510,621003,0
2096921,2096921,191902,620975,0
2096921,2096921,191843,621138,0
2096921,2096921,191902,620834,0
2096921,2096921,191829,621356,0
2096921,2096921,191659,621178,0
2096921,2096921,191702,621262,0
2096921,2096921,191590,621181,0
2096921,2096921,191727,621114,0
2096921,2096921,191540,621040,0
2096921,2096921,191651,620895,0
2096921,2096921,191812,620958,0
2096921,2096921,191891,620917,0
2096921,2096921,191932,620474,0
2096921,2096921,192026,621003,0
2096921,2096921,191759,620905,0
2096921,2096921,191812,621061,0
2096921,2096921,191574,621165,0
2096921,2096921,191670,621107,0
2096921,2096921,191848,621179,0
2096921,2096921,191587,621156,0
2096921,2096921,191475,621226,0
2096921,2096921,191561,621317,0
2096921,2096921,191749,620950,0
2096921,2096921,191999,621230,0
2096921,2096921,192213,621283,0
2096921,2096921,192108,621414,0
2096921,2096921,191924,621188,0
2096921,2096921,191911,621170,0
2096921,2096921,192104,621563,0
2096921,2096921,192018,621571,0
2096921,2096921,192179,621589,0
2096921,2096921,192127,621559,0
2096921,2096921,192271,621472,0
2096921,2096921,192264,621762,0
2096921,2096921,192068,621831,0
2096921,2096921,192081,621607,0
2096921,2096921,192051,621805,0
2096921,2096921,192184,621638,0
2096921,2096921,192098,621859,0
2096921,2096921,191964,621712,0
2096921,2096921,191803,621793,0
2096921,2096921,192153,621753,0
2096921,2096921,191977,621779,0
2096921,2096921,192547,621896,0
2096921,2096921,192458,621882,0
2096921,2096921,192525,622052,0
2096921,2096921,192647,622118,0
2096921,2096921,192484,622263,0
2096921,2096921,192483,622267,0
2096921,2096921,192136,622263,0
2096921,2096921,192331,622199,0
2096921,2096921,192323,622020,0
2096921,2096921,192561,622004,0
2096921,2096921,192417,622298,0
2096921,2096921,192721,622038,0
2096921,2096921,192595,622059,0
2096921,2096921,192681,622416,0
2096921,2096921,192280,622162,0
2096921,2096921,192744,622207,0
2096921,2096921,192506,622320,0
2096921,2096921,192331,622042,0
2096921,2096921,192448,622168,0
2096921,2096921,192724,622279,0
2096921,2096921,192601,622182,0
2096921,2096921,192786,622451,0
2096921,2096921,192942,622683,0
2096921,2096921,192834,622632,0
2096921,2096921,192974,622992,0
2096921,2096921,192881,622655,0
2096921,2096921,192810,622684,0
2096921,2096921,192893,622435,0
2096921,2096921,192832,622520,0
2096921,2096921,192848,622347,0
2096921,2096921,192645,622551,0
2096921,2096921,192529,622548,0
2096921,2096921,192932,622696,0
2096921,2096921,192744,622958,0
2096921,2096921,192757,622493,0
2096921,2096921,192698,622735,0
2096921,2096921,193030,622827,0
2096921,2096921,192824,622935,0
2096921,2096921,193183,622554,0
2096921,2096921,193169,622853,0
2096921,2096921,193240,622910,0
2096921,2096921,192995,623270,0
2096921,2096921,193155,622981,0
2096921,2096921,192979,623237,0
2096921,2096921,193257,623041,0
2096921,2096921,193170,622951,0
2096921,2096921,193387,623236,0
2096921,2096921,193218,622881,0
2096921,2096921,192951,623018,0
2096921,2096921,192888,623101,0
2096921,2096921,193152,623142,0
2096921,2096921,193425,623129,0
2096921,2096921,193548,623339,0
2096921,2096921,193426,623132,0
2096921,2096921,193018,622986,0
2096921,2096921,193242,623195,0
2096921,2096921,193332,623312,0
2096921,2096921,193151,623288,0
2096921,2096921,193253,623269,0
2096921,2096921,193254,623198,0
2096921,2096921,193094,623364,0
2096921,2096921,193177,623306,0
2096921,2096921,193568,623287,0
2096921,2096921,193493,623233,0
2096921,2096921,193347,623403,0
2096921,2096921,193364,623295,0
2096921,2096921,193373,623609,0
2096921,2096921,193115,623209,0
2096921,2096921,193516,623323,0
2096921,2096921,193441,623474,0
2096921,2096921,193570,623314,0
2096921,2096921,193471,623219,0
2096921,2096921,193478,623781,0
2096921,2096921,193484,623516,0
2096921,2096921,193572,623384,0
2096921,2096921,193445,623532,0
2096921,2096921,193306,623549,0
2096921,2096921,193480,623491,0
2096921,2096921,193557,623606,0
2096921,2096921,193271,623556,0
2096921,2096921,193691,623802,0
2096921,2096921,193904,623703,0
2096921,2096921,193698,623742,0
2096921,2096921,193631,623868,0
2096921,2096921,194001,623434,0
2096921,2096921,193814,623147,0
2096921,2096921,193648,623455,0
2096921,2096921,193259,623539,0
2096921,2096921,193348,623545,0
2096921,2096921,193775,623491,0
2096921,2096921,193713,623824,0
2096921,2096921,193833,623519,0
2096921,2096921,194041,623654,0
2096921,2096921,193687,623737,0
2096921,2096921,193821,623646,0
2096921,2096921,193739,623767,0
2096921,2096921,193864,623757,0
2096921,2096921,193951,623996,0
2096921,2096921,193618,623764,0
2096921,2096921,194022,624068,0
2096921,2096921,193836,623839,0
2096921,2096921,193807,624052,0
2096921,2096921,193768,623714,0
2096921,2096921,194177,623809,0
2096921,2096921,193712,623654,0
2096921,2096921,193661,623706,0
2096921,2096921,193950,623798,0
2096921,2096921,193776,623778,0
2096921,2096921,193452,623870,0
2096921,2096921,193488,623819,0
2096921,2096921,193809,623811,0
2096921,2096921,193966,623690,0
2096921,2096921,193990,624063,0
2096921,2096921,194080,623818,0
2096921,2096921,193964,624064,0
2096921,2096921,193890,623977,0
2096921,2096921,193799,624133,0
2096921,2096921,193861,623844,0
2096921,2096921,193978,623668,0
2096921,2096921,193986,624060,0
2096921,2096921,193790,623955,0
2096921,2096921,193908,623932,0
2096921,2096921,194052,623860,0
2096921,2096921,193954,624023,0
2096921,2096921,193988,623790,0
2096921,2096921,193934,623785,0
2096921,2096921,193717,624071,0
2096921,2096921,193774,624021,0
2096921,2096921,194049,624149,0
2096921,2096921,193856,624141,0
2096921,2096921,193905,623948,0
2096921,2096921,193800,623922,0
2096921,2096921,193772,623924,0
2096921,2096921,194242,624249,0
2096921,2096921,193998,623894,0
2096921,2096921,193774,624071,0
2096921,2096921,193537,624175,0
2096921,2096921,193966,624019,0
2096921,2096921,193888,623518,0
2096921,2096921,193772,623832,0
2096921,2096921,193752,623845,0
2096921,2096921,194163,624190,0
2096921,2096921,193992,623986,0
2096921,2096921,193971,624231,0
2096921,2096921,193861,624318,0
2096921,2096921,194175,624036,0
2096921,2096921,193954,624382,0
2096921,2096921,193907,624336,0
2096921,2096921,193849,623773,0
2096921,2096921,194006,624114,0
2096921,2096921,193939,624174,0
2096921,2096921,194158,624099,0
2096921,2096921,194290,623938,0
2096921,2096921,193858,624240,0
2096921,2096921,193855,624168,0
2096921,2096921,194005,624091,0
2096921,2096921,194003,624344,0
2096921,2096921,193805,624154,0
2096921,2096921,194104,624187,0
2096921,2096921,193932,624062,0
2096921,2096921,194049,624221,0
2096921,2096921,193960,624027,0
2096921,2096921,194358,624205,0
2096921,2096921,194176,624319,0
2096921,2096921,194074,624306,0
2096921,2096921,194112,624056,0
2096921,2096921,194034,623835,0
2096921,2096921,193817,624120,0
2096921,2096921,193886,624062,0
2096921,2096921,194053,624086,0
2096921,2096921,194220,624488,0
2096921,2096921,193921,624056,0
2096921,2096921,194077,623982,0
2096921,2096921,193887,624214,0
2096921,2096921,193872,624263,0
2096921,2096921,194121,624464,0
2096921,2096921,194268,624101,0
2096921,2096921,194279,624252,0
2096921,2096921,194292,624237,0
2096921,2096921,194043,624282,0
2096921,2096921,194038,624004,0
2096921,2096921,193987,624458,0
2096921,2096921,194018,624224,0
2096921,2096921,194179,624240,0
2096921,2096921,194021,624222,0
2096921,2096921,194052,624265,0
2096921,2096921,194118,624693,0
2096921,2096921,194132,624222,0
2096921,2096921,193923,623748,0
2096921,2096921,193838,623948,0
2096921,2096921,193911,624066,0
2096921,2096921,194350,624143,0
2096921,2096921,194182,624269,0
2096921,2096921,193847,624263,0
2096921,2096921,193849,623992,0
2096921,2096921,193894,624104,0
2096921,2096921,193935,624095,0
2096921,2096921,194329,623793,0
2096921,2096921,194247,623993,0
2096921,2096921,193861,624150,0
2096921,2096921,193840,624160,0
2096921,2096921,194058,624173,0
2096921,2096921,194074,624546,0
2096921,2096921,194224,624238,0
2096921,2096921,194223,624020,0
2096921,2096921,194428,624124,0
2096921,2096921,194240,624321,0
2096921,2096921,194134,624266,0
2096921,2096921,193809,624226,0
2096921,2096921,193859,624130,0
2096921,2096921,194037,624116,0
2096921,2096921,194230,624053,0
2096921,2096921,194368,624353,0
2096921,2096921,194257,624524,0
2096921,2096921,194245,624027,0
2096921,2096921,194279,624064,0
2096921,2096921,193926,624237,0
2096921,2096921,193757,624172,0
2096921,2096921,194185,623941,0
2096921,2096921,194147,624224,0
2096921,2096921,194216,624197,0
2096921,2096921,194079,623971,0
2096921,2096921,194329,624319,0
2096921,2096921,194085,624167,0
2096921,2096921,194207,623887,0
2096921,2096921,194134,624062,0
2096921,2096921,193885,624117,0
2096921,2096921,194064,623819,0
2096921,2096921,194014,623763,0
2096921,2096921,193865,624036,0
2096921,2096921,193959,624090,0
2096921,2096921,194087,623762,0
2096921,2096921,194293,624210,0
2096921,2096921,194257,624345,0
2096921,2096921,194058,624394,0
2096921,2096921,194320,624160,0
2096921,2096921,194055,623884,0
2096921,2096921,193909,624187,0
2096921,2096921,193703,623932,0
2096921,2096921,194152,623968,0
2096921,2096921,193859,623984,0
2096921,2096921,193751,623724,0
2096921,2096921,193606,623757,0
2096921,2096921,193771,623917,0
2096921,2096921,193977,623615,0
2096921,2096921,193718,623342,0
2096921,2096921,193552,623639,0
2096921,2096921,193728,623689,0
2096921,2096921,193699,623446,0
2096921,2096921,193687,623415,0
2096921,2096921,193198,623434,0
2096921,2096921,193390,623178,0
2096921,2096921,193609,622829,0
2096921,2096921,193572,622827,0
2096921,2096921,193601,623048,0
2096921,2096921,193099,622562,0
2096921,2096921,192977,622156,0
2096921,2096921,192808,622071,0
2096921,2096921,192899,621885,0
2096921,2096921,192950,621904,0
2096921,2096921,192967,621715,0
2096921,2096921,192918,621528,0
2096921,2096921,192647,621588,0
2096921,2096921,193000,621604,0
2096921,2096921,192590,621486,0
2096921,2096921,191855,620569,0
2096921,2096921,191765,620168,0
2096921,2096921,191536,619598,0
2096921,2096921,191535,619700,0
2096921,2096921,191517,619864,0
2096921,2096921,190946,619123,0
2096921,2096921,190783,618113,0
2096921,2096921,190806,618033,0
2096921,2096921,190671,617931,0
2096921,2096921,190594,617877,0
2096921,2096921,189875,617033,0
2096921,2096921,189877,616354,0
2096921,2096921,189710,616213,0
2096921,2096921,190040,616224,0
2096921,2096921,189961,616315,0
2096921,2096921,189535,615775,0
2096921,2096921,189122,615338,0
2096921,2096921,189275,615276,0
2096921,2096921,188993,615348,0
2096921,2096921,188989,615190,0
2096921,2096921,188667,614919,0
2096921,2096921,188677,614425,0
2096921,2096921,188667,614479,0
2096921,2096921,188726,613864,0
2096921,2096921,188828,614106,0
2096921,2096921,188516,614138,0
2096921,2096921,188750,613853,0
2096921,2096921,188406,613782,0
2096921,2096921,188353,613954,0
2096921,2096921,188430,613711,0
2096921,2096921,188105,613446,0
2096921,2096921,188006,613401,0
2096921,2096921,187951,613264,0
2096921,2096921,187929,613321,0
2096921,2096921,188048,613306,0
2096921,2096921,187702,613168,0
2096921,2096921,187809,612892,0
2096921,2096921,188080,613125,0
2096921,2096921,188090,612937,0
2096921,2096921,188004,613073,0
2096921,2096921,188106,612873,0
2096921,2096921,187673,612983,0
2096921,2096921,187534,612829,0
2096921,2096921,187506,612927,0
2096921,2096921,187864,612946,0
2096921,2096921,187875,612807,0
2096921,2096921,187903,612869,0
2096921,2096921,188299,612990,0
2096921,2096921,187937,613219,0
2096921,2096921,187920,612843,0
2096921,2096921,187978,613022,0
2096921,2096921,187915,613272,0
2096921,2096921,188013,613005,0
2096921,2096921,187884,613013,0
2096921,2096921,187813,612861,0
2096921,2096921,187698,613142,0
2096921,2096921,188274,613099,0
2096921,2096921,188308,613363,0
2096921,2096921,188225,613424,0
2096921,2096921,188329,613373,0
2096921,2096921,188359,613224,0
2096921,2096921,188265,613380,0
2096921,2096921,188036,613358,0
2096921,2096921,188268,613152,0
2096921,2096921,188443,613514,0
2096921,2096921,188190,613350,0
2096921,2096921,188205,613731,0
2096921,2096921,188515,613739,0
2096921,2096921,188251,613487,0
2096921,2096921,188267,613595,0
2096921,2096921,188555,613909,0
2096921,2096921,188489,614062,0
2096921,2096921,188355,613676,0
2096921,2096921,188690,614052,0
2096921,2096921,188448,613984,0
2096921,2096921,188605,614425,0
2096921,2096921,188922,614358,0
2096921,2096921,188751,614344,0
2096921,2096921,188782,614285,0
2096921,2096921,188752,614446,0
2096921,2096921,188804,614491,0
2096921,2096921,188621,614682,0
2096921,2096921,188616,614553,0
2096921,2096921,188587,614733,0
2096921,2096921,188696,614281,0
2096921,2096921,188887,614814,0
2096921,2096921,188808,614826,0
2096921,2096921,189156,615096,0
2096921,2096921,189008,615354,0
2096921,2096921,189040,615084,0
2096921,2096921,189429,614966,0
2096921,2096921,189916,615328,0
2096921,2096921,188891,615191,0
2096921,2096921,189015,615247,0
2096921,2096921,189346,615175,0
2096921,2096921,189436,615706,0
2096921,2096921,189380,615663,0
2096921,2096921,189587,615589,0
2096921,2096921,189438,615706,0
2096921,2096921,189736,615936,0
2096921,2096921,189679,615843,0
2096921,2096921,189677,616059,0
2096921,2096921,189722,616249,0
2096921,2096921,189620,615988,0
2096921,2096921,189622,615720,0
2096921,2096921,189641,615845,0
2096921,2096921,189782,616351,0
2096921,2096921,189510,616675,0
2096921,2096921,190151,616486,0
2096921,2096921,189886,616353,0
2096921,2096921,189824,616461,0
2096921,2096921,190087,616538,0
2096921,2096921,189896,616807,0
2096921,2096921,190060,616568,0
2096921,2096921,189842,616616,0
2096921,2096921,190046,616845,0
2096921,2096921,190028,616771,0
2096921,2096921,190233,617032,0
2096921,2096921,190338,617309,0
2096921,2096921,190132,617180,0
2096921,2096921,190422,617502,0
2096921,2096921,190601,617458,0
2096921,2096921,190269,617635,0
2096921,2096921,190336,617301,0
2096921,2096921,190475,617265,0
2096921,2096921,190653,617683,0
2096921,2096921,190489,617976,0
2096921,2096921,190772,617932,0
2096921,2096921,190742,617848,0
2096921,2096921,190770,617657,0
2096921,2096921,190810,618083,0
2096921,2096921,190805,618187,0
2096921,2096921,190904,618022,0
2096921,2096921,190599,617899,0
2096921,2096921,190470,617946,0
2096921,2096921,190783,618054,0
2096921,2096921,190948,618411,0
2096921,2096921,190865,618167,0
2096921,2096921,190812,618366,0
2096921,2096921,190871,618230,0
2096921,2096921,190790,618433,0
2096921,2096921,190811,618356,0
2096921,2096921,190867,618600,0
2096921,2096921,190786,618262,0
2096921,2096921,190879,618391,0
2096921,2096921,190923,618588,0
2096921,2096921,191159,618528,0
2096921,2096921,191103,618674,0
2096921,2096921,190844,618730,0
2096921,2096921,190963,618639,0
2096921,2096921,191001,618812,0
2096921,2096921,190989,618482,0
2096921,2096921,190792,618729,0
2096921,2096921,190717,618670,0
2096921,2096921,190658,618542,0
2096921,2096921,190769,618697,0
2096921,2096921,190805,618726,0
2096921,2096921,190868,618373,0
2096921,2096921,191065,618499,0
2096921,2096921,190930,618377,0
2096921,2096921,191126,618608,0
2096921,2096921,191080,618250,0
2096921,2096921,191011,618184,0
2096921,2096921,190667,618254,0
2096921,2096921,190992,618217,0
2096921,2096921,191036,618477,0
2096921,2096921,191070,618228,0
2096921,2096921,190991,618538,0
2096921,2096921,191209,618423,0
2096921,2096921,191213,618261,0
2096921,2096921,190736,618518,0
2096921,2096921,190667,618187,0
2096921,2096921,190648,618043,0
2096921,2096921,190710,618542,0
2096921,2096921,190522,618005,0
2096921,2096921,190515,618175,0
2096921,2096921,191023,618009,0
2096921,2096921,190854,618165,0
2096921,2096921,190675,618423,0
2096921,2096921,190780,618415,0
2096921,2096921,190765,618226,0
2096921,2096921,190434,618284,0
2096921,2096921,190619,618028,0
2096921,2096921,190708,618397,0
2096921,2096921,190729,618194,0
2096921,2096921,190906,617987,0
2096921,2096921,190832,618235,0
2096921,2096921,190771,618128,0
2096921,2096921,190784,617859,0
2096921,2096921,190834,618017,0
2096921,2096921,190678,618281,0
2096921,2096921,190614,618228,0
2096921,2096921,190521,618008,0
2096921,2096921,190709,617965,0
2096921,2096921,190632,617991,0
2096921,2096921,191000,617759,0
2096921,2096921,190686,617962,0
2096921,2096921,190957,618090,0
2096921,2096921,190976,618335,0
2096921,2096921,190867,618604,0
2096921,2096921,191086,618659,0
2096921,2096921,191018,618455,0
2096921,2096921,191097,618278,0
2096921,2096921,190703,618074,0
2096921,2096921,190893,618398,0
2096921,2096921,190871,618315,0
2096921,2096921,191481,618638,0
2096921,2096921,190960,618124,0
2096921,2096921,191228,618178,0
2096921,2096921,191243,618269,0
2096921,2096921,190923,618349,0
2096921,2096921,190961,618665,0
2096921,2096921,190974,618743,0
2096921,2096921,190936,618408,0
2096921,2096921,190929,618580,0
2096921,2096921,191205,618506,0
2096921,2096921,191523,618878,0
2096921,2096921,191197,619221,0
2096921,2096921,191564,619254,0
2096921,2096921,191439,618994,0
2096921,2096921,191267,619288,0
2096921,2096921,191185,619586,0
2096921,2096921,191199,619407,0
2096921,2096921,191259,619202,0
2096921,2096921,191327,619257,0
2096921,2096921,191414,619369,0
2096921,2096921,191636,619221,0
2096921,2096921,191501,619651,0
2096921,2096921,191614,619832,0
2096921,2096921,191712,619535,0
2096921,2096921,191640,619694,0
2096921,2096921,191604,619607,0
2096921,2096921,191748,619860,0
2096921,2096921,191813,619924,0
2096921,2096921,191393,619658,0
2096921,2096921,191655,619854,0
2096921,2096921,191596,619776,0
2096921,2096921,191752,620070,0
2096921,2096921,191887,619967,0
2096921,2096921,191938,620239,0
2096921,2096921,191899,620461,0
2096921,2096921,191875,620269,0
2096921,2096921,191630,620073,0
2096921,2096921,191597,620183,0
2096921,2096921,191675,620142,0
2096921,2096921,191923,620245,0
2096921,2096921,192181,620730,0
2096921,2096921,192078,620612,0
2096921,2096921,191951,620993,0
2096921,2096921,191839,620651,0
2096921,2096921,192200,620740,0
2096921,2096921,192266,620728,0
2096921,2096921,192278,620949,0
2096921,2096921,192419,620798,0
2096921,2096921,191937,620927,0
2096921,2096921,191854,621020,0
2096921,2096921,192387,621225,0
2096921,2096921,192652,620880,0
2096921,2096921,192244,621010,0
2096921,2096921,192275,621014,0
2096921,2096921,192475,621201,0
2096921,2096921,192445,621262,0
2096921,2096921,192507,621250,0
2096921,2096921,192143,621344,0
2096921,2096921,192585,621385,0
2096921,2096921,192411,621102,0
2096921,2096921,192602,621412,0
2096921,2096921,192508,621538,0
2096921,2096921,192571,621487,0
2096921,2096921,192648,621392,0
2096921,2096921,192694,621707,0
2096921,2096921,192622,621745,0
2096921,2096921,192488,621403,0
2096921,2096921,192645,621814,0
2096921,2096921,192544,621894,0
2096921,2096921,192590,621977,0
2096921,2096921,192871,622015,0
2096921,2096921,193170,622103,0
2096921,2096921,192800,622051,0
2096921,2096921,192793,621923,0
2096921,2096921,193121,621964,0
2096921,2096921,192935,622055,0
2096921,2096921,192687,622175,0
2096921,2096921,192846,622151,0
2096921,2096921,192944,622252,0
2096921,2096921,192759,622323,0
2096921,2096921,192846,622642,0
2096921,2096921,193087,622496,0
2096921,2096921,193001,622786,0
2096921,2096921,193001,622679,0
2096921,2096921,193026,622880,0
2096921,2096921,193137,622822,0
2096921,2096921,192908,622517,0
2096921,2096921,192942,622503,0
2096921,2096921,192960,622562,0
2096921,2096921,193241,622614,0
2096921,2096921,193268,622751,0
2096921,2096921,193015,622803,0
2096921,2096921,193224,623106,0
2096921,2096921,193206,622958,0
2096921,2096921,193401,623183,0
2096921,2096921,193307,623332,0
2096921,2096921,193415,623378,0
2096921,2096921,193296,623409,0
2096921,2096921,193430,623408,0
2096921,2096921,193157,623523,0
2096921,2096921,193518,623302,0
2096921,2096921,193612,623556,0
2096921,2096921,193929,623604,0
2096921,2096921,193191,623502,0
2096921,2096921,193405,623514,0
2096921,2096921,193245,623517,0
2096921,2096921,193451,623545,0
2096921,2096921,193456,623370,0
2096921,2096921,193594,623413,0
2096921,2096921,193501,623547,0
2096921,2096921,193770,623696,0
2096921,2096921,193724,623968,0
2096921,2096921,193656,623763,0
2096921,2096921,193800,624019,0
2096921,2096921,193718,624057,0
2096921,2096921,193845,624122,0
2096921,2096921,193812,623981,0
2096921,2096921,193566,623885,0
2096921,2096921,193869,623898,0
2096921,2096921,193696,624046,0
2096921,2096921,193826,624030,0
2096921,2096921,193900,624160,0
2096921,2096921,193793,624050,0
2096921,2096921,193774,624372,0
2096921,2096921,193564,624279,0
2096921,2096921,193733,624539,0
2096921,2096921,193911,624287,0
2096921,2096921,193814,624032,0
2096921,2096921,193416,624183,0
2096921,2096921,193690,624498,0
2096921,2096921,193799,624754,0
2096921,2096921,194054,624634,0
2096921,2096921,193906,624887,0
2096921,2096921,194057,624685,0
2096921,2096921,194064,624886,0
2096921,2096921,194018,624846,0
2096921,2096921,193784,624737,0
2096921,2096921,194134,624701,0
2096921,2096921,194283,624819,0
2096921,2096921,193847,624681,0
2096921,2096921,194254,624779,0
2096921,2096921,194140,624957,0
2096921,2096921,194071,625204,0
2096921,2096921,194078,624832,0
2096921,2096921,193960,625287,0
2096921,2096921,193985,625472,0
2096921,2096921,193993,625224,0
2096921,2096921,194070,625055,0
2096921,2096921,194325,625205,0
2096921,2096921,194118,625218,0
2096921,2096921,194262,625302,0
2096921,2096921,194355,625303,0
2096921,2096921,194277,625296,0
2096921,2096921,194133,624923,0
2096921,2096921,194400,625432,0
2096921,2096921,194269,625495,0
2096921,2096921,194318,625285,0
2096921,2096921,194481,625229,0
2096921,2096921,194342,625086,0
2096921,2096921,194294,625138,0
2096921,2096921,194393,625584,0
2096921,2096921,194496,625554,0
2096921,2096921,194557,625870,0
2096921,2096921,194554,625841,0
2096921,2096921,194587,625901,0
2096921,2096921,194421,626248,0
2096921,2096921,194540,625857,0
2096921,2096921,194303,625435,0
2096921,2096921,194287,625958,0
2096921,2096921,194454,625718,0
2096921,2096921,194333,625920,0
2096921,2096921,194691,625938,0
2096921,2096921,194722,625893,0
2096921,2096921,194697,625429,0
2096921,2096921,194438,625721,0
2096921,2096921,194382,626036,0
2096921,2096921,194407,625873,0
2096921,2096921,194492,625969,0
2096921,2096921,194615,625976,0
2096921,2096921,194540,625840,0
2096921,2096921,194568,625907,0
2096921,2096921,194731,626099,0
2096921,2096921,194349,626327,0
2096921,2096921,194582,626374,0
2096921,2096921,194791,626349,0
2096921,2096921,194811,626576,0
2096921,2096921,194624,626416,0
2096921,2096921,194610,626398,0
2096921,2096921,194919,626241,0
2096921,2096921,194675,626402,0
2096921,2096921,194962,626413,0
2096921,2096921,195065,626586,0
2096921,2096921,194892,626646,0
2096921,2096921,194883,626560,0
2096921,2096921,195047,626596,0
2096921,2096921,194461,626803,0
2096921,2096921,194641,626385,0
2096921,2096921,194735,626609,0
2096921,2096921,194902,626481,0
2096921,2096921,194867,626579,0
2096921,2096921,195153,626723,0
2096921,2096921,195148,626745,0
2096921,2096921,194887,626539,0
2096921,2096921,194874,626444,0
2096921,2096921,194963,626577,0
2096921,2096921,194878,626769,0
2096921,2096921,194971,626417,0
2096921,2096921,194678,626530,0
2096921,2096921,194689,626543,0
2096921,2096921,194862,626822,0
2096921,2096921,194831,626968,0
2096921,2096921,195190,626876,0
2096921,2096921,195063,626938,0
2096921,2096921,195250,626840,0
2096921,2096921,195214,626638,0
2096921,2096921,195013,627099,0
2096921,2096921,194951,626989,0
2096921,2096921,194941,626813,0
2096921,2096921,194496,627144,0
2096921,2096921,194905,627229,0
2096921,2096921,195029,626906,0
2096921,2096921,195118,627098,0
2096921,2096921,195030,627043,0
2096921,2096921,195051,627070,0
2096921,2096921,195121,627213,0
2096921,2096921,195259,627265,0
2096921,2096921,195123,626971,0
2096921,2096921,195083,627010,0
2096921,2096921,194875,627160,0
2096921,2096921,195022,627032,0
2096921,2096921,194958,627099,0
2096921,2096921,195037,627175,0
2096921,2096921,195121,627236,0
2096921,2096921,195275,627253,0
2096921,2096921,195336,627537,0
2096921,2096921,195438,627417,0
2096921,2096921,195088,627218,0
2096921,2096921,195310,627236,0
2096921,2096921,195137,627561,0
2096921,2096921,195216,627463,0
2096921,2096921,195325,627303,0
2096921,2096921,194893,627150,0
2096921,2096921,195400,627377,0
2096921,2096921,195249,627212,0
2096921,2096921,195157,627300,0
2096921,2096921,195098,627528,0
2096921,2096921,194819,627294,0
2096921,2096921,195148,627818,0
2096921,2096921,195206,627774,0
2096921,2096921,194964,627581,0
2096921,2096921,195182,627671,0
2096921,2096921,195300,627667,0
2096921,2096921,195198,627599,0
2096921,2096921,195150,627729,0
2096921,2096921,195181,627627,0
2096921,2096921,195148,627771,0
2096921,2096921,195153,627205,0
2096921,2096921,195206,627470,0
2096921,2096921,195010,627569,0
2096921,2096921,194833,627582,0
2096921,2096921,195251,627814,0
2096921,2096921,195682,627759,0
2096921,2096921,195260,627920,0
2096921,2096921,195309,627735,0
2096921,2096921,195122,627629,0
2096921,2096921,195328,627584,0
2096921,2096921,195095,627537,0
2096921,2096921,195281,627800,0
2096921,2096921,195288,627783,0
2096921,2096921,194875,627522,0
2096921,2096921,195144,627748,0
2096921,2096921,195213,627474,0
2096921,2096921,195288,627747,0
2096921,2096921,195206,627780,0
2096921,2096921,195175,627497,0
2096921,2096921,194988,627392,0
2096921,2096921,194956,627785,0
2096921,2096921,194862,626958,0
2096921,2096921,195120,626899,0
2096921,2096921,194775,627117,0
2096921,2096921,194593,626798,0
2096921,2096921,194761,626549,0
2096921,2096921,194875,626990,0
2096921,2096921,194654,626853,0
2096921,2096921,194589,626374,0
2096921,2096921,194240,626426,0
2096921,2096921,194369,626314,0
2096921,2096921,194278,626174,0
2096921,2096921,194617,626112,0
2096921,2096921,194176,625773,0
2096921,2096921,194065,625642,0
2096921,2096921,194055,625654,0
2096921,2096921,194262,625862,0
2096921,2096921,193874,625780,0
2096921,2096921,193063,624791,0
2096921,2096921,193052,624226,0
2096921,2096921,192953,624091,0
2096921,2096921,192866,623719,0
2096921,2096921,192847,623982,0
2096921,2096921,191989,623300,0
2096921,2096921,191858,622155,0
2096921,2096921,192074,622017,0
2096921,2096921,191984,622079,0
2096921,2096921,192354,621981,0
2096921,2096921,191316,621083,0
2096921,2096921,191255,620757,0
2096921,2096921,191311,620739,0
2096921,2096921,191193,620489,0
2096921,2096921,191256,620416,0
2096921,2096921,190746,620061,0
2096921,2096921,190529,619965,0
2096921,2096921,190652,619856,0
2096921,2096921,190623,619628,0
2096921,2096921,190557,619310,0
2096921,2096921,190185,619249,0
2096921,2096921,190229,618687,0
2096921,2096921,190111,618435,0
2096921,2096921,189813,618626,0
2096921,2096921,189827,618622,0
2096921,2096921,189867,618552,0
2096921,2096921,190062,618639,0
2096921,2096921,189854,618374,0
2096921,2096921,189703,618503,0
2096921,2096921,189806,617997,0
2096921,2096921,189493,617715,0
2096921,2096921,189502,618000,0
2096921,2096921,189382,617732,0
2096921,2096921,189659,617640,0
2096921,2096921,189548,617988,0
2096921,2096921,189434,617662,0
2096921,2096921,189675,617893,0
2096921,2096921,189567,617771,0
2096921,2096921,189770,617955,0
2096921,2096921,189711,618028,0
2096921,2096921,189635,617775,0
2096921,2096921,189283,617654,0
2096921,2096921,189304,617824,0
2096921,2096921,189285,617687,0
2096921,2096921,189419,617515,0
2096921,2096921,189536,617564,0
2096921,2096921,189659,617750,0
2096921,2096921,189422,617843,0
2096921,2096921,189581,618214,0
2096921,2096921,189655,617590,0
2096921,2096921,189469,617621,0
2096921,2096921,189666,617952,0
2096921,2096921,189679,617959,0
2096921,2096921,189663,617657,0
2096921,2096921,189767,617676,0
2096921,2096921,189906,618176,0
2096921,2096921,189576,618249,0
2096921,2096921,189691,618276,0
2096921,2096921,189681,618038,0
2096921,2096921,189803,618278,0
2096921,2096921,189673,618235,0
2096921,2096921,189457,618124,0
2096921,2096921,189346,617894,0
2096921,2096921,189749,618147,0
2096921,2096921,189585,618332,0
2096921,2096921,189611,618560,0
2096921,2096921,189965,618643,0
2096921,2096921,190087,618567,0
2096921,2096921,190128,618624,0
2096921,2096921,189851,618848,0
2096921,2096921,190008,618840,0
2096921,2096921,190102,619198,0
2096921,2096921,190101,619207,0
2096921,2096921,190196,619156,0
2096921,2096921,190113,619325,0
2096921,2096921,190448,619490,0
2096921,2096921,190454,619750,0
2096921,2096921,190328,619305,0
2096921,2096921,190386,619424,0
2096921,2096921,189962,619332,0
2096921,2096921,190396,619518,0
2096921,2096921,190516,619735,0
2096921,2096921,190528,619710,0
2096921,2096921,190679,619881,0
2096921,2096921,190595,619618,0
2096921,2096921,190701,620004,0
2096921,2096921,191141,620281,0
2096921,2096921,190865,620575,0
2096921,2096921,190734,620377,0
2096921,2096921,190487,620394,0
2096921,2096921,191049,620464,0
2096921,2096921,190902,620586,0
2096921,2096921,191094,620809,0
2096921,2096921,191050,620670,0
2096921,2096921,191152,621026,0
2096921,2096921,191258,620858,0
2096921,2096921,191370,621035,0
2096921,2096921,190986,621190,0
2096921,2096921,191032,621132,0
2096921,2096921,191088,621301,0
2096921,2096921,191329,621300,0
2096921,2096921,191357,621523,0
2096921,2096921,191356,621395,0
2096921,2096921,191495,621442,0
2096921,2096921,191327,621552,0
2096921,2096921,191496,621658,0
2096921,2096921,191614,621932,0
2096921,2096921,191468,622038,0
2096921,2096921,191597,621762,0
2096921,2096921,191772,622053,0
2096921,2096921,191773,622564,0
2096921,2096921,191681,622375,0
2096921,2096921,191785,622335,0
2096921,2096921,191647,622231,0
2096921,2096921,191705,622039,0
2096921,2096921,192243,622536,0
2096921,2096921,191855,622695,0
2096921,2096921,191850,622874,0
2096921,2096921,191943,622829,0
2096921,2096921,192326,622812,0
2096921,2096921,192284,623034,0
2096921,2096921,192247,623152,0
2096921,2096921,192192,623235,0
2096921,2096921,192431,623407,0
2096921,2096921,192349,623474,0
2096921,2096921,192471,623030,0
2096921,2096921,192204,623545,0
2096921,2096921,192457,623661,0
2096921,2096921,192496,623847,0
2096921,2096921,192431,623621,0
2096921,2096921,192616,623628,0
2096921,2096921,192793,623800,0
2096921,2096921,192673,623918,0
2096921,2096921,192366,623704,0
2096921,2096921,192684,623848,0
2096921,2096921,192892,623824,0
2096921,2096921,192938,623965,0
2096921,2096921,192705,624393,0
2096921,2096921,192761,624336,0
2096921,2096921,192829,624360,0
2096921,2096921,192994,624436,0
2096921,2096921,192690,624472,0
2096921,2096921,192635,624255,0
2096921,2096921,192980,624024,0
2096921,2096921,192840,624092,0
2096921,2096921,192756,624405,0
2096921,2096921,192855,624595,0
2096921,2096921,192598,624705,0
2096921,2096921,192809,624542,0
2096921,2096921,193323,624365,0
2096921,2096921,192911,624327,0
2096921,2096921,193050,624611,0
2096921,2096921,192983,624274,0
2096921,2096921,192679,624370,0
2096921,2096921,193004,624543,0
2096921,2096921,193081,624320,0
2096921,2096921,193327,624392,0
2096921,2096921,193263,624639,0
2096921,2096921,192578,624914,0
2096921,2096921,192972,624173,0
2096921,2096921,193071,624379,0
2096921,2096921,192764,624307,0
2096921,2096921,192682,624438,0
2096921,2096921,192760,624417,0
2096921,2096921,192699,624220,0
2096921,2096921,192804,624703,0
2096921,2096921,192803,624684,0
2096921,2096921,192933,624193,0
2096921,2096921,192759,624382,0
2096921,2096921,192697,624494,0
2096921,2096921,192806,624119,0
2096921,2096921,192715,624058,0
2096921,2096921,192626,624302,0
2096921,2096921,192687,624329,0
2096921,2096921,192832,624518,0
2096921,2096921,192778,624372,0
2096921,2096921,192440,624218,0
2096921,2096921,192465,623975,0
2096921,2096921,192770,624252,0
2096921,2096921,192500,624116,0
2096921,2096921,192682,623987,0
2096921,2096921,192451,624055,0
2096921,2096921,192529,623740,0
2096921,2096921,192559,623702,0
2096921,2096921,192560,624187,0
2096921,2096921,192472,623982,0
2096921,2096921,192780,624108,0
2096921,2096921,192715,624061,0
2096921,2096921,192821,624168,0
2096921,2096921,192482,624296,0
2096921,2096921,192368,624108,0
2096921,2096921,192303,624465,0
2096921,2096921,192652,624222,0
2096921,2096921,192774,624212,0
2096921,2096921,192544,623806,0
2096921,2096921,192623,624027,0
2096921,2096921,192760,624385,0
2096921,2096921,193070,624621,0
2096921,2096921,192757,624248,0
2096921,2096921,192475,624243,0
2096921,2096921,192665,624506,0
2096921,2096921,192537,624284,0
2096921,2096921,192486,624237,0
2096921,2096921,192855,624108,0
2096921,2096921,192435,624130,0
2096921,2096921,192830,624200,0
2096921,2096921,192930,624570,0
2096921,2096921,192971,624395,0
2096921,2096921,192740,624558,0
2096921,2096921,193162,624453,0
2096921,2096921,192917,624646,0
2096921,2096921,192766,624650,0
2096921,2096921,192978,624450,0
2096921,2096921,192809,624859,0
2096921,2096921,192886,624766,0
2096921,2096921,193031,624724,0
2096921,2096921,193147,625073,0
2096921,2096921,193111,625093,0
2096921,2096921,193161,624859,0
2096921,2096921,193256,624831,0
2096921,2096921,193354,625336,0
2096921,2096921,193106,625518,0
2096921,2096921,193386,625214,0
2096921,2096921,193462,625034,0
2096921,2096921,193117,625285,0
2096921,2096921,193172,625362,0
2096921,2096921,193329,625236,0
2096921,2096921,193514,625437,0
2096921,2096921,193358,625352,0
2096921,2096921,193461,625498,0
2096921,2096921,193598,625687,0
2096921,2096921,193167,625675,0
2096921,2096921,193373,626059,0
2096921,2096921,193272,625765,0
2096921,2096921,193420,625552,0
2096921,2096921,193575,625797,0
2096921,2096921,193728,625676,0
2096921,2096921,193683,625889,0
2096921,2096921,193833,625614,0
2096921,2096921,193649,625633,0
2096921,2096921,193592,626065,0
2096921,2096921,193708,626106,0
2096921,2096921,193719,625916,0
2096921,2096921,193742,626006,0
2096921,2096921,193270,625871,0
2096921,2096921,193747,625995,0
2096921,2096921,193664,626271,0
2096921,2096921,193989,626255,0
2096921,2096921,193871,626251,0
2096921,2096921,193728,626247,0
2096921,2096921,194393,626744,0
2096921,2096921,193933,626487,0
2096921,2096921,193746,626245,0
2096921,2096921,194042,626245,0
2096921,2096921,193994,626496,0
2096921,2096921,194052,626592,0
2096921,2096921,193975,626876,0
2096921,2096921,193854,626752,0
2096921,2096921,193900,626624,0
2096921,2096921,193853,626773,0
2096921,2096921,193928,627144,0
2096921,2096921,194130,626955,0
2096921,2096921,193836,626864,0
2096921,2096921,194015,626835,0
2096921,2096921,194164,627074,0
2096921,2096921,194281,626675,0
2096921,2096921,194163,626915,0
2096921,2096921,194314,626560,0
2096921,2096921,194414,626997,0
2096921,2096921,194169,627056,0
2096921,2096921,194602,627327,0
2096921,2096921,194456,627100,0
2096921,2096921,194280,627367,0
2096921,2096921,194501,627009,0
2096921,2096921,194554,627082,0
2096921,2096921,194563,627369,0
2096921,2096921,194688,627379,0
2096921,2096921,194751,627507,0
2096921,2096921,194650,627382,0
2096921,2096921,194381,627831,0
2096921,2096921,194500,627589,0
2096921,2096921,194311,627552,0
2096921,2096921,194231,627764,0
2096921,2096921,194353,627556,0
2096921,2096921,194645,627853,0
2096921,2096921,194827,627536,0
2096921,2096921,194812,627642,0
2096921,2096921,194554,627944,0
2096921,2096921,194592,627791,0
2096921,2096921,194544,627893,0
2096921,2096921,194857,627909,0
2096921,2096921,194668,628029,0
2096921,2096921,194707,627659,0
2096921,2096921,194608,627883,0
2096921,2096921,194773,627635,0
2096921,2096921,194830,628149,0
2096921,2096921,194844,628284,0
2096921,2096921,194812,628127,0
2096921,2096921,194942,628091,0
2096921,2096921,194766,628289,0
2096921,2096921,194950,628093,0
2096921,2096921,194825,628081,0
2096921,2096921,194627,628074,0
2096921,2096921,194706,628404,0
2096921,2096921,194928,628217,0
2096921,2096921,195239,628391,0
2096921,2096921,195241,628563,0
2096921,2096921,194917,628599,0
2096921,2096921,194858,628522,0
2096921,2096921,195044,628556,0
2096921,2096921,195510,628712,0
2096921,2096921,195225,628440,0
2096921,2096921,195182,628406,0
2096921,2096921,195132,628065,0
2096921,2096921,195217,628280,0
2096921,2096921,195114,628733,0
2096921,2096921,195282,628848,0
2096921,2096921,195145,628624,0
2096921,2096921,195629,628655,0
2096921,2096921,195221,628675,0
2096921,2096921,195624,628848,0
2096921,2096921,195393,628600,0
2096921,2096921,195333,628895,0
2096921,2096921,195438,628626,0
2096921,2096921,195524,628639,0
2096921,2096921,195420,628704,0
2096921,2096921,195524,628826,0
2096921,2096921,195399,629185,0
2096921,2096921,195581,628958,0
2096921,2096921,195581,629118,0
2096921,2096921,195624,628969,0
2096921,2096921,195452,628868,0
2096921,2096921,195202,629015,0
2096921,2096921,195498,628873,0
2096921,2096921,195397,628818,0
2096921,2096921,195679,629018,0
2096921,2096921,195631,628997,0
2096921,2096921,195458,629031,0
2096921,2096921,195520,629043,0
2096921,2096921,195423,629209,0
2096921,2096921,195375,628966,0
2096921,2096921,195460,629241,0
2096921,2096921,195207,629085,0
2096921,2096921,195329,629126,0
2096921,2096921,195360,628997,0
2096921,2096921,195587,629107,0
2096921,2096921,195838,629038,0
2096921,2096921,195861,629669,0
2096921,2096921,195892,629330,0
