2096921,2096921,171831,599625,0
2096921,2096921,171628,599944,0
2096921,2096921,171868,599617,0
2096921,2096921,172070,600077,0
2096921,2096921,171985,599988,0
2096921,2096921,171875,600114,0
2096921,2096921,171922,600182,0
2096921,2096921,172116,600008,0
2096921,2096921,172087,600370,0
2096921,2096921,172183,600443,0
2096921,2096921,172081,600519,0
2096921,2096921,172231,600256,0
2096921,2096921,172002,600607,0
2096921,2096921,172189,600592,0
2096921,2096921,172337,600695,0
2096921,2096921,172200,600665,0
2096921,2096921,172322,600914,0
2096921,2096921,172163,601018,0
2096921,2096921,172386,601060,0
2096921,2096921,172334,600942,0
2096921,2096921,172623,601137,0
2096921,2096921,172496,601204,0
2096921,2096921,172698,601119,0
2096921,2096921,172866,601228,0
2096921,2096921,172806,601286,0
2096921,2096921,172708,601337,0
2096921,2096921,172385,601534,0
2096921,2096921,172899,601429,0
2096921,2096921,172896,601336,0
2096921,2096921,172655,601619,0
2096921,2096921,172796,601696,0
2096921,2096921,172926,601791,0
2096921,2096921,172987,602004,0
2096921,2096921,172962,601979,0
2096921,2096921,172896,601825,0
2096921,2096921,173018,601893,0
2096921,2096921,173026,601960,0
2096921,2096921,173156,602030,0
2096921,2096921,173070,602052,0
2096921,2096921,173028,602275,0
2096921,2096921,173079,601989,0
2096921,2096921,173263,601977,0
2096921,2096921,173125,601962,0
2096921,2096921,173384,602078,0
2096921,2096921,173249,601918,0
2096921,2096921,173202,602091,0
2096921,2096921,173121,602190,0
2096921,2096921,173150,602155,0
2096921,2096921,172896,602074,0
2096921,2096921,172946,602324,0
2096921,2096921,173025,602085,0
2096921,2096921,173108,602009,0
2096921,2096921,172928,601995,0
2096921,2096921,173187,602221,0
2096921,2096921,172895,602216,0
2096921,2096921,173108,602013,0
2096921,2096921,172642,602145,0
2096921,2096921,173011,602074,0
2096921,2096921,173172,601748,0
2096921,2096921,172947,601951,0
2096921,2096921,172917,602124,0
2096921,2096921,172981,601784,0
2096921,2096921,173184,602007,0
2096921,2096921,173089,601937,0
2096921,2096921,173082,601773,0
2096921,2096921,173067,601857,0
2096921,2096921,172926,601913,0
2096921,2096921,172915,601806,0
2096921,2096921,172729,601904,0
2096921,2096921,173065,601991,0
2096921,2096921,173218,602125,0
2096921,2096921,172998,602023,0
2096921,2096921,172897,602053,0
2096921,2096921,172970,601965,0
2096921,2096921,172918,601761,0
2096921,2096921,172812,601801,0
2096921,2096921,172794,601779,0
2096921,2096921,172956,601842,0
2096921,2096921,172768,601762,0
2096921,2096921,173092,601858,0
2096921,2096921,172964,601754,0
2096921,2096921,172749,601836,0
2096921,2096921,172884,602072,0
2096921,2096921,172970,601953,0
2096921,2096921,172979,601867,0
2096921,2096921,172795,601951,0
2096921,2096921,172850,601804,0
2096921,2096921,172746,601594,0
2096921,2096921,172993,601952,0
2096921,2096921,172809,601914,0
2096921,2096921,172723,601893,0
2096921,2096921,172972,602024,0
2096921,2096921,172762,602002,0
2096921,2096921,172999,601999,0
2096921,2096921,173033,601933,0
2096921,2096921,172765,602080,0
2096921,2096921,173024,602239,0
2096921,2096921,172885,602051,0
2096921,2096921,172965,602087,0
2096921,2096921,173033,601978,0
2096921,2096921,173162,601992,0
2096921,2096921,173193,602086,0
2096921,2096921,172971,601919,0
2096921,2096921,173269,602190,0
2096921,2096921,172968,602207,0
2096921,2096921,173201,602315,0
2096921,2096921,173066,602067,0
2096921,2096921,172943,602395,0
2096921,2096921,173237,602349,0
2096921,2096921,173233,602801,0
2096921,2096921,173369,602677,0
2096921,2096921,173411,602880,0
2096921,2096921,173376,602804,0
2096921,2096921,173173,603198,0
2096921,2096921,173157,603332,0
2096921,2096921,173459,603104,0
2096921,2096921,173308,602832,0
2096921,2096921,173448,603064,0
2096921,2096921,173579,603258,0
2096921,2096921,173659,603545,0
2096921,2096921,173614,603458,0
2096921,2096921,173668,603489,0
2096921,2096921,173550,603613,0
2096921,2096921,173853,603790,0
2096921,2096921,173677,603793,0
2096921,2096921,173822,603985,0
2096921,2096921,173922,603941,0
2096921,2096921,173638,603944,0
2096921,2096921,173548,604073,0
2096921,2096921,173910,604295,0
2096921,2096921,174059,604402,0
2096921,2096921,174058,604183,0
2096921,2096921,173850,604086,0
2096921,2096921,173775,604590,0
2096921,2096921,174018,604620,0
2096921,2096921,173946,604716,0
2096921,2096921,174043,604698,0
2096921,2096921,174065,604609,0
2096921,2096921,174145,604626,0
2096921,2096921,174389,604849,0
2096921,2096921,174322,604843,0
2096921,2096921,174413,604835,0
2096921,2096921,174082,605182,0
2096921,2096921,174215,605247,0
2096921,2096921,174295,605443,0
2096921,2096921,174129,605549,0
2096921,2096921,174399,605408,0
2096921,2096921,174494,605178,0
2096921,2096921,174393,605553,0
2096921,2096921,174595,605732,0
2096921,2096921,174503,605823,0
2096921,2096921,174630,605941,0
2096921,2096921,174455,605875,0
2096921,2096921,174579,605763,0
2096921,2096921,174470,606147,0
2096921,2096921,174734,606175,0
2096921,2096921,174778,606061,0
2096921,2096921,174700,605880,0
2096921,2096921,175169,606066,0
2096921,2096921,175212,606379,0
2096921,2096921,175332,606781,0
2096921,2096921,175053,606461,0
2096921,2096921,174933,606538,0
2096921,2096921,175021,606575,0
2096921,2096921,175166,606840,0
2096921,2096921,174812,607144,0
2096921,2096921,175015,606882,0
2096921,2096921,174847,606892,0
2096921,2096921,175133,606977,0
2096921,2096921,175173,607263,0
2096921,2096921,175309,607273,0
2096921,2096921,175246,607533,0
2096921,2096921,175079,607482,0
2096921,2096921,175210,607608,0
2096921,2096921,175449,607630,0
2096921,2096921,175216,607664,0
2096921,2096921,175358,607770,0
2096921,2096921,175331,607738,0
2096921,2096921,175399,608130,0
2096921,2096921,175340,608113,0
2096921,2096921,175372,608505,0
2096921,2096921,175568,608463,0
2096921,2096921,175543,608178,0
2096921,2096921,175732,608144,0
2096921,2096921,175957,608548,0
2096921,2096921,175815,608555,0
2096921,2096921,175780,608434,0
2096921,2096921,175405,608658,0
2096921,2096921,175846,608724,0
2096921,2096921,175500,609155,0
2096921,2096921,175812,609276,0
2096921,2096921,175794,609234,0
2096921,2096921,175960,609253,0
2096921,2096921,175903,609132,0
2096921,2096921,175902,609321,0
2096921,2096921,175865,609606,0
2096921,2096921,176059,609719,0
2096921,2096921,176061,609647,0
2096921,2096921,176208,609482,0
2096921,2096921,176057,609792,0
2096921,2096921,176238,609840,0
2096921,2096921,175932,610133,0
2096921,2096921,175906,610130,0
2096921,2096921,176423,609972,0
2096921,2096921,175928,610099,0
2096921,2096921,176363,610369,0
2096921,2096921,176045,610201,0
2096921,2096921,176265,610233,0
2096921,2096921,176140,610455,0
2096921,2096921,176499,610656,0
2096921,2096921,176241,610564,0
2096921,2096921,176608,610288,0
2096921,2096921,176534,610732,0
2096921,2096921,176658,610642,0
2096921,2096921,176507,611059,0
2096921,2096921,176662,611028,0
2096921,2096921,176689,610907,0
2096921,2096921,176837,611003,0
2096921,2096921,176940,611216,0
2096921,2096921,176871,611381,0
2096921,2096921,176729,611735,0
2096921,2096921,176676,611527,0
2096921,2096921,176879,611755,0
2096921,2096921,177113,611840,0
2096921,2096921,176757,611886,0
2096921,2096921,176908,611891,0
2096921,2096921,176989,611952,0
2096921,2096921,176733,611961,0
2096921,2096921,176977,611977,0
2096921,2096921,177231,612334,0
2096921,2096921,177012,612409,0
2096921,2096921,177088,612571,0
2096921,2096921,177044,612468,0
2096921,2096921,177173,612379,0
2096921,2096921,177179,612900,0
2096921,2096921,177272,612557,0
2096921,2096921,177194,612850,0
2096921,2096921,177164,612648,0
2096921,2096921,177392,613030,0
2096921,2096921,177422,613163,0
2096921,2096921,177238,613256,0
2096921,2096921,177420,613230,0
2096921,2096921,177433,613287,0
2096921,2096921,177623,613688,0
2096921,2096921,177465,613391,0
2096921,2096921,177755,613385,0
2096921,2096921,177617,613605,0
2096921,2096921,177565,613706,0
2096921,2096921,177799,613923,0
2096921,2096921,177564,614191,0
2096921,2096921,177630,614025,0
2096921,2096921,177628,613990,0
2096921,2096921,177946,614051,0
2096921,2096921,177599,614359,0
2096921,2096921,177657,614151,0
2096921,2096921,177891,614635,0
2096921,2096921,177662,614337,0
2096921,2096921,177859,614663,0
2096921,2096921,177964,614451,0
2096921,2096921,177933,614988,0
2096921,2096921,178032,615211,0
2096921,2096921,178147,615388,0
2096921,2096921,177981,614767,0
2096921,2096921,178116,615103,0
2096921,2096921,178263,615112,0
2096921,2096921,178083,615441,0
2096921,2096921,178010,615324,0
2096921,2096921,177936,615508,0
2096921,2096921,178070,615444,0
2096921,2096921,178418,615795,0
2096921,2096921,178247,615725,0
2096921,2096921,178365,616076,0
2096921,2096921,178258,615923,0
2096921,2096921,178456,615870,0
2096921,2096921,178366,616101,0
2096921,2096921,178372,616185,0
2096921,2096921,178420,616311,0
2096921,2096921,178419,616143,0
2096921,2096921,178468,616195,0
2096921,2096921,178337,616489,0
2096921,2096921,178393,616322,0
2096921,2096921,178634,616456,0
2096921,2096921,178839,616520,0
2096921,2096921,178492,616487,0
2096921,2096921,178788,616728,0
2096921,2096921,178494,616783,0
2096921,2096921,178542,617085,0
2096921,2096921,178524,616861,0
2096921,2096921,178657,616947,0
2096921,2096921,178806,617195,0
2096921,2096921,179061,617446,0
2096921,2096921,179063,617747,0
2096921,2096921,178611,617343,0
2096921,2096921,178742,617719,0
2096921,2096921,178913,618017,0
2096921,2096921,178718,617809,0
2096921,2096921,178927,617855,0
2096921,2096921,179154,617795,0
2096921,2096921,179167,617757,0
2096921,2096921,178823,617993,0
2096921,2096921,179004,618372,0
2096921,2096921,179090,618577,0
2096921,2096921,178998,618447,0
2096921,2096921,179006,618364,0
2096921,2096921,179047,618451,0
2096921,2096921,179090,618517,0
2096921,2096921,179093,618635,0
2096921,2096921,179207,618432,0
2096921,2096921,179083,619020,0
2096921,2096921,179145,619205,0
2096921,2096921,179337,619190,0
2096921,2096921,179618,618903,0
2096921,2096921,179449,619321,0
2096921,2096921,179209,619005,0
2096921,2096921,179101,619855,0
2096921,2096921,179559,619392,0
2096921,2096921,179622,619787,0
2096921,2096921,179498,619620,0
2096921,2096921,179907,619849,0
2096921,2096921,179726,619881,0
2096921,2096921,179698,620149,0
2096921,2096921,179509,620055,0
2096921,2096921,179376,620211,0
2096921,2096921,179340,620286,0
2096921,2096921,179587,620349,0
2096921,2096921,179599,620414,0
2096921,2096921,179770,620463,0
2096921,2096921,179533,620249,0
2096921,2096921,180074,620378,0
2096921,2096921,179719,621081,0
2096921,2096921,180065,621106,0
2096921,2096921,179830,620720,0
2096921,2096921,179838,620861,0
2096921,2096921,180016,621007,0
2096921,2096921,180061,621452,0
2096921,2096921,180217,621442,0
2096921,2096921,180284,621505,0
2096921,2096921,179963,621218,0
2096921,2096921,179714,621453,0
2096921,2096921,179915,621723,0
2096921,2096921,180280,621817,0
2096921,2096921,179761,622119,0
2096921,2096921,180185,621974,0
2096921,2096921,180376,621729,0
2096921,2096921,180253,622079,0
2096921,2096921,180367,621866,0
2096921,2096921,180323,621874,0
2096921,2096921,180373,622106,0
2096921,2096921,180422,621980,0
2096921,2096921,180283,622520,0
2096921,2096921,180404,622502,0
2096921,2096921,180524,622681,0
2096921,2096921,180533,622534,0
2096921,2096921,180735,622688,0
2096921,2096921,180597,622665,0
2096921,2096921,180654,622863,0
2096921,2096921,180457,622772,0
2096921,2096921,180106,622913,0
2096921,2096921,180735,622896,0
2096921,2096921,180720,623351,0
2096921,2096921,180468,623307,0
2096921,2096921,180628,623271,0
2096921,2096921,180517,623137,0
2096921,2096921,180734,623413,0
2096921,2096921,180784,623642,0
2096921,2096921,180768,623549,0
2096921,2096921,180582,623670,0
2096921,2096921,180756,623792,0
2096921,2096921,180812,623841,0
2096921,2096921,180958,624032,0
2096921,2096921,180830,624143,0
2096921,2096921,180959,623985,0
2096921,2096921,181069,623949,0
2096921,2096921,180996,624169,0
2096921,2096921,180886,624191,0
2096921,2096921,180754,623817,0
2096921,2096921,180782,623950,0
2096921,2096921,180786,624005,0
2096921,2096921,180590,624382,0
2096921,2096921,180890,624225,0
2096921,2096921,180716,624178,0
2096921,2096921,180918,624219,0
2096921,2096921,180760,624091,0
2096921,2096921,180550,623829,0
2096921,2096921,180570,624041,0
2096921,2096921,180635,623973,0
2096921,2096921,180330,624026,0
2096921,2096921,180475,623784,0
2096921,2096921,180511,623868,0
2096921,2096921,180528,623593,0
2096921,2096921,180480,623883,0
2096921,2096921,180476,623993,0
2096921,2096921,180277,623545,0
2096921,2096921,180014,623261,0
2096921,2096921,180261,623583,0
2096921,2096921,180031,623367,0
2096921,2096921,180143,623374,0
2096921,2096921,180098,623198,0
2096921,2096921,179478,622741,0
2096921,2096921,179499,622328,0
2096921,2096921,179321,622471,0
2096921,2096921,179416,621900,0
2096921,2096921,179569,622043,0
2096921,2096921,179078,621406,0
2096921,2096921,178534,621102,0
2096921,2096921,178477,620858,0
2096921,2096921,178707,620727,0
2096921,2096921,178322,620685,0
2096921,2096921,177741,619839,0
2096921,2096921,177757,619492,0
2096921,2096921,177941,619294,0
2096921,2096921,177647,619500,0
2096921,2096921,177705,619498,0
2096921,2096921,177219,619087,0
2096921,2096921,176999,618558,0
2096921,2096921,177191,618644,0
2096921,2096921,177225,618636,0
2096921,2096921,177101,618793,0
2096921,2096921,177390,618372,0
2096921,2096921,177094,618542,0
2096921,2096921,176892,618198,0
2096921,2096921,176854,618393,0
2096921,2096921,177092,618030,0
2096921,2096921,176770,617940,0
2096921,2096921,176648,617918,0
2096921,2096921,176750,617344,0
2096921,2096921,176667,617402,0
2096921,2096921,176724,617572,0
2096921,2096921,176551,617349,0
2096921,2096921,176372,617506,0
2096921,2096921,176396,617512,0
2096921,2096921,176433,617800,0
2096921,2096921,176492,617527,0
2096921,2096921,176480,617537,0
2096921,2096921,176362,617153,0
2096921,2096921,176188,617562,0
2096921,2096921,176432,617350,0
2096921,2096921,176751,617481,0
2096921,2096921,176579,617487,0
2096921,2096921,176148,617769,0
2096921,2096921,176685,617825,0
2096921,2096921,176550,617925,0
2096921,2096921,176464,617946,0
2096921,2096921,176619,617817,0
2096921,2096921,176652,617956,0
2096921,2096921,176702,618018,0
2096921,2096921,176818,618408,0
2096921,2096921,176513,618376,0
2096921,2096921,176907,618304,0
2096921,2096921,176792,618663,0
2096921,2096921,176938,618630,0
2096921,2096921,176819,618664,0
2096921,2096921,177138,618749,0
2096921,2096921,177338,618843,0
2096921,2096921,176901,618952,0
2096921,2096921,177086,618985,0
2096921,2096921,176894,618835,0
2096921,2096921,176936,619047,0
2096921,2096921,177396,619403,0
2096921,2096921,177530,619427,0
2096921,2096921,177259,619748,0
2096921,2096921,177314,619796,0
2096921,2096921,176959,619954,0
2096921,2096921,177360,619756,0
2096921,2096921,177490,620290,0
2096921,2096921,177484,620256,0
2096921,2096921,177461,620278,0
2096921,2096921,177335,620154,0
2096921,2096921,177440,620553,0
2096921,2096921,177867,620947,0
2096921,2096921,178334,621369,0
2096921,2096921,177805,621030,0
2096921,2096921,177976,620978,0
2096921,2096921,177842,621257,0
2096921,2096921,178151,621425,0
2096921,2096921,178079,621611,0
2096921,2096921,178254,621723,0
2096921,2096921,177985,621638,0
2096921,2096921,178011,621945,0
2096921,2096921,178271,622390,0
2096921,2096921,178386,622664,0
2096921,2096921,178513,622552,0
2096921,2096921,178569,622351,0
2096921,2096921,178410,622743,0
2096921,2096921,178562,623207,0
2096921,2096921,178475,623314,0
2096921,2096921,178578,623098,0
2096921,2096921,178661,623409,0
2096921,2096921,178828,623380,0
2096921,2096921,178871,623564,0
2096921,2096921,178867,623635,0
2096921,2096921,178880,623668,0
2096921,2096921,179031,623776,0
2096921,2096921,179391,624073,0
2096921,2096921,179318,624617,0
2096921,2096921,179034,624570,0
2096921,2096921,179195,624505,0
2096921,2096921,179072,624508,0
2096921,2096921,179426,624536,0
2096921,2096921,179454,624976,0
2096921,2096921,179416,625392,0
2096921,2096921,179248,624920,0
2096921,2096921,179507,625035,0
2096921,2096921,179653,625545,0
2096921,2096921,179697,625666,0
2096921,2096921,179763,625471,0
2096921,2096921,179451,625678,0
2096921,2096921,179643,625649,0
2096921,2096921,179986,626194,0
2096921,2096921,180220,626316,0
2096921,2096921,180057,626426,0
2096921,2096921,179965,626617,0
2096921,2096921,180422,626353,0
2096921,2096921,180466,626879,0
2096921,2096921,180269,626950,0
2096921,2096921,180314,627050,0
2096921,2096921,180384,626891,0
2096921,2096921,180039,627012,0
2096921,2096921,180387,627061,0
2096921,2096921,180430,627595,0
2096921,2096921,180426,627500,0
2096921,2096921,180534,627645,0
2096921,2096921,180497,627909,0
2096921,2096921,180661,628027,0
2096921,2096921,180869,628408,0
2096921,2096921,181034,628259,0
2096921,2096921,181133,628113,0
2096921,2096921,180808,628251,0
2096921,2096921,181198,628537,0
2096921,2096921,181191,628975,0
2096921,2096921,181124,628975,0
2096921,2096921,181000,628921,0
2096921,2096921,180590,628794,0
2096921,2096921,181106,628967,0
2096921,2096921,181056,629254,0
2096921,2096921,181381,629357,0
2096921,2096921,181180,629311,0
2096921,2096921,181303,629469,0
2096921,2096921,181341,629703,0
2096921,2096921,181058,629678,0
2096921,2096921,181391,629884,0
2096921,2096921,181506,630069,0
2096921,2096921,181500,630036,0
2096921,2096921,181474,629794,0
2096921,2096921,181524,630092,0
2096921,2096921,181672,629729,0
2096921,2096921,181347,630056,0
2096921,2096921,181254,630023,0
2096921,2096921,181642,630257,0
2096921,2096921,181693,630003,0
2096921,2096921,181718,630545,0
2096921,2096921,181511,630289,0
2096921,2096921,181599,630347,0
2096921,2096921,181831,630279,0
2096921,2096921,181355,630536,0
2096921,2096921,181499,630528,0
2096921,2096921,181664,630426,0
2096921,2096921,181911,630502,0
2096921,2096921,181979,630652,0
2096921,2096921,181549,630606,0
2096921,2096921,181625,630694,0
2096921,2096921,181331,630895,0
2096921,2096921,181689,630918,0
2096921,2096921,181428,630951,0
2096921,2096921,181871,630824,0
2096921,2096921,181821,630989,0
2096921,2096921,181549,631025,0
2096921,2096921,181553,630917,0
2096921,2096921,181496,630755,0
2096921,2096921,181666,630890,0
2096921,2096921,181809,630893,0
2096921,2096921,181788,630632,0
2096921,2096921,181798,630943,0
2096921,2096921,181582,631024,0
2096921,2096921,181631,631103,0
2096921,2096921,181283,630883,0
2096921,2096921,181479,631082,0
2096921,2096921,181583,630903,0
2096921,2096921,181527,631122,0
2096921,2096921,181538,631084,0
2096921,2096921,181405,631249,0
2096921,2096921,181376,631092,0
2096921,2096921,181510,631254,0
2096921,2096921,181361,631204,0
2096921,2096921,181744,631159,0
2096921,2096921,181601,631442,0
2096921,2096921,181666,631081,0
2096921,2096921,181504,631210,0
2096921,2096921,181601,631214,0
2096921,2096921,181926,631344,0
2096921,2096921,181511,631128,0
2096921,2096921,181512,631342,0
2096921,2096921,181679,631392,0
2096921,2096921,181746,631815,0
2096921,2096921,181741,631599,0
2096921,2096921,181775,631792,0
2096921,2096921,181764,631561,0
2096921,2096921,181682,631800,0
2096921,2096921,181778,631723,0
2096921,2096921,181790,631651,0
2096921,2096921,181751,631972,0
2096921,2096921,181931,631893,0
2096921,2096921,181818,632269,0
2096921,2096921,181941,631971,0
2096921,2096921,181810,631808,0
2096921,2096921,181966,631837,0
2096921,2096921,181760,631940,0
2096921,2096921,181960,632158,0
2096921,2096921,182223,632171,0
2096921,2096921,182114,632294,0
2096921,2096921,182187,632622,0
2096921,2096921,182254,632610,0
2096921,2096921,182131,632424,0
2096921,2096921,182423,632692,0
2096921,2096921,182425,632796,0
2096921,2096921,182312,633121,0
2096921,2096921,182074,632724,0
2096921,2096921,182213,633151,0
2096921,2096921,182621,633005,0
2096921,2096921,182588,633459,0
2096921,2096921,182184,633147,0
2096921,2096921,182546,633371,0
2096921,2096921,182613,633457,0
2096921,2096921,182351,634017,0
2096921,2096921,182455,633849,0
2096921,2096921,182504,633757,0
2096921,2096921,182574,633747,0
2096921,2096921,182778,633859,0
2096921,2096921,183032,633895,0
2096921,2096921,183090,634009,0
2096921,2096921,182759,634074,0
2096921,2096921,183071,633947,0
2096921,2096921,183119,634003,0
2096921,2096921,182835,634046,0
2096921,2096921,182805,634329,0
2096921,2096921,182732,634134,0
2096921,2096921,182955,634277,0
2096921,2096921,182955,634323,0
2096921,2096921,182902,634349,0
2096921,2096921,183036,634696,0
2096921,2096921,183526,634522,0
2096921,2096921,183128,634406,0
2096921,2096921,183214,634698,0
2096921,2096921,183477,634858,0
2096921,2096921,183439,634972,0
2096921,2096921,183094,634869,0
2096921,2096921,183032,634794,0
2096921,2096921,183051,635046,0
2096921,2096921,183300,635220,0
2096921,2096921,183431,635166,0
2096921,2096921,183398,635096,0
2096921,2096921,183208,635245,0
2096921,2096921,183383,635200,0
2096921,2096921,183272,635367,0
2096921,2096921,183339,635291,0
2096921,2096921,183463,635642,0
2096921,2096921,183649,635650,0
2096921,2096921,183321,635386,0
2096921,2096921,183689,635667,0
2096921,2096921,183657,635720,0
2096921,2096921,183652,635605,0
2096921,2096921,183622,635638,0
2096921,2096921,183624,635844,0
2096921,2096921,183901,635701,0
2096921,2096921,183689,635606,0
2096921,2096921,183493,635596,0
2096921,2096921,183521,635875,0
2096921,2096921,183590,635976,0
2096921,2096921,183818,635778,0
2096921,2096921,183773,636144,0
2096921,2096921,183929,636216,0
2096921,2096921,183631,636271,0
2096921,2096921,183615,636033,0
2096921,2096921,183906,636282,0
2096921,2096921,183939,636388,0
2096921,2096921,183769,636506,0
2096921,2096921,183833,636266,0
2096921,2096921,183814,636679,0
2096921,2096921,183744,636478,0
2096921,2096921,183654,636836,0
2096921,2096921,183852,636776,0
2096921,2096921,184105,636571,0
2096921,2096921,183977,636550,0
2096921,2096921,183941,636406,0
2096921,2096921,184200,636469,0
2096921,2096921,184221,636507,0
2096921,2096921,183872,636779,0
2096921,2096921,184125,636632,0
2096921,2096921,183972,636970,0
2096921,2096921,184245,637134,0
2096921,2096921,184124,637275,0
2096921,2096921,184267,637085,0
2096921,2096921,184477,637036,0
2096921,2096921,184081,637128,0
2096921,2096921,183978,637203,0
2096921,2096921,184294,637136,0
2096921,2096921,184127,637096,0
2096921,2096921,184466,636923,0
2096921,2096921,184395,637199,0
2096921,2096921,184470,637128,0
2096921,2096921,184602,637339,0
2096921,2096921,184469,637281,0
2096921,2096921,184589,637308,0
2096921,2096921,184294,637271,0
2096921,2096921,184396,637484,0
2096921,2096921,184336,637093,0
2096921,2096921,184472,637554,0
2096921,2096921,184262,637514,0
2096921,2096921,184317,637414,0
2096921,2096921,184488,637679,0
2096921,2096921,184561,637716,0
2096921,2096921,184457,637861,0
2096921,2096921,184579,637353,0
2096921,2096921,184443,637237,0
2096921,2096921,184267,637705,0
2096921,2096921,184399,637500,0
2096921,2096921,184500,637827,0
2096921,2096921,184435,637568,0
2096921,2096921,184543,638295,0
2096921,2096921,184597,637819,0
2096921,2096921,184826,637807,0
2096921,2096921,184447,637822,0
2096921,2096921,184814,637769,0
2096921,2096921,184789,637859,0
2096921,2096921,184650,637828,0
2096921,2096921,184702,637850,0
2096921,2096921,184600,637951,0
2096921,2096921,184614,637855,0
2096921,2096921,184921,638113,0
2096921,2096921,184352,638090,0
2096921,2096921,184594,638118,0
2096921,2096921,184489,638219,0
2096921,2096921,184776,638158,0
2096921,2096921,184782,638213,0
2096921,2096921,184745,638179,0
2096921,2096921,184680,638072,0
2096921,2096921,184913,638072,0
2096921,2096921,185061,638049,0
2096921,2096921,185305,638184,0
2096921,2096921,185070,638362,0
2096921,2096921,184880,638605,0
2096921,2096921,184758,638210,0
2096921,2096921,184769,638190,0
2096921,2096921,184762,638329,0
2096921,2096921,184637,638256,0
2096921,2096921,184602,638159,0
2096921,2096921,184886,638211,0
2096921,2096921,185112,638624,0
2096921,2096921,185061,638211,0
2096921,2096921,184980,638288,0
2096921,2096921,185140,638266,0
2096921,2096921,185184,638622,0
2096921,2096921,184863,638186,0
2096921,2096921,184851,638670,0
2096921,2096921,184834,638261,0
2096921,2096921,184963,638485,0
2096921,2096921,184771,638488,0
2096921,2096921,184981,638683,0
2096921,2096921,185317,638705,0
2096921,2096921,185275,638753,0
2096921,2096921,185292,638950,0
2096921,2096921,185133,638593,0
2096921,2096921,184902,638829,0
2096921,2096921,185207,638816,0
2096921,2096921,185157,638609,0
2096921,2096921,185308,638703,0
2096921,2096921,185157,638559,0
2096921,2096921,185287,638613,0
2096921,2096921,185319,638623,0
2096921,2096921,184960,638718,0
2096921,2096921,185009,638707,0
2096921,2096921,184827,638621,0
2096921,2096921,185010,638709,0
2096921,2096921,185162,638602,0
2096921,2096921,184844,638326,0
2096921,2096921,184965,638487,0
2096921,2096921,185121,638640,0
2096921,2096921,185065,638874,0
2096921,2096921,184921,638689,0
2096921,2096921,185090,638835,0
2096921,2096921,185177,638736,0
2096921,2096921,185183,638923,0
2096921,2096921,185426,638977,0
2096921,2096921,185059,639248,0
2096921,2096921,185319,638875,0
2096921,2096921,185096,638706,0
2096921,2096921,185084,638880,0
2096921,2096921,185132,638868,0
2096921,2096921,185299,639107,0
2096921,2096921,185539,639250,0
2096921,2096921,185421,638985,0
2096921,2096921,185374,639104,0
2096921,2096921,185600,639189,0
2096921,2096921,185274,638940,0
2096921,2096921,185294,639122,0
2096921,2096921,185308,639277,0
2096921,2096921,185386,639149,0
2096921,2096921,185455,639190,0
2096921,2096921,185268,639540,0
2096921,2096921,185386,639273,0
2096921,2096921,185489,639267,0
2096921,2096921,185384,639185,0
2096921,2096921,185294,638939,0
2096921,2096921,185298,639123,0
2096921,2096921,185027,638922,0
2096921,2096921,185439,639128,0
2096921,2096921,185472,639063,0
2096921,2096921,185349,639393,0
2096921,2096921,185682,639417,0
2096921,2096921,185134,639426,0
2096921,2096921,185411,639208,0
2096921,2096921,185641,639187,0
2096921,2096921,185514,639261,0
2096921,2096921,185293,639263,0
2096921,2096921,185279,639285,0
2096921,2096921,185015,639326,0
2096921,2096921,185375,639375,0
2096921,2096921,185555,639378,0
2096921,2096921,185452,639161,0
2096921,2096921,185279,639224,0
2096921,2096921,185426,639267,0
2096921,2096921,185340,639386,0
2096921,2096921,185414,639038,0
2096921,2096921,185583,639282,0
2096921,2096921,185435,639164,0
2096921,2096921,185224,639343,0
2096921,2096921,185284,639201,0
2096921,2096921,185102,639472,0
2096921,2096921,184931,639141,0
2096921,2096921,185435,639517,0
2096921,2096921,185418,639459,0
2096921,2096921,185551,639242,0
2096921,2096921,185312,639204,0
2096921,2096921,185525,639339,0
2096921,2096921,185334,638993,0
2096921,2096921,185249,639050,0
2096921,2096921,185256,638958,0
2096921,2096921,185516,639150,0
2096921,2096921,185387,639071,0
2096921,2096921,185446,638971,0
2096921,2096921,185425,639079,0
2096921,2096921,185566,638893,0
2096921,2096921,185358,639068,0
2096921,2096921,185477,638910,0
2096921,2096921,185300,639183,0
2096921,2096921,185281,638889,0
2096921,2096921,185330,638766,0
2096921,2096921,185535,639063,0
2096921,2096921,185398,638993,0
2096921,2096921,185475,639118,0
2096921,2096921,185204,638793,0
2096921,2096921,185303,638834,0
2096921,2096921,185380,638683,0
2096921,2096921,185240,638864,0
2096921,2096921,185217,638489,0
2096921,2096921,185316,638734,0
2096921,2096921,185390,638708,0
2096921,2096921,185379,638913,0
2096921,2096921,185210,638839,0
2096921,2096921,185410,638769,0
2096921,2096921,185230,638671,0
2096921,2096921,185302,638643,0
2096921,2096921,185151,638607,0
2096921,2096921,185081,638757,0
2096921,2096921,185271,638743,0
2096921,2096921,185220,638491,0
2096921,2096921,185146,638575,0
2096921,2096921,185114,638428,0
2096921,2096921,185095,638550,0
2096921,2096921,185103,638277,0
2096921,2096921,185187,638708,0
2096921,2096921,185138,638538,0
2096921,2096921,184842,638450,0
2096921,2096921,184892,638112,0
2096921,2096921,184464,637986,0
2096921,2096921,184685,637804,0
2096921,2096921,184868,638099,0
2096921,2096921,184823,637770,0
2096921,2096921,184765,637911,0
2096921,2096921,184828,637415,0
2096921,2096921,184993,637268,0
2096921,2096921,184938,637508,0
2096921,2096921,184891,637341,0
2096921,2096921,184292,637148,0
2096921,2096921,184096,636843,0
2096921,2096921,184206,636801,0
2096921,2096921,184247,636648,0
2096921,2096921,184320,636643,0
2096921,2096921,184213,636694,0
2096921,2096921,184148,636067,0
2096921,2096921,183957,635771,0
2096921,2096921,183888,635944,0
2096921,2096921,183878,635966,0
2096921,2096921,183575,635642,0
2096921,2096921,183588,635109,0
2096921,2096921,183305,634957,0
2096921,2096921,183558,635219,0
2096921,2096921,183396,635246,0
2096921,2096921,182893,634507,0
2096921,2096921,182916,633699,0
2096921,2096921,182821,633240,0
2096921,2096921,182838,633259,0
2096921,2096921,182852,633248,0
2096921,2096921,181686,632359,0
2096921,2096921,181586,631202,0
2096921,2096921,181495,631017,0
2096921,2096921,181450,630796,0
2096921,2096921,181494,630966,0
2096921,2096921,180904,630282,0
2096921,2096921,180791,629671,0
2096921,2096921,180705,629037,0
2096921,2096921,180698,629243,0
2096921,2096921,180691,629168,0
2096921,2096921,179980,628944,0
2096921,2096921,180142,628269,0
2096921,2096921,180108,627880,0
2096921,2096921,180092,627742,0
2096921,2096921,180185,627959,0
2096921,2096921,179651,627427,0
2096921,2096921,179869,626938,0
2096921,2096921,179802,626798,0
2096921,2096921,179550,626864,0
2096921,2096921,179625,626799,0
2096921,2096921,179379,626764,0
2096921,2096921,179312,626197,0
2096921,2096921,179237,626103,0
2096921,2096921,179136,626023,0
2096921,2096921,179338,625969,0
2096921,2096921,178970,625984,0
2096921,2096921,178974,625679,0
2096921,2096921,179102,625605,0
2096921,2096921,179184,625585,0
2096921,2096921,178986,625070,0
2096921,2096921,178652,624935,0
2096921,2096921,178499,624925,0
2096921,2096921,178855,624758,0
2096921,2096921,178554,624595,0
2096921,2096921,178674,624566,0
2096921,2096921,178591,624712,0
2096921,2096921,178877,624875,0
2096921,2096921,178715,624516,0
2096921,2096921,178748,624428,0
2096921,2096921,178555,624419,0
2096921,2096921,178357,624450,0
2096921,2096921,178564,624511,0
2096921,2096921,178486,624199,0
2096921,2096921,178590,624373,0
2096921,2096921,178581,624099,0
2096921,2096921,178494,624410,0
2096921,2096921,178645,624172,0
2096921,2096921,178591,624204,0
2096921,2096921,178503,624035,0
2096921,2096921,178517,624206,0
2096921,2096921,178414,624371,0
2096921,2096921,178754,624219,0
2096921,2096921,178393,624271,0
2096921,2096921,178569,624209,0
2096921,2096921,178533,623937,0
2096921,2096921,178351,624022,0
2096921,2096921,178431,624060,0
2096921,2096921,178687,623892,0
2096921,2096921,178278,623878,0
2096921,2096921,178691,623706,0
2096921,2096921,178474,623936,0
2096921,2096921,178253,623948,0
2096921,2096921,178492,623965,0
2096921,2096921,178774,623743,0
2096921,2096921,178459,623791,0
2096921,2096921,178618,624028,0
2096921,2096921,178571,623770,0
2096921,2096921,178513,624044,0
2096921,2096921,178555,624057,0
2096921,2096921,178569,623963,0
2096921,2096921,178742,623956,0
2096921,2096921,178892,624027,0
2096921,2096921,178687,624051,0
2096921,2096921,178649,623621,0
2096921,2096921,178577,623651,0
2096921,2096921,178911,624036,0
2096921,2096921,178753,624098,0
2096921,2096921,178705,623824,0
2096921,2096921,178805,624234,0
2096921,2096921,178808,624168,0
2096921,2096921,178966,624138,0
2096921,2096921,178879,623969,0
2096921,2096921,178775,623791,0
2096921,2096921,178801,624343,0
2096921,2096921,178691,624188,0
2096921,2096921,178683,624097,0
2096921,2096921,178949,624532,0
2096921,2096921,179022,624229,0
2096921,2096921,178533,624279,0
2096921,2096921,179043,624139,0
2096921,2096921,178719,624049,0
2096921,2096921,178918,624125,0
2096921,2096921,178810,624278,0
2096921,2096921,178971,624134,0
2096921,2096921,178856,624134,0
2096921,2096921,179297,624364,0
2096921,2096921,179392,624224,0
2096921,2096921,179293,624454,0
2096921,2096921,179169,624421,0
2096921,2096921,179242,624352,0
2096921,2096921,179212,624258,0
2096921,2096921,179195,624262,0
2096921,2096921,179133,624037,0
2096921,2096921,179094,624357,0
2096921,2096921,179150,624326,0
2096921,2096921,179192,624356,0
2096921,2096921,179296,623997,0
2096921,2096921,179142,624313,0
2096921,2096921,179406,624453,0
2096921,2096921,179459,624285,0
2096921,2096921,179774,624075,0
2096921,2096921,179687,623913,0
2096921,2096921,179485,624122,0
2096921,2096921,179398,624358,0
2096921,2096921,179518,624326,0
2096921,2096921,179578,624235,0
2096921,2096921,179491,624186,0
2096921,2096921,179470,624474,0
2096921,2096921,179590,624377,0
2096921,2096921,179604,624382,0
2096921,2096921,179336,624319,0
2096921,2096921,179522,624421,0
2096921,2096921,179587,624231,0
2096921,2096921,179521,624397,0
2096921,2096921,179506,624412,0
2096921,2096921,179521,624321,0
2096921,2096921,179328,624304,0
2096921,2096921,179490,624088,0
2096921,2096921,179455,623894,0
2096921,2096921,179527,624000,0
2096921,2096921,179450,624246,0
2096921,2096921,179657,624215,0
2096921,2096921,179864,623925,0
2096921,2096921,179332,624007,0
2096921,2096921,179371,623806,0
2096921,2096921,179492,623982,0
2096921,2096921,179460,623695,0
2096921,2096921,179511,623547,0
2096921,2096921,179187,623617,0
2096921,2096921,179433,623643,0
2096921,2096921,179423,623797,0
2096921,2096921,179435,623619,0
2096921,2096921,179204,623317,0
2096921,2096921,179459,623245,0
2096921,2096921,179401,623432,0
2096921,2096921,179459,623311,0
2096921,2096921,179337,623078,0
2096921,2096921,179103,623192,0
2096921,2096921,179419,623195,0
2096921,2096921,179262,622974,0
2096921,2096921,178927,622904,0
2096921,2096921,179149,622883,0
2096921,2096921,179175,622668,0
2096921,2096921,179023,622549,0
2096921,2096921,179106,622437,0
2096921,2096921,179216,622690,0
2096921,2096921,179003,622612,0
2096921,2096921,179253,622469,0
2096921,2096921,179190,622314,0
2096921,2096921,179024,622504,0
2096921,2096921,178915,622073,0
2096921,2096921,178978,621743,0
2096921,2096921,178954,621666,0
2096921,2096921,178645,621535,0
2096921,2096921,178804,621846,0
2096921,2096921,178464,621849,0
2096921,2096921,178629,621487,0
2096921,2096921,178822,621262,0
2096921,2096921,178705,621584,0
2096921,2096921,178681,621245,0
2096921,2096921,178557,621221,0
2096921,2096921,178754,621048,0
2096921,2096921,178516,620670,0
2096921,2096921,178610,620885,0
2096921,2096921,178683,620725,0
2096921,2096921,178620,620620,0
2096921,2096921,178744,620273,0
2096921,2096921,178536,620270,0
2096921,2096921,178500,620397,0
2096921,2096921,178360,620221,0
2096921,2096921,178425,620247,0
2096921,2096921,178146,619914,0
2096921,2096921,178191,619893,0
2096921,2096921,178206,619693,0
2096921,2096921,178481,619863,0
2096921,2096921,178160,619841,0
2096921,2096921,178092,619684,0
2096921,2096921,178047,619514,0
2096921,2096921,178271,619533,0
2096921,2096921,178253,619498,0
2096921,2096921,178113,619670,0
2096921,2096921,177927,619347,0
2096921,2096921,178124,619028,0
2096921,2096921,177965,619005,0
2096921,2096921,177893,619080,0
2096921,2096921,178215,619146,0
2096921,2096921,178078,618807,0
2096921,2096921,178180,618732,0
2096921,2096921,178058,618987,0
2096921,2096921,178150,618820,0
2096921,2096921,177808,618663,0
2096921,2096921,177919,618535,0
2096921,2096921,178087,618430,0
2096921,2096921,177902,618359,0
2096921,2096921,177689,618517,0
2096921,2096921,177796,618578,0
2096921,2096921,177886,618500,0
2096921,2096921,177992,618477,0
2096921,2096921,177802,618211,0
2096921,2096921,177707,618347,0
2096921,2096921,178064,618131,0
2096921,2096921,177997,618335,0
2096921,2096921,177954,618302,0
2096921,2096921,178151,618387,0
2096921,2096921,177907,618356,0
2096921,2096921,177890,618328,0
2096921,2096921,177899,618303,0
2096921,2096921,178192,618360,0
2096921,2096921,178125,618179,0
2096921,2096921,177758,618194,0
2096921,2096921,177913,618434,0
2096921,2096921,177999,617908,0
2096921,2096921,177958,617851,0
2096921,2096921,177793,618116,0
2096921,2096921,177667,618138,0
2096921,2096921,177820,617878,0
2096921,2096921,177905,617532,0
2096921,2096921,177758,617634,0
2096921,2096921,178041,617795,0
2096921,2096921,177855,617931,0
2096921,2096921,178058,617919,0
2096921,2096921,177944,617626,0
2096921,2096921,177686,617363,0
2096921,2096921,177700,617267,0
2096921,2096921,177776,617322,0
2096921,2096921,178006,617537,0
2096921,2096921,177988,617411,0
2096921,2096921,178043,617249,0
2096921,2096921,177983,617562,0
2096921,2096921,177933,617127,0
2096921,2096921,177731,617307,0
2096921,2096921,177917,617265,0
2096921,2096921,177651,617467,0
2096921,2096921,177823,617665,0
2096921,2096921,177963,617660,0
2096921,2096921,177944,617136,0
2096921,2096921,177731,616889,0
2096921,2096921,178015,617017,0
2096921,2096921,178031,617418,0
2096921,2096921,178145,617120,0
2096921,2096921,177963,617142,0
2096921,2096921,178125,616732,0
2096921,2096921,177959,616590,0
2096921,2096921,177802,617100,0
2096921,2096921,178098,617031,0
2096921,2096921,177959,617026,0
2096921,2096921,177876,616816,0
2096921,2096921,178055,616753,0
2096921,2096921,177945,616828,0
2096921,2096921,177695,617041,0
2096921,2096921,177999,616614,0
2096921,2096921,177869,616623,0
2096921,2096921,177829,616582,0
2096921,2096921,177690,616512,0
2096921,2096921,177968,616445,0
2096921,2096921,177697,616405,0
2096921,2096921,177907,616056,0
2096921,2096921,178003,616498,0
2096921,2096921,178023,616370,0
2096921,2096921,177956,616326,0
2096921,2096921,177918,616359,0
2096921,2096921,177646,616406,0
2096921,2096921,177637,616287,0
2096921,2096921,177990,616214,0
2096921,2096921,177690,615871,0
2096921,2096921,177725,616217,0
2096921,2096921,177680,615861,0
2096921,2096921,177950,615815,0
2096921,2096921,177920,616025,0
2096921,2096921,177723,615942,0
2096921,2096921,177781,615747,0
2096921,2096921,177458,615916,0
2096921,2096921,177707,615825,0
2096921,2096921,177783,615928,0
2096921,2096921,177607,615643,0
2096921,2096921,177631,615598,0
2096921,2096921,177922,615595,0
2096921,2096921,177761,615493,0
2096921,2096921,177564,615595,0
2096921,2096921,177674,615695,0
2096921,2096921,177806,615350,0
2096921,2096921,177827,615188,0
2096921,2096921,177502,615139,0
2096921,2096921,177711,615327,0
2096921,2096921,177564,615207,0
2096921,2096921,177702,615236,0
2096921,2096921,177398,615491,0
2096921,2096921,177825,615118,0
2096921,2096921,177783,614814,0
2096921,2096921,177727,614946,0
2096921,2096921,177582,614734,0
2096921,2096921,177572,614644,0
2096921,2096921,177509,614803,0
2096921,2096921,177508,614878,0
2096921,2096921,177540,615014,0
2096921,2096921,177694,614905,0
2096921,2096921,177720,614782,0
2096921,2096921,178053,614876,0
2096921,2096921,177855,614936,0
2096921,2096921,177913,614810,0
2096921,2096921,177710,614660,0
2096921,2096921,177245,614346,0
2096921,2096921,177470,614314,0
2096921,2096921,177525,614306,0
2096921,2096921,177688,614733,0
2096921,2096921,177692,614404,0
2096921,2096921,177705,614581,0
2096921,2096921,177654,614032,0
2096921,2096921,177589,614103,0
2096921,2096921,177615,614093,0
2096921,2096921,177597,614023,0
2096921,2096921,177207,613675,0
2096921,2096921,177497,613820,0
2096921,2096921,177629,613931,0
2096921,2096921,177536,614036,0
2096921,2096921,177705,613714,0
2096921,2096921,177637,613733,0
2096921,2096921,177309,613625,0
2096921,2096921,177603,613461,0
2096921,2096921,177665,613635,0
2096921,2096921,177491,613517,0
2096921,2096921,177324,613345,0
2096921,2096921,177065,613109,0
2096921,2096921,177249,613569,0
2096921,2096921,177349,613488,0
2096921,2096921,177170,613475,0
2096921,2096921,177314,613295,0
2096921,2096921,177316,613274,0
2096921,2096921,177355,613360,0
2096921,2096921,177091,613317,0
2096921,2096921,177302,613101,0
2096921,2096921,177299,612940,0
2096921,2096921,177108,612902,0
2096921,2096921,177392,612842,0
2096921,2096921,177331,612799,0
2096921,2096921,177197,612942,0
2096921,2096921,177277,612818,0
2096921,2096921,177165,612924,0
2096921,2096921,177170,612487,0
2096921,2096921,176989,612841,0
2096921,2096921,177200,612761,0
2096921,2096921,177364,612375,0
2096921,2096921,177152,612548,0
2096921,2096921,177440,612737,0
2096921,2096921,177316,612687,0
2096921,2096921,177002,612493,0
2096921,2096921,177146,612198,0
2096921,2096921,177249,612323,0
2096921,2096921,177123,612384,0
2096921,2096921,177008,612292,0
2096921,2096921,177014,612253,0
2096921,2096921,176986,612343,0
2096921,2096921,176989,612311,0
2096921,2096921,177160,612196,0
2096921,2096921,177126,612004,0
2096921,2096921,177070,612210,0
2096921,2096921,177231,612107,0
2096921,2096921,177234,612224,0
2096921,2096921,176945,612087,0
2096921,2096921,177146,611770,0
2096921,2096921,177060,612021,0
2096921,2096921,176741,611957,0
2096921,2096921,177072,611797,0
2096921,2096921,177096,611576,0
2096921,2096921,176960,611989,0
2096921,2096921,177171,611790,0
2096921,2096921,176911,611981,0
2096921,2096921,177032,611660,0
2096921,2096921,176694,611863,0
2096921,2096921,177100,611816,0
2096921,2096921,176826,611760,0
2096921,2096921,176952,611665,0
2096921,2096921,177038,611489,0
2096921,2096921,177148,611461,0
2096921,2096921,176945,611304,0
2096921,2096921,177147,611383,0
2096921,2096921,176780,611171,0
2096921,2096921,176796,611556,0
2096921,2096921,176745,611184,0
2096921,2096921,176801,611274,0
2096921,2096921,176830,611372,0
2096921,2096921,176748,611134,0
2096921,2096921,176774,611078,0
2096921,2096921,176774,610824,0
2096921,2096921,176811,611283,0
2096921,2096921,176848,611084,0
2096921,2096921,176992,610882,0
2096921,2096921,176934,610825,0
2096921,2096921,176979,610922,0
2096921,2096921,176842,610760,0
2096921,2096921,176535,610935,0
2096921,2096921,176625,610815,0
2096921,2096921,176649,610664,0
2096921,2096921,176689,610791,0
2096921,2096921,176644,610431,0
2096921,2096921,176951,610535,0
2096921,2096921,176861,610302,0
2096921,2096921,176939,610786,0
2096921,2096921,176652,610748,0
2096921,2096921,176870,610523,0
2096921,2096921,177190,610549,0
2096921,2096921,176609,610046,0
2096921,2096921,176688,609920,0
2096921,2096921,176638,610423,0
2096921,2096921,176692,610400,0
2096921,2096921,176475,610396,0
2096921,2096921,176643,610391,0
2096921,2096921,176501,610190,0
2096921,2096921,176917,609928,0
2096921,2096921,176848,609901,0
2096921,2096921,176611,610028,0
2096921,2096921,176418,609679,0
2096921,2096921,176448,609823,0
2096921,2096921,176520,609961,0
2096921,2096921,176580,609970,0
2096921,2096921,176278,609861,0
2096921,2096921,176503,609826,0
2096921,2096921,176591,609844,0
2096921,2096921,176809,609629,0
2096921,2096921,176597,609859,0
2096921,2096921,176480,609876,0
2096921,2096921,176371,609600,0
2096921,2096921,176235,609380,0
2096921,2096921,176371,609343,0
2096921,2096921,176434,608997,0
2096921,2096921,176326,609475,0
2096921,2096921,176633,609356,0
2096921,2096921,176540,609429,0
2096921,2096921,176418,609468,0
2096921,2096921,176409,609476,0
2096921,2096921,176480,609001,0
2096921,2096921,176221,609112,0
2096921,2096921,176198,609192,0
2096921,2096921,176395,609094,0
2096921,2096921,176412,608960,0
2096921,2096921,176568,608936,0
2096921,2096921,176164,608877,0
2096921,2096921,176198,609006,0
2096921,2096921,175985,609057,0
2096921,2096921,176079,608817,0
2096921,2096921,175968,609069,0
2096921,2096921,176171,608636,0
2096921,2096921,176430,608579,0
2096921,2096921,176404,608796,0
2096921,2096921,176140,608658,0
2096921,2096921,175756,608725,0
2096921,2096921,176215,608602,0
2096921,2096921,176235,608639,0
2096921,2096921,176294,608480,0
2096921,2096921,176283,608367,0
2096921,2096921,175935,608435,0
2096921,2096921,176062,608448,0
2096921,2096921,176029,608626,0
2096921,2096921,175861,608606,0
2096921,2096921,175794,608556,0
2096921,2096921,176090,608760,0
2096921,2096921,176368,608320,0
2096921,2096921,176249,608194,0
2096921,2096921,176195,608245,0
2096921,2096921,176324,608519,0
2096921,2096921,176109,608442,0
2096921,2096921,175852,608074,0
2096921,2096921,175865,607793,0
2096921,2096921,176156,607865,0
2096921,2096921,175850,608050,0
2096921,2096921,175471,607958,0
2096921,2096921,175428,607803,0
2096921,2096921,175566,607448,0
2096921,2096921,175482,607562,0
2096921,2096921,175617,607469,0
2096921,2096921,175524,607245,0
2096921,2096921,175190,606931,0
2096921,2096921,175477,606660,0
2096921,2096921,175511,606688,0
2096921,2096921,175436,606811,0
2096921,2096921,175362,606750,0
2096921,2096921,175158,606326,0
2096921,2096921,175303,606291,0
2096921,2096921,175041,606225,0
2096921,2096921,175046,606085,0
2096921,2096921,174823,605737,0
2096921,2096921,174859,605420,0
2096921,2096921,174741,605494,0
2096921,2096921,174816,605449,0
2096921,2096921,174609,605551,0
2096921,2096921,174012,604530,0
2096921,2096921,173965,604023,0
2096921,2096921,173636,603660,0
2096921,2096921,173898,603810,0
2096921,2096921,173806,603794,0
2096921,2096921,172785,602543,0
2096921,2096921,172617,601736,0
2096921,2096921,172805,601533,0
2096921,2096921,172438,601374,0
2096921,2096921,172718,601617,0
2096921,2096921,172124,600679,0
2096921,2096921,172016,600068,0
2096921,2096921,171962,600330,0
2096921,2096921,172024,600108,0
2096921,2096921,171913,600067,0
2096921,2096921,171575,599448,0
2096921,2096921,171211,599127,0
2096921,2096921,171235,599095,0
2096921,2096921,171593,599123,0
2096921,2096921,171738,599120,0
2096921,2096921,171467,598446,0
2096921,2096921,171098,598069,0
2096921,2096921,171128,597938,0
2096921,2096921,171190,598189,0
2096921,2096921,170717,597804,0
2096921,2096921,170492,597775,0
2096921,2096921,170448,597593,0
2096921,2096921,170480,597666,0
2096921,2096921,170558,597526,0
2096921,2096921,170636,597479,0
2096921,2096921,170595,597275,0
2096921,2096921,170483,597095,0
2096921,2096921,170861,597236,0
2096921,2096921,170483,596992,0
2096921,2096921,170441,597163,0
2096921,2096921,170330,597191,0
2096921,2096921,170317,596837,0
2096921,2096921,170122,596697,0
2096921,2096921,170283,596839,0
2096921,2096921,170147,596600,0
2096921,2096921,169979,596878,0
2096921,2096921,170137,596826,0
2096921,2096921,170303,596615,0
2096921,2096921,170245,596820,0
2096921,2096921,170447,596765,0
2096921,2096921,170315,596894,0
2096921,2096921,170349,596487,0
2096921,2096921,170237,596627,0
2096921,2096921,170492,597030,0
2096921,2096921,170125,596461,0
2096921,2096921,170373,596648,0
2096921,2096921,170561,596852,0
2096921,2096921,170499,597021,0
2096921,2096921,170264,597130,0
2096921,2096921,170205,596871,0
2096921,2096921,170105,596971,0
2096921,2096921,170253,596724,0
2096921,2096921,170307,596672,0
2096921,2096921,170467,597113,0
2096921,2096921,170338,596875,0
2096921,2096921,170370,596670,0
2096921,2096921,170508,597222,0
2096921,2096921,170578,597371,0
2096921,2096921,170443,597080,0
2096921,2096921,170405,597149,0
2096921,2096921,170551,597182,0
2096921,2096921,170632,597388,0
2096921,2096921,170901,597502,0
2096921,2096921,170721,597634,0
2096921,2096921,170593,597723,0
2096921,2096921,170515,597651,0
2096921,2096921,170964,597967,0
2096921,2096921,170666,597712,0
2096921,2096921,170923,597938,0
2096921,2096921,170647,597507,0
2096921,2096921,171051,597502,0
2096921,2096921,170966,597684,0
2096921,2096921,171004,598004,0
2096921,2096921,170987,597945,0
2096921,2096921,171039,598246,0
2096921,2096921,171224,598372,0
2096921,2096921,171530,598530,0
2096921,2096921,171083,598224,0
2096921,2096921,170960,598109,0
2096921,2096921,170923,598540,0
2096921,2096921,171305,598422,0
2096921,2096921,171111,598476,0
2096921,2096921,171189,598455,0
2096921,2096921,171292,598738,0
2096921,2096921,171284,598840,0
2096921,2096921,171471,599064,0
2096921,2096921,171399,599142,0
2096921,2096921,171327,599026,0
2096921,2096921,171469,599245,0
2096921,2096921,171482,598835,0
2096921,2096921,171701,599192,0
2096921,2096921,171575,599615,0
2096921,2096921,171743,599282,0
2096921,2096921,171857,599406,0
2096921,2096921,171644,599479,0
2096921,2096921,171844,599701,0
2096921,2096921,171732,599833,0
2096921,2096921,171778,599789,0
2096921,2096921,171738,599530,0
2096921,2096921,171850,599382,0
2096921,2096921,172036,599703,0
2096921,2096921,171805,600134,0
2096921,2096921,171924,599902,0
2096921,2096921,172009,600073,0
2096921,2096921,172060,599921,0
2096921,2096921,171924,600177,0
2096921,2096921,172447,600548,0
2096921,2096921,172043,600446,0
2096921,2096921,172281,600306,0
2096921,2096921,172144,600477,0
2096921,2096921,172247,600443,0
2096921,2096921,172353,600540,0
2096921,2096921,172309,600740,0
2096921,2096921,172465,600801,0
2096921,2096921,172459,600807,0
2096921,2096921,172815,601172,0
2096921,2096921,172459,601269,0
2096921,2096921,172663,601106,0
2096921,2096921,172771,601165,0
2096921,2096921,172674,600994,0
2096921,2096921,172509,601465,0
2096921,2096921,172590,601448,0
2096921,2096921,172796,601402,0
2096921,2096921,172776,601445,0
2096921,2096921,172784,601354,0
2096921,2096921,173099,601711,0
2096921,2096921,172854,601629,0
2096921,2096921,172915,601713,0
2096921,2096921,172706,601653,0
2096921,2096921,172922,601580,0
2096921,2096921,172990,601875,0
2096921,2096921,172831,601529,0
2096921,2096921,172864,601585,0
2096921,2096921,173309,601695,0
2096921,2096921,173157,601938,0
2096921,2096921,172958,601903,0
2096921,2096921,173101,602013,0
2096921,2096921,172874,601841,0
2096921,2096921,172718,601850,0
2096921,2096921,172896,602039,0
2096921,2096921,173058,602034,0
2096921,2096921,172870,601737,0
2096921,2096921,173053,602121,0
2096921,2096921,172826,602023,0
2096921,2096921,172908,602024,0
2096921,2096921,173398,601887,0
2096921,2096921,173293,602179,0
2096921,2096921,173086,602090,0
2096921,2096921,173095,602119,0
2096921,2096921,172989,601940,0
2096921,2096921,172835,601832,0
2096921,2096921,172624,601917,0
2096921,2096921,172980,601840,0
2096921,2096921,172952,601873,0
2096921,2096921,173140,602275,0
2096921,2096921,172919,601988,0
2096921,2096921,173042,602007,0
2096921,2096921,172758,602125,0
2096921,2096921,172745,601926,0
2096921,2096921,172803,602033,0
2096921,2096921,172857,601871,0
2096921,2096921,172678,601945,0
2096921,2096921,173064,601799,0
2096921,2096921,172883,601674,0
2096921,2096921,173008,602004,0
2096921,2096921,172936,602138,0
2096921,2096921,173092,601898,0
2096921,2096921,172911,601650,0
2096921,2096921,172803,601783,0
2096921,2096921,172873,601778,0
2096921,2096921,172560,601751,0
2096921,2096921,172681,601638,0
2096921,2096921,172937,601406,0
2096921,2096921,172758,601752,0
2096921,2096921,172648,601809,0
2096921,2096921,172959,601870,0
2096921,2096921,172780,601715,0
2096921,2096921,172950,601694,0
2096921,2096921,172797,601710,0
2096921,2096921,172836,601930,0
2096921,2096921,172919,601667,0
2096921,2096921,173072,601768,0
2096921,2096921,172843,601510,0
2096921,2096921,172708,601488,0
2096921,2096921,172894,601542,0
2096921,2096921,172908,601743,0
2096921,2096921,172853,601721,0
2096921,2096921,172894,601902,0
2096921,2096921,173129,601598,0
2096921,2096921,172824,601765,0
2096921,2096921,173013,601855,0
2096921,2096921,172844,601898,0
2096921,2096921,172747,601747,0
2096921,2096921,173202,601813,0
2096921,2096921,173277,601971,0
2096921,2096921,173119,601905,0
2096921,2096921,173121,602062,0
2096921,2096921,173198,601985,0
2096921,2096921,173114,602093,0
2096921,2096921,173041,601924,0
2096921,2096921,172911,602436,0
2096921,2096921,172913,602257,0
2096921,2096921,172853,602030,0
2096921,2096921,172921,602097,0
2096921,2096921,173057,601927,0
2096921,2096921,173202,602277,0
2096921,2096921,172980,602538,0
2096921,2096921,173167,602656,0
2096921,2096921,173237,602559,0
2096921,2096921,173257,602586,0
2096921,2096921,173124,602842,0
2096921,2096921,173421,603125,0
2096921,2096921,173657,602965,0
2096921,2096921,173477,602740,0
2096921,2096921,173423,602892,0
2096921,2096921,173345,602914,0
2096921,2096921,173471,603433,0
2096921,2096921,173437,603238,0
2096921,2096921,173380,603130,0
2096921,2096921,173311,603203,0
2096921,2096921,173641,603428,0
2096921,2096921,173819,603525,0
2096921,2096921,173547,603686,0
2096921,2096921,173938,603430,0
2096921,2096921,173624,604082,0
2096921,2096921,173805,603844,0
2096921,2096921,174093,603958,0
2096921,2096921,173765,603776,0
2096921,2096921,173742,604091,0
2096921,2096921,173619,604087,0
2096921,2096921,174052,604186,0
2096921,2096921,174089,604600,0
2096921,2096921,174301,604528,0
2096921,2096921,174098,604464,0
2096921,2096921,174213,604370,0
2096921,2096921,174405,604668,0
2096921,2096921,174227,604647,0
2096921,2096921,174325,604871,0
2096921,2096921,174143,604928,0
2096921,2096921,174156,604833,0
2096921,2096921,174386,604884,0
2096921,2096921,174225,605073,0
2096921,2096921,174381,605197,0
2096921,2096921,174232,604874,0
2096921,2096921,174214,604764,0
2096921,2096921,174485,605054,0
2096921,2096921,174554,605469,0
2096921,2096921,174694,605633,0
2096921,2096921,174607,605315,0
2096921,2096921,174379,605321,0
2096921,2096921,174556,605635,0
2096921,2096921,174756,605841,0
2096921,2096921,174803,605887,0
2096921,2096921,174555,606054,0
2096921,2096921,174580,605790,0
2096921,2096921,174727,606057,0
2096921,2096921,174810,606020,0
2096921,2096921,174628,606315,0
2096921,2096921,174668,606141,0
2096921,2096921,174710,606158,0
2096921,2096921,174958,606086,0
2096921,2096921,174914,606597,0
2096921,2096921,174942,606596,0
2096921,2096921,174725,606610,0
2096921,2096921,174895,607012,0
2096921,2096921,175082,606975,0
2096921,2096921,174930,607045,0
2096921,2096921,174843,606964,0
2096921,2096921,175018,607108,0
2096921,2096921,175185,607064,0
2096921,2096921,175115,607042,0
2096921,2096921,175348,607333,0
2096921,2096921,175032,607416,0
2096921,2096921,175204,607310,0
2096921,2096921,175181,607488,0
2096921,2096921,175475,607658,0
2096921,2096921,175340,607772,0
2096921,2096921,175543,608013,0
2096921,2096921,175446,607783,0
2096921,2096921,175483,607717,0
2096921,2096921,175378,607938,0
2096921,2096921,175679,608070,0
2096921,2096921,175536,607912,0
2096921,2096921,175300,608126,0
2096921,2096921,175470,608000,0
2096921,2096921,175703,608281,0
2096921,2096921,175721,608293,0
2096921,2096921,175591,608530,0
2096921,2096921,175906,608489,0
2096921,2096921,175540,608476,0
2096921,2096921,175624,608750,0
2096921,2096921,175722,608724,0
2096921,2096921,175906,608814,0
2096921,2096921,175600,609039,0
2096921,2096921,175919,609110,0
2096921,2096921,176002,609050,0
2096921,2096921,176051,609366,0
2096921,2096921,176054,609278,0
2096921,2096921,176026,609474,0
2096921,2096921,175716,609417,0
2096921,2096921,175680,609715,0
2096921,2096921,175916,609884,0
2096921,2096921,175846,609752,0
2096921,2096921,176056,609670,0
2096921,2096921,175822,609705,0
2096921,2096921,176399,610022,0
2096921,2096921,176291,610218,0
2096921,2096921,176318,610118,0
2096921,2096921,176359,610201,0
2096921,2096921,176585,610225,0
2096921,2096921,176520,610332,0
2096921,2096921,176362,610423,0
2096921,2096921,176618,610428,0
2096921,2096921,176268,610355,0
2096921,2096921,176530,610345,0
2096921,2096921,176677,610586,0
2096921,2096921,176560,610575,0
2096921,2096921,176624,610638,0
2096921,2096921,176541,611215,0
2096921,2096921,176348,610766,0
2096921,2096921,176686,610896,0
2096921,2096921,176752,611028,0
2096921,2096921,176857,610962,0
2096921,2096921,176434,611239,0
2096921,2096921,176811,611293,0
2096921,2096921,176587,611454,0
2096921,2096921,176888,611594,0
2096921,2096921,176966,611548,0
2096921,2096921,176913,611711,0
2096921,2096921,176839,611624,0
2096921,2096921,176992,611753,0
2096921,2096921,176915,611711,0
2096921,2096921,176957,611625,0
2096921,2096921,176978,612093,0
2096921,2096921,176849,612187,0
2096921,2096921,177051,612213,0
2096921,2096921,177077,612621,0
2096921,2096921,177275,612551,0
2096921,2096921,177173,612391,0
2096921,2096921,177020,612677,0
2096921,2096921,177247,612810,0
2096921,2096921,177335,613098,0
2096921,2096921,177354,612666,0
2096921,2096921,177246,612683,0
2096921,2096921,177309,613005,0
2096921,2096921,177485,613185,0
2096921,2096921,177362,613216,0
2096921,2096921,177204,613374,0
2096921,2096921,177191,613524,0
2096921,2096921,177429,613198,0
2096921,2096921,177282,613333,0
2096921,2096921,177385,613627,0
2096921,2096921,177659,613719,0
2096921,2096921,177439,613660,0
2096921,2096921,177750,613859,0
2096921,2096921,177911,613789,0
2096921,2096921,177574,613866,0
2096921,2096921,177886,613925,0
2096921,2096921,177798,614304,0
2096921,2096921,177770,614126,0
2096921,2096921,177747,614488,0
2096921,2096921,177692,614706,0
2096921,2096921,177940,614736,0
2096921,2096921,177956,614321,0
2096921,2096921,177682,614388,0
2096921,2096921,177974,614715,0
2096921,2096921,177954,614820,0
2096921,2096921,178024,614963,0
2096921,2096921,177887,615123,0
2096921,2096921,178083,615196,0
2096921,2096921,178122,615399,0
2096921,2096921,178072,615137,0
2096921,2096921,177969,615642,0
2096921,2096921,178100,615370,0
2096921,2096921,177886,615357,0
2096921,2096921,178346,615695,0
2096921,2096921,178348,615743,0
2096921,2096921,178220,615634,0
2096921,2096921,178450,615641,0
2096921,2096921,178431,616070,0
2096921,2096921,178488,616231,0
2096921,2096921,178485,616195,0
2096921,2096921,178393,616104,0
2096921,2096921,178458,616325,0
2096921,2096921,178843,616474,0
2096921,2096921,178877,616571,0
2096921,2096921,178479,616613,0
2096921,2096921,178585,616573,0
2096921,2096921,178818,616809,0
2096921,2096921,178676,616826,0
2096921,2096921,178777,617119,0
2096921,2096921,178649,616965,0
2096921,2096921,178662,617110,0
2096921,2096921,178628,616981,0
2096921,2096921,178708,616999,0
2096921,2096921,178849,617133,0
2096921,2096921,179049,617587,0
2096921,2096921,179062,617622,0
2096921,2096921,179000,617421,0
2096921,2096921,179089,617791,0
2096921,2096921,179045,617705,0
2096921,2096921,179017,618094,0
2096921,2096921,179057,618027,0
2096921,2096921,178870,618024,0
2096921,2096921,179062,617762,0
2096921,2096921,178898,618208,0
2096921,2096921,179085,618382,0
2096921,2096921,179261,618426,0
2096921,2096921,179188,618406,0
2096921,2096921,179002,618597,0
2096921,2096921,179103,618428,0
2096921,2096921,179243,618686,0
2096921,2096921,179398,619000,0
2096921,2096921,179200,618963,0
2096921,2096921,179006,618755,0
2096921,2096921,179336,619089,0
2096921,2096921,179465,619159,0
2096921,2096921,179474,619385,0
2096921,2096921,179322,619209,0
2096921,2096921,179570,619408,0
2096921,2096921,179573,619534,0
2096921,2096921,179458,619570,0
2096921,2096921,179609,619689,0
2096921,2096921,179642,619846,0
2096921,2096921,179531,619527,0
2096921,2096921,179793,619851,0
2096921,2096921,179521,620003,0
2096921,2096921,179805,620048,0
2096921,2096921,179685,620160,0
2096921,2096921,179954,620017,0
2096921,2096921,179505,620086,0
2096921,2096921,179927,620423,0
2096921,2096921,179777,620462,0
2096921,2096921,179913,620267,0
2096921,2096921,179623,620498,0
2096921,2096921,180077,620687,0
2096921,2096921,179915,620814,0
2096921,2096921,179802,620775,0
2096921,2096921,179936,620923,0
2096921,2096921,179861,620809,0
2096921,2096921,179670,621068,0
2096921,2096921,180225,621063,0
2096921,2096921,179918,621296,0
2096921,2096921,179863,621236,0
2096921,2096921,179896,621190,0
2096921,2096921,180365,621407,0
2096921,2096921,180254,621639,0
2096921,2096921,180243,621817,0
2096921,2096921,180388,621704,0
2096921,2096921,180113,621516,0
2096921,2096921,180231,621624,0
2096921,2096921,180224,621922,0
2096921,2096921,180079,622016,0
2096921,2096921,180238,622072,0
2096921,2096921,180140,622129,0
2096921,2096921,180283,622248,0
2096921,2096921,180336,622536,0
2096921,2096921,180428,622540,0
2096921,2096921,180415,622462,0
2096921,2096921,180652,622788,0
2096921,2096921,180437,622686,0
2096921,2096921,180456,622960,0
2096921,2096921,180757,622993,0
2096921,2096921,180638,623188,0
2096921,2096921,180811,623175,0
2096921,2096921,180509,623001,0
2096921,2096921,180625,623040,0
2096921,2096921,180569,623515,0
2096921,2096921,180561,623303,0
2096921,2096921,180956,623342,0
2096921,2096921,180795,623156,0
2096921,2096921,180541,623279,0
2096921,2096921,180364,623287,0
2096921,2096921,180454,623210,0
2096921,2096921,180578,623313,0
2096921,2096921,180494,623337,0
2096921,2096921,180449,623320,0
2096921,2096921,180782,623438,0
2096921,2096921,180757,623226,0
2096921,2096921,180559,623299,0
2096921,2096921,180411,623243,0
2096921,2096921,180072,623182,0
2096921,2096921,180119,623279,0
2096921,2096921,180135,623230,0
2096921,2096921,180305,623134,0
2096921,2096921,180168,623093,0
2096921,2096921,180024,622815,0
2096921,2096921,179921,623114,0
2096921,2096921,179899,622778,0
2096921,2096921,180082,622709,0
2096921,2096921,179872,622921,0
2096921,2096921,179921,622983,0
2096921,2096921,179794,622535,0
2096921,2096921,179796,622735,0
2096921,2096921,179807,622686,0
2096921,2096921,179504,622026,0
2096921,2096921,179194,621461,0
2096921,2096921,179209,621260,0
2096921,2096921,178894,621304,0
2096921,2096921,179123,621115,0
2096921,2096921,178210,620305,0
2096921,2096921,178220,619961,0
2096921,2096921,178128,619802,0
2096921,2096921,178330,619966,0
2096921,2096921,178219,619839,0
2096921,2096921,178000,619125,0
2096921,2096921,177758,618709,0
2096921,2096921,177680,618806,0
2096921,2096921,177916,618816,0
2096921,2096921,177492,618884,0
2096921,2096921,177453,618163,0
2096921,2096921,177256,617880,0
2096921,2096921,177190,617819,0
2096921,2096921,177255,617825,0
2096921,2096921,177203,617881,0
2096921,2096921,176974,617475,0
2096921,2096921,176709,617417,0
2096921,2096921,176890,617389,0
2096921,2096921,176824,617566,0
2096921,2096921,176974,617314,0
2096921,2096921,176572,617306,0
2096921,2096921,176676,617187,0
2096921,2096921,176547,617041,0
2096921,2096921,176677,617127,0
2096921,2096921,176365,617266,0
2096921,2096921,176670,617144,0
2096921,2096921,176444,617087,0
2096921,2096921,176670,617190,0
2096921,2096921,176849,617133,0
2096921,2096921,176372,617100,0
2096921,2096921,176360,616767,0
2096921,2096921,176284,616954,0
2096921,2096921,176284,617053,0
2096921,2096921,176509,617125,0
2096921,2096921,176234,617349,0
2096921,2096921,176557,617537,0
2096921,2096921,176615,617699,0
2096921,2096921,176495,617617,0
2096921,2096921,176645,617530,0
2096921,2096921,176411,617489,0
2096921,2096921,176588,617577,0
2096921,2096921,176727,617572,0
2096921,2096921,176799,617592,0
2096921,2096921,176675,617805,0
2096921,2096921,176535,617894,0
2096921,2096921,176619,617967,0
2096921,2096921,176573,618532,0
2096921,2096921,176613,618380,0
2096921,2096921,176786,618134,0
2096921,2096921,176702,618130,0
2096921,2096921,176892,618598,0
2096921,2096921,176574,619029,0
2096921,2096921,176636,618805,0
2096921,2096921,176575,618840,0
2096921,2096921,176781,618808,0
2096921,2096921,176908,619312,0
2096921,2096921,176978,619488,0
2096921,2096921,177190,619319,0
2096921,2096921,177214,619528,0
2096921,2096921,177250,619561,0
2096921,2096921,177173,619550,0
2096921,2096921,177468,619927,0
2096921,2096921,177505,619952,0
2096921,2096921,177382,619926,0
2096921,2096921,177509,620248,0
2096921,2096921,177413,620427,0
2096921,2096921,177718,620629,0
2096921,2096921,177501,620540,0
2096921,2096921,177392,620708,0
2096921,2096921,177530,620540,0
2096921,2096921,177776,620914,0
2096921,2096921,177698,620965,0
2096921,2096921,177933,621224,0
2096921,2096921,177831,621248,0
2096921,2096921,177902,621116,0
2096921,2096921,178157,621904,0
2096921,2096921,178115,621834,0
2096921,2096921,177993,622276,0
2096921,2096921,178144,621788,0
2096921,2096921,178197,622020,0
2096921,2096921,178474,622358,0
2096921,2096921,178654,622615,0
2096921,2096921,178607,622760,0
2096921,2096921,178361,622845,0
2096921,2096921,178707,622812,0
2096921,2096921,178639,623470,0
2096921,2096921,178597,623177,0
2096921,2096921,178840,623784,0
2096921,2096921,178968,623202,0
2096921,2096921,178569,623231,0
2096921,2096921,178983,623620,0
2096921,2096921,179036,624274,0
2096921,2096921,178695,624387,0
2096921,2096921,178939,623809,0
2096921,2096921,179158,624221,0
2096921,2096921,179417,624524,0
2096921,2096921,179340,624831,0
2096921,2096921,179312,624849,0
2096921,2096921,179164,625114,0
2096921,2096921,179517,624663,0
2096921,2096921,179616,625125,0
2096921,2096921,179778,625332,0
2096921,2096921,179663,625387,0
2096921,2096921,180005,625501,0
2096921,2096921,179577,625432,0
2096921,2096921,180154,625763,0
2096921,2096921,180056,626087,0
2096921,2096921,179875,626421,0
2096921,2096921,180009,626048,0
2096921,2096921,179934,626321,0
2096921,2096921,180246,626607,0
2096921,2096921,179959,626916,0
2096921,2096921,179964,626802,0
2096921,2096921,179855,627054,0
2096921,2096921,180028,627134,0
2096921,2096921,180543,627044,0
2096921,2096921,180611,627605,0
2096921,2096921,180426,627699,0
2096921,2096921,180647,627571,0
2096921,2096921,180429,627425,0
2096921,2096921,180517,627856,0
2096921,2096921,180791,628100,0
2096921,2096921,180849,628279,0
2096921,2096921,180813,628321,0
2096921,2096921,180484,628294,0
2096921,2096921,180819,628420,0
2096921,2096921,181063,628728,0
2096921,2096921,181018,628711,0
2096921,2096921,181009,628495,0
2096921,2096921,181104,628485,0
2096921,2096921,181115,629020,0
2096921,2096921,180829,629119,0
2096921,2096921,181123,629097,0
2096921,2096921,181131,629028,0
2096921,2096921,181097,629113,0
2096921,2096921,181186,629471,0
2096921,2096921,181177,629392,0
2096921,2096921,181012,629507,0
2096921,2096921,181197,629564,0
2096921,2096921,181316,629603,0
2096921,2096921,181246,629489,0
2096921,2096921,181116,629708,0
2096921,2096921,181450,630130,0
2096921,2096921,181190,629903,0
2096921,2096921,181331,629740,0
2096921,2096921,181426,629796,0
2096921,2096921,181388,630145,0
2096921,2096921,181327,630071,0
2096921,2096921,181701,630008,0
2096921,2096921,181435,630226,0
2096921,2096921,181516,630181,0
2096921,2096921,181442,630092,0
2096921,2096921,181397,630102,0
2096921,2096921,181399,630477,0
2096921,2096921,181405,630303,0
2096921,2096921,181421,630584,0
2096921,2096921,181643,630453,0
2096921,2096921,181624,630803,0
2096921,2096921,181648,630504,0
2096921,2096921,181520,630264,0
2096921,2096921,181643,630231,0
2096921,2096921,181771,630574,0
2096921,2096921,181709,630430,0
2096921,2096921,181656,630747,0
2096921,2096921,181818,630657,0
2096921,2096921,181546,630595,0
2096921,2096921,181825,630608,0
2096921,2096921,181664,630875,0
2096921,2096921,181360,630724,0
2096921,2096921,181546,630574,0
2096921,2096921,181440,630652,0
2096921,2096921,181640,630653,0
2096921,2096921,181559,630650,0
2096921,2096921,181273,630892,0
2096921,2096921,181379,630536,0
2096921,2096921,181320,630643,0
2096921,2096921,181605,631036,0
2096921,2096921,181568,630841,0
2096921,2096921,181556,630984,0
2096921,2096921,181733,630951,0
2096921,2096921,181457,630851,0
2096921,2096921,181448,630938,0
2096921,2096921,181584,630894,0
2096921,2096921,181876,631034,0
2096921,2096921,181729,631085,0
2096921,2096921,181783,631300,0
2096921,2096921,181897,631337,0
2096921,2096921,181767,631604,0
2096921,2096921,181589,631047,0
2096921,2096921,181392,631158,0
2096921,2096921,181589,631090,0
2096921,2096921,181548,631351,0
2096921,2096921,181608,631065,0
2096921,2096921,181453,631110,0
2096921,2096921,181486,631663,0
2096921,2096921,181705,631381,0
2096921,2096921,181915,631638,0
2096921,2096921,181833,631434,0
2096921,2096921,181513,631649,0
2096921,2096921,181676,631469,0
2096921,2096921,181880,631674,0
2096921,2096921,181798,631591,0
2096921,2096921,181887,632230,0
2096921,2096921,182075,631836,0
2096921,2096921,181932,631897,0
2096921,2096921,181912,632258,0
2096921,2096921,182006,632566,0
2096921,2096921,182241,632434,0
2096921,2096921,182145,632339,0
2096921,2096921,182282,632358,0
2096921,2096921,182174,632385,0
2096921,2096921,182295,632782,0
2096921,2096921,182182,632675,0
2096921,2096921,182317,632918,0
2096921,2096921,182259,632861,0
2096921,2096921,182406,632996,0
2096921,2096921,182648,632916,0
2096921,2096921,182498,633241,0
2096921,2096921,182702,633140,0
2096921,2096921,182534,633111,0
2096921,2096921,182593,633249,0
2096921,2096921,182797,633269,0
2096921,2096921,182666,633141,0
2096921,2096921,182591,633333,0
2096921,2096921,182589,633333,0
2096921,2096921,182945,633522,0
2096921,2096921,182897,634002,0
2096921,2096921,182498,633879,0
2096921,2096921,182784,633817,0
2096921,2096921,182939,633986,0
2096921,2096921,183060,633931,0
2096921,2096921,182619,633914,0
2096921,2096921,182922,634305,0
2096921,2096921,182989,634140,0
2096921,2096921,182813,634002,0
2096921,2096921,182863,634415,0
2096921,2096921,183184,634279,0
2096921,2096921,182950,634538,0
2096921,2096921,182921,634479,0
2096921,2096921,183127,634488,0
2096921,2096921,183374,634678,0
2096921,2096921,183261,634768,0
2096921,2096921,182976,634582,0
2096921,2096921,183198,634678,0
2096921,2096921,183240,634719,0
2096921,2096921,183202,635037,0
2096921,2096921,183285,634870,0
2096921,2096921,183449,635200,0
2096921,2096921,183252,635126,0
2096921,2096921,183134,634817,0
2096921,2096921,183525,635144,0
2096921,2096921,183627,635246,0
2096921,2096921,183441,635273,0
2096921,2096921,183378,635424,0
2096921,2096921,183624,635341,0
2096921,2096921,183777,635672,0
2096921,2096921,183456,635789,0
2096921,2096921,183706,635802,0
2096921,2096921,183565,635868,0
2096921,2096921,183717,635791,0
2096921,2096921,183867,635707,0
2096921,2096921,183644,636136,0
2096921,2096921,183732,635817,0
2096921,2096921,183777,636046,0
2096921,2096921,183527,636043,0
2096921,2096921,183731,636086,0
2096921,2096921,183783,636135,0
2096921,2096921,184195,636076,0
2096921,2096921,184023,636192,0
2096921,2096921,183926,636306,0
2096921,2096921,183886,636351,0
2096921,2096921,183995,636156,0
2096921,2096921,183984,636405,0
2096921,2096921,184026,636380,0
2096921,2096921,184040,636297,0
2096921,2096921,183956,636292,0
2096921,2096921,183861,636799,0
2096921,2096921,183902,636876,0
2096921,2096921,183811,636501,0
2096921,2096921,183758,636506,0
2096921,2096921,184132,636762,0
2096921,2096921,183899,636626,0
2096921,2096921,183786,636657,0
2096921,2096921,183894,636649,0
2096921,2096921,184136,636896,0
2096921,2096921,184488,636837,0
2096921,2096921,184343,637018,0
2096921,2096921,184160,637196,0
2096921,2096921,184377,636992,0
2096921,2096921,184417,637389,0
2096921,2096921,184443,637080,0
2096921,2096921,184055,637199,0
2096921,2096921,184587,637039,0
2096921,2096921,184275,637008,0
2096921,2096921,184292,636815,0
2096921,2096921,184175,637101,0
2096921,2096921,184462,637465,0
2096921,2096921,184201,637401,0
2096921,2096921,184116,637242,0
2096921,2096921,184215,637124,0
2096921,2096921,184520,637200,0
2096921,2096921,184521,637134,0
2096921,2096921,184486,637350,0
2096921,2096921,184280,636912,0
2096921,2096921,184422,636973,0
2096921,2096921,184383,637461,0
2096921,2096921,184704,637463,0
2096921,2096921,184574,637433,0
2096921,2096921,184250,637320,0
2096921,2096921,184394,637634,0
2096921,2096921,184226,637668,0
2096921,2096921,184321,637630,0
2096921,2096921,184411,637358,0
2096921,2096921,184253,638039,0
2096921,2096921,184413,637738,0
2096921,2096921,184672,637961,0
2096921,2096921,184843,637639,0
2096921,2096921,184657,637791,0
2096921,2096921,184601,637827,0
2096921,2096921,184921,637715,0
2096921,2096921,184947,637865,0
2096921,2096921,184736,637972,0
2096921,2096921,184766,637549,0
2096921,2096921,184548,637717,0
2096921,2096921,184807,638079,0
2096921,2096921,184834,637871,0
2096921,2096921,184826,637803,0
2096921,2096921,184795,638219,0
2096921,2096921,184980,638156,0
2096921,2096921,184881,637934,0
2096921,2096921,184669,638213,0
2096921,2096921,184814,638064,0
2096921,2096921,184743,638110,0
2096921,2096921,184604,638251,0
2096921,2096921,184628,638058,0
2096921,2096921,184913,638123,0
2096921,2096921,184701,638455,0
2096921,2096921,185013,638203,0
2096921,2096921,184777,638240,0
2096921,2096921,184818,638111,0
2096921,2096921,184742,638180,0
2096921,2096921,184806,638245,0
2096921,2096921,184971,638185,0
2096921,2096921,185273,638388,0
2096921,2096921,185066,638428,0
2096921,2096921,185166,638463,0
2096921,2096921,185106,638686,0
2096921,2096921,184893,638448,0
2096921,2096921,184923,638333,0
2096921,2096921,184778,638400,0
2096921,2096921,184805,638497,0
2096921,2096921,184908,638422,0
2096921,2096921,185115,638537,0
2096921,2096921,185064,638564,0
2096921,2096921,185090,638594,0
2096921,2096921,185022,638440,0
2096921,2096921,185065,638463,0
2096921,2096921,185066,638536,0
2096921,2096921,185189,638431,0
2096921,2096921,184908,638346,0
2096921,2096921,185203,638431,0
2096921,2096921,185333,638336,0
2096921,2096921,185188,638633,0
2096921,2096921,185037,638638,0
2096921,2096921,185059,638705,0
2096921,2096921,184965,638403,0
2096921,2096921,184961,638896,0
2096921,2096921,185196,638717,0
2096921,2096921,184978,638822,0
2096921,2096921,185240,638729,0
2096921,2096921,185033,638679,0
2096921,2096921,184874,638744,0
2096921,2096921,185123,638666,0
2096921,2096921,185142,638757,0
2096921,2096921,185177,639123,0
2096921,2096921,185203,638914,0
2096921,2096921,185409,638783,0
2096921,2096921,185215,638759,0
2096921,2096921,185311,639034,0
2096921,2096921,185265,638874,0
2096921,2096921,185228,639079,0
2096921,2096921,185124,638920,0
2096921,2096921,185364,638877,0
2096921,2096921,185235,638760,0
2096921,2096921,185301,639073,0
2096921,2096921,185309,638942,0
2096921,2096921,185225,639285,0
2096921,2096921,185211,639121,0
2096921,2096921,185355,638947,0
2096921,2096921,185253,639136,0
2096921,2096921,185283,639273,0
2096921,2096921,185120,639356,0
2096921,2096921,185022,639195,0
2096921,2096921,185410,638944,0
2096921,2096921,185378,639195,0
2096921,2096921,185354,639260,0
2096921,2096921,185197,639207,0
2096921,2096921,185470,639344,0
2096921,2096921,185432,639232,0
2096921,2096921,185269,639290,0
2096921,2096921,185450,639002,0
2096921,2096921,185182,639378,0
2096921,2096921,185177,639071,0
2096921,2096921,185424,639240,0
2096921,2096921,185492,639269,0
2096921,2096921,185471,639438,0
2096921,2096921,185769,639392,0
2096921,2096921,185541,639428,0
2096921,2096921,185591,639360,0
2096921,2096921,185661,639044,0
2096921,2096921,185240,639110,0
2096921,2096921,185746,639106,0
2096921,2096921,185444,639254,0
2096921,2096921,185538,639353,0
2096921,2096921,185267,639529,0
2096921,2096921,185576,639502,0
2096921,2096921,185520,639495,0
2096921,2096921,185574,639494,0
2096921,2096921,185290,639537,0
2096921,2096921,185586,639590,0
2096921,2096921,185371,639461,0
2096921,2096921,185334,639329,0
2096921,2096921,185457,639249,0
2096921,2096921,185577,639307,0
2096921,2096921,185290,639178,0
2096921,2096921,185463,639376,0
2096921,2096921,185378,639372,0
2096921,2096921,185124,639326,0
2096921,2096921,185506,639224,0
2096921,2096921,185239,639220,0
2096921,2096921,185300,639261,0
2096921,2096921,185244,639288,0
2096921,2096921,185473,639054,0
2096921,2096921,185558,639138,0
2096921,2096921,185556,639421,0
2096921,2096921,185491,639434,0
2096921,2096921,185567,639664,0
2096921,2096921,185544,639113,0
2096921,2096921,185606,639285,0
2096921,2096921,185258,639011,0
2096921,2096921,185509,639007,0
2096921,2096921,185551,639096,0
2096921,2096921,185412,639101,0
2096921,2096921,185067,639252,0
2096921,2096921,185393,639203,0
2096921,2096921,185333,639286,0
2096921,2096921,185367,639168,0
2096921,2096921,185450,639239,0
2096921,2096921,185617,639168,0
2096921,2096921,185245,639193,0
2096921,2096921,185277,639301,0
2096921,2096921,185402,639098,0
2096921,2096921,185257,639259,0
2096921,2096921,185262,638909,0
2096921,2096921,185272,638923,0
2096921,2096921,185221,639159,0
2096921,2096921,185371,639102,0
2096921,2096921,185534,638950,0
2096921,2096921,185529,638971,0
2096921,2096921,185385,638997,0
2096921,2096921,185549,638810,0
2096921,2096921,185449,638613,0
2096921,2096921,185377,638849,0
2096921,2096921,185384,638618,0
2096921,2096921,185479,638898,0
2096921,2096921,185306,638864,0
2096921,2096921,185560,638763,0
2096921,2096921,185386,639100,0
2096921,2096921,185304,638859,0
2096921,2096921,185367,638910,0
2096921,2096921,185108,638593,0
2096921,2096921,185139,638283,0
2096921,2096921,185278,638218,0
2096921,2096921,185239,638504,0
2096921,2096921,185289,638508,0
2096921,2096921,184995,638411,0
2096921,2096921,184984,637996,0
2096921,2096921,185023,638043,0
2096921,2096921,185104,637759,0
2096921,2096921,184634,637985,0
2096921,2096921,184696,637664,0
2096921,2096921,184586,637352,0
2096921,2096921,184650,636855,0
2096921,2096921,184619,637159,0
2096921,2096921,184471,637262,0
2096921,2096921,184312,636766,0
2096921,2096921,184373,636680,0
2096921,2096921,184169,636525,0
2096921,2096921,184301,636232,0
2096921,2096921,184317,636147,0
2096921,2096921,183967,635817,0
2096921,2096921,183724,635604,0
2096921,2096921,183695,635517,0
2096921,2096921,183818,635414,0
2096921,2096921,183714,635716,0
2096921,2096921,183210,634599,0
2096921,2096921,183122,633721,0
2096921,2096921,182884,633758,0
2096921,2096921,182860,633477,0
2096921,2096921,182884,633570,0
2096921,2096921,182097,632525,0
2096921,2096921,181491,631695,0
2096921,2096921,181370,631475,0
2096921,2096921,181757,631560,0
2096921,2096921,181467,631414,0
2096921,2096921,181122,630466,0
2096921,2096921,180874,629959,0
2096921,2096921,180970,629350,0
2096921,2096921,180811,629790,0
2096921,2096921,180695,629458,0
2096921,2096921,180299,628570,0
2096921,2096921,180209,628316,0
2096921,2096921,180245,628169,0
2096921,2096921,180232,628482,0
2096921,2096921,180222,628279,0
2096921,2096921,179877,627515,0
2096921,2096921,179756,627259,0
2096921,2096921,179582,627070,0
2096921,2096921,179713,626919,0
2096921,2096921,179591,626859,0
2096921,2096921,179369,626553,0
2096921,2096921,179080,626301,0
2096921,2096921,179174,626370,0
2096921,2096921,179355,626232,0
2096921,2096921,179142,626393,0
2096921,2096921,179083,626008,0
2096921,2096921,179044,625853,0
2096921,2096921,179058,625552,0
2096921,2096921,178985,625691,0
2096921,2096921,179010,625670,0
2096921,2096921,179116,625677,0
2096921,2096921,179089,625189,0
2096921,2096921,178979,625385,0
2096921,2096921,179057,625460,0
2096921,2096921,179039,625318,0
2096921,2096921,178503,625281,0
2096921,2096921,178590,624914,0
2096921,2096921,178904,625043,0
2096921,2096921,178758,624942,0
2096921,2096921,178679,624952,0
2096921,2096921,178205,625000,0
2096921,2096921,178579,624652,0
2096921,2096921,178719,624484,0
2096921,2096921,178719,624636,0
2096921,2096921,178736,624805,0
2096921,2096921,178608,624938,0
2096921,2096921,178759,625031,0
2096921,2096921,178521,625036,0
2096921,2096921,178726,625035,0
2096921,2096921,178509,624774,0
2096921,2096921,178591,624858,0
2096921,2096921,178691,624544,0
2096921,2096921,178825,624573,0
2096921,2096921,178750,624480,0
2096921,2096921,178799,624409,0
2096921,2096921,178714,624473,0
2096921,2096921,178379,624457,0
2096921,2096921,178586,624670,0
2096921,2096921,178563,624461,0
2096921,2096921,178730,624532,0
2096921,2096921,178684,624626,0
2096921,2096921,178656,624910,0
2096921,2096921,178672,624521,0
2096921,2096921,178871,624548,0
2096921,2096921,178867,624594,0
2096921,2096921,178772,624637,0
2096921,2096921,178668,624782,0
2096921,2096921,179105,624473,0
2096921,2096921,178744,624529,0
2096921,2096921,178692,624652,0
2096921,2096921,178855,624474,0
2096921,2096921,179041,624446,0
2096921,2096921,179025,624626,0
2096921,2096921,179118,624836,0
2096921,2096921,179319,625107,0
2096921,2096921,179210,624931,0
2096921,2096921,178959,624864,0
2096921,2096921,178961,624656,0
2096921,2096921,178897,624572,0
2096921,2096921,179105,624690,0
2096921,2096921,178985,624705,0
2096921,2096921,179114,624627,0
2096921,2096921,178968,624697,0
2096921,2096921,179264,624730,0
2096921,2096921,178904,624651,0
2096921,2096921,179084,624757,0
2096921,2096921,179150,624867,0
2096921,2096921,179151,624783,0
2096921,2096921,178928,624879,0
2096921,2096921,179048,624954,0
2096921,2096921,179033,624756,0
2096921,2096921,179340,624988,0
2096921,2096921,179197,624544,0
2096921,2096921,179159,624822,0
2096921,2096921,179485,624893,0
2096921,2096921,179575,624679,0
2096921,2096921,179356,624721,0
2096921,2096921,179447,624990,0
2096921,2096921,179305,625167,0
2096921,2096921,179338,624671,0
2096921,2096921,179233,624805,0
2096921,2096921,179332,624606,0
2096921,2096921,179112,624664,0
2096921,2096921,179219,624753,0
2096921,2096921,179658,624748,0
2096921,2096921,179510,624770,0
2096921,2096921,179498,624886,0
2096921,2096921,179302,624611,0
2096921,2096921,179218,624710,0
2096921,2096921,179413,624668,0
2096921,2096921,179517,625016,0
2096921,2096921,179448,624888,0
2096921,2096921,179482,624730,0
2096921,2096921,179498,624919,0
2096921,2096921,179565,624911,0
2096921,2096921,179517,624989,0
2096921,2096921,179980,625089,0
2096921,2096921,179740,625155,0
2096921,2096921,179664,624817,0
2096921,2096921,179681,625099,0
2096921,2096921,179680,624669,0
2096921,2096921,179522,624869,0
2096921,2096921,179698,624778,0
2096921,2096921,179716,624746,0
2096921,2096921,179730,624738,0
2096921,2096921,179760,624815,0
2096921,2096921,179652,624527,0
2096921,2096921,179617,624652,0
2096921,2096921,179818,624666,0
2096921,2096921,179446,624710,0
2096921,2096921,179604,624438,0
2096921,2096921,179717,624525,0
2096921,2096921,179467,624550,0
2096921,2096921,179657,624685,0
2096921,2096921,179817,624735,0
2096921,2096921,179704,624565,0
2096921,2096921,179637,624443,0
2096921,2096921,179473,624422,0
2096921,2096921,179600,624378,0
2096921,2096921,179722,624272,0
2096921,2096921,179759,624003,0
2096921,2096921,179659,624214,0
2096921,2096921,179715,624018,0
2096921,2096921,179696,624269,0
2096921,2096921,179599,623946,0
2096921,2096921,179745,623955,0
2096921,2096921,179599,623942,0
2096921,2096921,179536,623922,0
2096921,2096921,179578,623743,0
2096921,2096921,179609,623731,0
2096921,2096921,179073,623426,0
2096921,2096921,179641,623319,0
2096921,2096921,179332,623335,0
2096921,2096921,179280,623443,0
2096921,2096921,179332,623700,0
2096921,2096921,179452,623422,0
2096921,2096921,179332,623028,0
2096921,2096921,179336,623072,0
2096921,2096921,179466,623245,0
2096921,2096921,179583,622996,0
2096921,2096921,179265,622699,0
2096921,2096921,179199,622683,0
2096921,2096921,179130,622562,0
2096921,2096921,179231,622601,0
2096921,2096921,179202,622591,0
2096921,2096921,178973,622521,0
2096921,2096921,178956,622376,0
2096921,2096921,179088,621996,0
2096921,2096921,178926,621954,0
2096921,2096921,179233,622037,0
2096921,2096921,178816,621862,0
2096921,2096921,178689,621486,0
2096921,2096921,178625,621658,0
2096921,2096921,178724,621822,0
2096921,2096921,178998,621625,0
2096921,2096921,178664,621430,0
2096921,2096921,178676,621386,0
2096921,2096921,178586,621323,0
2096921,2096921,178257,621235,0
2096921,2096921,178587,621201,0
2096921,2096921,178423,620775,0
2096921,2096921,178348,620795,0
2096921,2096921,178539,620639,0
2096921,2096921,178845,620619,0
2096921,2096921,178647,620882,0
2096921,2096921,178527,620471,0
2096921,2096921,178410,620112,0
2096921,2096921,178435,620333,0
2096921,2096921,178323,620452,0
2096921,2096921,178775,620497,0
2096921,2096921,178125,620163,0
2096921,2096921,178077,619624,0
2096921,2096921,178341,619902,0
2096921,2096921,178338,620003,0
2096921,2096921,178252,619872,0
2096921,2096921,177975,620025,0
2096921,2096921,178322,620034,0
2096921,2096921,178217,619622,0
2096921,2096921,178368,619752,0
2096921,2096921,178123,619604,0
2096921,2096921,178333,619263,0
2096921,2096921,178312,619287,0
2096921,2096921,178253,619422,0
2096921,2096921,178218,619520,0
2096921,2096921,178126,619136,0
2096921,2096921,177993,619381,0
2096921,2096921,178514,619167,0
2096921,2096921,178511,619259,0
2096921,2096921,178318,619373,0
2096921,2096921,178120,619339,0
2096921,2096921,178057,619342,0
2096921,2096921,178129,618936,0
2096921,2096921,178220,618621,0
2096921,2096921,178129,619001,0
2096921,2096921,178188,619233,0
2096921,2096921,178361,619433,0
2096921,2096921,178279,619121,0
2096921,2096921,178579,618980,0
2096921,2096921,178382,618996,0
2096921,2096921,178280,618966,0
2096921,2096921,178223,618982,0
2096921,2096921,178321,618927,0
2096921,2096921,178160,618680,0
2096921,2096921,178304,618751,0
2096921,2096921,178018,618823,0
2096921,2096921,178265,618929,0
2096921,2096921,178142,618580,0
2096921,2096921,178051,618763,0
2096921,2096921,178167,618496,0
2096921,2096921,178409,618679,0
2096921,2096921,178135,618556,0
2096921,2096921,178143,618621,0
2096921,2096921,178221,618476,0
2096921,2096921,178107,618587,0
2096921,2096921,178194,618457,0
2096921,2096921,178072,618294,0
2096921,2096921,178357,618455,0
2096921,2096921,178473,618397,0
2096921,2096921,178301,618280,0
2096921,2096921,178144,618121,0
2096921,2096921,177999,617854,0
2096921,2096921,178166,617831,0
2096921,2096921,177857,617723,0
2096921,2096921,177976,617652,0
2096921,2096921,178282,618040,0
2096921,2096921,178115,617957,0
2096921,2096921,178200,618007,0
2096921,2096921,178408,617765,0
2096921,2096921,178238,617878,0
2096921,2096921,178166,617794,0
2096921,2096921,178150,617803,0
2096921,2096921,178107,617457,0
2096921,2096921,177869,617781,0
2096921,2096921,178141,617502,0
2096921,2096921,178091,617843,0
2096921,2096921,177993,617472,0
2096921,2096921,177917,617494,0
2096921,2096921,177923,617338,0
2096921,2096921,178032,617567,0
2096921,2096921,177979,617571,0
2096921,2096921,178189,617360,0
2096921,2096921,177936,617308,0
2096921,2096921,178162,617230,0
2096921,2096921,178303,617146,0
2096921,2096921,178178,617160,0
2096921,2096921,178125,617366,0
2096921,2096921,178161,617173,0
2096921,2096921,178303,617266,0
2096921,2096921,178130,617264,0
2096921,2096921,178015,617108,0
2096921,2096921,178060,617084,0
2096921,2096921,178124,616983,0
2096921,2096921,177811,617108,0
2096921,2096921,178084,616844,0
2096921,2096921,178239,616878,0
2096921,2096921,178191,616678,0
2096921,2096921,178107,616581,0
2096921,2096921,177990,616661,0
2096921,2096921,177941,616545,0
2096921,2096921,177867,616916,0
2096921,2096921,178033,616485,0
2096921,2096921,177789,616378,0
2096921,2096921,177839,616613,0
2096921,2096921,177838,616418,0
2096921,2096921,178257,616556,0
2096921,2096921,178049,616596,0
2096921,2096921,178135,616452,0
2096921,2096921,178059,616367,0
2096921,2096921,177949,616156,0
2096921,2096921,177881,616511,0
2096921,2096921,178183,616086,0
2096921,2096921,177831,616179,0
2096921,2096921,177727,615979,0
2096921,2096921,177874,615848,0
2096921,2096921,178001,615788,0
2096921,2096921,178070,616167,0
2096921,2096921,177917,615740,0
2096921,2096921,178229,615814,0
2096921,2096921,177902,615891,0
2096921,2096921,178002,615843,0
2096921,2096921,177624,615877,0
2096921,2096921,177848,615602,0
2096921,2096921,177989,615537,0
2096921,2096921,177871,615525,0
2096921,2096921,178044,615436,0
2096921,2096921,177979,615714,0
2096921,2096921,177848,615559,0
2096921,2096921,177940,615448,0
2096921,2096921,177884,615251,0
2096921,2096921,177553,615510,0
2096921,2096921,177747,615054,0
2096921,2096921,177596,614930,0
2096921,2096921,177533,615104,0
2096921,2096921,177412,614996,0
2096921,2096921,177576,614971,0
2096921,2096921,177491,614926,0
2096921,2096921,177803,614799,0
2096921,2096921,177709,614702,0
2096921,2096921,177689,614977,0
2096921,2096921,178077,614870,0
2096921,2096921,177792,614907,0
2096921,2096921,177975,614432,0
2096921,2096921,177680,614345,0
2096921,2096921,177799,614631,0
2096921,2096921,177672,614611,0
2096921,2096921,177684,614488,0
2096921,2096921,177764,614256,0
2096921,2096921,177896,614534,0
2096921,2096921,177743,614519,0
2096921,2096921,177611,614392,0
2096921,2096921,177452,614196,0
2096921,2096921,177524,614173,0
2096921,2096921,177576,614151,0
2096921,2096921,177772,614149,0
2096921,2096921,177646,614261,0
2096921,2096921,177730,614185,0
2096921,2096921,177425,614071,0
2096921,2096921,177587,613918,0
2096921,2096921,177543,613821,0
2096921,2096921,177336,613906,0
2096921,2096921,177274,614116,0
2096921,2096921,177569,613952,0
2096921,2096921,177396,613969,0
2096921,2096921,177535,613639,0
2096921,2096921,177447,613632,0
2096921,2096921,177270,613507,0
2096921,2096921,177425,613613,0
2096921,2096921,177417,613299,0
2096921,2096921,177473,613342,0
2096921,2096921,177513,613265,0
2096921,2096921,177169,613393,0
2096921,2096921,177318,613005,0
2096921,2096921,177336,613614,0
2096921,2096921,177305,613170,0
2096921,2096921,177527,613235,0
2096921,2096921,177424,613300,0
2096921,2096921,177532,612934,0
2096921,2096921,177477,612937,0
2096921,2096921,177560,612789,0
2096921,2096921,177386,612750,0
2096921,2096921,177392,612631,0
2096921,2096921,177164,612557,0
2096921,2096921,177334,612762,0
2096921,2096921,177180,612735,0
2096921,2096921,177064,612661,0
2096921,2096921,177256,612451,0
2096921,2096921,177186,612554,0
2096921,2096921,177228,612571,0
2096921,2096921,177238,612486,0
2096921,2096921,177289,612310,0
2096921,2096921,177512,612258,0
2096921,2096921,177393,612177,0
2096921,2096921,177250,612195,0
2096921,2096921,176938,612447,0
2096921,2096921,177235,612367,0
2096921,2096921,177283,612097,0
2096921,2096921,176999,612210,0
2096921,2096921,177163,612249,0
2096921,2096921,177131,611789,0
2096921,2096921,177138,612126,0
2096921,2096921,177125,612115,0
2096921,2096921,177069,612084,0
2096921,2096921,177006,611871,0
2096921,2096921,177081,611824,0
2096921,2096921,176947,611829,0
2096921,2096921,177148,611865,0
2096921,2096921,177013,611676,0
2096921,2096921,177020,611896,0
2096921,2096921,176895,611502,0
2096921,2096921,176922,611690,0
2096921,2096921,177015,611520,0
2096921,2096921,177058,611610,0
2096921,2096921,176953,611270,0
2096921,2096921,177008,611295,0
2096921,2096921,177260,611409,0
2096921,2096921,176832,611380,0
2096921,2096921,177163,611357,0
2096921,2096921,177160,611040,0
2096921,2096921,176996,611172,0
2096921,2096921,176644,611362,0
2096921,2096921,176648,610987,0
2096921,2096921,176660,610976,0
2096921,2096921,176716,611044,0
2096921,2096921,176894,611069,0
2096921,2096921,176753,610901,0
2096921,2096921,176633,610959,0
2096921,2096921,176797,610789,0
2096921,2096921,176794,610874,0
2096921,2096921,176835,610900,0
2096921,2096921,176841,610755,0
2096921,2096921,176755,610892,0
2096921,2096921,176746,610532,0
2096921,2096921,176580,610515,0
2096921,2096921,176789,610372,0
2096921,2096921,176588,610592,0
2096921,2096921,176718,610383,0
2096921,2096921,176761,610391,0
2096921,2096921,176789,610381,0
2096921,2096921,176938,610210,0
2096921,2096921,177083,610213,0
2096921,2096921,176359,610330,0
2096921,2096921,176628,610069,0
2096921,2096921,176613,610038,0
2096921,2096921,176592,609975,0
2096921,2096921,177044,610179,0
2096921,2096921,176799,610493,0
2096921,2096921,176709,610164,0
2096921,2096921,176620,609893,0
2096921,2096921,176541,609997,0
2096921,2096921,176575,609792,0
2096921,2096921,176667,610014,0
2096921,2096921,176463,609581,0
2096921,2096921,176513,609753,0
2096921,2096921,176665,609652,0
2096921,2096921,176737,609911,0
2096921,2096921,176650,609722,0
2096921,2096921,176593,609500,0
2096921,2096921,176609,609571,0
2096921,2096921,176539,609382,0
2096921,2096921,176431,609680,0
2096921,2096921,176443,609538,0
2096921,2096921,176365,609433,0
2096921,2096921,176441,609550,0
2096921,2096921,176463,609417,0
2096921,2096921,176418,609459,0
2096921,2096921,176453,609446,0
2096921,2096921,176736,609213,0
2096921,2096921,176229,609173,0
2096921,2096921,176797,609006,0
2096921,2096921,176557,609161,0
2096921,2096921,176495,609097,0
2096921,2096921,176387,608900,0
2096921,2096921,176182,609089,0
2096921,2096921,176078,608752,0
2096921,2096921,176332,608876,0
2096921,2096921,176139,608941,0
2096921,2096921,176358,608694,0
2096921,2096921,176088,608628,0
2096921,2096921,176159,608477,0
2096921,2096921,176130,608759,0
2096921,2096921,176142,608863,0
2096921,2096921,176009,608695,0
2096921,2096921,176048,608671,0
2096921,2096921,176116,608565,0
2096921,2096921,176325,608579,0
2096921,2096921,176039,608680,0
2096921,2096921,176208,608542,0
2096921,2096921,176034,608494,0
2096921,2096921,176147,608476,0
2096921,2096921,175787,608500,0
2096921,2096921,175919,608020,0
2096921,2096921,175799,607693,0
2096921,2096921,176177,608139,0
2096921,2096921,175922,608103,0
2096921,2096921,175756,608043,0
2096921,2096921,175696,607980,0
2096921,2096921,175921,607770,0
2096921,2096921,175950,607670,0
2096921,2096921,175732,607432,0
2096921,2096921,175616,607415,0
2096921,2096921,175593,607075,0
2096921,2096921,175783,606771,0
2096921,2096921,175414,607113,0
2096921,2096921,175423,606933,0
2096921,2096921,175378,607030,0
2096921,2096921,175283,606955,0
2096921,2096921,175252,606237,0
2096921,2096921,175399,606053,0
2096921,2096921,174964,606123,0
2096921,2096921,174877,606249,0
2096921,2096921,174501,605777,0
2096921,2096921,174800,605414,0
2096921,2096921,174430,605460,0
2096921,2096921,174657,605283,0
2096921,2096921,174632,605439,0
2096921,2096921,174021,604731,0
2096921,2096921,173748,603996,0
2096921,2096921,173878,604038,0
2096921,2096921,173910,603817,0
2096921,2096921,174116,603866,0
2096921,2096921,173237,603015,0
2096921,2096921,173023,602023,0
2096921,2096921,172996,601821,0
2096921,2096921,173092,601875,0
2096921,2096921,172683,601889,0
2096921,2096921,172207,600928,0
2096921,2096921,171964,600456,0
2096921,2096921,172032,600125,0
2096921,2096921,172273,599863,0
2096921,2096921,171950,600062,0
2096921,2096921,171762,599526,0
2096921,2096921,171432,599033,0
2096921,2096921,171389,598829,0
2096921,2096921,171553,599064,0
2096921,2096921,171599,598939,0
2096921,2096921,171054,598627,0
2096921,2096921,171073,598327,0
2096921,2096921,171062,598352,0
2096921,2096921,171116,598175,0
2096921,2096921,170814,598222,0
2096921,2096921,170966,597804,0
2096921,2096921,170576,597545,0
2096921,2096921,170832,597597,0
2096921,2096921,170713,597569,0
2096921,2096921,170775,597533,0
2096921,2096921,170670,597389,0
2096921,2096921,170813,597215,0
2096921,2096921,170465,597168,0
2096921,2096921,170508,597074,0
2096921,2096921,170562,597201,0
2096921,2096921,170494,596954,0
2096921,2096921,170270,596756,0
2096921,2096921,170495,596996,0
2096921,2096921,170486,596920,0
2096921,2096921,170554,596580,0
2096921,2096921,170154,596842,0
2096921,2096921,170175,596598,0
2096921,2096921,170342,596847,0
2096921,2096921,170281,596861,0
2096921,2096921,170075,596820,0
2096921,2096921,170036,596679,0
2096921,2096921,170124,596595,0
2096921,2096921,170277,596634,0
2096921,2096921,170428,596711,0
2096921,2096921,170569,596570,0
2096921,2096921,170431,596834,0
2096921,2096921,170423,597086,0
2096921,2096921,170380,597194,0
2096921,2096921,170396,597103,0
2096921,2096921,170437,596989,0
2096921,2096921,170550,596923,0
2096921,2096921,170456,596645,0
2096921,2096921,170621,596921,0
2096921,2096921,170583,596903,0
2096921,2096921,170676,597205,0
2096921,2096921,170672,597159,0
2096921,2096921,170355,597072,0
2096921,2096921,170469,597092,0
2096921,2096921,170549,597124,0
2096921,2096921,170283,597199,0
2096921,2096921,170609,597411,0
2096921,2096921,170553,597482,0
2096921,2096921,170702,597136,0
2096921,2096921,170577,597397,0
2096921,2096921,170617,597106,0
2096921,2096921,170670,597564,0
2096921,2096921,170564,597609,0
2096921,2096921,170775,597679,0
2096921,2096921,170627,597579,0
2096921,2096921,170748,597675,0
2096921,2096921,170924,597682,0
2096921,2096921,170992,597737,0
2096921,2096921,170859,597956,0
2096921,2096921,170699,598200,0
2096921,2096921,170541,598097,0
2096921,2096921,170902,598368,0
2096921,2096921,170942,598421,0
2096921,2096921,171228,598336,0
2096921,2096921,171270,598184,0
2096921,2096921,171400,598105,0
2096921,2096921,171406,598417,0
2096921,2096921,171556,598497,0
2096921,2096921,171210,598683,0
2096921,2096921,171544,598436,0
2096921,2096921,171316,598747,0
2096921,2096921,171701,598850,0
2096921,2096921,171862,599055,0
2096921,2096921,171571,599000,0
2096921,2096921,171355,599203,0
2096921,2096921,171476,599452,0
2096921,2096921,171780,599389,0
2096921,2096921,171583,599299,0
2096921,2096921,171700,599545,0
2096921,2096921,171897,599449,0
2096921,2096921,171811,599283,0
2096921,2096921,171879,599665,0
2096921,2096921,171878,599813,0
2096921,2096921,171856,599617,0
2096921,2096921,171804,599655,0
2096921,2096921,171907,599667,0
2096921,2096921,171985,600090,0
2096921,2096921,172140,599936,0
2096921,2096921,171982,600170,0
2096921,2096921,172150,600234,0
2096921,2096921,172038,599945,0
2096921,2096921,172348,600047,0
2096921,2096921,172021,600171,0
2096921,2096921,172114,600330,0
2096921,2096921,172390,600314,0
2096921,2096921,172086,600414,0
2096921,2096921,172599,600419,0
2096921,2096921,172478,600842,0
2096921,2096921,172455,600757,0
2096921,2096921,172137,600681,0
2096921,2096921,172574,600709,0
2096921,2096921,172521,600935,0
2096921,2096921,172713,601049,0
2096921,2096921,172486,601313,0
2096921,2096921,172699,601032,0
2096921,2096921,172633,601123,0
2096921,2096921,172786,601362,0
2096921,2096921,172833,601450,0
2096921,2096921,172538,601292,0
2096921,2096921,172802,601399,0
2096921,2096921,172736,601505,0
2096921,2096921,173052,601552,0
2096921,2096921,172848,601654,0
2096921,2096921,172737,601688,0
2096921,2096921,172636,601871,0
2096921,2096921,172751,601597,0
2096921,2096921,172633,601825,0
2096921,2096921,172794,601868,0
2096921,2096921,172726,601837,0
2096921,2096921,173048,601953,0
2096921,2096921,173093,601885,0
2096921,2096921,173021,602018,0
2096921,2096921,173005,602140,0
2096921,2096921,172994,601970,0
2096921,2096921,172709,601960,0
2096921,2096921,172922,602058,0
2096921,2096921,172997,602199,0
2096921,2096921,173028,602126,0
2096921,2096921,172741,601991,0
2096921,2096921,173083,602076,0
2096921,2096921,173258,601783,0
2096921,2096921,173219,602197,0
2096921,2096921,173094,602304,0
2096921,2096921,172933,602172,0
2096921,2096921,173335,602126,0
2096921,2096921,173273,602226,0
2096921,2096921,172998,602011,0
2096921,2096921,172971,601875,0
2096921,2096921,172950,602142,0
2096921,2096921,173153,602039,0
2096921,2096921,173019,602070,0
2096921,2096921,173194,602069,0
2096921,2096921,172991,601970,0
2096921,2096921,172970,601885,0
2096921,2096921,172838,602310,0
2096921,2096921,173207,602058,0
2096921,2096921,172909,601957,0
2096921,2096921,172901,601712,0
2096921,2096921,172926,602099,0
2096921,2096921,173299,602279,0
2096921,2096921,173205,601973,0
2096921,2096921,172860,601832,0
2096921,2096921,173124,601925,0
2096921,2096921,173091,601387,0
2096921,2096921,172862,601897,0
2096921,2096921,172860,601839,0
2096921,2096921,172735,601720,0
2096921,2096921,172877,601553,0
2096921,2096921,172566,601839,0
2096921,2096921,172595,601797,0
2096921,2096921,173122,601919,0
2096921,2096921,173027,601609,0
2096921,2096921,172954,601688,0
2096921,2096921,172861,601721,0
2096921,2096921,172626,601677,0
2096921,2096921,172769,601607,0
2096921,2096921,173112,601607,0
2096921,2096921,172731,601522,0
2096921,2096921,172636,601599,0
2096921,2096921,172614,601757,0
2096921,2096921,172919,601666,0
2096921,2096921,172907,601740,0
2096921,2096921,172905,601745,0
2096921,2096921,172665,601651,0
2096921,2096921,172717,601593,0
2096921,2096921,172787,601511,0
2096921,2096921,172797,601640,0
2096921,2096921,172719,601456,0
2096921,2096921,172766,601854,0
2096921,2096921,172681,601667,0
2096921,2096921,172661,601851,0
2096921,2096921,172889,601973,0
2096921,2096921,172800,601854,0
2096921,2096921,173144,601834,0
2096921,2096921,172933,601897,0
2096921,2096921,172946,601693,0
2096921,2096921,172780,601870,0
2096921,2096921,172855,601956,0
2096921,2096921,172828,602112,0
2096921,2096921,173086,601834,0
2096921,2096921,173047,601933,0
2096921,2096921,173123,602515,0
2096921,2096921,173457,602530,0
2096921,2096921,173108,602442,0
2096921,2096921,173097,602116,0
2096921,2096921,173133,602694,0
2096921,2096921,173553,602656,0
2096921,2096921,173331,602814,0
2096921,2096921,173333,602754,0
2096921,2096921,173550,602985,0
2096921,2096921,173445,602585,0
2096921,2096921,173373,603071,0
2096921,2096921,173331,603029,0
2096921,2096921,173432,603195,0
2096921,2096921,173508,603094,0
2096921,2096921,173725,603085,0
2096921,2096921,173868,603154,0
2096921,2096921,173751,603287,0
2096921,2096921,173793,603510,0
2096921,2096921,173714,603408,0
2096921,2096921,173613,603418,0
2096921,2096921,173684,603364,0
2096921,2096921,173623,603756,0
2096921,2096921,173726,603538,0
2096921,2096921,173566,603661,0
2096921,2096921,173809,603802,0
2096921,2096921,173666,603839,0
2096921,2096921,173965,603880,0
2096921,2096921,173916,603897,0
2096921,2096921,173883,603788,0
2096921,2096921,174246,603890,0
2096921,2096921,174080,604559,0
2096921,2096921,174113,604365,0
2096921,2096921,174345,604416,0
2096921,2096921,174106,604486,0
2096921,2096921,173841,604428,0
2096921,2096921,174186,604265,0
2096921,2096921,174131,604517,0
2096921,2096921,174171,604494,0
2096921,2096921,174261,604717,0
2096921,2096921,174183,604636,0
2096921,2096921,174010,604744,0
2096921,2096921,174214,604917,0
2096921,2096921,174356,604823,0
2096921,2096921,174376,604828,0
2096921,2096921,174256,604848,0
2096921,2096921,174510,605000,0
2096921,2096921,174152,605169,0
2096921,2096921,174434,605273,0
2096921,2096921,174569,605484,0
2096921,2096921,174611,605341,0
2096921,2096921,174622,605587,0
2096921,2096921,174858,605664,0
2096921,2096921,174561,605775,0
2096921,2096921,174771,605897,0
2096921,2096921,174459,605894,0
2096921,2096921,174683,605602,0
2096921,2096921,174811,606019,0
2096921,2096921,174907,605859,0
2096921,2096921,174505,606070,0
2096921,2096921,174640,606083,0
2096921,2096921,174996,606344,0
2096921,2096921,174728,606300,0
2096921,2096921,174649,606439,0
2096921,2096921,174887,606516,0
2096921,2096921,174902,606637,0
2096921,2096921,174802,606765,0
2096921,2096921,175025,606971,0
2096921,2096921,175069,607060,0
2096921,2096921,175120,606999,0
2096921,2096921,175122,606883,0
2096921,2096921,174894,606983,0
2096921,2096921,175106,607174,0
2096921,2096921,175262,607141,0
2096921,2096921,175251,607238,0
2096921,2096921,175114,607187,0
2096921,2096921,175414,607454,0
2096921,2096921,175422,607658,0
2096921,2096921,175249,607445,0
2096921,2096921,175339,607834,0
2096921,2096921,175618,607555,0
2096921,2096921,175627,607859,0
2096921,2096921,175649,607923,0
2096921,2096921,175609,608214,0
2096921,2096921,175451,608189,0
2096921,2096921,175357,608138,0
2096921,2096921,175493,608228,0
2096921,2096921,175483,608458,0
2096921,2096921,175676,608290,0
2096921,2096921,175945,608183,0
2096921,2096921,175997,608324,0
2096921,2096921,176274,608231,0
2096921,2096921,175988,608593,0
2096921,2096921,176027,608918,0
2096921,2096921,175929,608998,0
2096921,2096921,176095,608749,0
2096921,2096921,175922,608802,0
2096921,2096921,175872,609040,0
2096921,2096921,175681,609154,0
2096921,2096921,176104,608948,0
2096921,2096921,175953,609063,0
2096921,2096921,176245,609410,0
2096921,2096921,176029,609405,0
2096921,2096921,176192,609354,0
2096921,2096921,175842,609438,0
2096921,2096921,175942,609450,0
2096921,2096921,176007,609344,0
2096921,2096921,175767,609639,0
2096921,2096921,175797,609841,0
2096921,2096921,176058,609873,0
2096921,2096921,176069,609999,0
2096921,2096921,176431,610152,0
2096921,2096921,176513,610395,0
2096921,2096921,176600,610371,0
2096921,2096921,176448,610183,0
2096921,2096921,176268,610208,0
2096921,2096921,176335,610528,0
2096921,2096921,176195,610701,0
2096921,2096921,176286,610687,0
2096921,2096921,176472,610742,0
2096921,2096921,176336,610706,0
2096921,2096921,176659,610833,0
2096921,2096921,176600,611025,0
2096921,2096921,176526,611208,0
2096921,2096921,176536,611276,0
2096921,2096921,176660,611011,0
2096921,2096921,176780,611146,0
2096921,2096921,176808,611260,0
2096921,2096921,177001,611431,0
2096921,2096921,176979,611465,0
2096921,2096921,176645,611366,0
2096921,2096921,176722,611701,0
2096921,2096921,176650,611900,0
2096921,2096921,177203,611922,0
2096921,2096921,177169,612042,0
2096921,2096921,176956,612036,0
2096921,2096921,177054,612290,0
2096921,2096921,176838,612391,0
2096921,2096921,177097,612451,0
2096921,2096921,177182,612540,0
2096921,2096921,177185,612365,0
2096921,2096921,177232,612644,0
2096921,2096921,177586,612987,0
2096921,2096921,177286,612852,0
2096921,2096921,177257,612830,0
2096921,2096921,177044,612897,0
2096921,2096921,177365,613162,0
2096921,2096921,177436,613024,0
2096921,2096921,177429,613317,0
2096921,2096921,177410,613015,0
2096921,2096921,177584,613192,0
2096921,2096921,177496,613849,0
2096921,2096921,177467,613626,0
2096921,2096921,177592,613675,0
2096921,2096921,177707,613493,0
2096921,2096921,177815,613520,0
2096921,2096921,177406,613753,0
2096921,2096921,177647,613934,0
2096921,2096921,177699,614002,0
2096921,2096921,177646,614018,0
2096921,2096921,177720,613914,0
2096921,2096921,177793,613858,0
2096921,2096921,177675,614121,0
2096921,2096921,177758,614359,0
2096921,2096921,177694,614109,0
2096921,2096921,177819,614245,0
2096921,2096921,177797,614374,0
2096921,2096921,177899,614729,0
2096921,2096921,177771,614660,0
2096921,2096921,178167,614800,0
2096921,2096921,177963,614789,0
2096921,2096921,178323,614908,0
2096921,2096921,178110,615325,0
2096921,2096921,178042,615158,0
2096921,2096921,178144,615098,0
2096921,2096921,178045,615316,0
2096921,2096921,177986,615298,0
2096921,2096921,178048,615357,0
2096921,2096921,178005,615589,0
2096921,2096921,178392,615500,0
2096921,2096921,178230,615442,0
2096921,2096921,178464,615832,0
2096921,2096921,178030,615714,0
2096921,2096921,178215,616056,0
2096921,2096921,178282,616093,0
2096921,2096921,178416,616008,0
2096921,2096921,178261,616119,0
2096921,2096921,178351,616235,0
2096921,2096921,178577,616366,0
2096921,2096921,178553,616237,0
2096921,2096921,178537,616424,0
2096921,2096921,178587,616504,0
2096921,2096921,178454,616479,0
2096921,2096921,178450,616536,0
2096921,2096921,178784,616768,0
2096921,2096921,178707,616725,0
2096921,2096921,178630,616856,0
2096921,2096921,178840,617148,0
2096921,2096921,178787,617561,0
2096921,2096921,179037,617229,0
2096921,2096921,178885,617385,0
2096921,2096921,178806,617638,0
2096921,2096921,178898,617857,0
2096921,2096921,178944,617747,0
2096921,2096921,178839,617776,0
2096921,2096921,178878,617562,0
2096921,2096921,179048,617855,0
2096921,2096921,178928,617880,0
2096921,2096921,178905,617859,0
2096921,2096921,179101,618044,0
2096921,2096921,179292,617978,0
2096921,2096921,179159,618257,0
2096921,2096921,179314,618414,0
2096921,2096921,178975,618330,0
2096921,2096921,179541,618448,0
2096921,2096921,179156,618254,0
2096921,2096921,179504,618591,0
2096921,2096921,179281,618695,0
2096921,2096921,179402,618828,0
2096921,2096921,179393,618953,0
2096921,2096921,179302,618973,0
2096921,2096921,179331,619123,0
2096921,2096921,179324,619178,0
2096921,2096921,179293,619056,0
2096921,2096921,179481,619411,0
2096921,2096921,179310,619156,0
2096921,2096921,179417,619428,0
2096921,2096921,179458,619771,0
2096921,2096921,179540,619814,0
2096921,2096921,179579,619551,0
2096921,2096921,179674,619884,0
2096921,2096921,179792,620030,0
2096921,2096921,179692,619943,0
2096921,2096921,179671,620077,0
2096921,2096921,179698,620088,0
2096921,2096921,179746,620020,0
2096921,2096921,179814,620168,0
2096921,2096921,179811,620393,0
2096921,2096921,179457,620314,0
2096921,2096921,179824,620445,0
2096921,2096921,179791,620729,0
2096921,2096921,180027,620438,0
2096921,2096921,180300,621083,0
2096921,2096921,179907,620985,0
2096921,2096921,179816,621127,0
2096921,2096921,179838,620963,0
2096921,2096921,180070,621007,0
2096921,2096921,180325,621003,0
2096921,2096921,180024,621287,0
2096921,2096921,179855,621302,0
2096921,2096921,179914,621333,0
2096921,2096921,180112,621255,0
2096921,2096921,180287,621732,0
2096921,2096921,180303,621831,0
2096921,2096921,180026,621826,0
2096921,2096921,180139,621982,0
2096921,2096921,179943,621827,0
2096921,2096921,180146,622086,0
2096921,2096921,180368,621852,0
2096921,2096921,180357,622086,0
2096921,2096921,180138,622073,0
2096921,2096921,180225,622067,0
2096921,2096921,180316,622291,0
2096921,2096921,180458,622400,0
2096921,2096921,180299,622269,0
2096921,2096921,180277,622389,0
2096921,2096921,180235,622106,0
2096921,2096921,180382,622291,0
2096921,2096921,180125,622470,0
2096921,2096921,180288,622505,0
2096921,2096921,180263,622731,0
2096921,2096921,180086,622478,0
2096921,2096921,180080,622714,0
2096921,2096921,180176,622963,0
2096921,2096921,180190,622681,0
2096921,2096921,180323,622506,0
2096921,2096921,180148,622326,0
2096921,2096921,180236,622258,0
2096921,2096921,180160,622462,0
2096921,2096921,180275,622311,0
2096921,2096921,180453,622540,0
2096921,2096921,180007,622294,0
2096921,2096921,179741,622199,0
2096921,2096921,179661,622136,0
2096921,2096921,179924,622321,0
2096921,2096921,179746,621816,0
2096921,2096921,179522,621945,0
2096921,2096921,179515,621932,0
2096921,2096921,179668,621877,0
2096921,2096921,179770,621562,0
2096921,2096921,179796,621857,0
2096921,2096921,179362,621207,0
2096921,2096921,179164,620878,0
2096921,2096921,179149,620410,0
2096921,2096921,179200,620602,0
2096921,2096921,178616,620748,0
2096921,2096921,178072,619420,0
2096921,2096921,177933,619201,0
2096921,2096921,178084,619048,0
2096921,2096921,178308,618939,0
2096921,2096921,177896,619167,0
2096921,2096921,177353,618456,0
2096921,2096921,177515,618342,0
2096921,2096921,177234,618097,0
2096921,2096921,177225,617936,0
2096921,2096921,177091,617621,0
2096921,2096921,177170,617129,0
2096921,2096921,176610,617340,0
2096921,2096921,176646,617293,0
2096921,2096921,176596,617215,0
2096921,2096921,177109,616828,0
2096921,2096921,176475,616945,0
2096921,2096921,176523,616759,0
2096921,2096921,176499,616792,0
2096921,2096921,176404,616767,0
2096921,2096921,176345,616567,0
2096921,2096921,176454,616492,0
2096921,2096921,176380,616547,0
2096921,2096921,176373,616382,0
2096921,2096921,176264,616403,0
2096921,2096921,176329,616067,0
2096921,2096921,176525,616436,0
2096921,2096921,176260,616572,0
2096921,2096921,176312,616601,0
2096921,2096921,176335,616503,0
2096921,2096921,176401,616373,0
2096921,2096921,175885,616213,0
2096921,2096921,175908,616647,0
2096921,2096921,176074,616434,0
2096921,2096921,176185,616409,0
2096921,2096921,176226,616036,0
2096921,2096921,176340,616611,0
2096921,2096921,176236,616582,0
2096921,2096921,176133,616922,0
2096921,2096921,176413,616600,0
2096921,2096921,176206,616795,0
2096921,2096921,176218,616676,0
2096921,2096921,176319,617167,0
2096921,2096921,176372,617357,0
2096921,2096921,176480,617302,0
2096921,2096921,176181,617118,0
2096921,2096921,176393,617474,0
2096921,2096921,176451,617731,0
2096921,2096921,176428,617709,0
2096921,2096921,176554,617727,0
2096921,2096921,176580,617725,0
2096921,2096921,176601,618136,0
2096921,2096921,176726,618135,0
2096921,2096921,176742,618079,0
2096921,2096921,176861,617960,0
2096921,2096921,176948,618161,0
2096921,2096921,177320,618507,0
2096921,2096921,176945,618693,0
2096921,2096921,176811,618818,0
2096921,2096921,176781,618746,0
2096921,2096921,176847,618724,0
2096921,2096921,177084,619010,0
2096921,2096921,177245,619249,0
2096921,2096921,177440,619296,0
2096921,2096921,177181,619403,0
2096921,2096921,177243,619621,0
2096921,2096921,177428,619890,0
2096921,2096921,177757,620055,0
2096921,2096921,177539,620061,0
2096921,2096921,177496,620209,0
2096921,2096921,177374,620004,0
2096921,2096921,177640,620468,0
2096921,2096921,177779,620635,0
2096921,2096921,177854,620875,0
2096921,2096921,178058,620780,0
2096921,2096921,177755,620905,0
2096921,2096921,178115,621231,0
2096921,2096921,177923,621458,0
2096921,2096921,177846,621604,0
2096921,2096921,177857,621506,0
2096921,2096921,178028,621379,0
2096921,2096921,178157,622078,0
2096921,2096921,178079,622058,0
2096921,2096921,178460,622067,0
2096921,2096921,178368,622409,0
2096921,2096921,178663,622204,0
2096921,2096921,178630,622448,0
2096921,2096921,178613,622908,0
2096921,2096921,178442,622695,0
2096921,2096921,178595,622593,0
2096921,2096921,178556,622578,0
2096921,2096921,178735,623014,0
2096921,2096921,178551,623194,0
2096921,2096921,178661,623124,0
2096921,2096921,178893,623144,0
2096921,2096921,178920,623327,0
2096921,2096921,179207,623775,0
2096921,2096921,179149,624404,0
2096921,2096921,179118,624097,0
2096921,2096921,179073,624237,0
2096921,2096921,179252,624106,0
2096921,2096921,179437,624413,0
2096921,2096921,179370,624705,0
2096921,2096921,179239,624769,0
2096921,2096921,179331,624797,0
2096921,2096921,179503,624462,0
2096921,2096921,179817,625121,0
2096921,2096921,179833,625427,0
2096921,2096921,179742,625728,0
2096921,2096921,179477,625559,0
2096921,2096921,179532,625479,0
2096921,2096921,179729,625941,0
2096921,2096921,179691,626299,0
2096921,2096921,180073,626232,0
2096921,2096921,179890,626093,0
2096921,2096921,180007,626301,0
2096921,2096921,180330,626682,0
2096921,2096921,180476,626942,0
2096921,2096921,180833,626856,0
2096921,2096921,180362,626675,0
2096921,2096921,180012,626739,0
2096921,2096921,180037,627110,0
2096921,2096921,180310,627172,0
2096921,2096921,180505,627603,0
2096921,2096921,180712,627337,0
2096921,2096921,180287,627339,0
2096921,2096921,180593,627650,0
2096921,2096921,180654,627943,0
2096921,2096921,180741,628046,0
2096921,2096921,180388,627900,0
2096921,2096921,180647,627903,0
2096921,2096921,180663,628148,0
2096921,2096921,180750,628436,0
2096921,2096921,180872,628453,0
2096921,2096921,181008,628422,0
2096921,2096921,180901,628616,0
2096921,2096921,180816,628623,0
2096921,2096921,181027,628876,0
2096921,2096921,181013,628759,0
2096921,2096921,181075,629146,0
2096921,2096921,181054,629029,0
2096921,2096921,181351,629261,0
2096921,2096921,181127,629259,0
2096921,2096921,181239,629587,0
2096921,2096921,181110,629455,0
2096921,2096921,181312,629562,0
2096921,2096921,181248,629617,0
2096921,2096921,181398,629864,0
2096921,2096921,181685,629496,0
2096921,2096921,181394,629573,0
2096921,2096921,181262,629709,0
2096921,2096921,181306,630094,0
2096921,2096921,181572,629659,0
2096921,2096921,181299,629658,0
2096921,2096921,181144,629900,0
2096921,2096921,181580,629706,0
2096921,2096921,181631,630056,0
2096921,2096921,181737,630024,0
2096921,2096921,181382,629982,0
2096921,2096921,181591,630187,0
2096921,2096921,181602,630139,0
2096921,2096921,181575,630126,0
2096921,2096921,181496,630000,0
2096921,2096921,181454,629748,0
2096921,2096921,181490,630043,0
2096921,2096921,181547,630250,0
2096921,2096921,181524,630126,0
2096921,2096921,181449,630237,0
2096921,2096921,181132,630180,0
2096921,2096921,181266,630393,0
2096921,2096921,181686,630244,0
2096921,2096921,181234,630468,0
2096921,2096921,181618,630223,0
2096921,2096921,181538,630496,0
2096921,2096921,181499,630482,0
2096921,2096921,181331,630282,0
2096921,2096921,181387,630438,0
2096921,2096921,181627,630535,0
2096921,2096921,181193,630894,0
2096921,2096921,181409,630730,0
2096921,2096921,181478,630602,0
2096921,2096921,181604,630463,0
2096921,2096921,181328,630757,0
2096921,2096921,181309,630383,0
2096921,2096921,181326,630584,0
2096921,2096921,181350,630511,0
2096921,2096921,181667,631308,0
2096921,2096921,181772,630811,0
2096921,2096921,181563,630827,0
2096921,2096921,181824,631029,0
2096921,2096921,181366,630501,0
2096921,2096921,181519,630991,0
2096921,2096921,181583,630995,0
2096921,2096921,181709,631026,0
2096921,2096921,181596,631235,0
2096921,2096921,181473,631086,0
2096921,2096921,181653,631453,0
2096921,2096921,181800,631400,0
2096921,2096921,181856,631490,0
2096921,2096921,181965,631572,0
2096921,2096921,181828,631228,0
2096921,2096921,181793,631532,0
2096921,2096921,181795,631688,0
2096921,2096921,181829,631592,0
2096921,2096921,181933,631940,0
2096921,2096921,182000,631667,0
2096921,2096921,182145,632119,0
2096921,2096921,182034,632020,0
2096921,2096921,182417,632383,0
2096921,2096921,181977,632014,0
2096921,2096921,182087,632021,0
2096921,2096921,182297,632365,0
2096921,2096921,182151,632432,0
2096921,2096921,182177,632782,0
2096921,2096921,182085,632632,0
2096921,2096921,182252,632686,0
2096921,2096921,182295,632933,0
2096921,2096921,182417,633419,0
2096921,2096921,182390,633194,0
2096921,2096921,182364,633157,0
2096921,2096921,182409,632924,0
2096921,2096921,182542,633231,0
2096921,2096921,182651,633179,0
2096921,2096921,182642,633525,0
2096921,2096921,182614,633594,0
2096921,2096921,182682,633361,0
2096921,2096921,182945,633616,0
2096921,2096921,183004,633437,0
2096921,2096921,182763,633764,0
2096921,2096921,182771,633620,0
2096921,2096921,182720,633885,0
2096921,2096921,182946,634086,0
2096921,2096921,182965,634247,0
2096921,2096921,182740,634166,0
2096921,2096921,182870,634013,0
2096921,2096921,182967,634138,0
2096921,2096921,183056,634495,0
2096921,2096921,183490,634690,0
2096921,2096921,183280,634482,0
2096921,2096921,183269,634459,0
2096921,2096921,183157,634477,0
2096921,2096921,183103,634591,0
2096921,2096921,183341,634822,0
2096921,2096921,183358,634768,0
2096921,2096921,183187,634829,0
2096921,2096921,183473,634890,0
2096921,2096921,183406,635208,0
2096921,2096921,183396,635052,0
2096921,2096921,183296,635227,0
2096921,2096921,183497,635098,0
2096921,2096921,183229,634890,0
2096921,2096921,183671,635170,0
2096921,2096921,183409,635202,0
2096921,2096921,183325,635541,0
2096921,2096921,183663,635383,0
2096921,2096921,183707,635173,0
2096921,2096921,183519,635800,0
2096921,2096921,183734,635632,0
2096921,2096921,183797,635757,0
2096921,2096921,183702,635913,0
2096921,2096921,183360,635467,0
2096921,2096921,183674,635673,0
2096921,2096921,183806,635864,0
2096921,2096921,183916,636032,0
2096921,2096921,183849,635949,0
2096921,2096921,183810,635992,0
2096921,2096921,184047,636354,0
2096921,2096921,183905,636306,0
2096921,2096921,184058,636233,0
2096921,2096921,184088,636213,0
2096921,2096921,183853,636031,0
2096921,2096921,184013,636364,0
2096921,2096921,184220,636431,0
2096921,2096921,183841,636356,0
2096921,2096921,183846,636407,0
2096921,2096921,184024,636506,0
2096921,2096921,184248,636638,0
2096921,2096921,184331,636613,0
2096921,2096921,184053,636390,0
2096921,2096921,184058,636400,0
2096921,2096921,184255,636647,0
2096921,2096921,184098,636724,0
2096921,2096921,184305,637057,0
2096921,2096921,184189,636727,0
2096921,2096921,184270,636814,0
2096921,2096921,184428,636712,0
2096921,2096921,184520,636893,0
2096921,2096921,184488,637032,0
2096921,2096921,184531,637096,0
2096921,2096921,184197,637262,0
2096921,2096921,184217,637165,0
2096921,2096921,184264,637250,0
2096921,2096921,184155,636872,0
2096921,2096921,184453,637021,0
2096921,2096921,184329,636823,0
2096921,2096921,184413,637327,0
2096921,2096921,184536,637123,0
2096921,2096921,184386,637500,0
2096921,2096921,184519,637302,0
2096921,2096921,184259,637285,0
2096921,2096921,184470,637395,0
2096921,2096921,184419,637377,0
2096921,2096921,184540,637456,0
2096921,2096921,184355,637298,0
2096921,2096921,184539,637299,0
2096921,2096921,184513,637458,0
2096921,2096921,184722,637705,0
2096921,2096921,184596,637582,0
2096921,2096921,184579,637579,0
2096921,2096921,184336,637560,0
2096921,2096921,184644,637691,0
2096921,2096921,184464,637490,0
2096921,2096921,184676,637700,0
2096921,2096921,184630,637526,0
2096921,2096921,184320,637585,0
2096921,2096921,184575,637632,0
2096921,2096921,184578,637647,0
2096921,2096921,184595,637855,0
2096921,2096921,184468,637889,0
2096921,2096921,184827,637936,0
2096921,2096921,184826,638148,0
2096921,2096921,184899,637843,0
2096921,2096921,184681,637953,0
2096921,2096921,184708,637689,0
2096921,2096921,184909,638271,0
2096921,2096921,184993,638056,0
2096921,2096921,184627,638252,0
2096921,2096921,184850,637815,0
2096921,2096921,184708,637877,0
2096921,2096921,184865,638054,0
2096921,2096921,184763,638039,0
2096921,2096921,184840,638123,0
2096921,2096921,184793,638046,0
2096921,2096921,184932,638210,0
2096921,2096921,185026,638139,0
2096921,2096921,184965,638205,0
2096921,2096921,184824,638414,0
2096921,2096921,185158,638203,0
2096921,2096921,185001,638080,0
2096921,2096921,184968,638237,0
2096921,2096921,184976,638247,0
2096921,2096921,184767,638237,0
2096921,2096921,185005,638364,0
2096921,2096921,184906,638166,0
2096921,2096921,184803,638429,0
2096921,2096921,185136,638449,0
2096921,2096921,185079,638607,0
2096921,2096921,185262,638656,0
