2096921,2096921,180603,625272,0
2096921,2096921,180553,625136,0
2096921,2096921,180739,624899,0
2096921,2096921,180601,625012,0
2096921,2096921,180538,625099,0
2096921,2096921,180313,625293,0
2096921,2096921,180843,625144,0
2096921,2096921,180818,625303,0
2096921,2096921,180677,625075,0
2096921,2096921,180740,625042,0
2096921,2096921,180761,625223,0
2096921,2096921,180681,625566,0
2096921,2096921,180615,625374,0
2096921,2096921,180755,625425,0
2096921,2096921,180610,625290,0
2096921,2096921,180709,625430,0
2096921,2096921,180854,625620,0
2096921,2096921,180652,625684,0
2096921,2096921,180846,625744,0
2096921,2096921,180698,625796,0
2096921,2096921,180704,625437,0
2096921,2096921,180651,625657,0
2096921,2096921,180893,625530,0
2096921,2096921,180918,625831,0
2096921,2096921,180875,625521,0
2096921,2096921,181278,625417,0
2096921,2096921,180966,625310,0
2096921,2096921,180914,625516,0
2096921,2096921,180971,625797,0
2096921,2096921,181216,625643,0
2096921,2096921,181082,625730,0
2096921,2096921,181382,625742,0
2096921,2096921,181145,625872,0
2096921,2096921,180881,625555,0
2096921,2096921,180868,625563,0
2096921,2096921,180860,625693,0
2096921,2096921,181203,625599,0
2096921,2096921,181133,625944,0
2096921,2096921,181028,625888,0
2096921,2096921,180956,625789,0
2096921,2096921,181292,626064,0
2096921,2096921,181260,625763,0
2096921,2096921,181277,625904,0
2096921,2096921,181238,625972,0
2096921,2096921,181122,626013,0
2096921,2096921,180989,625992,0
2096921,2096921,180952,625864,0
2096921,2096921,181000,625935,0
2096921,2096921,181206,625951,0
2096921,2096921,181004,625986,0
2096921,2096921,181260,625949,0
2096921,2096921,181199,626054,0
2096921,2096921,181318,625802,0
2096921,2096921,181184,625771,0
2096921,2096921,181162,625843,0
2096921,2096921,181048,625966,0
2096921,2096921,180926,625872,0
2096921,2096921,181279,625849,0
2096921,2096921,181306,625904,0
2096921,2096921,181189,626132,0
2096921,2096921,181268,625973,0
2096921,2096921,181267,625985,0
2096921,2096921,181230,625910,0
2096921,2096921,181027,626276,0
2096921,2096921,181355,625835,0
2096921,2096921,181208,625812,0
2096921,2096921,181220,625782,0
2096921,2096921,181027,625941,0
2096921,2096921,181267,626113,0
2096921,2096921,181412,626151,0
2096921,2096921,181452,625976,0
2096921,2096921,181641,626163,0
2096921,2096921,181328,625934,0
2096921,2096921,181569,626174,0
2096921,2096921,180976,626130,0
2096921,2096921,181331,626067,0
2096921,2096921,181341,626134,0
2096921,2096921,181337,626179,0
2096921,2096921,181518,626114,0
2096921,2096921,181173,626070,0
2096921,2096921,181491,625787,0
2096921,2096921,181453,626032,0
2096921,2096921,181379,626205,0
2096921,2096921,181394,625769,0
2096921,2096921,181320,625847,0
2096921,2096921,181166,625947,0
2096921,2096921,181052,626083,0
2096921,2096921,181137,626111,0
2096921,2096921,181338,625971,0
2096921,2096921,181450,626142,0
2096921,2096921,181721,626188,0
2096921,2096921,181502,626426,0
2096921,2096921,181577,626187,0
2096921,2096921,181274,626197,0
2096921,2096921,181135,625962,0
2096921,2096921,181346,625899,0
2096921,2096921,180825,626122,0
2096921,2096921,181314,626112,0
2096921,2096921,181363,626139,0
2096921,2096921,181285,626117,0
2096921,2096921,181359,626096,0
2096921,2096921,181468,626013,0
2096921,2096921,181266,626072,0
2096921,2096921,181269,626264,0
2096921,2096921,181396,625963,0
2096921,2096921,181448,625850,0
2096921,2096921,181245,625639,0
2096921,2096921,181238,626198,0
2096921,2096921,181435,626061,0
2096921,2096921,181505,626304,0
2096921,2096921,181734,626275,0
2096921,2096921,181345,626400,0
2096921,2096921,181566,626033,0
2096921,2096921,181360,626123,0
2096921,2096921,181351,626134,0
2096921,2096921,181304,626139,0
2096921,2096921,181364,625771,0
2096921,2096921,181201,625957,0
2096921,2096921,181146,625942,0
2096921,2096921,181251,626368,0
2096921,2096921,181319,625931,0
2096921,2096921,181507,625964,0
2096921,2096921,181406,626028,0
2096921,2096921,181496,626053,0
2096921,2096921,181370,626223,0
2096921,2096921,181466,626149,0
2096921,2096921,181371,625964,0
2096921,2096921,181485,626120,0
2096921,2096921,181403,625893,0
2096921,2096921,181632,626098,0
2096921,2096921,181729,626317,0
2096921,2096921,181469,626030,0
2096921,2096921,181301,626055,0
2096921,2096921,181166,626293,0
2096921,2096921,181383,626142,0
2096921,2096921,181283,625976,0
2096921,2096921,181139,626077,0
2096921,2096921,181418,625982,0
2096921,2096921,181479,626182,0
2096921,2096921,181274,626388,0
2096921,2096921,181329,626238,0
2096921,2096921,181380,626072,0
2096921,2096921,181347,625964,0
2096921,2096921,181275,625929,0
2096921,2096921,181419,626120,0
2096921,2096921,181108,625822,0
2096921,2096921,181380,625911,0
2096921,2096921,181471,625836,0
2096921,2096921,181732,626220,0
2096921,2096921,181534,625998,0
2096921,2096921,181683,626235,0
2096921,2096921,181715,625967,0
2096921,2096921,181449,625915,0
2096921,2096921,181643,625918,0
2096921,2096921,181882,625890,0
2096921,2096921,181382,625704,0
2096921,2096921,181438,625662,0
2096921,2096921,181420,625738,0
2096921,2096921,181471,625770,0
2096921,2096921,181599,625664,0
2096921,2096921,181638,625949,0
2096921,2096921,181531,625828,0
2096921,2096921,181214,625600,0
2096921,2096921,181336,625754,0
2096921,2096921,181256,625725,0
2096921,2096921,181427,626068,0
2096921,2096921,181281,625695,0
2096921,2096921,181524,625518,0
2096921,2096921,181431,625498,0
2096921,2096921,181389,625898,0
2096921,2096921,181778,625678,0
2096921,2096921,181459,625755,0
2096921,2096921,181611,625648,0
2096921,2096921,181363,625570,0
2096921,2096921,181240,625362,0
2096921,2096921,181154,625317,0
2096921,2096921,181463,625481,0
2096921,2096921,181556,625801,0
2096921,2096921,181184,625688,0
2096921,2096921,181332,625822,0
2096921,2096921,181258,625533,0
2096921,2096921,181379,625627,0
2096921,2096921,181416,625344,0
2096921,2096921,181197,625357,0
2096921,2096921,181527,625368,0
2096921,2096921,181287,625369,0
2096921,2096921,181166,625530,0
2096921,2096921,181158,625250,0
2096921,2096921,181135,625605,0
2096921,2096921,181499,625482,0
2096921,2096921,181410,625547,0
2096921,2096921,181166,625516,0
2096921,2096921,181252,625523,0
2096921,2096921,181050,625447,0
2096921,2096921,181022,625059,0
2096921,2096921,180887,624927,0
2096921,2096921,180897,624963,0
2096921,2096921,181012,625096,0
2096921,2096921,181107,624859,0
2096921,2096921,180874,624974,0
2096921,2096921,181105,624630,0
2096921,2096921,180797,624850,0
2096921,2096921,180852,624492,0
2096921,2096921,180677,624439,0
2096921,2096921,180745,624416,0
2096921,2096921,180433,624032,0
2096921,2096921,180599,623811,0
2096921,2096921,180422,623836,0
2096921,2096921,180497,623739,0
2096921,2096921,180393,623970,0
2096921,2096921,180153,623327,0
2096921,2096921,179945,623273,0
2096921,2096921,180171,623234,0
2096921,2096921,180117,623175,0
2096921,2096921,179983,623211,0
2096921,2096921,179805,622453,0
2096921,2096921,179734,622258,0
2096921,2096921,179892,622289,0
2096921,2096921,179698,622327,0
2096921,2096921,179727,622514,0
2096921,2096921,179043,620942,0
2096921,2096921,179109,620744,0
2096921,2096921,178835,620759,0
2096921,2096921,179007,620624,0
2096921,2096921,178855,620401,0
2096921,2096921,178105,618886,0
2096921,2096921,177985,618455,0
2096921,2096921,177914,618447,0
2096921,2096921,177840,618557,0
2096921,2096921,177990,618953,0
2096921,2096921,177484,617151,0
2096921,2096921,177230,617015,0
2096921,2096921,177037,617075,0
2096921,2096921,177072,617071,0
2096921,2096921,177113,616999,0
2096921,2096921,176782,616154,0
2096921,2096921,176801,615896,0
2096921,2096921,176447,615926,0
2096921,2096921,176540,615974,0
2096921,2096921,176495,616008,0
2096921,2096921,176273,615135,0
2096921,2096921,176265,614827,0
2096921,2096921,175955,615247,0
2096921,2096921,176090,614784,0
2096921,2096921,175965,615012,0
2096921,2096921,175696,614362,0
2096921,2096921,175705,614070,0
2096921,2096921,175663,614066,0
2096921,2096921,175631,614012,0
2096921,2096921,175546,614203,0
2096921,2096921,175481,613893,0
2096921,2096921,175450,613633,0
2096921,2096921,175439,613529,0
2096921,2096921,175283,613494,0
2096921,2096921,175481,613510,0
2096921,2096921,175088,613254,0
2096921,2096921,175344,613362,0
2096921,2096921,175499,613193,0
2096921,2096921,175531,613202,0
2096921,2096921,175402,613477,0
2096921,2096921,175270,613063,0
2096921,2096921,175266,613265,0
2096921,2096921,175188,613206,0
2096921,2096921,175261,613309,0
2096921,2096921,175191,613229,0
2096921,2096921,175193,613092,0
2096921,2096921,175482,612874,0
2096921,2096921,175067,612885,0
2096921,2096921,175129,612915,0
2096921,2096921,175312,613143,0
2096921,2096921,175532,612971,0
2096921,2096921,175243,613346,0
2096921,2096921,175295,613425,0
2096921,2096921,174978,613371,0
2096921,2096921,175129,613449,0
2096921,2096921,175106,613273,0
2096921,2096921,175197,613051,0
2096921,2096921,175377,613315,0
2096921,2096921,175424,612909,0
2096921,2096921,175240,613467,0
2096921,2096921,175459,613455,0
2096921,2096921,175436,613347,0
2096921,2096921,175337,612990,0
2096921,2096921,175165,613487,0
2096921,2096921,175530,613039,0
2096921,2096921,175259,613313,0
2096921,2096921,175445,613231,0
2096921,2096921,175474,613478,0
2096921,2096921,175207,613496,0
2096921,2096921,175695,613232,0
2096921,2096921,175579,613909,0
2096921,2096921,175693,613768,0
2096921,2096921,175530,613533,0
2096921,2096921,175539,613817,0
2096921,2096921,175518,613665,0
2096921,2096921,175614,614000,0
2096921,2096921,175457,613942,0
2096921,2096921,175634,613916,0
2096921,2096921,175976,614110,0
2096921,2096921,175869,613997,0
2096921,2096921,176012,614480,0
2096921,2096921,175703,614264,0
2096921,2096921,175853,614310,0
2096921,2096921,175736,614292,0
2096921,2096921,175842,614362,0
2096921,2096921,175861,614355,0
2096921,2096921,175903,614548,0
2096921,2096921,175734,614358,0
2096921,2096921,176014,614623,0
2096921,2096921,176201,614220,0
2096921,2096921,176226,614813,0
2096921,2096921,176227,614899,0
2096921,2096921,176162,614755,0
2096921,2096921,176102,614695,0
2096921,2096921,176277,614637,0
2096921,2096921,176185,614783,0
2096921,2096921,176261,614916,0
2096921,2096921,176096,614821,0
2096921,2096921,176183,615072,0
2096921,2096921,176304,614873,0
2096921,2096921,176627,615148,0
2096921,2096921,176665,615241,0
2096921,2096921,176693,615349,0
2096921,2096921,176512,615418,0
2096921,2096921,176427,615279,0
2096921,2096921,176350,615336,0
2096921,2096921,176105,615282,0
2096921,2096921,176403,615542,0
2096921,2096921,176666,615336,0
2096921,2096921,176643,615322,0
2096921,2096921,176448,615719,0
2096921,2096921,176546,615820,0
2096921,2096921,176832,615957,0
2096921,2096921,176819,615782,0
2096921,2096921,176801,615654,0
2096921,2096921,176942,616000,0
2096921,2096921,176782,616135,0
2096921,2096921,177173,616077,0
2096921,2096921,177066,616218,0
2096921,2096921,176955,616236,0
2096921,2096921,177159,616312,0
2096921,2096921,176760,616477,0
2096921,2096921,177057,616522,0
2096921,2096921,177075,616528,0
2096921,2096921,177369,616502,0
2096921,2096921,177459,616634,0
2096921,2096921,177499,616601,0
2096921,2096921,177408,616759,0
2096921,2096921,177332,616771,0
2096921,2096921,177405,616533,0
2096921,2096921,177632,616795,0
2096921,2096921,177464,616880,0
2096921,2096921,177467,617344,0
2096921,2096921,177485,616862,0
2096921,2096921,177436,617175,0
2096921,2096921,177603,616744,0
2096921,2096921,177442,617201,0
2096921,2096921,177471,616891,0
2096921,2096921,177523,617074,0
2096921,2096921,177520,616763,0
2096921,2096921,177578,616967,0
2096921,2096921,177488,617106,0
2096921,2096921,177383,617241,0
2096921,2096921,177564,617218,0
2096921,2096921,177618,616915,0
2096921,2096921,177548,616951,0
2096921,2096921,177698,617206,0
2096921,2096921,177633,617245,0
2096921,2096921,177633,617270,0
2096921,2096921,177460,617227,0
2096921,2096921,177800,617416,0
2096921,2096921,177672,617245,0
2096921,2096921,177842,617370,0
2096921,2096921,177788,617045,0
2096921,2096921,177801,617214,0
2096921,2096921,177579,617001,0
2096921,2096921,177577,617079,0
2096921,2096921,177389,617036,0
2096921,2096921,177532,617345,0
2096921,2096921,177539,616964,0
2096921,2096921,177597,616963,0
2096921,2096921,177664,616855,0
2096921,2096921,177560,617100,0
2096921,2096921,177521,616906,0
2096921,2096921,177601,617031,0
2096921,2096921,177745,616878,0
2096921,2096921,177417,616937,0
2096921,2096921,177406,616720,0
2096921,2096921,177644,616762,0
2096921,2096921,177607,616600,0
2096921,2096921,177292,616610,0
2096921,2096921,177255,616906,0
2096921,2096921,177246,616886,0
2096921,2096921,177310,616614,0
2096921,2096921,176991,616726,0
2096921,2096921,177182,616354,0
2096921,2096921,177219,616583,0
2096921,2096921,177318,616404,0
2096921,2096921,177078,616572,0
2096921,2096921,177406,616601,0
2096921,2096921,177478,616510,0
2096921,2096921,177400,616152,0
2096921,2096921,177046,616412,0
2096921,2096921,177316,616454,0
2096921,2096921,177153,616483,0
2096921,2096921,177125,616240,0
2096921,2096921,177106,616331,0
2096921,2096921,177426,616418,0
2096921,2096921,177224,616419,0
2096921,2096921,177064,616068,0
2096921,2096921,177088,616105,0
2096921,2096921,177195,616145,0
2096921,2096921,177235,616301,0
2096921,2096921,177331,616061,0
2096921,2096921,177290,616290,0
2096921,2096921,177051,616148,0
2096921,2096921,177146,616097,0
2096921,2096921,177198,616169,0
2096921,2096921,177319,616371,0
2096921,2096921,177182,616153,0
2096921,2096921,177057,616037,0
2096921,2096921,177044,616152,0
2096921,2096921,177293,616104,0
2096921,2096921,177138,616408,0
2096921,2096921,177167,616308,0
2096921,2096921,177289,616317,0
2096921,2096921,177223,616511,0
2096921,2096921,177126,616147,0
2096921,2096921,177118,616449,0
2096921,2096921,177398,616480,0
2096921,2096921,177648,616717,0
2096921,2096921,177309,616567,0
2096921,2096921,177339,616738,0
2096921,2096921,177324,616495,0
2096921,2096921,177209,616428,0
2096921,2096921,177352,616830,0
2096921,2096921,177575,616841,0
2096921,2096921,177570,616589,0
2096921,2096921,177494,616925,0
2096921,2096921,177681,616946,0
2096921,2096921,177624,616792,0
2096921,2096921,177557,616941,0
2096921,2096921,177701,616975,0
2096921,2096921,177646,616708,0
2096921,2096921,177665,616994,0
2096921,2096921,177611,617068,0
2096921,2096921,177656,617067,0
2096921,2096921,177686,616988,0
2096921,2096921,177610,617190,0
2096921,2096921,177555,617131,0
2096921,2096921,177769,617296,0
2096921,2096921,177803,617424,0
2096921,2096921,177840,617240,0
2096921,2096921,177873,617266,0
2096921,2096921,177884,617467,0
2096921,2096921,177691,617560,0
2096921,2096921,177749,617561,0
2096921,2096921,177771,617697,0
2096921,2096921,177927,617629,0
2096921,2096921,178050,617264,0
2096921,2096921,177849,617683,0
2096921,2096921,177815,617828,0
2096921,2096921,177845,617955,0
2096921,2096921,177762,617634,0
2096921,2096921,177961,617811,0
2096921,2096921,178146,617315,0
2096921,2096921,177953,617796,0
2096921,2096921,178186,618026,0
2096921,2096921,178294,617803,0
2096921,2096921,178436,617784,0
2096921,2096921,178143,618064,0
2096921,2096921,177991,617950,0
2096921,2096921,178334,618045,0
2096921,2096921,178133,618254,0
2096921,2096921,178312,617902,0
2096921,2096921,178355,618159,0
2096921,2096921,177978,618044,0
2096921,2096921,178159,617861,0
2096921,2096921,178475,618161,0
2096921,2096921,178190,618166,0
2096921,2096921,178577,618123,0
2096921,2096921,178574,618287,0
2096921,2096921,178241,618696,0
2096921,2096921,178224,618427,0
2096921,2096921,178449,618163,0
2096921,2096921,178261,618664,0
2096921,2096921,178579,618712,0
2096921,2096921,178501,618763,0
2096921,2096921,178444,618678,0
2096921,2096921,178394,618670,0
2096921,2096921,178471,618803,0
2096921,2096921,178791,618522,0
2096921,2096921,178628,618816,0
2096921,2096921,178832,618715,0
2096921,2096921,178570,618643,0
2096921,2096921,178664,618915,0
2096921,2096921,178883,618648,0
2096921,2096921,178732,618860,0
2096921,2096921,178742,619099,0
2096921,2096921,178820,618982,0
2096921,2096921,178927,618868,0
2096921,2096921,178837,619080,0
2096921,2096921,178620,619520,0
2096921,2096921,179107,619010,0
2096921,2096921,178617,618981,0
2096921,2096921,178866,619095,0
2096921,2096921,178384,619024,0
2096921,2096921,178691,619390,0
2096921,2096921,178850,619627,0
2096921,2096921,178730,619382,0
2096921,2096921,178805,619338,0
2096921,2096921,178860,619306,0
2096921,2096921,178934,619452,0
2096921,2096921,179299,619296,0
2096921,2096921,179028,619821,0
2096921,2096921,179156,619643,0
2096921,2096921,179331,619976,0
2096921,2096921,179264,619751,0
2096921,2096921,179164,619815,0
2096921,2096921,179067,619632,0
2096921,2096921,179142,619916,0
2096921,2096921,179262,619785,0
2096921,2096921,178834,619653,0
2096921,2096921,179009,619641,0
2096921,2096921,178917,619797,0
2096921,2096921,179017,619927,0
2096921,2096921,179000,619874,0
2096921,2096921,178996,619836,0
2096921,2096921,179378,619655,0
2096921,2096921,179269,620011,0
2096921,2096921,179292,620194,0
2096921,2096921,179361,620132,0
2096921,2096921,179012,620105,0
2096921,2096921,179124,620068,0
2096921,2096921,179295,620117,0
2096921,2096921,179143,620069,0
2096921,2096921,179251,619943,0
2096921,2096921,179455,619856,0
2096921,2096921,179280,620190,0
2096921,2096921,179520,620296,0
2096921,2096921,179401,620486,0
2096921,2096921,179387,620546,0
2096921,2096921,179375,620601,0
2096921,2096921,179730,620386,0
2096921,2096921,179408,620168,0
2096921,2096921,179622,620468,0
2096921,2096921,179284,620551,0
2096921,2096921,179607,620713,0
2096921,2096921,179548,620552,0
2096921,2096921,179727,620572,0
2096921,2096921,179562,620844,0
2096921,2096921,179699,620587,0
2096921,2096921,179469,620548,0
2096921,2096921,179631,620670,0
2096921,2096921,179486,620789,0
2096921,2096921,179583,620375,0
2096921,2096921,179518,620247,0
2096921,2096921,179555,620687,0
2096921,2096921,179370,620550,0
2096921,2096921,179709,620606,0
2096921,2096921,179677,620767,0
2096921,2096921,179613,620730,0
2096921,2096921,179313,620605,0
2096921,2096921,179655,620795,0
2096921,2096921,179512,620832,0
2096921,2096921,179628,620943,0
2096921,2096921,179504,620762,0
2096921,2096921,179576,620798,0
2096921,2096921,179710,620998,0
2096921,2096921,179928,620930,0
2096921,2096921,179931,621042,0
2096921,2096921,179642,620651,0
2096921,2096921,179562,620744,0
2096921,2096921,180012,620849,0
2096921,2096921,179849,620725,0
2096921,2096921,179634,620826,0
2096921,2096921,179475,620935,0
2096921,2096921,179783,620949,0
2096921,2096921,179609,620868,0
2096921,2096921,179802,620782,0
2096921,2096921,179995,620958,0
2096921,2096921,179933,621047,0
2096921,2096921,179949,621241,0
2096921,2096921,179852,621208,0
2096921,2096921,179833,620817,0
2096921,2096921,179672,621072,0
2096921,2096921,180205,621082,0
2096921,2096921,179610,621033,0
2096921,2096921,179703,620956,0
2096921,2096921,179924,621397,0
2096921,2096921,179858,621228,0
2096921,2096921,179860,621197,0
2096921,2096921,179802,620969,0
2096921,2096921,179655,621391,0
2096921,2096921,179911,621174,0
2096921,2096921,179966,620865,0
2096921,2096921,179976,621104,0
2096921,2096921,179901,621392,0
2096921,2096921,180126,621231,0
2096921,2096921,180224,621476,0
2096921,2096921,180004,621424,0
2096921,2096921,179954,621241,0
2096921,2096921,180089,621461,0
2096921,2096921,180117,621361,0
2096921,2096921,179766,621298,0
2096921,2096921,179970,621168,0
2096921,2096921,179617,621469,0
2096921,2096921,179935,621199,0
2096921,2096921,179757,621542,0
2096921,2096921,179926,621649,0
2096921,2096921,180023,621631,0
2096921,2096921,180254,621460,0
2096921,2096921,180243,621738,0
2096921,2096921,179969,621468,0
2096921,2096921,179914,621431,0
2096921,2096921,179910,621567,0
2096921,2096921,179847,621536,0
2096921,2096921,180020,621484,0
2096921,2096921,179952,621645,0
2096921,2096921,180060,621747,0
2096921,2096921,180136,621616,0
2096921,2096921,179965,621281,0
2096921,2096921,179994,621869,0
2096921,2096921,180081,621691,0
2096921,2096921,180002,621594,0
2096921,2096921,179998,621511,0
2096921,2096921,180037,621679,0
2096921,2096921,180305,621463,0
2096921,2096921,180271,621755,0
2096921,2096921,180177,621957,0
2096921,2096921,180371,621861,0
2096921,2096921,180176,621653,0
2096921,2096921,179976,621723,0
2096921,2096921,180022,621570,0
2096921,2096921,180018,621634,0
2096921,2096921,180243,621809,0
2096921,2096921,180285,621931,0
2096921,2096921,179973,621700,0
2096921,2096921,180087,621932,0
2096921,2096921,180167,621745,0
2096921,2096921,180121,622163,0
2096921,2096921,180234,622028,0
2096921,2096921,180162,621913,0
2096921,2096921,180052,621810,0
2096921,2096921,179988,621595,0
2096921,2096921,180266,621733,0
2096921,2096921,180363,621701,0
2096921,2096921,180423,621937,0
2096921,2096921,180345,621548,0
2096921,2096921,180220,621888,0
2096921,2096921,180194,621928,0
2096921,2096921,180389,621962,0
2096921,2096921,179876,621610,0
2096921,2096921,179767,621902,0
2096921,2096921,180234,621664,0
2096921,2096921,180232,621848,0
2096921,2096921,180092,621621,0
2096921,2096921,180126,621561,0
2096921,2096921,180159,621667,0
2096921,2096921,180404,621775,0
2096921,2096921,180294,621636,0
2096921,2096921,180246,621743,0
2096921,2096921,180061,621979,0
2096921,2096921,180137,621604,0
2096921,2096921,180304,621802,0
2096921,2096921,180358,621751,0
2096921,2096921,180256,621911,0
2096921,2096921,180272,621751,0
2096921,2096921,180156,621781,0
2096921,2096921,180404,621762,0
2096921,2096921,179875,621890,0
2096921,2096921,180285,622089,0
2096921,2096921,179995,621934,0
2096921,2096921,180026,621611,0
2096921,2096921,179889,622049,0
2096921,2096921,180182,621711,0
2096921,2096921,180128,622010,0
2096921,2096921,180299,621846,0
2096921,2096921,180238,621993,0
2096921,2096921,180508,622004,0
2096921,2096921,180398,622008,0
2096921,2096921,180385,621825,0
2096921,2096921,180052,621717,0
2096921,2096921,180289,621926,0
2096921,2096921,180261,621754,0
2096921,2096921,180160,621801,0
2096921,2096921,180367,621886,0
2096921,2096921,180524,621894,0
2096921,2096921,180318,621954,0
2096921,2096921,180291,622036,0
2096921,2096921,180307,621837,0
2096921,2096921,180278,621977,0
2096921,2096921,179979,621941,0
2096921,2096921,180019,621826,0
2096921,2096921,180163,621844,0
2096921,2096921,179866,621577,0
2096921,2096921,179943,621385,0
2096921,2096921,180293,621359,0
2096921,2096921,180275,621337,0
2096921,2096921,180149,621573,0
2096921,2096921,180184,621204,0
2096921,2096921,180062,621385,0
2096921,2096921,179893,621208,0
2096921,2096921,179852,621167,0
2096921,2096921,179895,621275,0
2096921,2096921,179654,620986,0
2096921,2096921,179594,620696,0
2096921,2096921,179574,620735,0
2096921,2096921,179864,620627,0
2096921,2096921,179791,620862,0
2096921,2096921,179487,620274,0
2096921,2096921,179483,620378,0
2096921,2096921,179398,620296,0
2096921,2096921,179289,620133,0
2096921,2096921,179050,620344,0
2096921,2096921,178965,619556,0
2096921,2096921,178884,619596,0
2096921,2096921,178968,619424,0
2096921,2096921,178633,619427,0
2096921,2096921,178982,619587,0
2096921,2096921,178326,618140,0
2096921,2096921,177979,617980,0
2096921,2096921,178134,617999,0
2096921,2096921,178170,617701,0
2096921,2096921,178198,617916,0
2096921,2096921,177236,616190,0
2096921,2096921,176972,616272,0
2096921,2096921,176970,615658,0
2096921,2096921,177130,615795,0
2096921,2096921,177250,615662,0
2096921,2096921,176474,614615,0
2096921,2096921,176646,614575,0
2096921,2096921,176257,614534,0
2096921,2096921,176260,614323,0
2096921,2096921,176067,614517,0
2096921,2096921,175462,613417,0
2096921,2096921,175931,613200,0
2096921,2096921,175400,613114,0
2096921,2096921,175800,613160,0
2096921,2096921,175765,613200,0
2096921,2096921,175256,612489,0
2096921,2096921,175326,612455,0
2096921,2096921,175585,612633,0
2096921,2096921,175132,612403,0
2096921,2096921,175223,612359,0
2096921,2096921,174890,611874,0
2096921,2096921,174946,611590,0
2096921,2096921,175010,611564,0
2096921,2096921,175076,611779,0
2096921,2096921,174927,611828,0
2096921,2096921,174903,611584,0
2096921,2096921,174741,611639,0
2096921,2096921,174490,611395,0
2096921,2096921,174454,611566,0
2096921,2096921,174824,611629,0
2096921,2096921,174624,611155,0
2096921,2096921,174559,611074,0
2096921,2096921,174618,611311,0
2096921,2096921,174554,611174,0
2096921,2096921,174876,611350,0
2096921,2096921,174708,611364,0
2096921,2096921,174568,611413,0
2096921,2096921,174727,611244,0
2096921,2096921,174471,611184,0
2096921,2096921,174278,611238,0
2096921,2096921,174410,611174,0
2096921,2096921,174392,611196,0
2096921,2096921,174578,611163,0
2096921,2096921,174589,611098,0
2096921,2096921,174703,611344,0
2096921,2096921,174663,611452,0
2096921,2096921,174792,611486,0
2096921,2096921,174712,611512,0
2096921,2096921,174503,611131,0
2096921,2096921,174419,611181,0
2096921,2096921,174694,611642,0
2096921,2096921,174648,611488,0
2096921,2096921,174671,611651,0
2096921,2096921,174595,611476,0
2096921,2096921,174850,611722,0
2096921,2096921,174750,611888,0
2096921,2096921,174785,611916,0
2096921,2096921,174569,611755,0
2096921,2096921,175013,611437,0
2096921,2096921,174741,611884,0
2096921,2096921,174763,612086,0
2096921,2096921,174893,612154,0
2096921,2096921,174845,611851,0
2096921,2096921,175107,612157,0
2096921,2096921,175121,612243,0
2096921,2096921,175214,612466,0
2096921,2096921,175053,612642,0
2096921,2096921,175058,612592,0
2096921,2096921,174912,612505,0
2096921,2096921,175309,612554,0
2096921,2096921,175186,612771,0
2096921,2096921,175440,612772,0
2096921,2096921,175413,612940,0
2096921,2096921,175446,613029,0
2096921,2096921,175388,613014,0
2096921,2096921,175475,613442,0
2096921,2096921,175645,613285,0
2096921,2096921,175618,613004,0
2096921,2096921,175647,613214,0
2096921,2096921,175786,613097,0
2096921,2096921,175854,613569,0
2096921,2096921,175665,613654,0
2096921,2096921,175730,613572,0
2096921,2096921,175744,613630,0
2096921,2096921,175704,613546,0
2096921,2096921,176004,614118,0
2096921,2096921,176233,614381,0
2096921,2096921,176304,614039,0
2096921,2096921,175909,614167,0
2096921,2096921,176035,614191,0
2096921,2096921,176329,614050,0
2096921,2096921,176198,614347,0
2096921,2096921,175991,614528,0
2096921,2096921,176184,614438,0
2096921,2096921,176163,614369,0
2096921,2096921,176266,614769,0
2096921,2096921,176483,614866,0
2096921,2096921,176435,614988,0
2096921,2096921,176333,614932,0
2096921,2096921,176375,615061,0
2096921,2096921,176674,615207,0
2096921,2096921,176622,615425,0
2096921,2096921,176734,615223,0
2096921,2096921,176839,615125,0
2096921,2096921,176786,615454,0
2096921,2096921,176641,616083,0
2096921,2096921,176682,616024,0
2096921,2096921,176947,615895,0
2096921,2096921,176743,615744,0
2096921,2096921,176768,615720,0
2096921,2096921,176863,616143,0
2096921,2096921,176674,616388,0
2096921,2096921,177157,616337,0
2096921,2096921,176975,616045,0
2096921,2096921,176674,616252,0
2096921,2096921,176992,616629,0
2096921,2096921,177199,616840,0
2096921,2096921,177447,616689,0
2096921,2096921,177425,616295,0
2096921,2096921,177435,616314,0
2096921,2096921,177245,616849,0
2096921,2096921,177165,616969,0
2096921,2096921,177325,617079,0
2096921,2096921,177219,616715,0
2096921,2096921,177395,616812,0
2096921,2096921,177578,617241,0
2096921,2096921,177374,617406,0
2096921,2096921,177588,617555,0
2096921,2096921,177372,617396,0
2096921,2096921,177405,617285,0
2096921,2096921,177579,617464,0
2096921,2096921,177833,617533,0
2096921,2096921,177498,617981,0
2096921,2096921,177607,617787,0
2096921,2096921,177770,617812,0
2096921,2096921,177971,617867,0
2096921,2096921,177806,618195,0
2096921,2096921,177857,617844,0
2096921,2096921,177754,617749,0
2096921,2096921,177700,617621,0
2096921,2096921,177694,618137,0
2096921,2096921,177861,617986,0
2096921,2096921,177654,617892,0
2096921,2096921,177883,617942,0
2096921,2096921,178168,617988,0
2096921,2096921,178123,618321,0
2096921,2096921,178118,618222,0
2096921,2096921,178003,618293,0
2096921,2096921,178030,618186,0
2096921,2096921,178007,618114,0
2096921,2096921,178006,618126,0
2096921,2096921,177787,618030,0
2096921,2096921,178120,618235,0
2096921,2096921,177935,618288,0
2096921,2096921,177913,618148,0
2096921,2096921,177964,618423,0
2096921,2096921,177888,618215,0
2096921,2096921,177782,617997,0
2096921,2096921,177806,618015,0
2096921,2096921,177881,618121,0
2096921,2096921,177725,617860,0
2096921,2096921,177766,617824,0
2096921,2096921,177652,618023,0
2096921,2096921,177937,618196,0
2096921,2096921,177763,618366,0
2096921,2096921,178021,618472,0
2096921,2096921,177874,618298,0
2096921,2096921,177979,618028,0
2096921,2096921,177677,618271,0
2096921,2096921,177673,618144,0
2096921,2096921,177830,617848,0
2096921,2096921,177748,617939,0
2096921,2096921,177804,618026,0
2096921,2096921,177740,617888,0
2096921,2096921,177887,618048,0
2096921,2096921,178095,618047,0
2096921,2096921,177839,618084,0
2096921,2096921,178001,617871,0
2096921,2096921,177719,618062,0
2096921,2096921,177735,618060,0
2096921,2096921,177531,617983,0
2096921,2096921,177883,617861,0
2096921,2096921,178151,618158,0
2096921,2096921,177781,618360,0
2096921,2096921,177844,618250,0
2096921,2096921,177788,618191,0
2096921,2096921,177881,618399,0
2096921,2096921,177747,618299,0
2096921,2096921,177789,618119,0
2096921,2096921,177856,618124,0
2096921,2096921,177925,618392,0
2096921,2096921,177982,617899,0
2096921,2096921,177718,618356,0
2096921,2096921,177703,618247,0
2096921,2096921,177769,618242,0
2096921,2096921,177800,618352,0
2096921,2096921,178101,618445,0
2096921,2096921,177931,618786,0
2096921,2096921,177971,618650,0
2096921,2096921,177812,618622,0
2096921,2096921,177829,618962,0
2096921,2096921,177895,618447,0
2096921,2096921,178239,618756,0
2096921,2096921,178160,618434,0
2096921,2096921,178243,618687,0
2096921,2096921,178143,618727,0
2096921,2096921,178386,618844,0
2096921,2096921,177946,618947,0
2096921,2096921,177827,618943,0
2096921,2096921,178218,618622,0
2096921,2096921,178117,618926,0
2096921,2096921,178156,619076,0
2096921,2096921,178169,619136,0
2096921,2096921,178396,619561,0
2096921,2096921,178391,619464,0
2096921,2096921,178364,619887,0
2096921,2096921,178416,619860,0
2096921,2096921,178228,619922,0
2096921,2096921,178206,619699,0
2096921,2096921,178169,619705,0
2096921,2096921,178493,619955,0
2096921,2096921,178432,619869,0
2096921,2096921,178349,620089,0
2096921,2096921,178699,619797,0
2096921,2096921,178526,620269,0
2096921,2096921,178684,620321,0
2096921,2096921,178664,620505,0
2096921,2096921,178389,620421,0
2096921,2096921,178629,620219,0
2096921,2096921,178543,619929,0
2096921,2096921,178581,620416,0
2096921,2096921,179143,620430,0
2096921,2096921,178929,620507,0
2096921,2096921,179076,620750,0
2096921,2096921,178850,620552,0
2096921,2096921,178971,620673,0
2096921,2096921,178665,620673,0
2096921,2096921,178742,620879,0
2096921,2096921,178980,620832,0
2096921,2096921,178640,620776,0
2096921,2096921,178770,620755,0
2096921,2096921,178973,620838,0
2096921,2096921,179008,620741,0
2096921,2096921,179183,620885,0
2096921,2096921,179302,620884,0
2096921,2096921,179270,621266,0
2096921,2096921,179372,621306,0
2096921,2096921,179234,621363,0
2096921,2096921,179145,621340,0
2096921,2096921,179256,621332,0
2096921,2096921,179521,621401,0
2096921,2096921,179542,621627,0
2096921,2096921,179334,621512,0
2096921,2096921,179491,621574,0
2096921,2096921,179298,621843,0
2096921,2096921,179520,621946,0
2096921,2096921,179216,622091,0
2096921,2096921,179440,621835,0
2096921,2096921,179514,621582,0
2096921,2096921,179285,621643,0
2096921,2096921,179343,621826,0
2096921,2096921,179690,622031,0
2096921,2096921,179437,622273,0
2096921,2096921,179706,622262,0
2096921,2096921,180028,622215,0
2096921,2096921,179911,622548,0
2096921,2096921,180200,622399,0
2096921,2096921,179694,622205,0
2096921,2096921,179603,622229,0
2096921,2096921,179702,622454,0
2096921,2096921,179611,622425,0
2096921,2096921,179733,622435,0
2096921,2096921,179834,622587,0
2096921,2096921,179935,622381,0
2096921,2096921,179845,622633,0
2096921,2096921,179941,622758,0
2096921,2096921,180248,622790,0
2096921,2096921,179945,622807,0
2096921,2096921,179787,622863,0
2096921,2096921,179750,622881,0
2096921,2096921,179873,623014,0
2096921,2096921,180082,623006,0
2096921,2096921,180173,623337,0
2096921,2096921,180334,623227,0
2096921,2096921,179977,623517,0
2096921,2096921,180289,623335,0
2096921,2096921,180384,623273,0
2096921,2096921,180411,623235,0
2096921,2096921,180006,623497,0
2096921,2096921,180078,623160,0
2096921,2096921,180128,623451,0
2096921,2096921,180441,623691,0
2096921,2096921,180493,623748,0
2096921,2096921,180324,623446,0
2096921,2096921,179964,623488,0
2096921,2096921,180254,623997,0
2096921,2096921,180225,623915,0
2096921,2096921,180435,623646,0
2096921,2096921,180288,623763,0
2096921,2096921,180431,623674,0
2096921,2096921,180288,624082,0
2096921,2096921,180339,623747,0
2096921,2096921,180578,623934,0
2096921,2096921,180558,624071,0
2096921,2096921,180386,623883,0
2096921,2096921,180618,624270,0
2096921,2096921,180708,624221,0
2096921,2096921,180482,624152,0
2096921,2096921,180513,624187,0
2096921,2096921,180505,624492,0
2096921,2096921,180585,624272,0
2096921,2096921,180683,624089,0
2096921,2096921,180541,624100,0
2096921,2096921,180723,624279,0
2096921,2096921,180542,624496,0
2096921,2096921,180782,624692,0
2096921,2096921,180928,624536,0
2096921,2096921,180800,624617,0
2096921,2096921,180930,624521,0
2096921,2096921,180660,624745,0
2096921,2096921,180800,624877,0
2096921,2096921,180838,624670,0
2096921,2096921,180958,625072,0
2096921,2096921,180714,624979,0
2096921,2096921,180797,625036,0
2096921,2096921,181033,625025,0
2096921,2096921,180871,625070,0
2096921,2096921,181095,625148,0
2096921,2096921,180969,625303,0
2096921,2096921,180789,624938,0
2096921,2096921,180831,624915,0
2096921,2096921,180852,624885,0
2096921,2096921,180856,625042,0
2096921,2096921,180976,625074,0
2096921,2096921,181042,625128,0
2096921,2096921,181188,625244,0
2096921,2096921,181429,625497,0
2096921,2096921,181163,625213,0
2096921,2096921,180968,625460,0
2096921,2096921,181116,625166,0
2096921,2096921,181130,625487,0
2096921,2096921,181061,625277,0
2096921,2096921,180903,625685,0
2096921,2096921,181163,625541,0
2096921,2096921,181263,625722,0
2096921,2096921,181279,625674,0
2096921,2096921,180936,625862,0
2096921,2096921,181126,625736,0
2096921,2096921,181030,625717,0
2096921,2096921,181376,625574,0
2096921,2096921,181140,625790,0
2096921,2096921,181182,625631,0
2096921,2096921,181419,625665,0
2096921,2096921,181613,625713,0
2096921,2096921,181584,625887,0
2096921,2096921,181514,625930,0
2096921,2096921,181400,626065,0
2096921,2096921,181405,625967,0
2096921,2096921,181311,625909,0
2096921,2096921,181251,625652,0
2096921,2096921,181102,626027,0
2096921,2096921,181170,626050,0
2096921,2096921,181210,626269,0
2096921,2096921,181280,626409,0
2096921,2096921,181410,626488,0
2096921,2096921,181539,626456,0
2096921,2096921,181674,626453,0
2096921,2096921,181421,626364,0
2096921,2096921,181470,626115,0
2096921,2096921,181594,626304,0
2096921,2096921,181502,626239,0
2096921,2096921,181409,626473,0
2096921,2096921,181353,626541,0
2096921,2096921,181486,626202,0
2096921,2096921,181695,626218,0
2096921,2096921,181601,626700,0
2096921,2096921,181344,626527,0
2096921,2096921,181691,626496,0
2096921,2096921,181556,626642,0
2096921,2096921,181601,626549,0
2096921,2096921,181335,626839,0
2096921,2096921,181323,626969,0
2096921,2096921,181583,626775,0
2096921,2096921,181702,626894,0
2096921,2096921,181710,626737,0
2096921,2096921,181777,627027,0
2096921,2096921,181599,627050,0
2096921,2096921,181575,626957,0
2096921,2096921,181225,626628,0
2096921,2096921,181611,626846,0
2096921,2096921,181568,626785,0
2096921,2096921,181426,626970,0
2096921,2096921,181884,627090,0
2096921,2096921,181610,627069,0
2096921,2096921,181942,627277,0
2096921,2096921,181989,627069,0
2096921,2096921,181880,627278,0
2096921,2096921,181688,627183,0
2096921,2096921,181686,626955,0
2096921,2096921,181842,626816,0
2096921,2096921,181819,627144,0
2096921,2096921,181747,627056,0
2096921,2096921,181601,627302,0
2096921,2096921,181810,627112,0
2096921,2096921,182044,627251,0
2096921,2096921,181840,627278,0
2096921,2096921,182043,627386,0
2096921,2096921,181857,627374,0
2096921,2096921,181567,627285,0
2096921,2096921,181712,627359,0
2096921,2096921,182003,627480,0
2096921,2096921,181626,627532,0
2096921,2096921,181621,627345,0
2096921,2096921,181854,627518,0
2096921,2096921,182115,627175,0
2096921,2096921,181968,627554,0
2096921,2096921,181925,627801,0
2096921,2096921,181997,627327,0
2096921,2096921,181830,627424,0
2096921,2096921,181818,627504,0
2096921,2096921,181803,627375,0
2096921,2096921,181825,627483,0
2096921,2096921,181664,627334,0
2096921,2096921,181777,627502,0
2096921,2096921,182073,627439,0
2096921,2096921,181878,627538,0
2096921,2096921,181881,627350,0
2096921,2096921,181974,627727,0
2096921,2096921,182340,627500,0
2096921,2096921,182149,627544,0
2096921,2096921,181960,627420,0
2096921,2096921,181761,627755,0
2096921,2096921,181783,627841,0
2096921,2096921,181923,627324,0
2096921,2096921,181982,627852,0
2096921,2096921,181899,627417,0
2096921,2096921,181855,627568,0
2096921,2096921,182214,627565,0
2096921,2096921,181994,627678,0
2096921,2096921,182176,627861,0
2096921,2096921,181892,627651,0
2096921,2096921,181890,627730,0
2096921,2096921,182019,627841,0
2096921,2096921,181930,627884,0
2096921,2096921,181930,627822,0
2096921,2096921,182131,627736,0
2096921,2096921,182066,627860,0
2096921,2096921,182227,627656,0
2096921,2096921,182041,627642,0
2096921,2096921,181955,627437,0
2096921,2096921,182120,627956,0
2096921,2096921,182056,627403,0
2096921,2096921,181835,627874,0
2096921,2096921,182253,627814,0
2096921,2096921,182292,627863,0
2096921,2096921,182015,627595,0
2096921,2096921,182015,627792,0
2096921,2096921,181973,627696,0
2096921,2096921,182011,627641,0
2096921,2096921,182196,627736,0
2096921,2096921,182176,627964,0
2096921,2096921,181959,627919,0
2096921,2096921,182131,627849,0
2096921,2096921,182007,627931,0
2096921,2096921,181824,628186,0
2096921,2096921,181928,627972,0
2096921,2096921,182297,627874,0
2096921,2096921,182137,627785,0
2096921,2096921,181772,627860,0
2096921,2096921,181863,627882,0
2096921,2096921,181809,627775,0
2096921,2096921,181675,627700,0
2096921,2096921,181732,627612,0
2096921,2096921,181947,627709,0
2096921,2096921,181985,627709,0
2096921,2096921,181893,627389,0
2096921,2096921,182059,627239,0
2096921,2096921,181859,627209,0
2096921,2096921,181732,627309,0
2096921,2096921,181830,627193,0
2096921,2096921,181284,626581,0
2096921,2096921,181419,626867,0
2096921,2096921,181330,626826,0
2096921,2096921,181674,626934,0
2096921,2096921,181438,627068,0
2096921,2096921,180982,626446,0
2096921,2096921,180962,626388,0
2096921,2096921,181019,625961,0
2096921,2096921,181017,626166,0
2096921,2096921,180893,625874,0
2096921,2096921,180760,625439,0
2096921,2096921,180774,625455,0
2096921,2096921,180789,625259,0
2096921,2096921,180796,625521,0
2096921,2096921,180850,625395,0
2096921,2096921,180158,624084,0
2096921,2096921,180109,624050,0
2096921,2096921,179922,623649,0
2096921,2096921,179973,623755,0
2096921,2096921,179947,623516,0
2096921,2096921,179019,622179,0
2096921,2096921,178903,621677,0
2096921,2096921,178999,621612,0
2096921,2096921,178912,621789,0
2096921,2096921,178737,621880,0
2096921,2096921,178155,620627,0
2096921,2096921,177744,620530,0
2096921,2096921,177998,620147,0
2096921,2096921,178157,620171,0
2096921,2096921,178198,620236,0
2096921,2096921,177614,619444,0
2096921,2096921,177649,619158,0
2096921,2096921,177495,619164,0
2096921,2096921,177643,619150,0
2096921,2096921,177798,618850,0
2096921,2096921,177116,618363,0
2096921,2096921,176892,618447,0
2096921,2096921,176996,618103,0
2096921,2096921,176945,618553,0
2096921,2096921,176933,618366,0
2096921,2096921,176716,617522,0
2096921,2096921,176757,617566,0
2096921,2096921,176793,617355,0
2096921,2096921,176742,617734,0
2096921,2096921,176746,617598,0
2096921,2096921,176683,617288,0
2096921,2096921,176750,617306,0
2096921,2096921,176531,617280,0
2096921,2096921,176469,617351,0
2096921,2096921,176706,617433,0
2096921,2096921,176535,617059,0
2096921,2096921,176299,617199,0
2096921,2096921,176499,616962,0
2096921,2096921,176508,616936,0
2096921,2096921,176358,617105,0
2096921,2096921,176386,616998,0
2096921,2096921,176395,617007,0
2096921,2096921,176563,616681,0
2096921,2096921,176319,616855,0
2096921,2096921,176128,616676,0
2096921,2096921,176071,616879,0
2096921,2096921,176190,616976,0
2096921,2096921,175985,616826,0
2096921,2096921,176255,617167,0
2096921,2096921,176276,616968,0
2096921,2096921,176454,617027,0
2096921,2096921,176166,617228,0
2096921,2096921,176177,617160,0
2096921,2096921,176102,617436,0
2096921,2096921,176198,617085,0
2096921,2096921,176194,617028,0
2096921,2096921,176217,617151,0
2096921,2096921,176642,617617,0
2096921,2096921,176586,617167,0
2096921,2096921,176545,617219,0
2096921,2096921,176182,617002,0
2096921,2096921,176571,617436,0
2096921,2096921,176289,617204,0
2096921,2096921,176639,617319,0
2096921,2096921,176319,616983,0
2096921,2096921,176623,617485,0
2096921,2096921,176573,617620,0
2096921,2096921,176718,617480,0
2096921,2096921,176845,617779,0
2096921,2096921,177009,617804,0
2096921,2096921,176846,618056,0
2096921,2096921,176930,618065,0
2096921,2096921,176913,617994,0
2096921,2096921,176849,617775,0
2096921,2096921,176848,617727,0
2096921,2096921,176823,617941,0
2096921,2096921,176941,618345,0
2096921,2096921,176841,618226,0
2096921,2096921,176959,618464,0
2096921,2096921,177038,618311,0
2096921,2096921,177114,618860,0
2096921,2096921,177275,619038,0
2096921,2096921,177190,618970,0
2096921,2096921,177137,618933,0
2096921,2096921,177129,618692,0
2096921,2096921,177271,619281,0
2096921,2096921,177202,619213,0
2096921,2096921,177256,618836,0
2096921,2096921,177376,619059,0
2096921,2096921,177569,618930,0
2096921,2096921,177716,619249,0
2096921,2096921,177503,619305,0
2096921,2096921,177410,619332,0
2096921,2096921,177605,619523,0
2096921,2096921,177717,619141,0
2096921,2096921,177624,619394,0
2096921,2096921,177873,619815,0
2096921,2096921,177764,619603,0
2096921,2096921,177871,619729,0
2096921,2096921,177891,619857,0
2096921,2096921,177852,620257,0
2096921,2096921,177747,620153,0
2096921,2096921,177912,619861,0
2096921,2096921,177901,619659,0
2096921,2096921,178001,619835,0
2096921,2096921,178003,620429,0
2096921,2096921,177910,620381,0
2096921,2096921,177912,620343,0
2096921,2096921,177789,620494,0
2096921,2096921,178016,620524,0
2096921,2096921,178014,620785,0
2096921,2096921,178236,620701,0
2096921,2096921,178432,620646,0
2096921,2096921,178389,620656,0
2096921,2096921,178451,620868,0
2096921,2096921,178306,621032,0
2096921,2096921,178435,620982,0
2096921,2096921,178555,621206,0
2096921,2096921,178621,621254,0
2096921,2096921,178532,621206,0
2096921,2096921,178570,621465,0
2096921,2096921,178736,621335,0
2096921,2096921,178697,621523,0
2096921,2096921,178691,621253,0
2096921,2096921,178440,621726,0
2096921,2096921,178742,621270,0
2096921,2096921,178753,621647,0
2096921,2096921,178622,621420,0
2096921,2096921,178913,621720,0
2096921,2096921,178797,621904,0
2096921,2096921,179148,622093,0
2096921,2096921,179203,621766,0
2096921,2096921,178945,621832,0
2096921,2096921,179019,621732,0
2096921,2096921,179059,622054,0
2096921,2096921,179041,622101,0
2096921,2096921,178901,622301,0
2096921,2096921,179143,622157,0
2096921,2096921,179015,622190,0
2096921,2096921,179209,622128,0
2096921,2096921,178990,622303,0
2096921,2096921,179061,622308,0
2096921,2096921,179272,622294,0
2096921,2096921,179211,622123,0
2096921,2096921,179016,622316,0
2096921,2096921,179106,622332,0
2096921,2096921,179363,622528,0
2096921,2096921,179179,622469,0
2096921,2096921,179256,622492,0
2096921,2096921,179345,622517,0
2096921,2096921,179180,622365,0
2096921,2096921,179316,622092,0
2096921,2096921,179406,622704,0
2096921,2096921,179326,622614,0
2096921,2096921,179209,622233,0
2096921,2096921,179210,622455,0
2096921,2096921,179266,622485,0
2096921,2096921,179102,622441,0
2096921,2096921,179371,622402,0
2096921,2096921,179207,622396,0
2096921,2096921,179082,622606,0
2096921,2096921,179380,622480,0
2096921,2096921,179285,622479,0
2096921,2096921,178963,622261,0
2096921,2096921,179253,622240,0
2096921,2096921,179146,622428,0
2096921,2096921,178840,622384,0
2096921,2096921,179178,622267,0
2096921,2096921,179309,622223,0
2096921,2096921,179079,622326,0
2096921,2096921,179077,622185,0
2096921,2096921,179050,621981,0
2096921,2096921,178670,622378,0
2096921,2096921,178864,622086,0
2096921,2096921,179095,622300,0
2096921,2096921,178940,622092,0
2096921,2096921,178817,621956,0
2096921,2096921,179243,622067,0
2096921,2096921,179070,621942,0
2096921,2096921,179092,622189,0
2096921,2096921,178769,622181,0
2096921,2096921,178897,622028,0
2096921,2096921,178989,622144,0
2096921,2096921,178863,621816,0
2096921,2096921,178746,622057,0
2096921,2096921,178952,622006,0
2096921,2096921,179021,621915,0
2096921,2096921,178720,621835,0
2096921,2096921,178659,621938,0
2096921,2096921,178804,622224,0
2096921,2096921,178818,622044,0
2096921,2096921,178830,621761,0
2096921,2096921,178803,622100,0
2096921,2096921,179159,621844,0
2096921,2096921,179111,622122,0
2096921,2096921,178719,621886,0
2096921,2096921,178928,621980,0
2096921,2096921,178900,622031,0
2096921,2096921,178880,622087,0
2096921,2096921,179051,621939,0
2096921,2096921,179114,622263,0
2096921,2096921,178956,621965,0
2096921,2096921,178973,622091,0
2096921,2096921,178824,622106,0
2096921,2096921,178830,621939,0
2096921,2096921,178989,622209,0
2096921,2096921,179300,622476,0
2096921,2096921,178864,622323,0
2096921,2096921,179452,622266,0
2096921,2096921,179343,622129,0
2096921,2096921,179363,622179,0
2096921,2096921,179197,622470,0
2096921,2096921,179364,622459,0
2096921,2096921,179158,622511,0
2096921,2096921,179262,622564,0
2096921,2096921,179116,622753,0
2096921,2096921,179162,622788,0
2096921,2096921,179468,622705,0
2096921,2096921,179686,622630,0
2096921,2096921,179623,622744,0
2096921,2096921,179498,622953,0
2096921,2096921,179495,623071,0
2096921,2096921,179775,622951,0
2096921,2096921,179545,622675,0
2096921,2096921,179288,623049,0
2096921,2096921,179603,623182,0
2096921,2096921,179603,623325,0
2096921,2096921,179350,623175,0
2096921,2096921,179460,623454,0
2096921,2096921,179532,623318,0
2096921,2096921,179780,623511,0
2096921,2096921,179815,623322,0
2096921,2096921,179682,623497,0
2096921,2096921,179853,623533,0
2096921,2096921,179762,623067,0
2096921,2096921,179660,623100,0
2096921,2096921,179977,623596,0
2096921,2096921,179781,623476,0
2096921,2096921,179730,623454,0
2096921,2096921,179492,623487,0
2096921,2096921,179894,623422,0
2096921,2096921,179910,623854,0
2096921,2096921,179783,623713,0
2096921,2096921,179743,623685,0
2096921,2096921,179838,624012,0
2096921,2096921,179992,624003,0
2096921,2096921,180226,623881,0
2096921,2096921,179870,623852,0
2096921,2096921,180024,624108,0
2096921,2096921,180091,624183,0
2096921,2096921,179994,624355,0
2096921,2096921,180162,624336,0
2096921,2096921,180357,623996,0
2096921,2096921,179781,623884,0
2096921,2096921,180096,623859,0
2096921,2096921,180079,624214,0
2096921,2096921,180177,624363,0
2096921,2096921,180205,624222,0
2096921,2096921,180186,624154,0
2096921,2096921,180494,624167,0
2096921,2096921,180456,624331,0
2096921,2096921,180263,624567,0
2096921,2096921,180292,624596,0
2096921,2096921,180239,624517,0
2096921,2096921,180119,624499,0
2096921,2096921,180476,624918,0
2096921,2096921,180548,624518,0
2096921,2096921,180251,624687,0
2096921,2096921,180687,624884,0
2096921,2096921,180691,624712,0
2096921,2096921,180492,624688,0
2096921,2096921,180530,624411,0
2096921,2096921,180628,624839,0
2096921,2096921,180541,624989,0
2096921,2096921,180458,624715,0
2096921,2096921,180644,624650,0
2096921,2096921,180352,625055,0
2096921,2096921,180634,625006,0
2096921,2096921,180852,625277,0
2096921,2096921,180479,624885,0
2096921,2096921,180492,625161,0
2096921,2096921,180765,625131,0
2096921,2096921,180711,625133,0
2096921,2096921,180540,624931,0
2096921,2096921,180501,624951,0
2096921,2096921,180716,625044,0
2096921,2096921,180488,624916,0
2096921,2096921,180548,625174,0
2096921,2096921,180729,625204,0
2096921,2096921,180533,625455,0
2096921,2096921,180792,625306,0
2096921,2096921,180802,625574,0
2096921,2096921,180871,625548,0
2096921,2096921,180800,625059,0
2096921,2096921,180677,625235,0
2096921,2096921,181016,625277,0
2096921,2096921,180936,625124,0
2096921,2096921,180892,625308,0
2096921,2096921,181059,625607,0
2096921,2096921,181073,625352,0
2096921,2096921,180945,625870,0
2096921,2096921,180910,625693,0
2096921,2096921,181023,625539,0
2096921,2096921,180777,625234,0
2096921,2096921,180897,625410,0
2096921,2096921,180848,625434,0
2096921,2096921,180815,625820,0
2096921,2096921,180770,625310,0
2096921,2096921,180803,625718,0
2096921,2096921,181111,625751,0
2096921,2096921,181050,625751,0
2096921,2096921,181041,625872,0
2096921,2096921,181004,625487,0
2096921,2096921,180820,625939,0
2096921,2096921,181018,625787,0
2096921,2096921,181042,625954,0
2096921,2096921,181058,625899,0
2096921,2096921,181082,625912,0
2096921,2096921,181228,626000,0
2096921,2096921,181194,626128,0
2096921,2096921,181173,625998,0
2096921,2096921,181228,626002,0
2096921,2096921,181385,626136,0
2096921,2096921,181283,626092,0
2096921,2096921,181173,625927,0
2096921,2096921,181289,626098,0
2096921,2096921,181227,626101,0
2096921,2096921,181418,625985,0
2096921,2096921,181140,626330,0
2096921,2096921,181349,626046,0
2096921,2096921,181485,626137,0
2096921,2096921,181304,626270,0
2096921,2096921,181102,626241,0
2096921,2096921,181295,626007,0
2096921,2096921,181158,625945,0
2096921,2096921,181367,625906,0
2096921,2096921,181056,626087,0
2096921,2096921,181358,626253,0
2096921,2096921,181332,626244,0
2096921,2096921,181451,626059,0
2096921,2096921,181370,626258,0
2096921,2096921,181204,626176,0
2096921,2096921,181408,626219,0
2096921,2096921,181053,626134,0
2096921,2096921,181063,626368,0
2096921,2096921,181340,626118,0
2096921,2096921,181089,626157,0
2096921,2096921,181301,626181,0
2096921,2096921,181133,626237,0
2096921,2096921,181079,626296,0
2096921,2096921,181569,626248,0
2096921,2096921,181398,626051,0
2096921,2096921,181404,626417,0
2096921,2096921,181263,625992,0
2096921,2096921,181040,626282,0
2096921,2096921,181316,626071,0
2096921,2096921,181404,626254,0
2096921,2096921,181231,626273,0
2096921,2096921,181410,626424,0
2096921,2096921,181346,626522,0
2096921,2096921,181418,626511,0
2096921,2096921,181416,626437,0
2096921,2096921,181256,626444,0
2096921,2096921,181149,626255,0
2096921,2096921,181097,626368,0
2096921,2096921,181211,626114,0
2096921,2096921,181342,626256,0
2096921,2096921,181383,626202,0
2096921,2096921,181176,626194,0
2096921,2096921,181280,626179,0
2096921,2096921,181352,625745,0
2096921,2096921,181197,626287,0
2096921,2096921,181241,626206,0
2096921,2096921,181110,626279,0
2096921,2096921,181205,626096,0
2096921,2096921,181246,626140,0
2096921,2096921,181392,626139,0
2096921,2096921,181266,626273,0
2096921,2096921,181342,626438,0
2096921,2096921,181459,626536,0
2096921,2096921,181515,626632,0
2096921,2096921,181853,626445,0
2096921,2096921,181220,625952,0
2096921,2096921,181042,625990,0
2096921,2096921,181138,626088,0
2096921,2096921,181210,626028,0
2096921,2096921,181320,626194,0
2096921,2096921,181464,626105,0
2096921,2096921,181362,626510,0
2096921,2096921,181375,625984,0
2096921,2096921,181426,626138,0
2096921,2096921,181289,626395,0
2096921,2096921,181166,626473,0
2096921,2096921,181284,626156,0
2096921,2096921,181297,626154,0
2096921,2096921,181510,626166,0
2096921,2096921,181337,626031,0
2096921,2096921,181446,626118,0
2096921,2096921,181348,626100,0
2096921,2096921,181452,626247,0
2096921,2096921,181447,626343,0
2096921,2096921,181476,626176,0
2096921,2096921,181293,626059,0
2096921,2096921,181462,626102,0
2096921,2096921,181520,626196,0
2096921,2096921,181440,626126,0
2096921,2096921,181382,626111,0
2096921,2096921,181186,626197,0
2096921,2096921,181453,626229,0
2096921,2096921,181456,626163,0
2096921,2096921,181739,626433,0
2096921,2096921,181600,626014,0
2096921,2096921,181427,625998,0
2096921,2096921,181320,625876,0
2096921,2096921,181572,626191,0
2096921,2096921,181409,625957,0
2096921,2096921,181460,625961,0
2096921,2096921,181359,626290,0
2096921,2096921,181730,626484,0
2096921,2096921,181592,626449,0
2096921,2096921,181579,626237,0
2096921,2096921,181521,626251,0
2096921,2096921,181379,626251,0
2096921,2096921,181369,626259,0
2096921,2096921,181585,626228,0
2096921,2096921,181320,626063,0
2096921,2096921,181418,626113,0
2096921,2096921,181410,626087,0
2096921,2096921,181495,626251,0
2096921,2096921,181427,626365,0
2096921,2096921,181523,626189,0
2096921,2096921,181391,626089,0
2096921,2096921,181501,626160,0
2096921,2096921,181331,625998,0
2096921,2096921,181315,626068,0
2096921,2096921,181461,625927,0
2096921,2096921,181464,625865,0
2096921,2096921,181583,625951,0
2096921,2096921,181468,625998,0
2096921,2096921,181517,626178,0
2096921,2096921,181247,626086,0
2096921,2096921,181570,626085,0
2096921,2096921,181278,626169,0
2096921,2096921,181138,626033,0
2096921,2096921,181319,626009,0
2096921,2096921,181456,625737,0
2096921,2096921,181767,625883,0
2096921,2096921,181711,625619,0
2096921,2096921,181262,625897,0
2096921,2096921,181331,625901,0
2096921,2096921,181264,625737,0
2096921,2096921,181238,625932,0
2096921,2096921,181325,625651,0
2096921,2096921,181331,625592,0
2096921,2096921,181222,625816,0
2096921,2096921,181391,625717,0
2096921,2096921,181370,625762,0
2096921,2096921,181051,625599,0
2096921,2096921,181525,625655,0
2096921,2096921,181582,625435,0
2096921,2096921,181158,625300,0
2096921,2096921,181452,625477,0
2096921,2096921,181506,625314,0
2096921,2096921,181225,625193,0
2096921,2096921,181141,625244,0
2096921,2096921,181440,625450,0
2096921,2096921,181078,625300,0
2096921,2096921,181147,625273,0
2096921,2096921,181131,625487,0
2096921,2096921,181131,625558,0
2096921,2096921,181420,625336,0
2096921,2096921,181095,625211,0
2096921,2096921,181058,625567,0
2096921,2096921,181089,625509,0
2096921,2096921,181125,625524,0
2096921,2096921,181088,625017,0
2096921,2096921,181110,624873,0
2096921,2096921,180966,624869,0
2096921,2096921,181064,624726,0
2096921,2096921,181206,625000,0
2096921,2096921,181069,624532,0
2096921,2096921,180992,624918,0
2096921,2096921,180797,625052,0
2096921,2096921,180991,624835,0
2096921,2096921,180983,624573,0
2096921,2096921,180687,624071,0
2096921,2096921,180983,624132,0
2096921,2096921,180860,624010,0
2096921,2096921,180603,624024,0
2096921,2096921,180463,623863,0
2096921,2096921,180467,623341,0
2096921,2096921,180316,623204,0
2096921,2096921,180212,623041,0
2096921,2096921,180393,623020,0
2096921,2096921,180190,623207,0
2096921,2096921,179782,622531,0
2096921,2096921,179532,622469,0
2096921,2096921,180000,622352,0
2096921,2096921,179757,622732,0
2096921,2096921,180095,622540,0
2096921,2096921,179043,621400,0
2096921,2096921,178959,620892,0
2096921,2096921,178828,620755,0
2096921,2096921,178769,620848,0
2096921,2096921,178974,620965,0
2096921,2096921,178152,619106,0
2096921,2096921,177938,618718,0
2096921,2096921,177970,618754,0
2096921,2096921,178112,618930,0
2096921,2096921,177744,618708,0
2096921,2096921,177299,617606,0
2096921,2096921,177320,616940,0
2096921,2096921,177234,617097,0
2096921,2096921,177010,617111,0
2096921,2096921,176968,617022,0
2096921,2096921,176367,615895,0
2096921,2096921,176219,615792,0
2096921,2096921,176661,615706,0
2096921,2096921,176832,615800,0
2096921,2096921,176624,615905,0
2096921,2096921,176072,615372,0
2096921,2096921,176107,615028,0
2096921,2096921,176252,615072,0
2096921,2096921,176078,614852,0
2096921,2096921,175812,614729,0
2096921,2096921,175645,614400,0
2096921,2096921,175619,614712,0
2096921,2096921,175685,614485,0
2096921,2096921,175476,614288,0
2096921,2096921,175782,614200,0
2096921,2096921,175436,613701,0
2096921,2096921,175355,613652,0
2096921,2096921,175591,613752,0
2096921,2096921,175224,613735,0
2096921,2096921,175390,613448,0
2096921,2096921,175267,613448,0
2096921,2096921,175119,613543,0
2096921,2096921,175443,613216,0
2096921,2096921,175167,613441,0
2096921,2096921,175055,613387,0
2096921,2096921,175426,613449,0
2096921,2096921,175442,613181,0
2096921,2096921,175150,613214,0
2096921,2096921,175191,612977,0
2096921,2096921,174994,613252,0
2096921,2096921,175122,613026,0
2096921,2096921,175122,613069,0
2096921,2096921,175190,612982,0
2096921,2096921,175352,613214,0
2096921,2096921,175276,613263,0
2096921,2096921,175307,613149,0
2096921,2096921,174949,613239,0
2096921,2096921,175140,613301,0
2096921,2096921,175136,613312,0
2096921,2096921,175238,613055,0
2096921,2096921,175259,613202,0
2096921,2096921,175429,613325,0
2096921,2096921,175400,613014,0
2096921,2096921,175219,613085,0
2096921,2096921,174980,613013,0
2096921,2096921,175208,613360,0
2096921,2096921,175328,613288,0
2096921,2096921,175168,613431,0
2096921,2096921,175200,613170,0
2096921,2096921,175287,613182,0
2096921,2096921,175599,613323,0
2096921,2096921,175388,613178,0
2096921,2096921,175303,613376,0
2096921,2096921,175646,613426,0
2096921,2096921,175556,613460,0
2096921,2096921,175695,613687,0
2096921,2096921,175703,613785,0
2096921,2096921,175588,613898,0
2096921,2096921,175513,613488,0
2096921,2096921,175511,613506,0
2096921,2096921,175632,614059,0
2096921,2096921,175660,613918,0
2096921,2096921,175881,614137,0
2096921,2096921,175686,614090,0
2096921,2096921,175611,614111,0
2096921,2096921,175841,614183,0
2096921,2096921,175957,614348,0
2096921,2096921,176153,614186,0
2096921,2096921,175880,614290,0
2096921,2096921,175823,614557,0
2096921,2096921,176247,614703,0
2096921,2096921,176179,614415,0
2096921,2096921,176410,614611,0
2096921,2096921,176183,614613,0
2096921,2096921,176526,614836,0
2096921,2096921,176432,615130,0
2096921,2096921,176445,615091,0
2096921,2096921,176392,614720,0
2096921,2096921,176395,614849,0
2096921,2096921,176097,614589,0
2096921,2096921,176292,614974,0
2096921,2096921,176377,615274,0
2096921,2096921,176452,615047,0
2096921,2096921,176533,615063,0
2096921,2096921,176348,615343,0
2096921,2096921,176424,615446,0
2096921,2096921,176685,615707,0
2096921,2096921,176696,615385,0
2096921,2096921,176323,615652,0
2096921,2096921,176420,615452,0
2096921,2096921,176762,615650,0
2096921,2096921,176768,615882,0
2096921,2096921,176807,615724,0
2096921,2096921,176742,615700,0
2096921,2096921,176784,615729,0
2096921,2096921,176906,616069,0
2096921,2096921,176901,615925,0
2096921,2096921,176972,616026,0
2096921,2096921,176821,616022,0
2096921,2096921,176714,615832,0
2096921,2096921,176860,616096,0
2096921,2096921,176950,616436,0
2096921,2096921,176871,616406,0
2096921,2096921,177043,616174,0
2096921,2096921,177320,616356,0
2096921,2096921,177393,616494,0
2096921,2096921,177115,616681,0
2096921,2096921,177298,616622,0
2096921,2096921,177150,616748,0
2096921,2096921,177246,616429,0
2096921,2096921,177040,616832,0
2096921,2096921,177078,616696,0
2096921,2096921,177530,616932,0
2096921,2096921,177464,616788,0
2096921,2096921,177588,616883,0
2096921,2096921,177405,616952,0
2096921,2096921,177644,617225,0
2096921,2096921,177567,617154,0
2096921,2096921,177224,617135,0
2096921,2096921,177134,617078,0
2096921,2096921,177333,617097,0
2096921,2096921,177438,617073,0
2096921,2096921,177586,617168,0
2096921,2096921,177640,617186,0
2096921,2096921,177510,617432,0
2096921,2096921,177622,617419,0
2096921,2096921,177454,617186,0
2096921,2096921,177383,617109,0
2096921,2096921,177314,617189,0
2096921,2096921,177336,617125,0
2096921,2096921,177608,617308,0
2096921,2096921,177437,617268,0
2096921,2096921,177416,617601,0
2096921,2096921,177633,617859,0
2096921,2096921,177746,617271,0
2096921,2096921,177488,616863,0
2096921,2096921,177528,617197,0
2096921,2096921,177391,617184,0
2096921,2096921,177545,617395,0
2096921,2096921,177622,617221,0
2096921,2096921,177340,617248,0
2096921,2096921,177537,617189,0
2096921,2096921,177689,617293,0
2096921,2096921,177816,616964,0
2096921,2096921,177802,617196,0
2096921,2096921,177746,617097,0
2096921,2096921,177542,617101,0
2096921,2096921,177578,616882,0
2096921,2096921,177522,616796,0
2096921,2096921,177443,616795,0
2096921,2096921,177535,617027,0
2096921,2096921,177838,616917,0
2096921,2096921,177480,617021,0
2096921,2096921,177671,617011,0
2096921,2096921,177812,616951,0
2096921,2096921,177593,616946,0
2096921,2096921,177392,617044,0
2096921,2096921,177389,616957,0
2096921,2096921,177376,616812,0
2096921,2096921,177435,616851,0
2096921,2096921,177072,616697,0
2096921,2096921,177152,616547,0
2096921,2096921,177094,616857,0
2096921,2096921,177303,616810,0
2096921,2096921,177606,616584,0
2096921,2096921,177218,616622,0
2096921,2096921,177183,616544,0
2096921,2096921,177441,616352,0
2096921,2096921,177282,616492,0
2096921,2096921,177146,616490,0
2096921,2096921,177044,616318,0
2096921,2096921,177418,616426,0
2096921,2096921,177481,616717,0
2096921,2096921,177327,616151,0
2096921,2096921,177342,616302,0
2096921,2096921,176955,616321,0
2096921,2096921,177209,616442,0
2096921,2096921,177132,616308,0
2096921,2096921,176889,616224,0
2096921,2096921,177169,616128,0
2096921,2096921,177436,616257,0
2096921,2096921,177479,616204,0
2096921,2096921,177469,616389,0
2096921,2096921,177285,616404,0
2096921,2096921,177370,616131,0
2096921,2096921,177324,616310,0
2096921,2096921,177279,616486,0
2096921,2096921,177222,616181,0
2096921,2096921,177230,616261,0
2096921,2096921,177272,616387,0
2096921,2096921,177326,616516,0
2096921,2096921,177188,616507,0
2096921,2096921,177204,616510,0
2096921,2096921,177077,616461,0
2096921,2096921,177530,616419,0
2096921,2096921,177320,616653,0
2096921,2096921,177438,616846,0
2096921,2096921,177286,616488,0
2096921,2096921,177550,616456,0
2096921,2096921,176993,616610,0
2096921,2096921,177256,616687,0
2096921,2096921,177350,616805,0
2096921,2096921,177563,616714,0
2096921,2096921,177560,616790,0
2096921,2096921,177890,616713,0
2096921,2096921,177784,617129,0
2096921,2096921,177692,617170,0
2096921,2096921,177531,616871,0
2096921,2096921,177581,616883,0
2096921,2096921,177720,616875,0
2096921,2096921,177703,616964,0
2096921,2096921,177622,617194,0
2096921,2096921,177593,617228,0
2096921,2096921,177516,617334,0
2096921,2096921,177816,617037,0
2096921,2096921,178003,617327,0
2096921,2096921,178010,617582,0
2096921,2096921,177967,617379,0
2096921,2096921,177736,617074,0
2096921,2096921,177894,617100,0
2096921,2096921,178077,617391,0
2096921,2096921,177981,617389,0
2096921,2096921,177921,617530,0
2096921,2096921,177857,617484,0
2096921,2096921,178051,617826,0
2096921,2096921,178212,617702,0
2096921,2096921,177948,617743,0
2096921,2096921,177976,617496,0
2096921,2096921,177830,617530,0
2096921,2096921,177659,617469,0
2096921,2096921,178173,617830,0
2096921,2096921,178151,617551,0
2096921,2096921,178130,617854,0
2096921,2096921,178136,618072,0
2096921,2096921,178139,617792,0
2096921,2096921,178291,618097,0
2096921,2096921,178200,617961,0
2096921,2096921,178400,618240,0
2096921,2096921,178521,617950,0
2096921,2096921,178150,617759,0
2096921,2096921,178486,618113,0
2096921,2096921,178366,618177,0
2096921,2096921,178382,618274,0
2096921,2096921,178296,618387,0
2096921,2096921,178359,618327,0
2096921,2096921,178674,618486,0
2096921,2096921,178511,618570,0
2096921,2096921,178740,618374,0
2096921,2096921,178395,618623,0
2096921,2096921,178678,618402,0
2096921,2096921,178797,618478,0
2096921,2096921,178463,618766,0
2096921,2096921,178615,618864,0
2096921,2096921,178505,618664,0
2096921,2096921,178390,618721,0
2096921,2096921,178564,618977,0
2096921,2096921,178449,619118,0
2096921,2096921,178753,618613,0
2096921,2096921,178478,618959,0
2096921,2096921,178727,618425,0
2096921,2096921,178686,618897,0
2096921,2096921,178683,618933,0
2096921,2096921,178973,619167,0
2096921,2096921,178841,619002,0
2096921,2096921,178826,619107,0
2096921,2096921,178820,619140,0
2096921,2096921,178627,619069,0
2096921,2096921,178989,619061,0
2096921,2096921,178797,619148,0
2096921,2096921,178876,619112,0
2096921,2096921,179028,619338,0
2096921,2096921,178981,619422,0
2096921,2096921,178747,619574,0
2096921,2096921,178962,619552,0
2096921,2096921,179097,619550,0
2096921,2096921,179007,619289,0
2096921,2096921,178971,619376,0
2096921,2096921,179029,619540,0
2096921,2096921,179089,619661,0
2096921,2096921,178858,619377,0
2096921,2096921,178883,619442,0
2096921,2096921,179152,619614,0
2096921,2096921,179031,619443,0
2096921,2096921,178978,619702,0
2096921,2096921,179253,619503,0
2096921,2096921,179166,619804,0
2096921,2096921,179216,619741,0
2096921,2096921,179024,619834,0
2096921,2096921,179039,619918,0
2096921,2096921,178905,619667,0
2096921,2096921,179218,619663,0
2096921,2096921,179357,619899,0
2096921,2096921,179207,620095,0
2096921,2096921,179015,619922,0
2096921,2096921,179321,619734,0
2096921,2096921,179260,619953,0
2096921,2096921,179273,619954,0
2096921,2096921,179078,620231,0
2096921,2096921,178957,619945,0
2096921,2096921,179276,620042,0
2096921,2096921,179253,620088,0
2096921,2096921,179224,620353,0
2096921,2096921,179213,619944,0
2096921,2096921,179235,620145,0
2096921,2096921,179183,619786,0
2096921,2096921,179333,620447,0
2096921,2096921,179344,620419,0
2096921,2096921,179552,620480,0
2096921,2096921,179298,620105,0
2096921,2096921,179158,620179,0
2096921,2096921,179410,620451,0
2096921,2096921,179408,620445,0
2096921,2096921,179180,620397,0
2096921,2096921,179484,620288,0
2096921,2096921,179510,620625,0
2096921,2096921,179578,620747,0
2096921,2096921,179316,620792,0
2096921,2096921,179592,620514,0
2096921,2096921,179494,620696,0
2096921,2096921,179296,620658,0
2096921,2096921,179416,620378,0
2096921,2096921,179372,620595,0
2096921,2096921,179380,620531,0
2096921,2096921,179676,620841,0
2096921,2096921,179765,620684,0
2096921,2096921,179585,620486,0
2096921,2096921,179576,620827,0
2096921,2096921,179618,620694,0
2096921,2096921,179541,620518,0
2096921,2096921,179416,620713,0
2096921,2096921,179658,620725,0
2096921,2096921,179656,620792,0
2096921,2096921,179669,620901,0
2096921,2096921,179586,621008,0
2096921,2096921,179497,621046,0
2096921,2096921,179964,620876,0
2096921,2096921,180036,620606,0
2096921,2096921,179730,620861,0
2096921,2096921,179540,621072,0
2096921,2096921,179577,620881,0
2096921,2096921,179379,620955,0
2096921,2096921,179719,621117,0
2096921,2096921,179789,621141,0
2096921,2096921,179789,620995,0
2096921,2096921,179822,621202,0
2096921,2096921,179753,621009,0
2096921,2096921,179745,620753,0
2096921,2096921,179712,621019,0
2096921,2096921,179891,621014,0
2096921,2096921,179749,621182,0
2096921,2096921,179835,620844,0
2096921,2096921,179965,621275,0
2096921,2096921,179907,621243,0
2096921,2096921,179841,621202,0
2096921,2096921,179818,621029,0
2096921,2096921,179830,621294,0
2096921,2096921,180043,621344,0
2096921,2096921,180078,621017,0
2096921,2096921,179895,620952,0
2096921,2096921,179636,621267,0
2096921,2096921,179702,621243,0
2096921,2096921,179805,621352,0
2096921,2096921,179866,621349,0
2096921,2096921,179791,621607,0
2096921,2096921,179914,621360,0
2096921,2096921,180003,621487,0
2096921,2096921,180000,621302,0
2096921,2096921,180183,621462,0
2096921,2096921,179710,621094,0
2096921,2096921,179780,621238,0
2096921,2096921,179756,621063,0
2096921,2096921,179809,621330,0
2096921,2096921,180011,621601,0
2096921,2096921,180009,621475,0
2096921,2096921,179912,621623,0
2096921,2096921,180030,621476,0
2096921,2096921,180026,621515,0
2096921,2096921,180016,621501,0
2096921,2096921,179967,621241,0
2096921,2096921,179851,621284,0
2096921,2096921,179983,621258,0
2096921,2096921,180035,621362,0
2096921,2096921,180038,621335,0
2096921,2096921,180355,621665,0
2096921,2096921,179910,621717,0
2096921,2096921,180236,621608,0
2096921,2096921,179896,621604,0
2096921,2096921,179593,621629,0
2096921,2096921,179932,621616,0
2096921,2096921,179895,621465,0
2096921,2096921,180115,621272,0
2096921,2096921,180011,621530,0
2096921,2096921,180292,621625,0
2096921,2096921,180173,621687,0
2096921,2096921,180198,621419,0
2096921,2096921,180065,621695,0
2096921,2096921,180131,621887,0
2096921,2096921,179960,621628,0
2096921,2096921,180221,621608,0
2096921,2096921,179930,621977,0
2096921,2096921,180061,621834,0
2096921,2096921,179990,621735,0
2096921,2096921,179994,621763,0
2096921,2096921,180048,621729,0
2096921,2096921,180276,621776,0
2096921,2096921,180249,622079,0
2096921,2096921,180347,621782,0
2096921,2096921,180039,621744,0
2096921,2096921,180056,621938,0
2096921,2096921,180274,621516,0
2096921,2096921,179967,621794,0
2096921,2096921,179947,621861,0
2096921,2096921,180396,621681,0
2096921,2096921,180510,621973,0
2096921,2096921,180212,621867,0
2096921,2096921,180143,621925,0
2096921,2096921,180069,621776,0
2096921,2096921,180061,621753,0
2096921,2096921,180073,621604,0
2096921,2096921,180466,621811,0
2096921,2096921,180404,621847,0
2096921,2096921,180261,621695,0
2096921,2096921,180270,621696,0
2096921,2096921,180217,621712,0
2096921,2096921,180011,621839,0
2096921,2096921,180241,621624,0
2096921,2096921,179944,621796,0
2096921,2096921,180217,621717,0
2096921,2096921,180048,621615,0
2096921,2096921,180301,621639,0
2096921,2096921,180287,621650,0
2096921,2096921,180229,621525,0
2096921,2096921,180287,621779,0
2096921,2096921,180262,621889,0
2096921,2096921,180055,621861,0
2096921,2096921,180274,621789,0
2096921,2096921,180336,621663,0
2096921,2096921,180137,621734,0
2096921,2096921,180216,621744,0
2096921,2096921,180180,621840,0
2096921,2096921,180239,621744,0
2096921,2096921,180163,621896,0
2096921,2096921,180131,621832,0
2096921,2096921,180070,621983,0
2096921,2096921,180286,622132,0
2096921,2096921,180072,621988,0
2096921,2096921,180095,622002,0
2096921,2096921,180115,621497,0
2096921,2096921,180234,621652,0
2096921,2096921,180102,621647,0
2096921,2096921,180022,621495,0
2096921,2096921,179922,621829,0
2096921,2096921,180022,621629,0
2096921,2096921,180158,621887,0
2096921,2096921,180143,621742,0
2096921,2096921,180090,622090,0
2096921,2096921,180041,621864,0
2096921,2096921,180242,621771,0
2096921,2096921,180236,621513,0
2096921,2096921,180145,621886,0
2096921,2096921,180169,621296,0
2096921,2096921,180021,621699,0
2096921,2096921,180061,621763,0
2096921,2096921,179985,621562,0
2096921,2096921,179931,621367,0
2096921,2096921,180054,621272,0
2096921,2096921,180181,621438,0
2096921,2096921,179917,621128,0
2096921,2096921,179589,621076,0
2096921,2096921,179745,621137,0
2096921,2096921,179505,620737,0
2096921,2096921,179316,620581,0
2096921,2096921,179408,620702,0
2096921,2096921,179538,620672,0
2096921,2096921,179225,620719,0
2096921,2096921,179165,619911,0
2096921,2096921,179068,619899,0
2096921,2096921,178986,620055,0
2096921,2096921,179174,620088,0
2096921,2096921,178999,619920,0
2096921,2096921,178601,619583,0
2096921,2096921,178699,619398,0
2096921,2096921,178784,619247,0
2096921,2096921,178852,619277,0
2096921,2096921,178740,619478,0
2096921,2096921,178062,618148,0
2096921,2096921,177763,617910,0
2096921,2096921,178088,617638,0
2096921,2096921,177846,617781,0
2096921,2096921,177927,617654,0
2096921,2096921,177091,615947,0
2096921,2096921,176996,615795,0
2096921,2096921,177055,615907,0
2096921,2096921,177265,615778,0
2096921,2096921,176991,615923,0
2096921,2096921,176121,614746,0
2096921,2096921,176266,614279,0
2096921,2096921,176159,614435,0
2096921,2096921,176248,614241,0
2096921,2096921,176024,614610,0
2096921,2096921,175817,613256,0
2096921,2096921,175849,613375,0
2096921,2096921,175665,613057,0
2096921,2096921,175729,613095,0
2096921,2096921,175746,613186,0
2096921,2096921,175369,612641,0
2096921,2096921,175105,612436,0
2096921,2096921,174934,612727,0
2096921,2096921,175382,612492,0
2096921,2096921,175208,612470,0
2096921,2096921,175133,611909,0
2096921,2096921,174839,611990,0
2096921,2096921,174927,611884,0
2096921,2096921,175021,611883,0
2096921,2096921,174976,611893,0
2096921,2096921,174685,611793,0
2096921,2096921,174846,611608,0
2096921,2096921,174702,611430,0
2096921,2096921,174691,611454,0
2096921,2096921,174538,611557,0
2096921,2096921,174597,611259,0
2096921,2096921,174749,611213,0
2096921,2096921,174660,611133,0
2096921,2096921,174683,611204,0
2096921,2096921,174754,610900,0
2096921,2096921,174494,611130,0
2096921,2096921,174657,611352,0
2096921,2096921,174641,611470,0
2096921,2096921,174591,611385,0
2096921,2096921,174630,611122,0
2096921,2096921,174668,611226,0
2096921,2096921,174549,611288,0
2096921,2096921,175008,611323,0
2096921,2096921,174746,611380,0
2096921,2096921,174816,611249,0
2096921,2096921,174510,611474,0
2096921,2096921,174707,611498,0
2096921,2096921,174819,611282,0
2096921,2096921,174659,611328,0
2096921,2096921,174828,611179,0
2096921,2096921,174845,611463,0
2096921,2096921,175160,611622,0
2096921,2096921,174808,611552,0
2096921,2096921,174584,611461,0
2096921,2096921,175045,611619,0
2096921,2096921,174798,611705,0
2096921,2096921,174761,611663,0
2096921,2096921,174866,611784,0
2096921,2096921,174994,611933,0
2096921,2096921,174636,611755,0
2096921,2096921,175203,611620,0
2096921,2096921,175054,612035,0
2096921,2096921,174894,612085,0
2096921,2096921,174937,611833,0
2096921,2096921,174893,611840,0
2096921,2096921,175174,612245,0
2096921,2096921,175293,612110,0
2096921,2096921,175373,612584,0
2096921,2096921,174877,612498,0
2096921,2096921,175092,612254,0
2096921,2096921,175458,612547,0
2096921,2096921,175448,612773,0
2096921,2096921,175489,612933,0
2096921,2096921,175543,613012,0
2096921,2096921,175732,612983,0
2096921,2096921,175525,613410,0
2096921,2096921,175621,613234,0
2096921,2096921,175635,613198,0
2096921,2096921,175581,612900,0
2096921,2096921,175318,612983,0
2096921,2096921,175699,613535,0
2096921,2096921,175792,613868,0
2096921,2096921,175752,613688,0
2096921,2096921,175928,613570,0
2096921,2096921,175874,613641,0
2096921,2096921,175801,614135,0
2096921,2096921,175979,613896,0
2096921,2096921,175911,613874,0
2096921,2096921,175670,613897,0
2096921,2096921,175800,613784,0
2096921,2096921,175959,614153,0
2096921,2096921,176021,614711,0
2096921,2096921,176150,614598,0
2096921,2096921,176128,614488,0
2096921,2096921,176197,614771,0
2096921,2096921,176427,614649,0
2096921,2096921,176157,614727,0
2096921,2096921,176232,614739,0
2096921,2096921,176093,614614,0
2096921,2096921,176160,614511,0
2096921,2096921,176360,614671,0
2096921,2096921,176441,615018,0
2096921,2096921,176740,615104,0
2096921,2096921,176674,615324,0
2096921,2096921,176500,614913,0
2096921,2096921,176667,615497,0
2096921,2096921,176992,615659,0
2096921,2096921,176743,615484,0
2096921,2096921,176870,615286,0
2096921,2096921,176533,615667,0
2096921,2096921,176772,615966,0
2096921,2096921,176814,616285,0
2096921,2096921,176962,615919,0
2096921,2096921,176931,616025,0
2096921,2096921,177117,615647,0
2096921,2096921,177136,616683,0
2096921,2096921,177153,616317,0
2096921,2096921,177219,616413,0
2096921,2096921,177065,616497,0
2096921,2096921,177055,616669,0
2096921,2096921,177233,616554,0
2096921,2096921,176999,616611,0
2096921,2096921,177320,616636,0
2096921,2096921,177460,616817,0
2096921,2096921,177374,616621,0
2096921,2096921,177487,617190,0
2096921,2096921,177285,617134,0
2096921,2096921,177170,617154,0
2096921,2096921,177604,616857,0
2096921,2096921,177347,617062,0
2096921,2096921,177476,617214,0
2096921,2096921,177658,617302,0
2096921,2096921,177387,617372,0
2096921,2096921,177695,617453,0
2096921,2096921,177639,617295,0
2096921,2096921,177659,617636,0
2096921,2096921,177655,617894,0
2096921,2096921,177906,617786,0
2096921,2096921,177641,617604,0
2096921,2096921,177733,617843,0
2096921,2096921,177825,617639,0
2096921,2096921,178045,617865,0
2096921,2096921,178098,617843,0
2096921,2096921,178102,617611,0
2096921,2096921,177742,618106,0
2096921,2096921,177626,617930,0
2096921,2096921,177889,617792,0
2096921,2096921,177584,617537,0
2096921,2096921,177478,617618,0
2096921,2096921,177779,617681,0
2096921,2096921,177985,617758,0
2096921,2096921,177754,617791,0
2096921,2096921,178091,617863,0
2096921,2096921,177764,617876,0
2096921,2096921,177924,617750,0
2096921,2096921,178032,617936,0
2096921,2096921,177700,617855,0
2096921,2096921,177784,617762,0
2096921,2096921,177668,617778,0
2096921,2096921,177339,617760,0
2096921,2096921,177692,617897,0
2096921,2096921,177651,617982,0
2096921,2096921,177727,617669,0
2096921,2096921,177491,617666,0
2096921,2096921,177676,617846,0
2096921,2096921,177576,617850,0
2096921,2096921,177827,617741,0
2096921,2096921,177793,617665,0
2096921,2096921,177893,618074,0
2096921,2096921,177708,617804,0
2096921,2096921,177459,617551,0
2096921,2096921,177496,617569,0
2096921,2096921,177664,617584,0
2096921,2096921,177850,617781,0
2096921,2096921,177905,617657,0
2096921,2096921,177778,618128,0
2096921,2096921,177812,617856,0
2096921,2096921,177586,617959,0
2096921,2096921,177569,617744,0
2096921,2096921,177437,617589,0
2096921,2096921,177577,617574,0
2096921,2096921,177442,617858,0
2096921,2096921,177623,617848,0
2096921,2096921,177769,617960,0
2096921,2096921,177688,617811,0
2096921,2096921,177516,617999,0
2096921,2096921,177307,618098,0
2096921,2096921,177505,618100,0
2096921,2096921,177723,617853,0
2096921,2096921,177774,617997,0
2096921,2096921,177780,617960,0
2096921,2096921,177621,618048,0
2096921,2096921,177760,618044,0
2096921,2096921,177900,618283,0
2096921,2096921,177494,618090,0
2096921,2096921,177884,618092,0
2096921,2096921,177883,618298,0
2096921,2096921,177589,618204,0
2096921,2096921,177693,617991,0
2096921,2096921,177444,617924,0
2096921,2096921,177753,618529,0
2096921,2096921,177601,618486,0
2096921,2096921,178102,618647,0
2096921,2096921,177955,618370,0
2096921,2096921,177827,618485,0
2096921,2096921,178143,618759,0
2096921,2096921,178120,618836,0
2096921,2096921,178010,618595,0
2096921,2096921,178007,618793,0
2096921,2096921,177955,618688,0
2096921,2096921,178093,618859,0
2096921,2096921,178218,619065,0
2096921,2096921,178261,619072,0
2096921,2096921,178106,619079,0
2096921,2096921,178180,619033,0
2096921,2096921,178140,619382,0
2096921,2096921,178307,619375,0
2096921,2096921,178426,619484,0
2096921,2096921,178270,619625,0
2096921,2096921,178206,619218,0
2096921,2096921,178395,619747,0
2096921,2096921,178291,619562,0
2096921,2096921,178552,619707,0
2096921,2096921,178547,619973,0
2096921,2096921,178380,619784,0
2096921,2096921,178385,620140,0
2096921,2096921,178452,619938,0
2096921,2096921,178499,619974,0
2096921,2096921,178636,619814,0
2096921,2096921,178632,619985,0
2096921,2096921,178884,619966,0
2096921,2096921,178738,620154,0
2096921,2096921,178790,620100,0
2096921,2096921,178886,620015,0
2096921,2096921,178872,620143,0
2096921,2096921,179008,620204,0
2096921,2096921,178977,620604,0
2096921,2096921,179126,620542,0
2096921,2096921,179023,620482,0
2096921,2096921,178980,620238,0
2096921,2096921,179025,620641,0
2096921,2096921,178719,620760,0
2096921,2096921,179098,620919,0
2096921,2096921,179100,620778,0
2096921,2096921,179126,620877,0
2096921,2096921,179105,621202,0
2096921,2096921,179184,621179,0
2096921,2096921,178999,620931,0
2096921,2096921,179151,621035,0
2096921,2096921,179108,621076,0
2096921,2096921,179025,621066,0
2096921,2096921,179278,620892,0
2096921,2096921,179144,621375,0
2096921,2096921,179483,621371,0
2096921,2096921,179173,621369,0
2096921,2096921,179177,621624,0
2096921,2096921,179259,621710,0
2096921,2096921,178998,621599,0
2096921,2096921,179214,621631,0
2096921,2096921,179263,621442,0
2096921,2096921,179433,621631,0
2096921,2096921,179398,621854,0
2096921,2096921,179494,621682,0
2096921,2096921,179198,621708,0
2096921,2096921,179444,622010,0
2096921,2096921,179599,622300,0
2096921,2096921,179514,622124,0
2096921,2096921,179631,622059,0
2096921,2096921,179700,622103,0
2096921,2096921,179357,622211,0
2096921,2096921,179761,622264,0
2096921,2096921,179545,622300,0
2096921,2096921,179539,622296,0
2096921,2096921,179576,622291,0
2096921,2096921,179631,622448,0
2096921,2096921,179875,622618,0
2096921,2096921,179892,622672,0
2096921,2096921,179762,622260,0
2096921,2096921,179743,622117,0
2096921,2096921,179485,622346,0
2096921,2096921,179931,622627,0
2096921,2096921,179884,622744,0
2096921,2096921,179890,622844,0
2096921,2096921,179985,622890,0
2096921,2096921,180177,622918,0
2096921,2096921,180425,623117,0
2096921,2096921,180176,623037,0
2096921,2096921,180030,623040,0
2096921,2096921,180122,623139,0
2096921,2096921,180062,622977,0
2096921,2096921,180122,623310,0
2096921,2096921,180137,623455,0
2096921,2096921,180069,623348,0
2096921,2096921,180149,623472,0
2096921,2096921,180226,623392,0
2096921,2096921,180011,623403,0
2096921,2096921,179999,623395,0
2096921,2096921,180414,623291,0
2096921,2096921,180065,623424,0
2096921,2096921,180107,623363,0
2096921,2096921,180169,623801,0
2096921,2096921,180160,623672,0
2096921,2096921,180137,623861,0
2096921,2096921,180190,623679,0
2096921,2096921,180353,623856,0
2096921,2096921,180351,624134,0
2096921,2096921,180453,624151,0
2096921,2096921,180363,623949,0
2096921,2096921,180263,623983,0
2096921,2096921,180357,624061,0
2096921,2096921,180572,624146,0
2096921,2096921,180497,623907,0
2096921,2096921,180471,624431,0
2096921,2096921,180474,624019,0
2096921,2096921,180738,624287,0
2096921,2096921,180647,624407,0
2096921,2096921,180818,624702,0
2096921,2096921,180510,624564,0
2096921,2096921,180698,624337,0
2096921,2096921,180240,624473,0
2096921,2096921,180790,624889,0
2096921,2096921,180743,624607,0
2096921,2096921,180672,624851,0
2096921,2096921,180873,624552,0
2096921,2096921,180747,624733,0
2096921,2096921,180816,624972,0
2096921,2096921,180812,625004,0
2096921,2096921,180957,624630,0
2096921,2096921,180594,624765,0
2096921,2096921,180545,624843,0
2096921,2096921,181070,624752,0
2096921,2096921,180850,624867,0
2096921,2096921,181059,625087,0
2096921,2096921,180901,624855,0
2096921,2096921,180874,625008,0
2096921,2096921,180890,625230,0
2096921,2096921,181141,625095,0
2096921,2096921,180721,624782,0
2096921,2096921,180667,625055,0
2096921,2096921,180795,624946,0
2096921,2096921,180925,625456,0
2096921,2096921,180785,625204,0
2096921,2096921,180767,625409,0
2096921,2096921,180918,625362,0
2096921,2096921,181098,625359,0
2096921,2096921,181285,625517,0
2096921,2096921,181382,625538,0
2096921,2096921,181497,625252,0
2096921,2096921,181267,625448,0
2096921,2096921,181081,625466,0
2096921,2096921,181034,625468,0
2096921,2096921,180809,625558,0
2096921,2096921,181087,625905,0
2096921,2096921,181281,625819,0
2096921,2096921,181354,625579,0
2096921,2096921,181335,625590,0
2096921,2096921,181165,625943,0
2096921,2096921,181193,625426,0
2096921,2096921,181141,625477,0
2096921,2096921,180907,625402,0
2096921,2096921,181038,625742,0
2096921,2096921,181223,625805,0
2096921,2096921,181150,626082,0
2096921,2096921,181317,625769,0
2096921,2096921,181176,626200,0
2096921,2096921,181398,626222,0
2096921,2096921,181209,626174,0
2096921,2096921,181315,625966,0
2096921,2096921,181383,625931,0
2096921,2096921,181301,626020,0
2096921,2096921,181393,626013,0
2096921,2096921,181266,625899,0
2096921,2096921,181466,626413,0
2096921,2096921,181359,626364,0
2096921,2096921,181422,626410,0
2096921,2096921,181462,626300,0
2096921,2096921,181622,626713,0
2096921,2096921,181327,626517,0
2096921,2096921,181419,626354,0
2096921,2096921,181337,626126,0
2096921,2096921,181480,626410,0
2096921,2096921,181566,626627,0
2096921,2096921,181573,626521,0
2096921,2096921,181378,626650,0
2096921,2096921,181645,626717,0
2096921,2096921,181643,626631,0
2096921,2096921,181620,626732,0
2096921,2096921,181688,626739,0
2096921,2096921,181676,626750,0
2096921,2096921,181404,626689,0
2096921,2096921,181504,626685,0
2096921,2096921,181417,627129,0
2096921,2096921,181500,626801,0
2096921,2096921,181905,626928,0
2096921,2096921,181742,626763,0
2096921,2096921,181918,626938,0
2096921,2096921,181991,626667,0
2096921,2096921,181681,626864,0
2096921,2096921,181602,627109,0
2096921,2096921,181661,626715,0
2096921,2096921,181709,626919,0
2096921,2096921,181916,626987,0
2096921,2096921,181865,627327,0
2096921,2096921,181850,627029,0
2096921,2096921,181674,627259,0
2096921,2096921,182020,627265,0
2096921,2096921,181606,627241,0
2096921,2096921,181833,627265,0
2096921,2096921,181729,627132,0
2096921,2096921,181781,627019,0
2096921,2096921,181871,627088,0
2096921,2096921,181801,627058,0
2096921,2096921,182014,627282,0
2096921,2096921,181967,627224,0
2096921,2096921,181728,627537,0
2096921,2096921,182040,627307,0
2096921,2096921,181666,627595,0
2096921,2096921,181857,627509,0
2096921,2096921,181930,627510,0
2096921,2096921,181944,627363,0
2096921,2096921,181982,627596,0
2096921,2096921,181705,627218,0
2096921,2096921,182084,627411,0
2096921,2096921,181879,627290,0
2096921,2096921,181831,627436,0
2096921,2096921,181858,627435,0
2096921,2096921,181904,627581,0
2096921,2096921,181889,627516,0
2096921,2096921,181892,627486,0
2096921,2096921,181877,627192,0
2096921,2096921,181831,627367,0
2096921,2096921,181752,627383,0
2096921,2096921,181759,627567,0
2096921,2096921,181848,627501,0
2096921,2096921,181844,627505,0
2096921,2096921,181923,627690,0
2096921,2096921,181896,627513,0
2096921,2096921,181639,627730,0
2096921,2096921,181757,627469,0
2096921,2096921,181600,627516,0
2096921,2096921,181907,627281,0
2096921,2096921,181665,627372,0
2096921,2096921,181933,627486,0
2096921,2096921,182212,627402,0
2096921,2096921,181917,627578,0
2096921,2096921,181837,627613,0
2096921,2096921,181942,627493,0
2096921,2096921,181586,627363,0
2096921,2096921,181773,627548,0
2096921,2096921,181621,627462,0
2096921,2096921,181836,627451,0
2096921,2096921,181707,627513,0
2096921,2096921,181941,627787,0
2096921,2096921,181991,628079,0
2096921,2096921,181932,628129,0
2096921,2096921,182331,627823,0
2096921,2096921,182045,627528,0
2096921,2096921,181862,627296,0
2096921,2096921,181845,627585,0
2096921,2096921,181908,627444,0
2096921,2096921,181853,627433,0
2096921,2096921,182063,627430,0
2096921,2096921,182079,627587,0
2096921,2096921,182256,627969,0
2096921,2096921,181876,628330,0
2096921,2096921,182069,627747,0
2096921,2096921,181777,627974,0
2096921,2096921,181928,627679,0
2096921,2096921,181872,627787,0
2096921,2096921,181995,627613,0
2096921,2096921,181979,627391,0
2096921,2096921,181620,627337,0
2096921,2096921,181667,627166,0
2096921,2096921,181741,627491,0
2096921,2096921,181813,627418,0
2096921,2096921,181589,627061,0
2096921,2096921,181532,627125,0
2096921,2096921,181400,627025,0
2096921,2096921,181630,626996,0
2096921,2096921,181591,626979,0
2096921,2096921,181332,626740,0
2096921,2096921,181470,626888,0
2096921,2096921,181298,626720,0
2096921,2096921,181187,626586,0
2096921,2096921,181382,626873,0
2096921,2096921,181205,626252,0
2096921,2096921,181024,626194,0
2096921,2096921,180855,626099,0
2096921,2096921,180959,626152,0
2096921,2096921,181018,626040,0
2096921,2096921,180772,625489,0
2096921,2096921,180509,625461,0
2096921,2096921,180629,625235,0
2096921,2096921,180764,625215,0
2096921,2096921,180615,625397,0
2096921,2096921,179835,624296,0
2096921,2096921,179761,623656,0
2096921,2096921,179570,623572,0
2096921,2096921,179682,623333,0
2096921,2096921,179585,623392,0
2096921,2096921,178913,621975,0
2096921,2096921,179084,621796,0
2096921,2096921,178894,621666,0
2096921,2096921,178604,621635,0
2096921,2096921,178862,621741,0
2096921,2096921,178498,620622,0
2096921,2096921,178084,620086,0
2096921,2096921,177964,619841,0
2096921,2096921,177929,620238,0
2096921,2096921,177987,620283,0
2096921,2096921,177254,619464,0
2096921,2096921,177385,618961,0
2096921,2096921,177599,618987,0
2096921,2096921,177792,618959,0
2096921,2096921,177277,619315,0
2096921,2096921,177074,618321,0
2096921,2096921,177092,618346,0
2096921,2096921,177190,617888,0
2096921,2096921,176818,618219,0
2096921,2096921,176727,618143,0
2096921,2096921,176618,617708,0
2096921,2096921,176679,617464,0
2096921,2096921,176498,617609,0
2096921,2096921,176685,617585,0
2096921,2096921,176626,617699,0
2096921,2096921,176469,617393,0
2096921,2096921,176350,617328,0
2096921,2096921,176475,617028,0
2096921,2096921,176351,616929,0
2096921,2096921,176484,617291,0
2096921,2096921,176581,616885,0
2096921,2096921,176269,617174,0
2096921,2096921,176009,617023,0
2096921,2096921,176430,616880,0
2096921,2096921,176516,616965,0
2096921,2096921,176361,617014,0
2096921,2096921,176533,616802,0
2096921,2096921,176499,616754,0
2096921,2096921,176349,616714,0
2096921,2096921,176053,616843,0
2096921,2096921,175897,616675,0
2096921,2096921,176316,616914,0
2096921,2096921,176314,617101,0
2096921,2096921,176233,616897,0
2096921,2096921,176564,617119,0
2096921,2096921,176312,617060,0
2096921,2096921,176574,617116,0
2096921,2096921,176516,617036,0
2096921,2096921,176514,617084,0
2096921,2096921,176440,617229,0
2096921,2096921,176332,617305,0
2096921,2096921,176359,617287,0
2096921,2096921,176624,617666,0
2096921,2096921,176785,617308,0
2096921,2096921,176468,617396,0
2096921,2096921,176341,617399,0
2096921,2096921,176403,617170,0
2096921,2096921,176497,617136,0
2096921,2096921,176557,617475,0
2096921,2096921,176523,617288,0
2096921,2096921,176529,617477,0
2096921,2096921,176744,617356,0
2096921,2096921,176644,617767,0
2096921,2096921,176606,617705,0
2096921,2096921,176659,617846,0
2096921,2096921,176777,617950,0
2096921,2096921,176959,617942,0
2096921,2096921,177190,617833,0
2096921,2096921,176822,617945,0
2096921,2096921,176894,617839,0
2096921,2096921,176832,618265,0
2096921,2096921,177117,618434,0
2096921,2096921,177070,618306,0
2096921,2096921,177212,618187,0
2096921,2096921,177213,618346,0
2096921,2096921,177337,618598,0
2096921,2096921,177428,618488,0
2096921,2096921,177059,618708,0
2096921,2096921,177340,618575,0
2096921,2096921,177194,618774,0
2096921,2096921,177290,619069,0
2096921,2096921,177440,618937,0
2096921,2096921,177306,619114,0
2096921,2096921,177575,618969,0
2096921,2096921,177540,619176,0
2096921,2096921,177877,619389,0
2096921,2096921,177509,619366,0
2096921,2096921,177656,619261,0
2096921,2096921,177558,619431,0
2096921,2096921,177530,619426,0
2096921,2096921,177846,619723,0
2096921,2096921,177822,619985,0
2096921,2096921,177580,619997,0
2096921,2096921,177847,620200,0
2096921,2096921,177971,619810,0
2096921,2096921,177952,619980,0
2096921,2096921,178107,619940,0
2096921,2096921,177751,619967,0
2096921,2096921,177962,619865,0
2096921,2096921,178033,620104,0
2096921,2096921,178005,620284,0
2096921,2096921,178548,620549,0
2096921,2096921,178374,620489,0
2096921,2096921,178454,620575,0
2096921,2096921,178451,620722,0
2096921,2096921,178432,620742,0
2096921,2096921,178585,620860,0
2096921,2096921,178578,620642,0
2096921,2096921,178530,620706,0
2096921,2096921,178359,620593,0
2096921,2096921,178498,620692,0
2096921,2096921,178840,621416,0
2096921,2096921,178803,621160,0
2096921,2096921,178586,621363,0
2096921,2096921,178747,621113,0
2096921,2096921,178877,621497,0
2096921,2096921,178708,621918,0
2096921,2096921,178672,621690,0
2096921,2096921,178568,621825,0
2096921,2096921,178564,621694,0
2096921,2096921,178736,621698,0
2096921,2096921,178587,621874,0
2096921,2096921,178974,621588,0
2096921,2096921,178764,621762,0
2096921,2096921,178936,621874,0
2096921,2096921,179071,621847,0
2096921,2096921,178610,622186,0
2096921,2096921,178881,621917,0
2096921,2096921,178897,621820,0
2096921,2096921,178795,622096,0
2096921,2096921,179364,622137,0
2096921,2096921,179333,622346,0
2096921,2096921,179214,622065,0
2096921,2096921,179122,622015,0
2096921,2096921,179148,622174,0
2096921,2096921,178968,622402,0
2096921,2096921,179230,622516,0
2096921,2096921,179106,622434,0
2096921,2096921,179078,622225,0
2096921,2096921,178667,622563,0
2096921,2096921,179261,622717,0
2096921,2096921,179293,622355,0
2096921,2096921,179300,622457,0
2096921,2096921,179381,622682,0
2096921,2096921,179277,622586,0
2096921,2096921,179227,622654,0
2096921,2096921,179088,622540,0
2096921,2096921,179139,622436,0
2096921,2096921,179335,622288,0
2096921,2096921,179364,622617,0
2096921,2096921,179238,622423,0
2096921,2096921,179131,622519,0
2096921,2096921,178823,622496,0
2096921,2096921,179299,622635,0
2096921,2096921,178888,622635,0
2096921,2096921,179238,622500,0
2096921,2096921,179095,622414,0
2096921,2096921,179339,622466,0
2096921,2096921,179063,622485,0
2096921,2096921,178922,622369,0
2096921,2096921,178927,622385,0
2096921,2096921,179201,622322,0
2096921,2096921,179023,622301,0
2096921,2096921,179349,622445,0
2096921,2096921,179498,622354,0
2096921,2096921,179284,622241,0
2096921,2096921,178795,622187,0
2096921,2096921,178697,622326,0
2096921,2096921,178886,622135,0
2096921,2096921,178999,622007,0
2096921,2096921,178983,622168,0
2096921,2096921,179095,622096,0
2096921,2096921,178887,622407,0
2096921,2096921,179176,622038,0
2096921,2096921,178955,622475,0
2096921,2096921,178858,622008,0
2096921,2096921,178923,622158,0
2096921,2096921,179058,621859,0
2096921,2096921,178665,621931,0
2096921,2096921,178738,622084,0
2096921,2096921,179032,621983,0
2096921,2096921,178839,621876,0
2096921,2096921,178854,622318,0
2096921,2096921,178606,622219,0
2096921,2096921,178802,622216,0
2096921,2096921,178869,622079,0
2096921,2096921,178996,621922,0
2096921,2096921,178783,622019,0
2096921,2096921,178932,621884,0
2096921,2096921,178915,621764,0
2096921,2096921,178824,621934,0
2096921,2096921,178922,622189,0
2096921,2096921,179095,621901,0
2096921,2096921,179220,621940,0
2096921,2096921,178820,621785,0
2096921,2096921,179058,621969,0
2096921,2096921,179167,622123,0
2096921,2096921,179096,622184,0
2096921,2096921,179309,622042,0
2096921,2096921,178922,622402,0
2096921,2096921,179023,622207,0
2096921,2096921,179148,622049,0
2096921,2096921,179076,622223,0
2096921,2096921,178851,622415,0
2096921,2096921,178876,622346,0
2096921,2096921,179154,622522,0
2096921,2096921,179229,622358,0
2096921,2096921,179173,622476,0
2096921,2096921,179529,622055,0
2096921,2096921,179047,622406,0
2096921,2096921,179485,622339,0
2096921,2096921,179287,622765,0
2096921,2096921,179422,622586,0
2096921,2096921,179442,622917,0
2096921,2096921,179337,622948,0
2096921,2096921,179244,623162,0
2096921,2096921,179458,623148,0
2096921,2096921,179594,623018,0
2096921,2096921,179343,622965,0
2096921,2096921,179549,622702,0
2096921,2096921,179659,623192,0
2096921,2096921,179396,623011,0
2096921,2096921,179383,623208,0
2096921,2096921,179657,623097,0
2096921,2096921,179473,623050,0
2096921,2096921,179549,623368,0
2096921,2096921,179661,623219,0
2096921,2096921,179575,623067,0
2096921,2096921,179580,623361,0
2096921,2096921,179706,623246,0
2096921,2096921,179672,623182,0
2096921,2096921,179883,623332,0
2096921,2096921,180001,623493,0
2096921,2096921,179658,623505,0
2096921,2096921,179593,623231,0
2096921,2096921,179661,623839,0
2096921,2096921,179818,623749,0
2096921,2096921,179734,623863,0
2096921,2096921,179826,623689,0
2096921,2096921,179583,623939,0
2096921,2096921,179747,623699,0
2096921,2096921,179777,623951,0
2096921,2096921,180030,623758,0
2096921,2096921,179960,623808,0
2096921,2096921,179955,623711,0
2096921,2096921,179983,623887,0
2096921,2096921,179867,624232,0
2096921,2096921,179929,624191,0
2096921,2096921,180182,623959,0
2096921,2096921,179951,624246,0
2096921,2096921,180015,624002,0
2096921,2096921,180498,624421,0
2096921,2096921,180301,624080,0
2096921,2096921,180309,624363,0
2096921,2096921,180012,624190,0
2096921,2096921,180268,624535,0
2096921,2096921,180019,624501,0
2096921,2096921,180028,624643,0
2096921,2096921,180238,624576,0
2096921,2096921,180286,624432,0
2096921,2096921,180347,624853,0
2096921,2096921,180275,624729,0
2096921,2096921,180232,624751,0
2096921,2096921,180271,624683,0
2096921,2096921,180175,624645,0
2096921,2096921,180758,624975,0
2096921,2096921,180250,624647,0
2096921,2096921,180166,625004,0
2096921,2096921,180475,625026,0
2096921,2096921,180497,624927,0
2096921,2096921,180345,625009,0
2096921,2096921,180630,624977,0
2096921,2096921,180618,624941,0
2096921,2096921,180447,624635,0
2096921,2096921,180284,625033,0
2096921,2096921,180408,625063,0
2096921,2096921,180625,625361,0
2096921,2096921,180519,624880,0
2096921,2096921,180294,624994,0
2096921,2096921,180569,625181,0
2096921,2096921,180647,625381,0
2096921,2096921,180657,625304,0
2096921,2096921,180666,625128,0
2096921,2096921,180779,625008,0
2096921,2096921,180922,625178,0
2096921,2096921,180731,625458,0
2096921,2096921,180755,625501,0
2096921,2096921,180726,625351,0
2096921,2096921,180610,625155,0
2096921,2096921,180621,625171,0
2096921,2096921,180713,625244,0
2096921,2096921,180969,625444,0
2096921,2096921,180842,625449,0
2096921,2096921,180859,625381,0
2096921,2096921,180960,625386,0
2096921,2096921,180982,625378,0
2096921,2096921,180843,625485,0
2096921,2096921,180620,625481,0
2096921,2096921,180766,625447,0
2096921,2096921,180686,625435,0
2096921,2096921,180734,625486,0
2096921,2096921,180859,625477,0
2096921,2096921,180817,625488,0
2096921,2096921,180881,625694,0
2096921,2096921,180950,625702,0
2096921,2096921,180773,625728,0
2096921,2096921,180909,625559,0
2096921,2096921,180877,625848,0
2096921,2096921,181072,625633,0
2096921,2096921,180875,625636,0
2096921,2096921,180834,625747,0
2096921,2096921,181026,625843,0
2096921,2096921,180737,626032,0
2096921,2096921,181034,625659,0
2096921,2096921,181058,625862,0
2096921,2096921,181124,625838,0
2096921,2096921,181060,625922,0
2096921,2096921,181350,625874,0
2096921,2096921,180936,625677,0
2096921,2096921,181061,625461,0
2096921,2096921,181137,625757,0
2096921,2096921,181069,625971,0
2096921,2096921,181131,626100,0
2096921,2096921,181223,626266,0
2096921,2096921,181304,626196,0
2096921,2096921,181379,625893,0
2096921,2096921,181360,626089,0
2096921,2096921,181082,625877,0
2096921,2096921,180991,626353,0
2096921,2096921,180892,626068,0
2096921,2096921,180950,626173,0
2096921,2096921,181204,626108,0
2096921,2096921,181388,626094,0
2096921,2096921,181243,626508,0
2096921,2096921,181040,626377,0
2096921,2096921,181153,626179,0
2096921,2096921,181290,626160,0
2096921,2096921,181126,626129,0
2096921,2096921,181436,626129,0
2096921,2096921,181706,626297,0
2096921,2096921,181342,626254,0
2096921,2096921,181440,626579,0
2096921,2096921,181037,626297,0
2096921,2096921,181075,626335,0
2096921,2096921,181321,626510,0
2096921,2096921,181308,626393,0
2096921,2096921,181344,626255,0
2096921,2096921,181053,626556,0
2096921,2096921,181277,626283,0
2096921,2096921,181177,626367,0
2096921,2096921,181194,626247,0
2096921,2096921,181521,626211,0
2096921,2096921,181320,626382,0
2096921,2096921,181003,626210,0
2096921,2096921,181161,626344,0
2096921,2096921,181188,626485,0
2096921,2096921,181201,625931,0
2096921,2096921,181692,626009,0
2096921,2096921,181665,626201,0
2096921,2096921,181349,626279,0
2096921,2096921,181478,626402,0
2096921,2096921,181616,626164,0
2096921,2096921,181527,626224,0
2096921,2096921,181275,626258,0
2096921,2096921,181437,626274,0
2096921,2096921,181311,626237,0
2096921,2096921,181310,626439,0
2096921,2096921,181278,626622,0
2096921,2096921,181211,626171,0
2096921,2096921,181291,626119,0
2096921,2096921,181216,626326,0
2096921,2096921,181348,626313,0
2096921,2096921,181377,626361,0
2096921,2096921,181416,626328,0
2096921,2096921,181601,626662,0
2096921,2096921,181364,626792,0
2096921,2096921,181351,626412,0
2096921,2096921,181560,626143,0
2096921,2096921,181398,626035,0
2096921,2096921,181479,626060,0
2096921,2096921,181464,626028,0
2096921,2096921,181553,626102,0
2096921,2096921,181493,626334,0
2096921,2096921,181494,626279,0
2096921,2096921,181673,626300,0
2096921,2096921,181564,626328,0
2096921,2096921,181453,626474,0
2096921,2096921,181310,626523,0
2096921,2096921,181451,626438,0
2096921,2096921,181486,626352,0
2096921,2096921,181740,626367,0
2096921,2096921,181430,626208,0
2096921,2096921,181591,626211,0
2096921,2096921,181464,626359,0
2096921,2096921,181704,626274,0
2096921,2096921,181513,626179,0
2096921,2096921,181525,626309,0
2096921,2096921,181391,626385,0
2096921,2096921,181165,626167,0
2096921,2096921,181048,626251,0
2096921,2096921,181596,626344,0
2096921,2096921,181417,626389,0
2096921,2096921,181482,626325,0
2096921,2096921,181575,626584,0
2096921,2096921,181310,626328,0
2096921,2096921,181347,626733,0
2096921,2096921,181347,626317,0
2096921,2096921,181410,626419,0
2096921,2096921,181604,626135,0
2096921,2096921,181564,626417,0
2096921,2096921,181497,626254,0
2096921,2096921,181476,626355,0
2096921,2096921,181707,626197,0
2096921,2096921,181463,626343,0
2096921,2096921,181385,626359,0
2096921,2096921,181483,626385,0
2096921,2096921,181651,626132,0
2096921,2096921,181347,626367,0
2096921,2096921,181268,626358,0
2096921,2096921,181444,626441,0
2096921,2096921,181636,626263,0
2096921,2096921,181437,626435,0
2096921,2096921,181642,626149,0
2096921,2096921,181601,626412,0
2096921,2096921,181340,626193,0
2096921,2096921,181641,626443,0
2096921,2096921,181446,626202,0
2096921,2096921,181570,626332,0
2096921,2096921,181293,626058,0
2096921,2096921,181520,626367,0
2096921,2096921,181588,626199,0
2096921,2096921,181621,625713,0
2096921,2096921,181515,626183,0
2096921,2096921,181533,625969,0
2096921,2096921,181631,626086,0
2096921,2096921,181415,626193,0
2096921,2096921,181358,626288,0
2096921,2096921,181459,626038,0
2096921,2096921,181386,626238,0
2096921,2096921,181394,626186,0
2096921,2096921,181477,626033,0
2096921,2096921,181442,625895,0
2096921,2096921,181569,626027,0
2096921,2096921,181531,626319,0
2096921,2096921,181556,625927,0
2096921,2096921,181314,626147,0
2096921,2096921,181342,626004,0
2096921,2096921,181483,625896,0
2096921,2096921,181343,625496,0
2096921,2096921,181144,625843,0
2096921,2096921,181338,625872,0
2096921,2096921,181263,625839,0
2096921,2096921,181495,625674,0
2096921,2096921,181491,625723,0
2096921,2096921,181643,625937,0
2096921,2096921,181473,625601,0
2096921,2096921,181535,625966,0
2096921,2096921,181082,625940,0
2096921,2096921,181266,625698,0
2096921,2096921,181229,625816,0
2096921,2096921,181447,625528,0
2096921,2096921,181223,625892,0
2096921,2096921,181248,625587,0
2096921,2096921,181364,625719,0
2096921,2096921,181522,625661,0
2096921,2096921,181084,625623,0
2096921,2096921,181248,625598,0
2096921,2096921,181191,625548,0
2096921,2096921,181123,625259,0
2096921,2096921,181465,625299,0
2096921,2096921,181281,625291,0
2096921,2096921,180999,625335,0
2096921,2096921,181154,625014,0
2096921,2096921,180988,625284,0
2096921,2096921,181169,625307,0
2096921,2096921,180930,625028,0
2096921,2096921,181077,624969,0
2096921,2096921,180826,624646,0
2096921,2096921,180755,624561,0
2096921,2096921,180852,624574,0
2096921,2096921,180577,624462,0
2096921,2096921,180612,624161,0
2096921,2096921,180610,624040,0
2096921,2096921,180668,624304,0
2096921,2096921,180525,624134,0
2096921,2096921,180327,623615,0
2096921,2096921,180118,623441,0
2096921,2096921,180180,623369,0
2096921,2096921,180186,623474,0
2096921,2096921,180359,623609,0
2096921,2096921,179927,622850,0
2096921,2096921,179742,622698,0
2096921,2096921,179997,622666,0
2096921,2096921,180067,622514,0
2096921,2096921,180056,622593,0
2096921,2096921,179266,621194,0
2096921,2096921,179115,620611,0
2096921,2096921,178821,620870,0
2096921,2096921,178841,620753,0
2096921,2096921,178743,620533,0
2096921,2096921,178049,619260,0
2096921,2096921,177997,618852,0
2096921,2096921,177965,618840,0
2096921,2096921,177934,618658,0
2096921,2096921,177686,618828,0
2096921,2096921,177439,617468,0
2096921,2096921,176882,617153,0
2096921,2096921,177061,616889,0
2096921,2096921,177115,617190,0
2096921,2096921,176946,617476,0
2096921,2096921,176619,616359,0
2096921,2096921,176358,616294,0
2096921,2096921,176593,615952,0
2096921,2096921,176482,615975,0
2096921,2096921,176418,616047,0
2096921,2096921,176192,615259,0
2096921,2096921,176041,614983,0
2096921,2096921,175926,615000,0
2096921,2096921,176034,614837,0
2096921,2096921,175919,615023,0
2096921,2096921,175703,614416,0
2096921,2096921,175748,614362,0
2096921,2096921,175915,614660,0
2096921,2096921,175501,614640,0
2096921,2096921,175785,614623,0
2096921,2096921,175533,613887,0
2096921,2096921,175335,614014,0
2096921,2096921,175315,613858,0
2096921,2096921,175667,613745,0
2096921,2096921,175588,613906,0
2096921,2096921,175409,613596,0
2096921,2096921,175271,613625,0
2096921,2096921,175408,613760,0
2096921,2096921,175443,613556,0
2096921,2096921,175066,613268,0
2096921,2096921,175029,613325,0
2096921,2096921,175185,613437,0
2096921,2096921,175438,613552,0
2096921,2096921,175250,613529,0
2096921,2096921,175250,613319,0
2096921,2096921,175171,613401,0
2096921,2096921,175304,613065,0
2096921,2096921,175372,613508,0
2096921,2096921,175073,613376,0
2096921,2096921,175298,613228,0
2096921,2096921,175527,613285,0
2096921,2096921,175297,613672,0
2096921,2096921,174953,613273,0
2096921,2096921,175153,613357,0
2096921,2096921,175216,613152,0
2096921,2096921,175343,613169,0
2096921,2096921,175216,613070,0
2096921,2096921,175245,613243,0
2096921,2096921,174902,613465,0
2096921,2096921,175308,613470,0
2096921,2096921,175250,613643,0
2096921,2096921,175529,613731,0
2096921,2096921,175166,613373,0
2096921,2096921,175360,613463,0
2096921,2096921,175033,613483,0
2096921,2096921,175558,613541,0
2096921,2096921,175526,613615,0
2096921,2096921,175518,613627,0
2096921,2096921,175429,613801,0
2096921,2096921,175379,613694,0
2096921,2096921,175529,613945,0
2096921,2096921,175597,613683,0
2096921,2096921,175656,613646,0
2096921,2096921,175607,613763,0
2096921,2096921,175619,613589,0
2096921,2096921,175853,614098,0
2096921,2096921,175825,614296,0
2096921,2096921,175670,614354,0
2096921,2096921,175807,614218,0
2096921,2096921,175869,614277,0
2096921,2096921,176043,614482,0
2096921,2096921,176076,614554,0
2096921,2096921,176003,614458,0
2096921,2096921,175868,614390,0
2096921,2096921,175955,614456,0
2096921,2096921,175852,614567,0
2096921,2096921,176093,614667,0
2096921,2096921,176175,614714,0
2096921,2096921,176371,614810,0
2096921,2096921,176260,614793,0
2096921,2096921,176446,615029,0
2096921,2096921,176376,615062,0
2096921,2096921,176403,614959,0
2096921,2096921,176451,614819,0
2096921,2096921,176248,614802,0
2096921,2096921,176239,615113,0
2096921,2096921,176505,615315,0
2096921,2096921,176310,615247,0
2096921,2096921,176603,615190,0
2096921,2096921,176576,615796,0
2096921,2096921,176501,615654,0
2096921,2096921,176451,615453,0
2096921,2096921,176446,615550,0
2096921,2096921,176501,615432,0
2096921,2096921,176455,615292,0
2096921,2096921,176724,615806,0
2096921,2096921,176750,615467,0
2096921,2096921,176807,615805,0
2096921,2096921,176709,615734,0
2096921,2096921,176627,616075,0
2096921,2096921,177076,615974,0
2096921,2096921,176730,616079,0
2096921,2096921,176882,616090,0
2096921,2096921,177034,616369,0
2096921,2096921,176675,616186,0
2096921,2096921,177094,616206,0
2096921,2096921,176972,616473,0
2096921,2096921,177001,616519,0
2096921,2096921,177276,616526,0
2096921,2096921,177110,616559,0
2096921,2096921,177446,616597,0
2096921,2096921,177177,616843,0
2096921,2096921,177391,616686,0
2096921,2096921,177354,616741,0
2096921,2096921,177292,616788,0
2096921,2096921,177198,616945,0
2096921,2096921,177321,617029,0
2096921,2096921,177650,617103,0
2096921,2096921,177573,616887,0
2096921,2096921,177260,616732,0
2096921,2096921,177557,616892,0
2096921,2096921,177557,616885,0
2096921,2096921,177586,617223,0
2096921,2096921,177782,617296,0
2096921,2096921,177522,617181,0
2096921,2096921,177379,617339,0
2096921,2096921,177747,617313,0
2096921,2096921,177645,617125,0
2096921,2096921,177564,617104,0
2096921,2096921,177710,617332,0
2096921,2096921,177675,617296,0
2096921,2096921,177569,617482,0
2096921,2096921,177894,617493,0
2096921,2096921,177679,617389,0
2096921,2096921,177385,617389,0
2096921,2096921,177650,617724,0
2096921,2096921,177703,617423,0
2096921,2096921,177702,617504,0
2096921,2096921,177792,617334,0
2096921,2096921,177698,617497,0
2096921,2096921,177980,617581,0
2096921,2096921,177627,617340,0
2096921,2096921,177445,617311,0
2096921,2096921,177482,617492,0
2096921,2096921,177599,617224,0
2096921,2096921,177204,617452,0
2096921,2096921,177473,617187,0
2096921,2096921,177826,617382,0
2096921,2096921,177882,617325,0
2096921,2096921,177924,617513,0
2096921,2096921,177592,617480,0
2096921,2096921,177629,617036,0
2096921,2096921,177400,617353,0
2096921,2096921,177564,617190,0
2096921,2096921,177434,617046,0
2096921,2096921,177348,617257,0
2096921,2096921,177544,617179,0
2096921,2096921,177552,617027,0
2096921,2096921,177729,616997,0
2096921,2096921,177610,616886,0
2096921,2096921,177446,616602,0
2096921,2096921,177438,616709,0
2096921,2096921,177167,616807,0
2096921,2096921,177281,616733,0
2096921,2096921,177475,616844,0
2096921,2096921,177471,616722,0
2096921,2096921,177566,616695,0
2096921,2096921,177422,616563,0
2096921,2096921,177353,616595,0
2096921,2096921,177515,616540,0
2096921,2096921,177420,616512,0
2096921,2096921,177206,616498,0
2096921,2096921,177258,616492,0
2096921,2096921,177198,616340,0
2096921,2096921,177015,616284,0
2096921,2096921,176855,616424,0
2096921,2096921,176976,616379,0
2096921,2096921,177020,616471,0
2096921,2096921,177368,616366,0
2096921,2096921,177185,616607,0
2096921,2096921,177689,616226,0
2096921,2096921,177123,616548,0
2096921,2096921,177231,616336,0
2096921,2096921,177136,616089,0
2096921,2096921,177269,616140,0
2096921,2096921,177021,616411,0
2096921,2096921,177195,616447,0
2096921,2096921,177300,616357,0
2096921,2096921,177242,616243,0
2096921,2096921,177233,616366,0
2096921,2096921,177436,616077,0
2096921,2096921,177257,616428,0
2096921,2096921,177357,616281,0
2096921,2096921,177325,616396,0
2096921,2096921,177395,616320,0
2096921,2096921,177400,616380,0
2096921,2096921,177330,616494,0
2096921,2096921,177405,616629,0
2096921,2096921,177267,616798,0
2096921,2096921,177324,616669,0
2096921,2096921,177409,616612,0
2096921,2096921,177514,616940,0
2096921,2096921,177467,616397,0
2096921,2096921,177563,616629,0
2096921,2096921,177496,616576,0
2096921,2096921,177476,617161,0
2096921,2096921,177630,616686,0
2096921,2096921,177651,616777,0
2096921,2096921,177654,616656,0
2096921,2096921,177725,616780,0
2096921,2096921,177834,617185,0
2096921,2096921,177838,617231,0
2096921,2096921,177600,617126,0
2096921,2096921,177434,616744,0
2096921,2096921,177643,616917,0
2096921,2096921,177668,617356,0
2096921,2096921,177626,617366,0
2096921,2096921,177844,617096,0
2096921,2096921,177953,617471,0
2096921,2096921,177706,617356,0
2096921,2096921,177852,617448,0
2096921,2096921,177793,617394,0
2096921,2096921,177984,617583,0
2096921,2096921,177795,617078,0
2096921,2096921,177887,617229,0
2096921,2096921,177718,617782,0
2096921,2096921,178173,617485,0
2096921,2096921,177849,617363,0
2096921,2096921,177855,617552,0
2096921,2096921,177882,617612,0
2096921,2096921,178159,617521,0
2096921,2096921,177914,617598,0
2096921,2096921,178178,617539,0
2096921,2096921,177768,617764,0
2096921,2096921,177969,617643,0
2096921,2096921,178143,618040,0
2096921,2096921,178303,617756,0
2096921,2096921,178367,618159,0
2096921,2096921,178223,617977,0
2096921,2096921,178159,617970,0
2096921,2096921,177788,618093,0
2096921,2096921,177962,618208,0
2096921,2096921,177961,617963,0
2096921,2096921,178128,618181,0
2096921,2096921,177973,617945,0
2096921,2096921,178201,618119,0
2096921,2096921,178315,618106,0
2096921,2096921,178601,618308,0
2096921,2096921,178512,618505,0
2096921,2096921,178368,618672,0
2096921,2096921,178414,618279,0
2096921,2096921,178296,618524,0
2096921,2096921,178427,618577,0
2096921,2096921,178508,618486,0
2096921,2096921,178323,618472,0
2096921,2096921,178547,618474,0
2096921,2096921,178521,618711,0
2096921,2096921,178724,618703,0
2096921,2096921,178581,618399,0
2096921,2096921,178409,618402,0
2096921,2096921,178517,618673,0
2096921,2096921,178606,618877,0
2096921,2096921,178644,618963,0
2096921,2096921,178690,618910,0
2096921,2096921,178746,618918,0
2096921,2096921,178678,619064,0
2096921,2096921,178724,618949,0
2096921,2096921,178860,619003,0
2096921,2096921,178772,618968,0
2096921,2096921,178736,619065,0
2096921,2096921,178759,619139,0
2096921,2096921,178382,618940,0
2096921,2096921,178729,618912,0
2096921,2096921,178991,619054,0
2096921,2096921,178892,618961,0
2096921,2096921,178717,619161,0
2096921,2096921,178906,619155,0
2096921,2096921,178985,619268,0
2096921,2096921,178887,619309,0
2096921,2096921,179079,619617,0
2096921,2096921,178998,619311,0
2096921,2096921,178806,619329,0
2096921,2096921,179143,619578,0
2096921,2096921,178784,619475,0
2096921,2096921,178977,619695,0
2096921,2096921,179019,619662,0
2096921,2096921,179256,619587,0
2096921,2096921,179290,619476,0
2096921,2096921,179217,619637,0
2096921,2096921,179004,619935,0
2096921,2096921,179273,619881,0
2096921,2096921,179180,619842,0
2096921,2096921,179112,619551,0
2096921,2096921,178974,619683,0
2096921,2096921,179283,619959,0
2096921,2096921,179403,620093,0
2096921,2096921,179349,619960,0
2096921,2096921,179204,619910,0
2096921,2096921,179169,619761,0
2096921,2096921,179352,619959,0
2096921,2096921,179380,619877,0
2096921,2096921,179181,620262,0
2096921,2096921,179180,619819,0
2096921,2096921,178993,620096,0
2096921,2096921,179194,620055,0
2096921,2096921,179427,620145,0
2096921,2096921,179532,620112,0
2096921,2096921,179486,620144,0
2096921,2096921,179335,620175,0
2096921,2096921,179210,619989,0
2096921,2096921,179380,620267,0
2096921,2096921,179438,620303,0
2096921,2096921,179390,620422,0
2096921,2096921,179328,620308,0
2096921,2096921,179304,620281,0
2096921,2096921,179534,620387,0
2096921,2096921,179492,620362,0
2096921,2096921,179464,620515,0
2096921,2096921,179644,620266,0
2096921,2096921,179666,620301,0
2096921,2096921,179324,620602,0
2096921,2096921,179444,620597,0
2096921,2096921,179539,620871,0
2096921,2096921,179436,620364,0
2096921,2096921,179264,620532,0
2096921,2096921,179512,620492,0
2096921,2096921,179414,620703,0
2096921,2096921,179609,620560,0
2096921,2096921,179740,620825,0
2096921,2096921,179499,620778,0
2096921,2096921,179638,620758,0
2096921,2096921,179781,620444,0
2096921,2096921,179572,620417,0
2096921,2096921,179241,620669,0
2096921,2096921,179346,620779,0
2096921,2096921,179623,620723,0
2096921,2096921,179467,621045,0
2096921,2096921,179723,621093,0
2096921,2096921,179787,621214,0
2096921,2096921,179670,620868,0
2096921,2096921,179856,621207,0
2096921,2096921,179508,621032,0
2096921,2096921,179695,620759,0
2096921,2096921,179625,620432,0
2096921,2096921,179610,620843,0
2096921,2096921,179732,621382,0
2096921,2096921,179616,621269,0
2096921,2096921,179713,621062,0
2096921,2096921,179809,621138,0
2096921,2096921,179702,621189,0
2096921,2096921,179631,621267,0
2096921,2096921,179874,621232,0
2096921,2096921,179798,621049,0
2096921,2096921,179666,621209,0
2096921,2096921,179962,621088,0
2096921,2096921,179621,620762,0
2096921,2096921,179812,621204,0
2096921,2096921,179877,621174,0
2096921,2096921,179763,621206,0
2096921,2096921,179842,620758,0
2096921,2096921,179813,620951,0
2096921,2096921,179716,621230,0
2096921,2096921,179690,621327,0
2096921,2096921,179922,620963,0
2096921,2096921,179676,621175,0
2096921,2096921,179698,621281,0
2096921,2096921,179955,621305,0
2096921,2096921,180068,621170,0
2096921,2096921,180067,621434,0
2096921,2096921,180130,621430,0
2096921,2096921,179894,621419,0
2096921,2096921,179876,621408,0
2096921,2096921,179898,621504,0
2096921,2096921,179966,621518,0
2096921,2096921,180024,621291,0
2096921,2096921,179943,621313,0
2096921,2096921,180075,621507,0
2096921,2096921,180164,621355,0
2096921,2096921,180135,621372,0
2096921,2096921,180043,621258,0
2096921,2096921,180251,621648,0
2096921,2096921,179914,621230,0
2096921,2096921,179697,621412,0
2096921,2096921,179713,621459,0
2096921,2096921,180180,621616,0
2096921,2096921,179989,621409,0
2096921,2096921,180387,621630,0
2096921,2096921,180107,621600,0
2096921,2096921,180317,621569,0
2096921,2096921,180149,621662,0
2096921,2096921,180162,621532,0
2096921,2096921,180046,621536,0
2096921,2096921,179996,621549,0
2096921,2096921,180068,621670,0
2096921,2096921,180372,621519,0
2096921,2096921,179916,621793,0
2096921,2096921,180021,621699,0
2096921,2096921,180195,621811,0
2096921,2096921,180057,622022,0
2096921,2096921,180524,621716,0
2096921,2096921,180215,622108,0
2096921,2096921,180154,621611,0
2096921,2096921,180297,621877,0
2096921,2096921,180084,621600,0
2096921,2096921,180014,621932,0
2096921,2096921,180064,621905,0
2096921,2096921,180168,621812,0
2096921,2096921,180466,621820,0
2096921,2096921,180206,621792,0
2096921,2096921,180007,621796,0
2096921,2096921,179836,621943,0
2096921,2096921,180343,621754,0
2096921,2096921,180045,621871,0
2096921,2096921,180172,621760,0
2096921,2096921,179902,621867,0
2096921,2096921,180072,621909,0
2096921,2096921,179970,621950,0
2096921,2096921,179936,621815,0
2096921,2096921,179922,621888,0
2096921,2096921,180007,622030,0
2096921,2096921,180221,621964,0
2096921,2096921,180216,621898,0
2096921,2096921,179978,621823,0
2096921,2096921,179982,621656,0
2096921,2096921,180188,621876,0
2096921,2096921,180211,621640,0
2096921,2096921,180050,621652,0
2096921,2096921,180083,621660,0
2096921,2096921,180117,621936,0
2096921,2096921,180104,621802,0
2096921,2096921,180307,621870,0
2096921,2096921,180279,621763,0
2096921,2096921,179979,621871,0
2096921,2096921,180131,621925,0
2096921,2096921,180339,621785,0
2096921,2096921,180201,621644,0
2096921,2096921,180038,621735,0
2096921,2096921,180297,621698,0
2096921,2096921,180278,621646,0
2096921,2096921,180250,621703,0
2096921,2096921,180147,621753,0
2096921,2096921,180372,621734,0
2096921,2096921,180112,621728,0
2096921,2096921,179958,621439,0
2096921,2096921,180009,621723,0
2096921,2096921,180091,621677,0
2096921,2096921,180245,621539,0
2096921,2096921,180130,621611,0
2096921,2096921,180097,621616,0
2096921,2096921,180476,621831,0
2096921,2096921,180322,621998,0
2096921,2096921,180138,621945,0
2096921,2096921,180324,621730,0
2096921,2096921,180218,621676,0
2096921,2096921,180128,621700,0
2096921,2096921,180223,621684,0
2096921,2096921,180198,621712,0
2096921,2096921,180236,621970,0
2096921,2096921,180188,621677,0
2096921,2096921,180521,621768,0
2096921,2096921,180542,621843,0
2096921,2096921,180401,621724,0
2096921,2096921,180265,621592,0
2096921,2096921,180308,621643,0
2096921,2096921,180142,621417,0
2096921,2096921,180165,621469,0
2096921,2096921,180033,621269,0
2096921,2096921,180410,621097,0
2096921,2096921,180168,621456,0
2096921,2096921,180231,621445,0
2096921,2096921,179848,621270,0
2096921,2096921,180051,621157,0
2096921,2096921,179597,621209,0
2096921,2096921,179542,620829,0
2096921,2096921,179664,621134,0
2096921,2096921,179606,620703,0
2096921,2096921,179688,620691,0
2096921,2096921,179544,620669,0
2096921,2096921,179533,620778,0
2096921,2096921,179542,620641,0
2096921,2096921,179292,620285,0
2096921,2096921,179283,620150,0
2096921,2096921,179112,619971,0
2096921,2096921,178945,619751,0
2096921,2096921,178941,620023,0
2096921,2096921,178952,619373,0
2096921,2096921,178734,619303,0
2096921,2096921,179043,619074,0
2096921,2096921,178969,619369,0
2096921,2096921,178906,619340,0
2096921,2096921,178007,617966,0
2096921,2096921,178121,617842,0
2096921,2096921,178159,617599,0
2096921,2096921,178030,617462,0
2096921,2096921,177974,617481,0
2096921,2096921,177247,615824,0
2096921,2096921,176930,615652,0
2096921,2096921,176999,615845,0
2096921,2096921,177265,615783,0
2096921,2096921,176739,615736,0
2096921,2096921,176241,614489,0
2096921,2096921,176263,614093,0
2096921,2096921,176157,614011,0
2096921,2096921,175954,614432,0
2096921,2096921,175963,614165,0
2096921,2096921,175806,613285,0
2096921,2096921,175746,613055,0
2096921,2096921,175434,613471,0
2096921,2096921,175495,613373,0
2096921,2096921,175253,613130,0
2096921,2096921,174868,612587,0
2096921,2096921,175058,612448,0
2096921,2096921,175007,612121,0
2096921,2096921,175304,612115,0
2096921,2096921,175215,612262,0
2096921,2096921,175149,611714,0
2096921,2096921,174688,611709,0
2096921,2096921,174983,611804,0
2096921,2096921,174886,611647,0
2096921,2096921,175038,611795,0
