2096921,2096921, 308553, 392005
2096921,2096921, 308423, 392074
2096921,2096921, 308731, 392024
2096921,2096921, 308701, 391720
2096921,2096921, 308749, 392184
2096921,2096921, 308539, 392213
2096921,2096921, 308931, 392324
2096921,2096921, 308953, 392451
2096921,2096921, 308748, 392309
2096921,2096921, 308643, 392292
2096921,2096921, 308894, 392188
2096921,2096921, 308826, 392378
2096921,2096921, 308887, 392346
2096921,2096921, 308905, 392198
2096921,2096921, 308979, 392208
2096921,2096921, 309143, 392236
2096921,2096921, 308845, 392387
2096921,2096921, 309119, 392340
2096921,2096921, 309408, 392332
2096921,2096921, 308923, 392274
2096921,2096921, 309181, 392399
2096921,2096921, 309127, 392486
2096921,2096921, 309061, 392405
2096921,2096921, 308827, 392254
2096921,2096921, 308834, 392429
2096921,2096921, 309061, 392243
2096921,2096921, 309008, 392558
2096921,2096921, 309185, 392662
2096921,2096921, 309201, 392489
2096921,2096921, 308814, 392309
2096921,2096921, 308978, 392670
2096921,2096921, 308934, 392585
2096921,2096921, 308969, 392801
2096921,2096921, 309121, 392795
2096921,2096921, 309310, 392825
2096921,2096921, 309317, 392722
2096921,2096921, 309237, 392494
2096921,2096921, 309479, 392172
2096921,2096921, 309628, 392455
2096921,2096921, 309371, 392578
2096921,2096921, 309051, 392724
2096921,2096921, 309092, 392704
2096921,2096921, 309161, 392678
2096921,2096921, 309200, 392706
2096921,2096921, 309352, 392912
2096921,2096921, 309502, 392783
2096921,2096921, 309344, 392785
2096921,2096921, 309416, 392737
2096921,2096921, 309335, 392736
2096921,2096921, 309264, 392876
2096921,2096921, 309513, 392994
2096921,2096921, 309414, 392801
2096921,2096921, 309507, 393093
2096921,2096921, 309602, 392688
2096921,2096921, 309332, 392862
2096921,2096921, 309451, 392737
2096921,2096921, 309633, 393205
2096921,2096921, 309730, 393231
2096921,2096921, 309997, 393206
2096921,2096921, 309624, 393192
2096921,2096921, 309684, 393022
2096921,2096921, 309784, 393183
2096921,2096921, 309752, 393171
2096921,2096921, 309795, 393137
2096921,2096921, 309656, 393314
2096921,2096921, 309679, 392833
2096921,2096921, 309526, 393229
2096921,2096921, 309595, 393092
2096921,2096921, 309572, 393181
2096921,2096921, 309650, 393268
2096921,2096921, 309706, 392739
2096921,2096921, 309849, 393172
2096921,2096921, 309705, 392938
2096921,2096921, 309639, 393037
2096921,2096921, 309860, 393010
2096921,2096921, 309706, 393305
2096921,2096921, 309748, 393288
2096921,2096921, 309790, 393263
2096921,2096921, 309876, 393144
2096921,2096921, 309778, 393227
2096921,2096921, 309847, 393307
2096921,2096921, 309994, 393217
2096921,2096921, 310046, 393472
2096921,2096921, 309736, 393521
2096921,2096921, 309806, 393287
2096921,2096921, 309825, 393463
2096921,2096921, 310089, 393524
2096921,2096921, 309969, 393551
2096921,2096921, 309744, 393294
2096921,2096921, 309855, 393350
2096921,2096921, 310045, 393423
2096921,2096921, 310247, 393329
2096921,2096921, 309860, 393388
2096921,2096921, 310021, 393342
2096921,2096921, 309708, 393366
2096921,2096921, 309887, 393449
2096921,2096921, 309849, 393602
2096921,2096921, 310232, 393462
2096921,2096921, 310304, 393332
2096921,2096921, 309874, 393468
2096921,2096921, 309907, 393236
2096921,2096921, 309586, 393417
2096921,2096921, 309674, 393381
2096921,2096921, 309983, 393573
2096921,2096921, 310015, 393410
2096921,2096921, 309689, 393247
2096921,2096921, 309629, 393352
2096921,2096921, 309876, 393280
2096921,2096921, 310052, 393207
2096921,2096921, 310036, 393258
2096921,2096921, 310224, 393223
2096921,2096921, 309992, 393230
2096921,2096921, 309851, 393461
2096921,2096921, 309805, 393474
2096921,2096921, 309652, 393182
2096921,2096921, 309863, 393220
2096921,2096921, 309945, 393438
2096921,2096921, 309966, 393496
2096921,2096921, 310042, 393580
2096921,2096921, 310069, 393262
2096921,2096921, 309605, 393046
2096921,2096921, 309765, 392961
2096921,2096921, 309611, 393029
2096921,2096921, 309989, 393308
2096921,2096921, 309814, 393438
2096921,2096921, 310196, 393184
2096921,2096921, 309884, 393294
2096921,2096921, 309909, 393015
2096921,2096921, 309643, 393261
2096921,2096921, 309757, 393411
2096921,2096921, 309678, 393098
2096921,2096921, 309778, 393463
2096921,2096921, 309572, 393180
2096921,2096921, 309850, 393230
2096921,2096921, 309716, 393029
2096921,2096921, 309872, 392896
2096921,2096921, 309604, 392865
2096921,2096921, 309349, 392859
2096921,2096921, 309590, 392953
2096921,2096921, 309446, 392932
2096921,2096921, 309183, 392542
2096921,2096921, 309087, 392542
2096921,2096921, 309054, 392308
2096921,2096921, 309145, 392376
2096921,2096921, 309067, 392449
2096921,2096921, 308747, 392157
2096921,2096921, 308653, 392170
2096921,2096921, 308643, 392104
2096921,2096921, 308564, 391786
2096921,2096921, 308249, 391872
2096921,2096921, 307677, 391187
2096921,2096921, 307903, 391331
2096921,2096921, 307903, 391198
2096921,2096921, 307986, 391058
2096921,2096921, 307283, 391246
2096921,2096921, 306856, 390615
2096921,2096921, 306855, 390416
2096921,2096921, 306981, 390496
2096921,2096921, 307079, 390231
2096921,2096921, 306284, 390437
2096921,2096921, 305254, 388717
2096921,2096921, 305000, 388334
2096921,2096921, 304792, 388553
2096921,2096921, 304915, 388689
2096921,2096921, 304136, 388543
2096921,2096921, 302900, 386900
2096921,2096921, 302846, 386166
2096921,2096921, 302766, 386177
2096921,2096921, 302664, 386273
2096921,2096921, 302283, 386210
2096921,2096921, 301571, 384800
2096921,2096921, 301064, 384548
2096921,2096921, 300870, 384374
2096921,2096921, 301031, 384447
2096921,2096921, 300434, 384481
2096921,2096921, 299632, 383542
2096921,2096921, 299323, 383284
2096921,2096921, 299276, 382948
2096921,2096921, 299611, 383050
2096921,2096921, 299370, 383335
2096921,2096921, 298736, 382624
2096921,2096921, 298655, 382158
2096921,2096921, 298642, 382221
2096921,2096921, 298531, 382042
2096921,2096921, 298380, 381884
2096921,2096921, 297867, 381613
2096921,2096921, 297799, 381552
2096921,2096921, 298104, 381532
2096921,2096921, 297794, 381539
2096921,2096921, 297740, 381552
2096921,2096921, 297485, 380995
2096921,2096921, 297477, 381297
2096921,2096921, 297556, 380904
2096921,2096921, 297428, 380819
2096921,2096921, 297406, 380740
2096921,2096921, 297453, 380895
2096921,2096921, 297412, 380701
2096921,2096921, 297328, 380628
2096921,2096921, 297106, 380489
2096921,2096921, 296974, 380773
2096921,2096921, 296836, 380383
2096921,2096921, 297189, 380598
2096921,2096921, 297287, 380564
2096921,2096921, 297056, 380477
2096921,2096921, 297033, 380188
2096921,2096921, 297019, 380329
2096921,2096921, 297058, 380461
2096921,2096921, 297251, 380497
2096921,2096921, 297237, 380459
2096921,2096921, 297043, 380777
2096921,2096921, 297288, 380715
2096921,2096921, 297123, 380886
2096921,2096921, 297507, 380487
2096921,2096921, 297550, 381125
2096921,2096921, 297679, 381030
2096921,2096921, 297359, 380876
2096921,2096921, 297248, 381009
2096921,2096921, 297494, 380930
2096921,2096921, 297480, 380835
2096921,2096921, 297437, 381041
2096921,2096921, 297542, 381164
2096921,2096921, 297505, 381145
2096921,2096921, 297796, 381223
2096921,2096921, 297530, 380808
2096921,2096921, 297742, 381052
2096921,2096921, 297870, 381373
2096921,2096921, 298167, 381429
2096921,2096921, 297858, 381507
2096921,2096921, 297925, 381437
2096921,2096921, 297619, 381608
2096921,2096921, 298177, 381876
2096921,2096921, 298259, 381610
2096921,2096921, 298170, 382027
2096921,2096921, 298286, 381845
2096921,2096921, 298402, 381403
2096921,2096921, 298900, 381835
2096921,2096921, 298835, 382349
2096921,2096921, 298913, 382109
2096921,2096921, 298806, 382261
2096921,2096921, 298748, 381951
2096921,2096921, 299005, 382217
2096921,2096921, 299244, 382488
2096921,2096921, 299453, 382464
2096921,2096921, 299236, 382498
2096921,2096921, 299223, 382515
2096921,2096921, 299226, 382694
2096921,2096921, 299760, 382961
2096921,2096921, 299639, 382714
2096921,2096921, 299907, 382907
2096921,2096921, 299651, 382968
2096921,2096921, 299921, 383210
2096921,2096921, 299876, 383317
2096921,2096921, 299784, 383176
2096921,2096921, 299869, 383281
2096921,2096921, 299941, 383390
2096921,2096921, 300310, 383525
2096921,2096921, 300233, 383692
2096921,2096921, 300212, 383591
2096921,2096921, 300385, 383790
2096921,2096921, 300282, 383909
2096921,2096921, 300679, 384203
2096921,2096921, 300732, 384214
2096921,2096921, 300518, 384031
2096921,2096921, 300178, 384291
2096921,2096921, 300697, 384449
2096921,2096921, 301008, 384812
2096921,2096921, 301168, 384662
2096921,2096921, 301264, 384574
2096921,2096921, 301087, 384615
2096921,2096921, 300984, 384471
2096921,2096921, 301359, 384954
2096921,2096921, 301639, 384984
2096921,2096921, 301413, 385231
2096921,2096921, 301296, 384953
2096921,2096921, 301665, 385090
2096921,2096921, 302008, 385250
2096921,2096921, 301679, 385326
2096921,2096921, 301955, 385340
2096921,2096921, 301968, 385262
2096921,2096921, 301935, 385191
2096921,2096921, 302115, 385701
2096921,2096921, 302574, 385812
2096921,2096921, 302396, 386007
2096921,2096921, 302471, 385812
2096921,2096921, 302641, 386231
2096921,2096921, 302410, 385862
2096921,2096921, 302293, 386122
2096921,2096921, 302645, 386286
2096921,2096921, 302791, 386059
2096921,2096921, 303055, 386121
2096921,2096921, 302764, 386295
2096921,2096921, 302911, 386614
2096921,2096921, 303142, 386560
2096921,2096921, 303137, 386278
2096921,2096921, 303213, 386851
2096921,2096921, 303358, 386628
2096921,2096921, 303268, 386656
2096921,2096921, 303181, 386814
2096921,2096921, 303203, 386610
2096921,2096921, 303386, 386807
2096921,2096921, 303245, 386813
2096921,2096921, 303150, 386850
2096921,2096921, 303481, 386836
2096921,2096921, 303385, 386930
2096921,2096921, 303548, 386948
2096921,2096921, 303622, 387137
2096921,2096921, 303661, 387161
2096921,2096921, 303619, 386991
2096921,2096921, 303475, 387079
2096921,2096921, 303341, 387196
2096921,2096921, 303430, 386995
2096921,2096921, 303700, 386752
2096921,2096921, 303693, 386905
2096921,2096921, 303463, 386829
2096921,2096921, 303656, 387090
2096921,2096921, 303431, 387291
2096921,2096921, 303272, 387307
2096921,2096921, 303723, 387272
2096921,2096921, 303368, 386961
2096921,2096921, 303434, 387065
2096921,2096921, 303307, 386747
2096921,2096921, 303427, 386869
2096921,2096921, 303414, 386937
2096921,2096921, 303498, 386853
2096921,2096921, 303228, 387029
2096921,2096921, 303422, 386561
2096921,2096921, 303508, 386730
2096921,2096921, 303621, 386851
2096921,2096921, 303505, 386753
2096921,2096921, 303380, 386834
2096921,2096921, 302971, 386554
2096921,2096921, 303033, 386889
2096921,2096921, 302791, 386591
2096921,2096921, 303146, 386855
2096921,2096921, 303115, 386772
2096921,2096921, 302932, 386590
2096921,2096921, 302791, 386390
2096921,2096921, 303120, 386748
2096921,2096921, 303162, 386738
2096921,2096921, 303000, 386606
2096921,2096921, 302702, 386552
2096921,2096921, 302989, 386394
2096921,2096921, 303084, 386078
2096921,2096921, 303026, 386344
2096921,2096921, 302865, 386581
2096921,2096921, 302966, 386505
2096921,2096921, 302924, 386232
2096921,2096921, 302854, 386406
2096921,2096921, 302953, 386465
2096921,2096921, 302732, 386314
2096921,2096921, 302765, 386222
2096921,2096921, 302922, 386224
2096921,2096921, 302620, 386450
2096921,2096921, 302869, 386302
2096921,2096921, 302965, 386360
2096921,2096921, 302869, 386339
2096921,2096921, 303070, 386251
2096921,2096921, 303172, 386156
2096921,2096921, 302886, 386315
2096921,2096921, 302736, 386170
2096921,2096921, 302828, 386562
2096921,2096921, 302924, 386645
2096921,2096921, 302924, 386531
2096921,2096921, 303424, 386666
2096921,2096921, 303473, 386412
2096921,2096921, 303446, 386726
2096921,2096921, 303198, 386878
2096921,2096921, 303121, 386806
2096921,2096921, 302997, 386667
2096921,2096921, 303362, 386712
2096921,2096921, 303320, 386787
2096921,2096921, 303604, 386776
2096921,2096921, 303386, 387263
2096921,2096921, 303496, 386932
2096921,2096921, 303689, 386920
2096921,2096921, 303744, 387284
2096921,2096921, 303845, 387070
2096921,2096921, 304014, 387259
2096921,2096921, 303837, 387118
2096921,2096921, 303888, 387402
2096921,2096921, 303819, 387428
2096921,2096921, 304040, 387335
2096921,2096921, 303944, 387165
2096921,2096921, 304266, 387321
2096921,2096921, 304160, 387263
2096921,2096921, 304164, 387673
2096921,2096921, 304269, 387837
2096921,2096921, 304351, 387854
2096921,2096921, 304174, 387713
2096921,2096921, 304253, 387673
2096921,2096921, 304660, 388047
2096921,2096921, 304408, 388065
2096921,2096921, 304504, 388038
2096921,2096921, 304256, 387816
2096921,2096921, 304453, 387928
2096921,2096921, 304791, 388306
2096921,2096921, 304846, 388467
2096921,2096921, 304953, 388389
2096921,2096921, 304734, 388168
2096921,2096921, 304601, 388227
2096921,2096921, 304711, 388265
2096921,2096921, 304909, 388566
2096921,2096921, 305033, 388235
2096921,2096921, 304835, 388363
2096921,2096921, 304932, 388617
2096921,2096921, 305260, 388670
2096921,2096921, 305173, 388558
2096921,2096921, 305379, 388862
2096921,2096921, 305490, 388644
2096921,2096921, 305509, 388817
2096921,2096921, 305364, 388976
2096921,2096921, 305322, 389097
2096921,2096921, 305448, 389102
2096921,2096921, 305408, 389090
2096921,2096921, 305523, 388829
2096921,2096921, 305664, 389273
2096921,2096921, 305334, 389062
2096921,2096921, 305839, 389244
2096921,2096921, 305761, 389054
2096921,2096921, 305824, 389293
2096921,2096921, 305708, 389363
2096921,2096921, 305853, 389405
2096921,2096921, 305628, 389343
2096921,2096921, 305587, 389454
2096921,2096921, 305989, 389373
2096921,2096921, 306142, 389578
2096921,2096921, 305957, 389403
2096921,2096921, 305954, 389492
2096921,2096921, 305772, 389379
2096921,2096921, 305936, 389708
2096921,2096921, 306109, 389685
2096921,2096921, 306323, 389635
2096921,2096921, 306545, 389864
2096921,2096921, 306196, 389805
2096921,2096921, 306605, 389753
2096921,2096921, 306767, 390044
2096921,2096921, 306651, 390165
2096921,2096921, 306571, 389892
2096921,2096921, 306531, 389977
2096921,2096921, 306445, 390152
2096921,2096921, 306574, 390084
2096921,2096921, 306624, 390208
2096921,2096921, 306824, 390083
2096921,2096921, 306926, 390234
2096921,2096921, 307026, 390315
2096921,2096921, 306989, 390528
2096921,2096921, 307019, 390225
2096921,2096921, 307172, 390430
2096921,2096921, 307164, 390426
2096921,2096921, 307096, 390535
2096921,2096921, 307119, 390688
2096921,2096921, 307242, 390348
2096921,2096921, 307267, 390461
2096921,2096921, 307202, 390692
2096921,2096921, 307214, 390653
2096921,2096921, 307250, 390863
2096921,2096921, 307472, 390956
2096921,2096921, 307359, 390925
2096921,2096921, 307228, 390740
2096921,2096921, 307307, 390704
2096921,2096921, 307449, 390919
2096921,2096921, 307518, 391121
2096921,2096921, 307501, 390602
2096921,2096921, 307372, 390931
2096921,2096921, 307694, 390826
2096921,2096921, 307825, 391162
2096921,2096921, 307791, 391130
2096921,2096921, 307476, 390991
2096921,2096921, 307634, 391141
2096921,2096921, 307660, 391152
2096921,2096921, 308094, 391035
2096921,2096921, 308099, 390985
2096921,2096921, 307863, 391244
2096921,2096921, 307999, 391265
2096921,2096921, 307759, 391387
2096921,2096921, 308001, 391586
2096921,2096921, 308134, 391469
2096921,2096921, 308034, 391359
2096921,2096921, 307860, 391366
2096921,2096921, 308119, 391305
2096921,2096921, 308226, 391228
2096921,2096921, 308212, 391381
2096921,2096921, 308019, 391589
2096921,2096921, 307990, 391763
2096921,2096921, 308245, 391717
2096921,2096921, 308237, 391833
2096921,2096921, 308421, 391789
2096921,2096921, 308507, 391842
2096921,2096921, 308378, 391880
2096921,2096921, 308177, 391910
2096921,2096921, 308214, 391699
2096921,2096921, 308183, 391902
2096921,2096921, 308240, 391785
2096921,2096921, 308550, 391990
2096921,2096921, 308586, 392019
2096921,2096921, 308401, 392064
2096921,2096921, 308223, 392183
2096921,2096921, 308381, 392217
2096921,2096921, 309096, 391990
2096921,2096921, 308766, 392130
2096921,2096921, 308525, 392090
2096921,2096921, 308717, 391996
2096921,2096921, 308607, 391848
2096921,2096921, 308685, 391630
2096921,2096921, 309054, 391906
2096921,2096921, 308787, 392266
2096921,2096921, 309028, 392252
2096921,2096921, 308629, 392041
2096921,2096921, 308711, 391984
2096921,2096921, 308688, 392066
2096921,2096921, 308913, 392030
2096921,2096921, 308745, 392261
2096921,2096921, 309038, 392477
2096921,2096921, 308948, 392409
2096921,2096921, 308849, 392537
2096921,2096921, 309193, 392118
2096921,2096921, 308956, 392361
2096921,2096921, 309176, 392254
2096921,2096921, 309039, 392237
2096921,2096921, 309014, 392240
2096921,2096921, 308900, 392424
2096921,2096921, 308961, 392472
2096921,2096921, 308914, 392408
2096921,2096921, 308939, 392466
2096921,2096921, 308912, 392474
2096921,2096921, 308895, 392639
2096921,2096921, 308937, 392441
2096921,2096921, 309094, 392527
2096921,2096921, 308876, 392474
2096921,2096921, 309437, 392515
2096921,2096921, 309437, 392732
2096921,2096921, 309001, 392750
2096921,2096921, 309128, 392732
2096921,2096921, 309139, 392546
2096921,2096921, 309068, 392860
2096921,2096921, 309132, 392877
2096921,2096921, 309079, 392963
2096921,2096921, 308988, 392704
2096921,2096921, 309140, 392671
2096921,2096921, 309117, 392355
2096921,2096921, 309349, 392478
2096921,2096921, 309219, 392708
2096921,2096921, 309250, 392949
2096921,2096921, 309209, 392866
2096921,2096921, 309426, 392876
2096921,2096921, 309370, 392784
2096921,2096921, 309304, 392789
2096921,2096921, 309329, 393195
2096921,2096921, 309230, 393085
2096921,2096921, 309573, 393048
2096921,2096921, 309285, 392715
2096921,2096921, 309517, 392842
2096921,2096921, 309435, 392858
2096921,2096921, 309440, 392866
2096921,2096921, 309652, 393197
2096921,2096921, 309459, 392912
2096921,2096921, 309419, 393142
2096921,2096921, 309597, 393229
2096921,2096921, 309472, 393178
2096921,2096921, 309510, 393212
2096921,2096921, 309472, 393440
2096921,2096921, 309267, 392932
2096921,2096921, 309634, 393368
2096921,2096921, 309820, 393218
2096921,2096921, 309766, 393580
2096921,2096921, 309754, 393151
2096921,2096921, 309860, 393281
2096921,2096921, 310210, 393310
2096921,2096921, 309960, 393000
2096921,2096921, 309721, 393219
2096921,2096921, 309516, 393198
2096921,2096921, 309661, 392975
2096921,2096921, 309585, 393193
2096921,2096921, 309730, 393161
2096921,2096921, 309795, 393082
2096921,2096921, 309857, 393295
2096921,2096921, 309980, 393423
2096921,2096921, 309935, 393482
2096921,2096921, 309899, 393100
2096921,2096921, 309900, 393425
2096921,2096921, 310042, 393486
2096921,2096921, 309976, 393650
2096921,2096921, 309792, 393417
2096921,2096921, 309774, 393405
2096921,2096921, 309691, 393393
2096921,2096921, 309896, 393322
2096921,2096921, 309899, 393199
2096921,2096921, 309890, 393207
2096921,2096921, 310261, 393437
2096921,2096921, 310131, 393458
2096921,2096921, 310060, 393320
2096921,2096921, 309846, 393307
2096921,2096921, 310018, 393059
2096921,2096921, 310048, 393325
2096921,2096921, 309843, 393361
2096921,2096921, 310085, 393273
2096921,2096921, 309884, 393220
2096921,2096921, 309786, 393038
2096921,2096921, 309840, 393278
2096921,2096921, 309654, 393480
2096921,2096921, 309964, 393486
2096921,2096921, 310136, 393209
2096921,2096921, 310188, 393350
2096921,2096921, 309897, 393179
2096921,2096921, 309899, 393483
2096921,2096921, 309937, 393277
2096921,2096921, 310134, 393201
2096921,2096921, 309951, 393410
2096921,2096921, 309597, 393364
2096921,2096921, 309815, 393103
2096921,2096921, 309782, 393308
2096921,2096921, 309914, 393381
2096921,2096921, 309838, 393278
2096921,2096921, 309942, 393240
2096921,2096921, 309652, 393114
2096921,2096921, 309884, 393420
2096921,2096921, 309798, 393309
2096921,2096921, 309616, 393162
2096921,2096921, 309643, 393137
2096921,2096921, 310185, 393191
2096921,2096921, 309979, 393480
2096921,2096921, 309725, 393228
2096921,2096921, 309820, 393111
2096921,2096921, 309928, 393299
2096921,2096921, 310112, 393137
2096921,2096921, 309731, 393331
2096921,2096921, 309623, 393406
2096921,2096921, 309473, 393317
2096921,2096921, 309608, 393234
2096921,2096921, 309731, 393277
2096921,2096921, 309736, 393438
2096921,2096921, 309758, 393312
2096921,2096921, 309917, 393150
2096921,2096921, 309941, 393285
2096921,2096921, 309674, 393343
2096921,2096921, 309395, 393044
2096921,2096921, 309594, 393031
2096921,2096921, 309294, 393271
2096921,2096921, 309527, 392901
2096921,2096921, 309270, 392947
2096921,2096921, 309234, 392796
2096921,2096921, 309269, 392722
2096921,2096921, 309099, 392474
2096921,2096921, 309065, 392613
2096921,2096921, 308687, 392383
2096921,2096921, 308582, 391919
2096921,2096921, 308640, 392055
2096921,2096921, 308434, 392200
2096921,2096921, 308653, 391815
2096921,2096921, 308533, 392007
2096921,2096921, 307867, 391482
2096921,2096921, 307774, 391299
2096921,2096921, 307515, 391056
2096921,2096921, 307624, 391405
2096921,2096921, 307223, 391245
2096921,2096921, 306887, 390547
2096921,2096921, 306941, 390359
2096921,2096921, 306930, 390425
2096921,2096921, 306659, 390192
2096921,2096921, 306101, 390195
2096921,2096921, 305403, 388723
2096921,2096921, 305303, 388482
2096921,2096921, 305003, 388483
2096921,2096921, 305050, 388624
2096921,2096921, 304144, 388447
2096921,2096921, 303048, 386605
2096921,2096921, 302651, 386111
2096921,2096921, 302754, 386139
2096921,2096921, 302643, 386000
2096921,2096921, 301953, 386219
2096921,2096921, 301202, 385009
2096921,2096921, 300801, 384444
2096921,2096921, 300917, 384465
2096921,2096921, 300881, 384219
2096921,2096921, 300228, 384303
2096921,2096921, 299861, 383631
2096921,2096921, 299537, 382939
2096921,2096921, 299621, 383030
2096921,2096921, 299777, 383107
2096921,2096921, 299554, 383467
2096921,2096921, 298784, 382551
2096921,2096921, 298634, 382265
2096921,2096921, 298864, 382042
2096921,2096921, 298638, 382187
2096921,2096921, 298513, 381989
2096921,2096921, 298022, 381810
2096921,2096921, 298014, 381352
2096921,2096921, 298195, 381439
2096921,2096921, 298202, 381401
2096921,2096921, 297634, 381627
2096921,2096921, 297680, 381115
2096921,2096921, 297369, 381018
2096921,2096921, 297365, 380963
2096921,2096921, 297480, 380811
2096921,2096921, 297542, 381126
2096921,2096921, 297255, 380946
2096921,2096921, 297316, 380692
2096921,2096921, 297053, 380548
2096921,2096921, 297078, 380596
2096921,2096921, 296962, 380666
2096921,2096921, 297030, 380433
2096921,2096921, 297035, 380484
2096921,2096921, 297081, 380608
2096921,2096921, 297012, 380388
2096921,2096921, 297027, 380512
2096921,2096921, 297001, 380387
2096921,2096921, 297050, 380705
2096921,2096921, 297135, 380729
2096921,2096921, 297124, 380473
2096921,2096921, 297048, 380532
2096921,2096921, 297150, 380551
2096921,2096921, 297250, 380540
2096921,2096921, 297275, 380982
2096921,2096921, 297158, 380971
2096921,2096921, 297436, 380812
2096921,2096921, 297409, 380730
2096921,2096921, 297567, 380959
2096921,2096921, 297581, 381198
2096921,2096921, 297675, 380735
2096921,2096921, 297199, 380706
2096921,2096921, 297579, 380660
2096921,2096921, 297353, 380726
2096921,2096921, 297713, 380892
2096921,2096921, 297667, 380713
2096921,2096921, 298000, 380922
2096921,2096921, 297865, 381235
2096921,2096921, 298018, 381393
2096921,2096921, 297852, 381278
2096921,2096921, 298000, 381368
2096921,2096921, 298081, 381319
2096921,2096921, 298043, 381382
2096921,2096921, 298259, 381745
2096921,2096921, 297979, 381632
2096921,2096921, 298232, 381770
2096921,2096921, 298550, 381623
2096921,2096921, 298667, 382123
2096921,2096921, 298732, 382298
2096921,2096921, 298572, 382178
2096921,2096921, 298717, 382026
2096921,2096921, 298972, 382194
2096921,2096921, 299044, 382503
2096921,2096921, 298930, 382536
2096921,2096921, 299131, 382313
2096921,2096921, 298812, 382353
2096921,2096921, 299491, 382598
2096921,2096921, 299169, 382747
2096921,2096921, 299376, 382877
2096921,2096921, 299439, 382840
2096921,2096921, 299789, 382887
2096921,2096921, 299716, 383082
2096921,2096921, 299914, 383433
2096921,2096921, 300016, 382963
2096921,2096921, 299825, 383321
2096921,2096921, 299659, 383345
2096921,2096921, 300009, 383449
2096921,2096921, 299853, 383612
2096921,2096921, 300076, 383633
2096921,2096921, 300118, 383749
2096921,2096921, 300400, 383872
2096921,2096921, 300180, 383625
2096921,2096921, 300824, 383954
2096921,2096921, 300914, 383971
2096921,2096921, 300872, 384337
2096921,2096921, 300760, 383988
2096921,2096921, 300766, 384211
2096921,2096921, 301036, 384414
2096921,2096921, 301194, 384705
2096921,2096921, 301321, 384594
2096921,2096921, 300982, 384330
2096921,2096921, 301157, 384486
2096921,2096921, 301223, 384753
2096921,2096921, 301387, 384974
2096921,2096921, 301606, 384987
2096921,2096921, 301607, 385100
2096921,2096921, 301753, 385341
2096921,2096921, 301869, 385636
2096921,2096921, 301920, 385460
2096921,2096921, 301858, 385453
2096921,2096921, 302061, 385539
2096921,2096921, 301831, 385353
2096921,2096921, 302140, 385824
2096921,2096921, 302307, 385631
2096921,2096921, 302438, 385858
2096921,2096921, 302521, 385906
2096921,2096921, 302446, 386054
2096921,2096921, 302402, 386221
2096921,2096921, 302718, 386321
2096921,2096921, 302685, 386268
2096921,2096921, 302652, 386129
2096921,2096921, 302599, 386051
2096921,2096921, 302709, 386224
2096921,2096921, 302739, 386335
2096921,2096921, 302868, 386289
2096921,2096921, 302648, 386407
2096921,2096921, 303156, 386645
2096921,2096921, 303407, 386620
2096921,2096921, 303480, 386860
2096921,2096921, 303622, 386875
2096921,2096921, 303280, 386459
2096921,2096921, 303104, 386550
2096921,2096921, 303200, 386741
2096921,2096921, 303595, 386944
2096921,2096921, 303462, 386903
2096921,2096921, 303359, 386692
2096921,2096921, 303547, 387135
2096921,2096921, 303413, 387165
2096921,2096921, 303606, 387218
2096921,2096921, 303688, 387107
2096921,2096921, 303442, 386835
2096921,2096921, 303496, 386678
2096921,2096921, 303257, 386916
2096921,2096921, 303363, 386495
2096921,2096921, 303492, 386731
2096921,2096921, 303589, 386869
2096921,2096921, 303437, 387009
2096921,2096921, 303341, 387020
2096921,2096921, 303563, 387116
2096921,2096921, 303744, 387220
2096921,2096921, 303496, 386991
2096921,2096921, 303407, 386674
2096921,2096921, 303278, 386900
2096921,2096921, 303326, 386933
2096921,2096921, 303181, 386901
2096921,2096921, 303629, 386768
2096921,2096921, 303468, 386713
2096921,2096921, 303277, 387005
2096921,2096921, 303235, 386633
2096921,2096921, 303087, 386683
2096921,2096921, 303157, 386727
2096921,2096921, 303181, 386820
2096921,2096921, 303166, 386605
2096921,2096921, 303276, 386637
2096921,2096921, 303055, 386833
2096921,2096921, 303010, 386387
2096921,2096921, 303145, 386779
2096921,2096921, 303048, 386666
2096921,2096921, 302976, 386516
2096921,2096921, 303066, 386182
2096921,2096921, 303068, 386348
2096921,2096921, 303088, 386256
2096921,2096921, 302877, 386160
2096921,2096921, 302744, 386384
2096921,2096921, 302671, 386576
2096921,2096921, 302538, 386433
2096921,2096921, 302635, 386199
2096921,2096921, 302837, 386179
2096921,2096921, 302603, 386177
2096921,2096921, 302737, 386177
2096921,2096921, 302787, 386234
2096921,2096921, 302980, 386337
2096921,2096921, 302725, 386609
2096921,2096921, 302677, 386251
2096921,2096921, 303067, 386181
2096921,2096921, 303170, 386122
2096921,2096921, 302869, 385953
2096921,2096921, 302604, 386327
2096921,2096921, 302788, 386556
2096921,2096921, 302939, 386466
2096921,2096921, 302716, 386185
2096921,2096921, 302853, 386059
2096921,2096921, 302973, 386388
2096921,2096921, 302933, 386136
2096921,2096921, 302814, 386548
2096921,2096921, 303100, 386410
2096921,2096921, 303049, 386471
2096921,2096921, 303498, 386764
2096921,2096921, 303005, 386472
2096921,2096921, 303137, 386520
2096921,2096921, 302961, 386648
2096921,2096921, 303121, 386429
2096921,2096921, 303426, 386711
2096921,2096921, 303447, 386573
2096921,2096921, 303155, 386679
2096921,2096921, 303407, 386741
2096921,2096921, 303553, 386856
2096921,2096921, 303794, 387240
2096921,2096921, 304106, 387223
2096921,2096921, 303538, 387297
2096921,2096921, 303706, 386880
2096921,2096921, 304203, 387123
2096921,2096921, 304020, 387250
2096921,2096921, 303994, 387459
2096921,2096921, 303867, 387633
2096921,2096921, 304054, 387514
2096921,2096921, 304219, 387344
2096921,2096921, 304391, 387791
2096921,2096921, 304302, 387722
2096921,2096921, 304280, 387893
2096921,2096921, 304313, 387747
2096921,2096921, 304046, 387902
2096921,2096921, 304403, 388023
2096921,2096921, 304437, 388109
2096921,2096921, 304544, 387971
2096921,2096921, 304789, 387736
2096921,2096921, 304764, 387813
2096921,2096921, 304733, 388389
2096921,2096921, 304602, 388116
2096921,2096921, 304801, 388287
2096921,2096921, 304626, 388423
2096921,2096921, 304685, 388120
2096921,2096921, 304839, 388207
2096921,2096921, 304937, 388416
2096921,2096921, 304883, 388531
2096921,2096921, 305210, 388395
2096921,2096921, 305184, 388235
2096921,2096921, 305141, 388730
2096921,2096921, 305035, 388944
2096921,2096921, 304694, 388865
2096921,2096921, 304975, 388731
2096921,2096921, 305343, 388876
2096921,2096921, 305445, 388842
2096921,2096921, 305422, 388987
2096921,2096921, 305200, 389004
2096921,2096921, 305544, 388728
2096921,2096921, 305612, 388826
2096921,2096921, 305663, 388845
2096921,2096921, 305772, 388928
2096921,2096921, 305807, 388913
2096921,2096921, 305483, 388890
2096921,2096921, 305590, 389096
2096921,2096921, 305661, 389448
2096921,2096921, 305717, 389460
2096921,2096921, 306057, 389373
2096921,2096921, 306030, 389168
2096921,2096921, 306042, 389398
2096921,2096921, 306198, 389737
2096921,2096921, 306121, 389475
2096921,2096921, 306170, 389669
2096921,2096921, 306218, 389746
2096921,2096921, 306115, 389651
2096921,2096921, 306357, 389766
2096921,2096921, 306094, 389927
2096921,2096921, 306144, 389976
2096921,2096921, 306477, 389760
2096921,2096921, 306583, 389764
2096921,2096921, 306269, 389805
2096921,2096921, 306453, 389958
2096921,2096921, 306524, 389946
2096921,2096921, 306490, 390180
2096921,2096921, 306738, 390005
2096921,2096921, 306858, 390321
2096921,2096921, 306864, 390060
2096921,2096921, 306613, 390127
2096921,2096921, 306769, 389999
2096921,2096921, 307195, 390128
2096921,2096921, 307285, 390312
2096921,2096921, 307180, 390668
2096921,2096921, 307007, 390466
2096921,2096921, 306735, 390483
2096921,2096921, 306934, 390494
2096921,2096921, 307145, 390656
2096921,2096921, 307171, 390919
2096921,2096921, 307255, 390703
2096921,2096921, 307065, 390914
2096921,2096921, 307238, 390971
2096921,2096921, 307408, 390702
2096921,2096921, 307501, 390812
2096921,2096921, 307333, 390930
2096921,2096921, 307250, 390807
2096921,2096921, 307070, 390773
2096921,2096921, 307259, 391114
2096921,2096921, 307360, 391067
2096921,2096921, 307473, 391065
2096921,2096921, 307251, 390913
2096921,2096921, 307667, 391023
2096921,2096921, 307559, 391101
2096921,2096921, 307603, 391218
2096921,2096921, 307751, 391393
2096921,2096921, 307796, 390990
2096921,2096921, 307580, 391039
2096921,2096921, 307854, 391323
2096921,2096921, 307590, 391155
2096921,2096921, 307969, 391235
2096921,2096921, 307920, 391251
2096921,2096921, 308232, 391370
2096921,2096921, 307953, 391350
2096921,2096921, 308083, 391593
2096921,2096921, 308053, 391595
2096921,2096921, 307903, 391713
2096921,2096921, 307886, 391675
2096921,2096921, 307950, 391505
2096921,2096921, 308080, 391560
2096921,2096921, 308110, 391555
2096921,2096921, 308055, 391733
2096921,2096921, 308219, 391676
2096921,2096921, 308184, 391599
2096921,2096921, 308366, 391682
2096921,2096921, 308296, 391800
2096921,2096921, 308353, 391688
2096921,2096921, 308482, 391538
2096921,2096921, 308543, 391971
2096921,2096921, 308410, 391880
2096921,2096921, 308234, 391837
2096921,2096921, 308519, 391608
2096921,2096921, 308264, 391804
2096921,2096921, 308460, 391793
2096921,2096921, 308677, 391854
2096921,2096921, 308611, 392093
2096921,2096921, 308588, 392042
2096921,2096921, 308438, 391591
2096921,2096921, 308153, 392125
2096921,2096921, 308609, 391948
2096921,2096921, 308579, 392068
2096921,2096921, 308781, 391945
2096921,2096921, 308616, 391954
2096921,2096921, 308648, 392325
2096921,2096921, 308672, 392145
2096921,2096921, 308851, 392273
2096921,2096921, 308730, 392257
2096921,2096921, 308679, 392152
2096921,2096921, 308832, 392149
2096921,2096921, 308503, 392218
2096921,2096921, 308833, 392469
2096921,2096921, 308541, 392292
2096921,2096921, 308858, 392476
2096921,2096921, 308845, 392336
2096921,2096921, 309178, 392297
2096921,2096921, 308863, 392413
2096921,2096921, 308928, 392308
2096921,2096921, 309116, 392540
2096921,2096921, 309007, 392560
2096921,2096921, 308952, 392747
2096921,2096921, 309231, 392628
2096921,2096921, 309238, 392653
2096921,2096921, 308807, 392516
2096921,2096921, 309106, 392648
2096921,2096921, 309450, 392503
2096921,2096921, 309246, 392753
2096921,2096921, 309009, 392437
2096921,2096921, 308890, 392365
2096921,2096921, 309165, 392412
2096921,2096921, 308891, 392685
2096921,2096921, 308958, 392876
2096921,2096921, 309050, 392756
2096921,2096921, 309064, 392928
2096921,2096921, 309031, 392610
2096921,2096921, 309168, 392549
2096921,2096921, 309219, 392500
2096921,2096921, 309402, 392751
2096921,2096921, 309062, 392652
2096921,2096921, 309358, 392661
2096921,2096921, 309337, 392647
2096921,2096921, 309090, 392620
2096921,2096921, 309454, 392983
2096921,2096921, 309374, 392677
2096921,2096921, 309261, 392798
2096921,2096921, 309283, 392874
2096921,2096921, 309202, 392667
2096921,2096921, 309442, 392779
2096921,2096921, 309283, 392547
2096921,2096921, 309274, 392678
2096921,2096921, 309253, 392996
2096921,2096921, 309361, 393026
2096921,2096921, 309759, 393044
2096921,2096921, 309659, 392994
2096921,2096921, 309317, 392998
2096921,2096921, 309339, 393412
2096921,2096921, 309425, 393307
2096921,2096921, 309160, 392946
2096921,2096921, 309219, 392951
2096921,2096921, 309474, 392929
2096921,2096921, 309661, 393061
2096921,2096921, 309648, 393040
2096921,2096921, 309647, 392997
2096921,2096921, 309323, 392988
2096921,2096921, 309656, 392894
2096921,2096921, 309684, 393149
2096921,2096921, 309974, 393185
2096921,2096921, 309577, 393068
2096921,2096921, 309603, 393066
2096921,2096921, 309944, 393095
2096921,2096921, 309688, 393096
2096921,2096921, 309594, 393419
2096921,2096921, 309837, 393400
2096921,2096921, 309617, 393100
2096921,2096921, 309868, 393291
2096921,2096921, 309812, 393216
2096921,2096921, 309924, 393158
2096921,2096921, 309957, 393247
2096921,2096921, 310039, 393171
2096921,2096921, 310046, 393257
2096921,2096921, 309667, 393354
2096921,2096921, 309694, 393134
2096921,2096921, 309747, 393007
2096921,2096921, 309901, 393493
2096921,2096921, 309989, 393508
2096921,2096921, 309735, 393333
2096921,2096921, 309609, 393194
2096921,2096921, 309878, 393337
2096921,2096921, 309932, 393197
2096921,2096921, 309822, 393159
2096921,2096921, 309820, 393184
2096921,2096921, 309889, 393538
2096921,2096921, 310218, 393469
2096921,2096921, 309865, 393547
2096921,2096921, 310088, 393144
2096921,2096921, 309747, 393185
2096921,2096921, 310062, 393496
2096921,2096921, 309929, 393420
2096921,2096921, 309872, 393516
2096921,2096921, 309631, 393192
2096921,2096921, 309798, 393294
2096921,2096921, 309967, 393338
2096921,2096921, 310160, 393400
2096921,2096921, 309812, 393265
2096921,2096921, 309800, 393415
2096921,2096921, 309707, 392946
2096921,2096921, 309687, 393373
2096921,2096921, 309744, 393195
2096921,2096921, 309899, 393359
2096921,2096921, 309920, 393406
2096921,2096921, 309890, 393312
2096921,2096921, 309676, 393349
2096921,2096921, 309647, 393268
2096921,2096921, 309698, 393207
2096921,2096921, 310050, 393333
2096921,2096921, 310243, 393350
2096921,2096921, 309705, 393490
2096921,2096921, 309858, 393509
2096921,2096921, 309805, 393086
2096921,2096921, 309634, 393296
2096921,2096921, 309935, 393197
2096921,2096921, 309991, 393274
2096921,2096921, 310029, 393364
2096921,2096921, 309908, 392976
2096921,2096921, 309778, 392955
2096921,2096921, 309869, 393442
2096921,2096921, 309989, 393215
2096921,2096921, 309713, 393384
2096921,2096921, 309664, 393429
2096921,2096921, 309708, 393161
2096921,2096921, 309541, 393107
2096921,2096921, 310032, 393032
2096921,2096921, 309868, 393438
2096921,2096921, 309391, 393581
2096921,2096921, 309547, 393045
2096921,2096921, 309249, 392796
2096921,2096921, 309143, 392856
2096921,2096921, 309377, 392772
2096921,2096921, 309123, 392688
2096921,2096921, 309096, 392604
2096921,2096921, 308941, 392467
2096921,2096921, 309080, 392147
2096921,2096921, 309178, 392533
2096921,2096921, 308703, 392380
2096921,2096921, 308479, 392328
2096921,2096921, 308547, 392329
2096921,2096921, 308274, 392316
2096921,2096921, 308485, 391919
2096921,2096921, 308236, 392194
2096921,2096921, 307617, 391178
2096921,2096921, 307609, 391187
2096921,2096921, 307718, 390930
2096921,2096921, 307761, 391229
2096921,2096921, 307753, 391049
2096921,2096921, 307053, 390708
2096921,2096921, 307007, 390776
2096921,2096921, 306809, 390632
2096921,2096921, 307037, 390227
2096921,2096921, 306135, 390342
2096921,2096921, 305218, 388738
2096921,2096921, 305156, 388457
2096921,2096921, 305069, 388292
2096921,2096921, 305091, 388532
2096921,2096921, 303623, 388101
2096921,2096921, 302779, 386633
2096921,2096921, 302485, 386329
2096921,2096921, 302662, 386373
2096921,2096921, 302577, 386178
2096921,2096921, 301917, 386296
2096921,2096921, 301141, 384465
2096921,2096921, 300858, 384685
2096921,2096921, 300975, 384346
2096921,2096921, 300957, 384511
2096921,2096921, 300195, 384742
2096921,2096921, 299403, 383343
2096921,2096921, 299285, 383174
2096921,2096921, 299483, 383037
2096921,2096921, 299811, 383091
2096921,2096921, 299170, 383210
2096921,2096921, 298650, 381932
2096921,2096921, 298709, 382060
2096921,2096921, 298428, 382256
2096921,2096921, 298627, 382128
2096921,2096921, 298390, 382161
2096921,2096921, 298148, 381787
2096921,2096921, 298142, 381393
2096921,2096921, 298025, 381484
2096921,2096921, 298048, 381518
2096921,2096921, 297474, 381457
2096921,2096921, 297447, 381216
2096921,2096921, 297441, 380803
2096921,2096921, 297304, 381047
2096921,2096921, 297459, 380780
2096921,2096921, 297588, 381030
2096921,2096921, 297284, 380684
2096921,2096921, 297140, 380660
2096921,2096921, 297082, 380647
2096921,2096921, 297161, 380383
2096921,2096921, 297099, 380538
2096921,2096921, 297204, 380555
2096921,2096921, 297007, 380810
2096921,2096921, 297137, 380577
2096921,2096921, 296907, 380252
2096921,2096921, 297100, 380524
2096921,2096921, 297205, 380666
2096921,2096921, 297047, 380357
2096921,2096921, 297282, 380700
2096921,2096921, 297129, 380514
2096921,2096921, 296839, 380531
2096921,2096921, 296996, 380688
2096921,2096921, 297456, 380743
2096921,2096921, 297572, 380878
2096921,2096921, 297167, 380552
2096921,2096921, 297249, 380657
2096921,2096921, 297455, 380750
2096921,2096921, 297699, 380605
2096921,2096921, 297493, 380905
2096921,2096921, 297632, 380742
2096921,2096921, 297327, 380827
2096921,2096921, 297554, 380537
2096921,2096921, 297343, 380927
2096921,2096921, 297868, 380882
2096921,2096921, 297471, 380855
2096921,2096921, 297734, 380982
2096921,2096921, 297934, 381390
2096921,2096921, 298100, 381282
2096921,2096921, 297846, 381381
2096921,2096921, 297793, 381256
2096921,2096921, 297798, 381600
2096921,2096921, 297983, 381709
2096921,2096921, 297785, 381732
2096921,2096921, 298164, 381608
2096921,2096921, 298207, 381797
2096921,2096921, 298333, 381835
2096921,2096921, 298510, 381953
2096921,2096921, 298876, 382025
2096921,2096921, 298691, 382203
2096921,2096921, 298772, 382468
2096921,2096921, 298867, 382310
2096921,2096921, 299000, 382518
2096921,2096921, 298988, 382505
2096921,2096921, 299025, 382655
2096921,2096921, 299220, 382465
2096921,2096921, 299247, 382499
2096921,2096921, 299161, 382759
2096921,2096921, 299454, 382870
2096921,2096921, 299739, 383128
2096921,2096921, 299746, 383175
2096921,2096921, 299576, 383011
2096921,2096921, 299501, 383382
2096921,2096921, 299639, 383448
2096921,2096921, 299745, 383534
2096921,2096921, 299499, 383163
2096921,2096921, 299946, 383162
2096921,2096921, 300370, 383304
2096921,2096921, 299997, 383284
2096921,2096921, 300344, 383400
2096921,2096921, 300308, 383769
2096921,2096921, 300499, 383443
2096921,2096921, 300684, 384269
2096921,2096921, 300603, 384232
2096921,2096921, 300523, 384166
2096921,2096921, 300996, 384202
2096921,2096921, 300892, 384047
2096921,2096921, 301148, 384307
2096921,2096921, 300970, 384527
2096921,2096921, 300744, 384492
2096921,2096921, 300972, 384674
2096921,2096921, 301609, 384449
2096921,2096921, 301406, 384835
2096921,2096921, 301540, 384836
2096921,2096921, 301320, 385039
2096921,2096921, 301515, 384895
2096921,2096921, 301910, 384966
2096921,2096921, 301789, 385215
2096921,2096921, 301660, 385383
2096921,2096921, 301745, 385399
2096921,2096921, 301658, 385258
2096921,2096921, 302138, 385421
2096921,2096921, 302222, 385589
2096921,2096921, 302270, 385772
2096921,2096921, 302449, 385683
2096921,2096921, 302257, 385829
2096921,2096921, 302663, 385771
2096921,2096921, 302549, 385961
2096921,2096921, 302570, 386237
2096921,2096921, 302462, 386139
2096921,2096921, 302564, 386186
2096921,2096921, 302913, 386062
2096921,2096921, 303135, 386249
2096921,2096921, 302899, 386378
2096921,2096921, 303112, 386483
2096921,2096921, 302957, 386617
2096921,2096921, 302919, 386490
2096921,2096921, 303395, 386715
2096921,2096921, 303129, 386782
2096921,2096921, 303135, 386794
2096921,2096921, 303212, 386715
2096921,2096921, 303324, 386295
2096921,2096921, 303318, 386760
2096921,2096921, 303183, 386563
2096921,2096921, 303222, 386952
2096921,2096921, 303271, 387195
2096921,2096921, 303220, 386719
2096921,2096921, 303343, 386716
2096921,2096921, 303409, 386932
2096921,2096921, 303673, 386973
2096921,2096921, 303487, 386963
2096921,2096921, 303475, 386716
2096921,2096921, 303334, 387036
2096921,2096921, 303378, 387016
2096921,2096921, 303668, 386897
2096921,2096921, 303593, 386949
2096921,2096921, 303519, 387195
2096921,2096921, 303467, 387063
2096921,2096921, 303522, 386931
2096921,2096921, 303607, 386957
2096921,2096921, 303721, 386772
2096921,2096921, 303453, 386745
2096921,2096921, 303164, 386951
2096921,2096921, 303521, 386901
2096921,2096921, 303357, 386776
2096921,2096921, 303468, 386740
2096921,2096921, 303232, 386829
2096921,2096921, 303261, 386880
2096921,2096921, 303146, 386780
2096921,2096921, 303021, 386426
2096921,2096921, 303107, 386841
2096921,2096921, 303225, 386859
2096921,2096921, 303329, 386814
2096921,2096921, 303175, 386690
2096921,2096921, 303146, 386940
2096921,2096921, 303262, 386616
2096921,2096921, 303192, 386397
2096921,2096921, 303186, 386057
2096921,2096921, 303047, 386393
2096921,2096921, 303210, 386591
2096921,2096921, 302732, 386295
2096921,2096921, 303004, 386282
2096921,2096921, 302891, 386466
2096921,2096921, 302938, 386287
2096921,2096921, 303146, 386139
2096921,2096921, 302783, 386120
2096921,2096921, 302896, 386283
2096921,2096921, 302955, 386120
2096921,2096921, 302722, 386177
2096921,2096921, 302772, 386366
2096921,2096921, 302731, 386355
2096921,2096921, 302470, 386414
2096921,2096921, 302662, 386690
2096921,2096921, 302726, 386382
2096921,2096921, 302753, 386024
2096921,2096921, 303369, 386363
2096921,2096921, 302783, 386541
2096921,2096921, 303084, 386274
2096921,2096921, 303163, 386502
2096921,2096921, 303112, 386386
2096921,2096921, 302874, 386108
2096921,2096921, 303162, 386534
2096921,2096921, 303075, 386472
2096921,2096921, 303072, 386594
2096921,2096921, 302667, 386309
2096921,2096921, 303247, 386183
2096921,2096921, 303058, 386543
2096921,2096921, 303139, 386488
2096921,2096921, 303120, 386560
2096921,2096921, 303179, 386467
2096921,2096921, 302930, 386738
2096921,2096921, 303228, 386446
2096921,2096921, 303159, 387092
2096921,2096921, 303396, 386924
2096921,2096921, 303295, 387103
2096921,2096921, 303422, 386930
2096921,2096921, 303686, 386844
2096921,2096921, 303824, 387396
2096921,2096921, 303781, 387197
2096921,2096921, 303568, 387254
2096921,2096921, 303418, 387203
2096921,2096921, 303742, 387320
2096921,2096921, 303803, 387382
2096921,2096921, 303874, 387618
2096921,2096921, 303998, 387173
2096921,2096921, 304080, 387461
2096921,2096921, 304145, 387410
2096921,2096921, 304320, 387904
2096921,2096921, 304272, 387857
2096921,2096921, 304524, 387847
2096921,2096921, 304408, 387752
2096921,2096921, 304253, 387751
2096921,2096921, 304494, 387893
2096921,2096921, 304208, 388061
2096921,2096921, 304506, 387801
2096921,2096921, 304435, 388162
2096921,2096921, 304613, 387974
2096921,2096921, 304866, 388069
2096921,2096921, 304834, 388057
2096921,2096921, 304857, 388518
2096921,2096921, 304761, 388090
2096921,2096921, 304929, 387992
2096921,2096921, 305068, 388261
2096921,2096921, 304791, 388439
2096921,2096921, 304848, 388438
2096921,2096921, 304850, 388374
2096921,2096921, 305169, 388104
2096921,2096921, 305260, 388430
2096921,2096921, 305378, 388534
2096921,2096921, 305105, 388619
2096921,2096921, 305018, 388467
2096921,2096921, 305340, 388436
2096921,2096921, 305421, 389113
2096921,2096921, 305192, 389165
2096921,2096921, 305425, 388688
2096921,2096921, 305377, 388611
2096921,2096921, 305666, 388636
2096921,2096921, 305723, 388999
2096921,2096921, 305675, 389113
2096921,2096921, 305880, 389295
2096921,2096921, 305720, 389323
2096921,2096921, 305671, 389154
2096921,2096921, 305740, 389359
2096921,2096921, 305879, 389675
2096921,2096921, 305760, 389505
2096921,2096921, 306020, 389449
2096921,2096921, 306258, 389172
2096921,2096921, 306062, 389217
2096921,2096921, 305985, 389356
2096921,2096921, 306327, 389524
2096921,2096921, 306050, 389890
2096921,2096921, 306076, 389882
2096921,2096921, 306422, 389601
2096921,2096921, 306226, 389792
2096921,2096921, 306488, 389889
2096921,2096921, 306231, 389746
2096921,2096921, 306559, 389673
2096921,2096921, 306383, 390139
2096921,2096921, 306342, 390014
2096921,2096921, 306572, 389959
2096921,2096921, 306821, 389712
2096921,2096921, 306900, 390039
2096921,2096921, 306975, 390200
2096921,2096921, 307066, 390322
2096921,2096921, 306710, 390219
2096921,2096921, 306915, 390000
2096921,2096921, 307282, 390062
2096921,2096921, 306846, 390585
2096921,2096921, 307176, 390422
2096921,2096921, 306991, 390311
2096921,2096921, 306896, 390393
2096921,2096921, 306710, 390274
2096921,2096921, 307118, 390211
2096921,2096921, 307213, 390534
2096921,2096921, 307291, 390506
2096921,2096921, 307086, 390512
2096921,2096921, 307173, 390743
2096921,2096921, 307369, 390964
2096921,2096921, 307524, 391048
2096921,2096921, 307266, 390585
2096921,2096921, 307316, 390496
2096921,2096921, 307035, 390675
2096921,2096921, 307279, 390861
2096921,2096921, 307534, 391109
2096921,2096921, 307606, 391060
2096921,2096921, 307275, 391111
2096921,2096921, 307445, 391023
2096921,2096921, 307632, 391068
2096921,2096921, 307762, 391097
2096921,2096921, 307485, 391212
2096921,2096921, 307419, 391256
2096921,2096921, 307582, 390880
2096921,2096921, 307712, 391131
2096921,2096921, 307875, 391033
2096921,2096921, 308026, 391443
2096921,2096921, 308097, 391315
2096921,2096921, 308170, 391519
2096921,2096921, 307863, 391454
2096921,2096921, 308004, 391565
2096921,2096921, 308072, 391568
2096921,2096921, 308317, 391553
2096921,2096921, 308046, 391701
2096921,2096921, 308251, 391694
2096921,2096921, 308007, 391258
2096921,2096921, 308294, 391653
2096921,2096921, 308224, 391609
2096921,2096921, 308320, 391349
2096921,2096921, 308382, 391831
2096921,2096921, 308502, 391864
2096921,2096921, 308261, 391461
2096921,2096921, 308127, 391699
2096921,2096921, 308392, 391758
2096921,2096921, 308372, 391740
2096921,2096921, 308278, 392040
2096921,2096921, 308384, 391649
2096921,2096921, 308473, 391673
2096921,2096921, 308643, 391521
2096921,2096921, 308662, 391800
2096921,2096921, 308465, 391954
2096921,2096921, 308375, 391772
2096921,2096921, 308804, 391893
2096921,2096921, 308410, 391951
2096921,2096921, 308444, 392222
2096921,2096921, 308784, 392237
2096921,2096921, 308632, 392443
2096921,2096921, 309087, 392254
2096921,2096921, 308773, 391886
2096921,2096921, 308888, 392136
2096921,2096921, 308367, 392172
2096921,2096921, 308547, 392028
2096921,2096921, 308569, 392339
2096921,2096921, 308371, 392344
2096921,2096921, 308688, 392266
2096921,2096921, 308728, 392272
2096921,2096921, 308749, 392186
2096921,2096921, 308767, 392329
2096921,2096921, 308909, 392209
2096921,2096921, 308967, 392303
2096921,2096921, 309159, 392476
2096921,2096921, 308938, 392268
2096921,2096921, 309097, 392295
2096921,2096921, 308986, 392234
2096921,2096921, 308984, 392495
2096921,2096921, 308910, 392570
2096921,2096921, 309065, 392369
2096921,2096921, 309227, 392428
2096921,2096921, 309264, 392469
2096921,2096921, 309246, 392396
2096921,2096921, 309139, 392514
2096921,2096921, 309109, 392482
2096921,2096921, 309033, 392276
2096921,2096921, 309122, 392301
2096921,2096921, 309268, 392638
2096921,2096921, 309259, 392611
2096921,2096921, 309073, 392857
2096921,2096921, 309265, 392580
2096921,2096921, 309170, 392685
2096921,2096921, 309197, 392708
2096921,2096921, 309435, 392717
2096921,2096921, 309270, 392790
2096921,2096921, 309136, 392835
2096921,2096921, 309036, 392665
2096921,2096921, 309262, 392748
2096921,2096921, 309302, 392684
2096921,2096921, 309388, 392929
2096921,2096921, 309415, 392753
2096921,2096921, 309577, 392833
2096921,2096921, 309303, 392706
2096921,2096921, 309401, 392679
2096921,2096921, 309568, 392901
2096921,2096921, 309441, 393190
2096921,2096921, 309271, 393068
2096921,2096921, 309481, 393036
2096921,2096921, 309157, 392831
2096921,2096921, 309112, 392954
2096921,2096921, 309379, 392788
2096921,2096921, 309599, 392981
2096921,2096921, 309701, 392994
2096921,2096921, 309928, 393057
2096921,2096921, 309618, 392690
2096921,2096921, 309589, 392693
2096921,2096921, 309835, 393004
2096921,2096921, 309722, 393155
2096921,2096921, 309774, 392874
2096921,2096921, 309674, 393259
2096921,2096921, 309765, 392925
2096921,2096921, 309657, 393046
2096921,2096921, 310070, 393414
2096921,2096921, 309781, 393213
2096921,2096921, 309726, 393217
2096921,2096921, 309464, 392907
2096921,2096921, 309715, 393143
2096921,2096921, 309473, 393403
2096921,2096921, 309655, 393389
2096921,2096921, 309844, 393307
2096921,2096921, 309852, 393140
2096921,2096921, 309625, 393361
2096921,2096921, 309503, 392907
2096921,2096921, 309724, 393167
2096921,2096921, 309744, 393223
2096921,2096921, 309656, 393425
2096921,2096921, 309860, 393301
2096921,2096921, 309556, 393179
2096921,2096921, 309588, 393201
2096921,2096921, 309849, 393111
2096921,2096921, 310204, 393334
2096921,2096921, 309962, 393766
2096921,2096921, 309925, 393550
2096921,2096921, 309855, 393176
2096921,2096921, 309869, 393223
2096921,2096921, 309906, 393205
2096921,2096921, 310061, 393370
2096921,2096921, 310032, 393462
2096921,2096921, 309989, 393522
2096921,2096921, 310079, 393345
2096921,2096921, 310164, 393259
2096921,2096921, 309860, 393420
2096921,2096921, 310089, 393345
2096921,2096921, 309923, 393212
2096921,2096921, 310116, 393420
2096921,2096921, 309811, 393411
2096921,2096921, 310139, 393292
2096921,2096921, 309977, 393260
2096921,2096921, 309924, 393160
2096921,2096921, 309718, 393459
2096921,2096921, 310097, 393206
2096921,2096921, 309940, 393335
2096921,2096921, 309740, 393586
2096921,2096921, 309760, 393449
2096921,2096921, 309941, 393240
2096921,2096921, 309731, 393146
2096921,2096921, 309708, 393523
2096921,2096921, 309474, 393523
2096921,2096921, 309578, 393192
2096921,2096921, 310000, 393301
2096921,2096921, 310008, 393573
2096921,2096921, 310187, 393554
2096921,2096921, 309909, 393232
2096921,2096921, 309784, 393371
2096921,2096921, 309952, 393324
2096921,2096921, 310031, 393249
2096921,2096921, 309707, 393320
2096921,2096921, 309763, 393151
2096921,2096921, 309755, 393055
2096921,2096921, 309736, 393211
2096921,2096921, 309885, 393555
2096921,2096921, 309605, 393227
2096921,2096921, 309883, 393555
2096921,2096921, 309539, 393402
2096921,2096921, 309955, 393123
2096921,2096921, 309983, 393213
2096921,2096921, 309816, 393303
2096921,2096921, 309813, 393324
2096921,2096921, 309876, 393256
2096921,2096921, 309692, 393503
2096921,2096921, 309991, 393424
2096921,2096921, 309949, 393353
2096921,2096921, 309552, 392890
2096921,2096921, 309848, 392694
2096921,2096921, 309517, 392837
2096921,2096921, 309371, 392930
2096921,2096921, 309274, 392776
2096921,2096921, 309255, 392619
2096921,2096921, 309022, 392634
2096921,2096921, 309094, 392719
2096921,2096921, 309108, 392468
2096921,2096921, 308894, 392476
2096921,2096921, 308737, 392310
2096921,2096921, 308662, 391953
2096921,2096921, 308542, 392108
2096921,2096921, 308504, 391965
2096921,2096921, 307748, 391898
2096921,2096921, 307565, 391574
2096921,2096921, 307459, 391098
2096921,2096921, 307776, 390928
2096921,2096921, 307895, 391067
2096921,2096921, 307250, 390965
2096921,2096921, 307090, 390823
2096921,2096921, 306751, 390468
2096921,2096921, 306812, 390435
2096921,2096921, 306745, 390479
2096921,2096921, 306861, 390476
2096921,2096921, 305720, 388941
2096921,2096921, 305317, 388334
2096921,2096921, 305439, 388503
2096921,2096921, 305140, 388571
2096921,2096921, 304080, 388395
2096921,2096921, 302941, 386859
2096921,2096921, 302859, 386092
2096921,2096921, 302531, 386150
2096921,2096921, 302554, 385999
2096921,2096921, 301948, 386079
2096921,2096921, 301261, 384969
2096921,2096921, 300956, 384703
2096921,2096921, 300821, 384648
2096921,2096921, 300941, 384552
2096921,2096921, 300380, 384244
2096921,2096921, 299672, 383515
2096921,2096921, 299760, 383345
2096921,2096921, 299596, 383253
2096921,2096921, 299589, 383105
2096921,2096921, 299143, 383232
2096921,2096921, 298646, 382465
2096921,2096921, 298628, 382334
2096921,2096921, 298679, 382342
2096921,2096921, 298537, 382307
2096921,2096921, 298243, 382178
2096921,2096921, 298195, 381237
2096921,2096921, 298100, 381364
2096921,2096921, 298089, 381406
2096921,2096921, 297915, 381434
2096921,2096921, 297769, 381271
2096921,2096921, 297308, 380809
2096921,2096921, 297535, 380907
2096921,2096921, 297545, 380995
2096921,2096921, 297539, 381230
2096921,2096921, 297149, 381275
2096921,2096921, 297020, 380801
2096921,2096921, 297187, 380660
2096921,2096921, 297408, 380713
2096921,2096921, 297105, 380620
2096921,2096921, 297254, 380627
2096921,2096921, 296984, 380374
2096921,2096921, 297185, 380485
2096921,2096921, 297241, 380539
2096921,2096921, 296964, 380656
2096921,2096921, 297050, 380586
2096921,2096921, 297045, 380480
2096921,2096921, 297206, 380639
2096921,2096921, 296994, 380440
2096921,2096921, 297046, 380671
2096921,2096921, 297198, 380729
2096921,2096921, 297093, 380830
2096921,2096921, 297018, 380668
2096921,2096921, 297294, 380541
2096921,2096921, 297117, 380907
2096921,2096921, 297577, 380520
2096921,2096921, 297368, 380754
2096921,2096921, 297337, 380857
2096921,2096921, 297467, 380977
2096921,2096921, 297435, 380723
2096921,2096921, 297387, 380934
2096921,2096921, 297521, 381191
2096921,2096921, 297531, 381187
2096921,2096921, 297235, 381057
2096921,2096921, 297525, 380880
2096921,2096921, 298050, 380932
2096921,2096921, 297919, 381269
2096921,2096921, 297840, 381377
2096921,2096921, 297839, 381565
2096921,2096921, 297853, 381401
2096921,2096921, 297907, 381319
2096921,2096921, 298308, 381654
2096921,2096921, 298457, 381917
2096921,2096921, 298192, 381792
2096921,2096921, 298163, 381450
2096921,2096921, 298363, 381692
2096921,2096921, 298504, 382060
2096921,2096921, 298836, 382211
2096921,2096921, 298669, 382138
2096921,2096921, 298737, 382289
2096921,2096921, 298964, 382242
2096921,2096921, 299178, 382588
2096921,2096921, 298986, 382536
2096921,2096921, 299304, 382517
2096921,2096921, 299133, 382272
2096921,2096921, 298902, 382504
2096921,2096921, 299285, 383036
2096921,2096921, 299459, 382976
2096921,2096921, 299712, 383118
2096921,2096921, 299586, 382957
2096921,2096921, 299648, 382909
2096921,2096921, 299575, 383089
2096921,2096921, 299786, 383076
2096921,2096921, 300188, 383433
2096921,2096921, 299814, 383463
2096921,2096921, 300012, 383316
2096921,2096921, 300204, 383626
2096921,2096921, 300296, 383744
2096921,2096921, 300039, 383812
2096921,2096921, 300280, 383904
2096921,2096921, 300406, 383847
2096921,2096921, 300501, 384031
2096921,2096921, 300530, 384126
2096921,2096921, 300376, 384240
2096921,2096921, 300557, 384273
2096921,2096921, 300898, 384308
2096921,2096921, 300888, 384476
2096921,2096921, 301176, 384575
2096921,2096921, 300961, 384446
2096921,2096921, 300906, 384618
2096921,2096921, 300954, 384619
2096921,2096921, 301281, 384873
2096921,2096921, 301389, 384740
2096921,2096921, 301375, 385183
2096921,2096921, 301366, 384816
2096921,2096921, 301539, 384625
2096921,2096921, 301820, 385320
2096921,2096921, 301962, 385479
2096921,2096921, 302135, 385452
2096921,2096921, 301999, 385368
2096921,2096921, 302116, 385266
2096921,2096921, 302595, 385886
2096921,2096921, 302455, 385791
2096921,2096921, 302179, 385890
2096921,2096921, 302283, 385951
2096921,2096921, 302538, 385753
2096921,2096921, 302731, 386203
2096921,2096921, 302988, 386231
2096921,2096921, 302793, 385887
2096921,2096921, 302578, 386096
2096921,2096921, 302771, 385844
2096921,2096921, 302791, 386373
2096921,2096921, 302519, 386440
2096921,2096921, 302905, 386751
2096921,2096921, 302983, 386391
2096921,2096921, 302969, 386541
2096921,2096921, 303067, 386574
2096921,2096921, 303032, 386683
2096921,2096921, 303120, 386795
2096921,2096921, 302860, 386702
2096921,2096921, 303433, 386886
2096921,2096921, 303102, 386750
2096921,2096921, 303418, 386733
2096921,2096921, 303453, 386834
2096921,2096921, 303351, 386807
2096921,2096921, 303380, 386599
2096921,2096921, 303499, 386777
2096921,2096921, 303423, 387062
2096921,2096921, 303285, 387040
2096921,2096921, 303401, 386986
2096921,2096921, 303201, 386861
2096921,2096921, 303433, 386878
2096921,2096921, 303392, 386922
2096921,2096921, 303356, 386996
2096921,2096921, 303185, 386777
2096921,2096921, 303413, 387209
2096921,2096921, 303440, 386987
2096921,2096921, 303513, 387033
2096921,2096921, 303309, 387165
2096921,2096921, 303492, 386983
2096921,2096921, 303396, 387099
2096921,2096921, 303582, 386983
2096921,2096921, 303446, 386884
2096921,2096921, 303071, 386832
2096921,2096921, 303356, 386697
2096921,2096921, 303196, 386970
2096921,2096921, 303184, 386729
2096921,2096921, 303424, 386759
2096921,2096921, 303304, 386743
2096921,2096921, 303294, 386639
2096921,2096921, 302962, 386753
2096921,2096921, 302999, 386480
2096921,2096921, 303025, 386570
2096921,2096921, 302785, 386309
2096921,2096921, 303107, 386537
2096921,2096921, 303179, 386497
2096921,2096921, 303214, 386646
2096921,2096921, 303024, 386538
2096921,2096921, 303074, 386283
2096921,2096921, 302910, 386239
2096921,2096921, 302596, 386512
2096921,2096921, 302810, 386183
2096921,2096921, 302733, 386395
2096921,2096921, 302658, 386351
2096921,2096921, 302789, 386537
2096921,2096921, 302956, 386299
2096921,2096921, 302921, 386248
2096921,2096921, 302529, 386509
2096921,2096921, 302980, 386366
2096921,2096921, 302570, 386272
2096921,2096921, 302774, 386258
2096921,2096921, 302777, 386306
2096921,2096921, 302885, 386321
2096921,2096921, 302924, 386374
2096921,2096921, 302877, 386324
2096921,2096921, 303079, 386108
2096921,2096921, 302986, 386468
2096921,2096921, 303141, 386361
2096921,2096921, 302985, 386158
2096921,2096921, 302888, 386176
2096921,2096921, 302873, 386142
2096921,2096921, 302840, 386178
2096921,2096921, 303039, 386257
2096921,2096921, 302913, 386150
2096921,2096921, 303116, 386301
2096921,2096921, 303053, 386700
2096921,2096921, 303000, 386710
2096921,2096921, 302856, 386571
2096921,2096921, 302903, 386867
2096921,2096921, 303078, 386826
2096921,2096921, 303154, 386502
2096921,2096921, 303345, 386784
2096921,2096921, 303034, 386849
2096921,2096921, 303401, 386776
2096921,2096921, 303475, 386881
2096921,2096921, 303538, 386998
2096921,2096921, 303749, 386941
2096921,2096921, 303842, 387096
2096921,2096921, 304125, 387369
2096921,2096921, 303587, 387141
2096921,2096921, 303942, 387243
2096921,2096921, 304129, 387469
2096921,2096921, 304036, 387308
2096921,2096921, 304085, 387474
2096921,2096921, 303858, 387558
2096921,2096921, 304036, 387603
2096921,2096921, 304134, 387458
2096921,2096921, 304212, 387961
2096921,2096921, 304480, 387644
2096921,2096921, 304119, 387537
2096921,2096921, 304319, 387578
2096921,2096921, 304392, 387665
2096921,2096921, 304297, 387871
2096921,2096921, 304380, 387925
2096921,2096921, 304624, 388158
2096921,2096921, 304567, 388113
2096921,2096921, 304444, 388475
2096921,2096921, 304741, 388390
2096921,2096921, 304815, 388450
2096921,2096921, 305039, 388545
2096921,2096921, 305079, 388387
2096921,2096921, 305081, 388283
2096921,2096921, 304834, 388369
2096921,2096921, 304864, 388547
2096921,2096921, 304995, 388579
2096921,2096921, 305125, 388466
2096921,2096921, 305040, 388507
2096921,2096921, 305310, 388535
2096921,2096921, 305062, 388452
2096921,2096921, 305239, 388395
2096921,2096921, 305552, 388704
2096921,2096921, 305339, 388862
2096921,2096921, 305317, 388931
2096921,2096921, 305222, 388866
2096921,2096921, 305399, 389093
2096921,2096921, 305558, 388851
2096921,2096921, 305873, 389223
2096921,2096921, 305989, 389106
2096921,2096921, 305886, 389274
2096921,2096921, 305523, 389168
2096921,2096921, 305819, 389112
2096921,2096921, 306055, 389376
2096921,2096921, 306129, 389312
2096921,2096921, 305954, 389336
2096921,2096921, 305687, 389353
2096921,2096921, 305874, 389343
2096921,2096921, 306097, 389584
2096921,2096921, 306114, 389876
2096921,2096921, 305869, 389548
2096921,2096921, 306300, 389302
2096921,2096921, 306271, 389481
2096921,2096921, 306450, 389589
2096921,2096921, 306460, 389607
2096921,2096921, 306378, 389503
2096921,2096921, 306510, 389899
2096921,2096921, 306222, 389826
2096921,2096921, 306521, 389866
2096921,2096921, 306408, 389975
2096921,2096921, 306409, 390143
2096921,2096921, 306550, 390041
2096921,2096921, 306722, 389814
2096921,2096921, 306485, 390038
2096921,2096921, 306515, 390156
2096921,2096921, 306660, 390086
2096921,2096921, 306751, 390200
2096921,2096921, 306944, 390225
2096921,2096921, 307109, 390453
2096921,2096921, 307108, 390442
2096921,2096921, 306857, 390436
2096921,2096921, 306610, 390205
2096921,2096921, 307001, 390292
2096921,2096921, 307100, 390693
2096921,2096921, 307080, 390630
2096921,2096921, 307195, 390589
2096921,2096921, 307233, 390698
2096921,2096921, 307097, 390571
2096921,2096921, 307365, 390982
2096921,2096921, 307053, 391059
2096921,2096921, 307170, 390865
2096921,2096921, 307113, 390603
2096921,2096921, 307139, 390646
2096921,2096921, 307577, 391081
2096921,2096921, 307259, 390954
2096921,2096921, 307579, 391017
2096921,2096921, 307505, 391050
2096921,2096921, 307523, 391041
2096921,2096921, 307599, 391233
2096921,2096921, 307574, 391261
2096921,2096921, 307574, 391334
2096921,2096921, 307566, 391316
2096921,2096921, 307556, 390942
2096921,2096921, 307764, 391036
2096921,2096921, 307645, 390783
2096921,2096921, 307757, 391063
2096921,2096921, 307610, 391234
2096921,2096921, 308191, 391377
2096921,2096921, 307904, 391222
2096921,2096921, 307964, 391452
2096921,2096921, 307970, 391524
2096921,2096921, 307978, 391909
2096921,2096921, 307751, 391633
2096921,2096921, 307607, 391520
2096921,2096921, 308053, 391434
2096921,2096921, 307975, 391474
2096921,2096921, 308191, 391584
2096921,2096921, 308287, 391561
2096921,2096921, 308027, 391929
2096921,2096921, 308291, 391466
2096921,2096921, 308150, 391563
2096921,2096921, 308297, 391568
2096921,2096921, 308558, 391578
2096921,2096921, 308377, 391648
2096921,2096921, 308339, 391673
2096921,2096921, 308329, 392030
2096921,2096921, 308428, 391603
2096921,2096921, 308542, 391849
2096921,2096921, 308459, 391874
2096921,2096921, 308435, 391841
2096921,2096921, 308404, 391795
2096921,2096921, 308407, 391951
2096921,2096921, 308324, 391914
2096921,2096921, 308683, 392229
2096921,2096921, 308554, 392069
2096921,2096921, 308818, 392119
2096921,2096921, 308678, 392096
2096921,2096921, 308416, 392054
2096921,2096921, 308570, 392017
2096921,2096921, 308581, 391858
2096921,2096921, 308776, 391994
2096921,2096921, 308870, 392272
2096921,2096921, 308547, 392174
2096921,2096921, 308672, 392223
2096921,2096921, 308649, 392250
2096921,2096921, 308907, 392189
2096921,2096921, 308874, 392136
2096921,2096921, 308867, 392319
2096921,2096921, 308742, 392415
2096921,2096921, 308715, 392630
2096921,2096921, 308651, 392253
2096921,2096921, 308773, 392308
2096921,2096921, 308930, 392208
2096921,2096921, 308999, 392418
2096921,2096921, 308812, 392465
2096921,2096921, 309116, 392458
2096921,2096921, 309119, 392301
2096921,2096921, 309174, 392516
2096921,2096921, 309420, 392654
2096921,2096921, 309389, 392467
2096921,2096921, 308922, 392414
2096921,2096921, 308784, 392270
2096921,2096921, 308719, 392345
2096921,2096921, 308970, 392406
2096921,2096921, 309118, 392394
2096921,2096921, 308931, 392346
2096921,2096921, 309194, 392366
2096921,2096921, 309232, 392676
2096921,2096921, 309298, 392477
2096921,2096921, 309257, 392862
2096921,2096921, 309284, 392586
2096921,2096921, 309040, 392734
2096921,2096921, 309209, 392608
2096921,2096921, 309286, 392734
2096921,2096921, 309315, 392716
2096921,2096921, 309249, 392714
2096921,2096921, 309202, 392805
2096921,2096921, 309261, 392896
2096921,2096921, 309153, 392921
2096921,2096921, 309348, 392518
2096921,2096921, 309466, 392763
2096921,2096921, 309464, 392516
2096921,2096921, 309521, 392752
2096921,2096921, 309503, 392801
2096921,2096921, 309091, 392801
2096921,2096921, 309293, 392718
2096921,2096921, 309214, 392971
2096921,2096921, 309895, 393053
2096921,2096921, 309622, 393401
2096921,2096921, 309547, 393138
2096921,2096921, 309628, 392929
2096921,2096921, 309412, 392860
2096921,2096921, 309265, 392769
2096921,2096921, 309622, 392961
2096921,2096921, 309409, 392869
2096921,2096921, 309522, 393140
2096921,2096921, 309358, 393184
2096921,2096921, 309310, 392920
2096921,2096921, 309764, 393103
2096921,2096921, 309844, 393045
2096921,2096921, 309852, 393004
2096921,2096921, 309681, 393053
2096921,2096921, 309587, 393201
2096921,2096921, 309524, 392924
2096921,2096921, 309345, 393002
2096921,2096921, 309779, 392813
2096921,2096921, 309815, 393091
2096921,2096921, 309596, 393113
2096921,2096921, 309885, 393164
2096921,2096921, 309838, 393395
2096921,2096921, 309716, 393422
2096921,2096921, 309467, 393249
2096921,2096921, 309712, 393440
2096921,2096921, 309638, 393141
2096921,2096921, 309623, 393100
2096921,2096921, 309803, 393529
2096921,2096921, 309765, 393383
2096921,2096921, 309810, 393180
2096921,2096921, 309914, 393282
2096921,2096921, 309843, 393265
2096921,2096921, 309760, 393297
2096921,2096921, 309475, 393478
2096921,2096921, 309822, 393483
2096921,2096921, 309633, 393292
2096921,2096921, 309775, 392919
2096921,2096921, 309760, 393203
2096921,2096921, 309760, 393351
2096921,2096921, 309863, 393517
2096921,2096921, 309782, 393363
2096921,2096921, 309807, 393354
2096921,2096921, 310004, 393105
2096921,2096921, 309908, 393224
2096921,2096921, 309798, 393149
2096921,2096921, 309814, 393334
2096921,2096921, 309856, 393182
2096921,2096921, 309895, 393052
2096921,2096921, 310101, 393382
2096921,2096921, 309828, 393373
2096921,2096921, 309795, 393227
2096921,2096921, 309695, 393303
2096921,2096921, 309822, 393141
2096921,2096921, 309749, 393161
2096921,2096921, 309966, 393144
2096921,2096921, 310001, 393484
2096921,2096921, 310169, 393202
2096921,2096921, 309772, 393265
2096921,2096921, 309663, 393137
2096921,2096921, 309567, 393352
2096921,2096921, 310020, 393229
2096921,2096921, 309646, 393485
2096921,2096921, 309957, 393383
2096921,2096921, 309750, 393150
2096921,2096921, 309864, 393027
2096921,2096921, 309841, 393231
2096921,2096921, 309829, 393470
2096921,2096921, 309698, 393216
2096921,2096921, 309771, 393468
2096921,2096921, 309522, 393457
2096921,2096921, 309884, 393336
2096921,2096921, 309814, 393207
2096921,2096921, 309756, 393107
2096921,2096921, 309987, 393186
2096921,2096921, 309934, 393290
2096921,2096921, 309540, 393376
2096921,2096921, 309611, 393189
2096921,2096921, 309699, 393320
2096921,2096921, 309844, 393343
2096921,2096921, 309341, 393147
2096921,2096921, 309363, 393017
2096921,2096921, 309250, 392790
2096921,2096921, 309365, 393056
2096921,2096921, 309397, 392943
2096921,2096921, 309550, 392605
2096921,2096921, 309063, 392498
2096921,2096921, 309111, 392512
2096921,2096921, 309040, 392509
2096921,2096921, 309179, 392567
2096921,2096921, 308920, 392632
2096921,2096921, 308694, 392007
2096921,2096921, 308447, 392055
2096921,2096921, 308433, 392293
2096921,2096921, 308200, 391926
2096921,2096921, 307941, 391989
2096921,2096921, 307705, 391315
2096921,2096921, 307574, 391099
2096921,2096921, 307639, 391096
2096921,2096921, 307677, 391161
2096921,2096921, 307591, 390916
2096921,2096921, 307066, 390651
2096921,2096921, 306960, 390230
2096921,2096921, 306975, 390318
2096921,2096921, 306845, 390438
2096921,2096921, 305835, 390710
2096921,2096921, 305147, 388893
2096921,2096921, 304989, 388505
2096921,2096921, 305251, 388502
2096921,2096921, 304924, 388513
2096921,2096921, 305049, 388401
2096921,2096921, 303208, 386698
2096921,2096921, 302686, 385966
2096921,2096921, 302696, 386058
2096921,2096921, 302801, 385866
2096921,2096921, 302093, 386454
2096921,2096921, 301297, 384751
2096921,2096921, 300870, 384615
2096921,2096921, 301241, 384341
2096921,2096921, 301024, 384708
2096921,2096921, 300200, 384500
2096921,2096921, 299733, 383552
2096921,2096921, 299603, 383234
2096921,2096921, 299532, 383140
2096921,2096921, 299774, 383012
2096921,2096921, 299060, 383361
2096921,2096921, 298798, 382476
2096921,2096921, 298462, 382061
2096921,2096921, 298484, 381798
2096921,2096921, 298734, 381851
2096921,2096921, 298282, 381836
2096921,2096921, 298195, 381365
2096921,2096921, 298050, 381608
2096921,2096921, 298094, 381623
2096921,2096921, 297885, 381553
2096921,2096921, 297533, 381463
2096921,2096921, 297652, 380993
2096921,2096921, 297344, 380854
2096921,2096921, 297311, 381075
2096921,2096921, 297166, 381035
2096921,2096921, 297111, 380950
2096921,2096921, 296987, 380771
2096921,2096921, 297003, 380348
2096921,2096921, 296717, 380503
2096921,2096921, 297121, 380260
2096921,2096921, 297191, 380508
2096921,2096921, 297043, 380512
2096921,2096921, 297020, 380327
2096921,2096921, 297283, 380579
2096921,2096921, 297047, 380453
2096921,2096921, 297166, 380498
2096921,2096921, 297071, 380430
2096921,2096921, 297172, 380715
2096921,2096921, 296838, 380872
2096921,2096921, 296956, 380585
2096921,2096921, 297009, 380434
2096921,2096921, 297264, 380402
2096921,2096921, 297361, 380848
2096921,2096921, 297222, 380876
2096921,2096921, 297119, 381077
2096921,2096921, 297340, 380598
2096921,2096921, 297254, 380791
2096921,2096921, 297615, 380777
2096921,2096921, 297407, 380542
2096921,2096921, 297463, 380722
2096921,2096921, 297082, 380804
2096921,2096921, 297350, 380880
2096921,2096921, 297418, 380811
2096921,2096921, 297218, 381111
2096921,2096921, 297259, 380908
2096921,2096921, 297706, 380972
2096921,2096921, 297886, 381126
2096921,2096921, 297869, 381076
2096921,2096921, 297825, 381125
2096921,2096921, 297653, 381454
2096921,2096921, 298050, 381188
2096921,2096921, 298330, 381522
2096921,2096921, 298271, 381660
2096921,2096921, 298264, 381515
2096921,2096921, 298107, 381592
2096921,2096921, 298488, 381646
2096921,2096921, 298641, 382036
2096921,2096921, 298687, 382287
2096921,2096921, 298458, 382143
2096921,2096921, 298627, 382123
2096921,2096921, 298726, 382192
2096921,2096921, 299066, 382498
2096921,2096921, 298984, 382774
2096921,2096921, 298901, 382623
2096921,2096921, 298646, 382537
2096921,2096921, 299013, 382524
2096921,2096921, 299252, 382826
2096921,2096921, 299157, 382841
2096921,2096921, 299249, 383066
2096921,2096921, 299516, 383158
2096921,2096921, 299477, 382875
2096921,2096921, 300028, 383337
2096921,2096921, 299977, 383280
2096921,2096921, 299730, 383489
2096921,2096921, 299994, 383372
2096921,2096921, 300091, 383377
2096921,2096921, 299871, 383591
2096921,2096921, 300301, 383626
2096921,2096921, 300199, 383636
2096921,2096921, 300430, 384005
2096921,2096921, 300232, 383772
2096921,2096921, 300673, 384059
2096921,2096921, 300491, 383878
2096921,2096921, 300648, 384009
2096921,2096921, 300673, 384345
2096921,2096921, 300855, 384293
2096921,2096921, 300859, 384510
2096921,2096921, 301091, 384619
2096921,2096921, 301146, 384373
2096921,2096921, 301029, 384410
2096921,2096921, 301275, 384391
2096921,2096921, 301285, 385067
2096921,2096921, 301299, 384932
2096921,2096921, 301326, 385040
2096921,2096921, 301703, 384821
2096921,2096921, 301815, 385070
2096921,2096921, 301953, 385432
2096921,2096921, 302091, 385370
2096921,2096921, 301807, 385386
2096921,2096921, 301887, 385115
2096921,2096921, 302133, 385252
2096921,2096921, 302409, 385785
2096921,2096921, 302127, 385505
2096921,2096921, 302172, 385451
2096921,2096921, 302274, 385654
2096921,2096921, 302426, 385834
2096921,2096921, 302502, 386022
2096921,2096921, 302805, 386227
2096921,2096921, 302637, 386211
2096921,2096921, 302445, 386352
2096921,2096921, 302667, 386148
2096921,2096921, 303022, 386438
2096921,2096921, 302997, 386470
2096921,2096921, 302936, 386569
2096921,2096921, 302833, 386297
2096921,2096921, 303019, 386522
2096921,2096921, 303347, 386395
2096921,2096921, 303274, 386880
2096921,2096921, 303266, 386624
2096921,2096921, 303213, 386764
2096921,2096921, 303266, 386504
2096921,2096921, 303206, 386588
2096921,2096921, 302934, 386721
2096921,2096921, 303334, 386794
2096921,2096921, 303357, 386803
2096921,2096921, 303439, 386563
2096921,2096921, 303554, 386731
2096921,2096921, 303416, 386787
2096921,2096921, 303700, 386778
2096921,2096921, 303232, 387056
2096921,2096921, 303379, 386904
2096921,2096921, 303639, 387077
2096921,2096921, 303238, 387002
2096921,2096921, 303066, 387142
2096921,2096921, 303515, 387097
2096921,2096921, 303726, 387001
2096921,2096921, 303598, 386870
2096921,2096921, 303516, 387189
2096921,2096921, 303440, 387068
2096921,2096921, 303478, 386985
2096921,2096921, 303331, 386847
2096921,2096921, 303478, 386611
2096921,2096921, 303499, 386554
2096921,2096921, 303510, 386799
2096921,2096921, 303333, 387075
2096921,2096921, 303225, 386621
2096921,2096921, 303202, 386747
2096921,2096921, 303298, 386825
2096921,2096921, 303414, 386796
2096921,2096921, 303159, 386923
2096921,2096921, 303312, 386797
2096921,2096921, 302985, 386826
2096921,2096921, 303395, 386842
2096921,2096921, 303221, 386699
2096921,2096921, 303291, 386755
2096921,2096921, 303060, 386533
2096921,2096921, 303049, 386306
2096921,2096921, 303126, 386388
2096921,2096921, 303236, 386572
2096921,2096921, 302959, 386377
2096921,2096921, 302874, 386268
2096921,2096921, 302679, 386204
2096921,2096921, 302894, 386282
2096921,2096921, 302485, 386329
2096921,2096921, 302827, 386360
2096921,2096921, 302802, 386512
2096921,2096921, 302692, 386357
2096921,2096921, 302489, 386114
2096921,2096921, 302762, 386227
2096921,2096921, 302676, 386281
2096921,2096921, 302931, 386236
2096921,2096921, 303096, 386471
2096921,2096921, 302873, 386270
2096921,2096921, 302830, 386146
2096921,2096921, 302775, 386300
2096921,2096921, 302735, 386367
2096921,2096921, 302823, 386454
2096921,2096921, 302699, 386292
2096921,2096921, 302765, 386258
2096921,2096921, 302828, 386190
2096921,2096921, 302962, 386299
2096921,2096921, 302839, 386256
2096921,2096921, 303124, 386314
2096921,2096921, 303062, 386500
2096921,2096921, 302931, 386590
2096921,2096921, 303259, 386273
2096921,2096921, 302978, 386564
2096921,2096921, 303160, 386598
2096921,2096921, 303236, 386609
2096921,2096921, 303039, 386392
2096921,2096921, 303179, 386441
2096921,2096921, 303408, 386984
2096921,2096921, 303629, 386897
2096921,2096921, 303437, 386889
2096921,2096921, 303519, 386909
2096921,2096921, 303379, 387054
2096921,2096921, 303375, 387111
2096921,2096921, 303891, 387177
2096921,2096921, 303802, 387311
2096921,2096921, 303790, 387209
2096921,2096921, 304195, 387132
2096921,2096921, 303776, 387136
2096921,2096921, 303968, 387170
2096921,2096921, 303541, 387442
2096921,2096921, 303936, 387343
2096921,2096921, 303929, 387553
2096921,2096921, 304090, 387644
2096921,2096921, 304141, 387502
2096921,2096921, 304322, 387732
2096921,2096921, 304457, 387855
2096921,2096921, 304378, 388088
2096921,2096921, 304426, 387967
2096921,2096921, 304408, 388122
2096921,2096921, 304587, 388133
2096921,2096921, 304400, 388074
2096921,2096921, 304875, 387945
2096921,2096921, 304804, 388351
2096921,2096921, 304722, 388381
2096921,2096921, 304736, 388261
2096921,2096921, 304691, 388211
2096921,2096921, 304779, 388328
2096921,2096921, 304879, 388422
2096921,2096921, 305112, 388445
2096921,2096921, 304954, 388179
2096921,2096921, 304768, 388286
2096921,2096921, 304990, 388475
2096921,2096921, 305143, 388532
2096921,2096921, 305374, 388411
2096921,2096921, 305282, 388820
2096921,2096921, 305190, 388895
2096921,2096921, 305280, 389021
2096921,2096921, 305479, 388797
2096921,2096921, 305572, 388676
2096921,2096921, 305526, 388622
2096921,2096921, 305388, 388740
2096921,2096921, 305768, 388839
2096921,2096921, 305669, 389243
2096921,2096921, 305698, 389084
2096921,2096921, 305506, 389451
2096921,2096921, 305702, 389292
2096921,2096921, 305971, 389007
2096921,2096921, 305866, 389199
2096921,2096921, 305717, 389329
2096921,2096921, 305737, 389306
2096921,2096921, 305880, 389402
2096921,2096921, 305984, 389310
2096921,2096921, 306008, 389811
2096921,2096921, 305960, 389342
2096921,2096921, 305815, 389235
2096921,2096921, 306035, 389413
2096921,2096921, 306362, 389630
2096921,2096921, 306276, 389929
2096921,2096921, 306005, 389785
2096921,2096921, 306324, 389882
2096921,2096921, 306417, 389971
2096921,2096921, 306233, 389902
2096921,2096921, 306630, 389983
2096921,2096921, 306786, 389908
2096921,2096921, 306549, 389876
2096921,2096921, 306698, 389855
2096921,2096921, 306237, 389656
2096921,2096921, 306825, 389931
2096921,2096921, 306849, 390310
2096921,2096921, 307096, 390141
2096921,2096921, 306929, 390214
2096921,2096921, 306603, 390155
2096921,2096921, 306973, 390251
2096921,2096921, 306998, 390466
2096921,2096921, 307027, 390413
2096921,2096921, 307102, 390327
2096921,2096921, 307026, 390299
2096921,2096921, 307121, 390516
2096921,2096921, 307136, 390645
2096921,2096921, 307289, 390819
2096921,2096921, 307374, 390494
2096921,2096921, 307293, 390473
2096921,2096921, 307322, 390775
2096921,2096921, 307323, 390590
2096921,2096921, 307125, 390637
2096921,2096921, 307104, 390925
2096921,2096921, 307236, 390629
2096921,2096921, 307299, 391025
2096921,2096921, 307248, 390678
2096921,2096921, 307457, 390746
2096921,2096921, 307804, 390839
2096921,2096921, 307742, 390624
2096921,2096921, 307765, 391059
2096921,2096921, 307770, 390978
2096921,2096921, 307484, 390898
2096921,2096921, 307519, 391085
2096921,2096921, 307780, 390923
2096921,2096921, 307590, 391193
2096921,2096921, 307657, 391081
2096921,2096921, 307861, 391155
2096921,2096921, 307978, 391158
2096921,2096921, 307826, 391341
2096921,2096921, 308136, 391643
2096921,2096921, 307973, 391582
2096921,2096921, 307716, 391574
2096921,2096921, 307617, 391469
2096921,2096921, 308159, 391697
2096921,2096921, 308333, 391764
2096921,2096921, 308356, 391698
2096921,2096921, 308084, 391527
2096921,2096921, 307798, 391650
2096921,2096921, 308085, 391673
2096921,2096921, 308048, 391663
2096921,2096921, 308434, 391798
2096921,2096921, 308392, 391831
2096921,2096921, 308155, 391812
2096921,2096921, 308405, 391615
2096921,2096921, 308556, 391665
2096921,2096921, 308374, 391686
2096921,2096921, 308562, 391954
2096921,2096921, 308466, 391909
2096921,2096921, 308510, 392038
2096921,2096921, 308584, 392093
2096921,2096921, 308358, 391752
2096921,2096921, 308290, 391769
2096921,2096921, 308628, 391791
2096921,2096921, 308580, 392342
2096921,2096921, 308531, 392171
2096921,2096921, 308856, 392000
2096921,2096921, 308534, 391970
2096921,2096921, 308459, 392267
2096921,2096921, 308801, 392225
2096921,2096921, 308670, 392063
2096921,2096921, 308565, 392228
2096921,2096921, 308775, 392051
2096921,2096921, 308768, 392101
2096921,2096921, 308857, 392306
2096921,2096921, 308537, 392222
2096921,2096921, 308666, 392052
2096921,2096921, 308633, 392192
2096921,2096921, 308748, 392234
2096921,2096921, 308588, 392498
2096921,2096921, 308951, 392278
2096921,2096921, 308871, 392519
2096921,2096921, 308816, 392362
2096921,2096921, 308986, 392275
2096921,2096921, 308792, 391869
2096921,2096921, 309061, 392336
2096921,2096921, 309027, 392567
2096921,2096921, 308859, 392767
2096921,2096921, 308982, 392618
2096921,2096921, 309026, 392818
2096921,2096921, 308903, 392616
2096921,2096921, 309208, 392672
2096921,2096921, 308819, 392530
2096921,2096921, 308849, 392560
2096921,2096921, 309119, 392551
2096921,2096921, 309207, 392808
2096921,2096921, 308750, 392530
2096921,2096921, 308879, 392681
2096921,2096921, 309191, 392535
2096921,2096921, 309098, 392802
2096921,2096921, 309066, 392647
2096921,2096921, 309031, 392670
2096921,2096921, 309470, 392467
2096921,2096921, 309213, 392798
2096921,2096921, 309204, 392752
2096921,2096921, 309386, 392707
2096921,2096921, 308989, 392669
2096921,2096921, 309265, 392634
2096921,2096921, 309252, 392642
2096921,2096921, 309347, 392717
2096921,2096921, 309450, 392799
2096921,2096921, 309433, 393021
2096921,2096921, 309386, 392821
2096921,2096921, 309261, 392733
2096921,2096921, 309223, 392815
2096921,2096921, 309457, 392689
2096921,2096921, 309483, 392730
2096921,2096921, 309028, 392991
2096921,2096921, 309434, 392822
2096921,2096921, 309527, 393070
2096921,2096921, 309617, 393301
2096921,2096921, 309651, 393149
2096921,2096921, 309404, 393318
2096921,2096921, 309311, 393183
2096921,2096921, 309484, 392810
2096921,2096921, 309473, 392848
2096921,2096921, 309530, 392854
2096921,2096921, 309747, 392909
2096921,2096921, 309545, 393024
2096921,2096921, 309463, 393223
2096921,2096921, 309574, 393078
2096921,2096921, 309389, 393042
2096921,2096921, 309716, 393326
2096921,2096921, 309834, 393113
2096921,2096921, 309820, 393068
2096921,2096921, 309654, 393183
2096921,2096921, 309722, 393133
2096921,2096921, 309567, 393150
2096921,2096921, 309684, 393158
2096921,2096921, 309742, 392954
2096921,2096921, 309833, 393121
2096921,2096921, 309807, 393249
2096921,2096921, 309902, 393173
2096921,2096921, 309588, 393423
2096921,2096921, 309662, 393188
2096921,2096921, 309849, 393062
2096921,2096921, 309998, 393304
2096921,2096921, 310138, 393401
2096921,2096921, 309778, 393605
2096921,2096921, 309769, 393314
2096921,2096921, 309887, 393248
2096921,2096921, 309835, 393300
2096921,2096921, 309916, 393194
2096921,2096921, 309916, 393256
2096921,2096921, 309892, 393064
2096921,2096921, 309735, 393452
2096921,2096921, 309777, 393361
2096921,2096921, 309711, 393331
2096921,2096921, 309811, 393396
2096921,2096921, 309931, 393499
2096921,2096921, 309880, 393474
2096921,2096921, 309987, 393184
2096921,2096921, 309694, 393106
2096921,2096921, 309690, 393086
2096921,2096921, 309681, 393069
2096921,2096921, 309998, 393314
2096921,2096921, 309678, 393312
2096921,2096921, 309690, 393201
2096921,2096921, 309901, 393174
2096921,2096921, 309913, 393010
2096921,2096921, 309657, 393163
2096921,2096921, 310018, 393138
2096921,2096921, 309872, 393291
2096921,2096921, 309794, 393291
2096921,2096921, 310059, 393143
2096921,2096921, 309573, 393474
2096921,2096921, 309936, 393083
2096921,2096921, 310018, 393094
2096921,2096921, 310146, 393243
2096921,2096921, 310033, 393147
2096921,2096921, 309830, 393179
2096921,2096921, 309790, 393099
2096921,2096921, 309924, 393236
2096921,2096921, 309798, 393512
2096921,2096921, 309870, 393366
2096921,2096921, 309722, 393287
2096921,2096921, 309658, 393117
2096921,2096921, 309798, 393105
2096921,2096921, 309943, 393262
2096921,2096921, 310019, 393399
2096921,2096921, 309927, 393463
2096921,2096921, 310085, 393393
2096921,2096921, 310034, 393184
2096921,2096921, 310018, 393295
2096921,2096921, 310076, 393444
2096921,2096921, 309884, 393314
2096921,2096921, 310113, 393244
2096921,2096921, 310057, 393184
2096921,2096921, 310156, 393113
2096921,2096921, 309418, 393394
2096921,2096921, 309440, 393231
2096921,2096921, 309440, 392946
2096921,2096921, 309310, 393196
2096921,2096921, 309277, 392862
2096921,2096921, 309374, 393043
2096921,2096921, 309078, 392723
2096921,2096921, 309094, 392628
2096921,2096921, 309105, 392365
2096921,2096921, 308975, 392545
2096921,2096921, 308664, 392513
2096921,2096921, 308641, 392000
2096921,2096921, 308563, 392075
2096921,2096921, 308616, 392048
2096921,2096921, 308473, 392150
2096921,2096921, 308095, 391982
2096921,2096921, 307894, 391281
2096921,2096921, 307770, 390927
2096921,2096921, 307768, 391045
2096921,2096921, 307835, 391227
2096921,2096921, 307042, 391067
2096921,2096921, 306673, 390461
2096921,2096921, 306832, 390543
2096921,2096921, 306749, 390381
2096921,2096921, 306904, 390224
2096921,2096921, 305780, 390569
2096921,2096921, 305113, 388885
2096921,2096921, 305007, 388259
2096921,2096921, 304907, 388498
2096921,2096921, 304980, 388619
2096921,2096921, 303280, 388421
2096921,2096921, 302662, 386570
2096921,2096921, 302657, 386125
2096921,2096921, 302798, 385957
2096921,2096921, 302583, 386122
2096921,2096921, 302722, 386149
2096921,2096921, 301438, 384309
2096921,2096921, 301001, 384437
2096921,2096921, 300727, 384309
2096921,2096921, 301031, 384252
2096921,2096921, 300329, 384398
2096921,2096921, 299857, 383411
2096921,2096921, 299563, 383099
2096921,2096921, 299605, 383139
2096921,2096921, 299491, 382969
2096921,2096921, 299062, 382852
2096921,2096921, 298947, 382362
2096921,2096921, 298561, 382460
2096921,2096921, 298738, 382112
2096921,2096921, 298469, 382298
2096921,2096921, 298128, 382388
2096921,2096921, 297866, 381672
2096921,2096921, 297862, 381619
2096921,2096921, 297881, 381485
2096921,2096921, 297798, 381446
2096921,2096921, 297530, 381315
2096921,2096921, 297656, 381001
2096921,2096921, 297555, 380846
2096921,2096921, 297701, 380886
2096921,2096921, 297494, 381005
2096921,2096921, 297212, 380943
2096921,2096921, 297012, 380533
2096921,2096921, 297115, 380638
2096921,2096921, 297189, 380490
2096921,2096921, 297233, 380627
2096921,2096921, 297039, 380396
2096921,2096921, 297083, 380490
2096921,2096921, 297216, 380483
2096921,2096921, 297456, 380686
2096921,2096921, 297099, 380633
2096921,2096921, 297241, 380738
2096921,2096921, 297049, 380235
2096921,2096921, 297185, 380809
2096921,2096921, 297038, 380604
2096921,2096921, 296824, 380564
2096921,2096921, 297153, 380649
2096921,2096921, 297392, 380645
2096921,2096921, 297052, 380616
2096921,2096921, 297085, 380603
2096921,2096921, 297314, 380303
2096921,2096921, 297132, 380598
2096921,2096921, 297145, 380778
2096921,2096921, 297301, 380774
2096921,2096921, 297396, 380888
2096921,2096921, 297426, 380677
2096921,2096921, 296992, 380456
2096921,2096921, 297237, 380969
2096921,2096921, 297540, 380850
2096921,2096921, 297486, 380870
2096921,2096921, 297631, 380976
2096921,2096921, 297970, 381064
2096921,2096921, 297744, 381308
2096921,2096921, 297682, 381459
2096921,2096921, 297689, 381357
2096921,2096921, 298018, 381198
2096921,2096921, 297943, 381671
2096921,2096921, 297806, 381556
2096921,2096921, 297829, 381773
2096921,2096921, 297992, 381626
2096921,2096921, 297875, 381546
2096921,2096921, 298498, 381622
2096921,2096921, 298615, 382103
2096921,2096921, 298700, 382151
2096921,2096921, 298595, 382132
2096921,2096921, 298859, 382057
2096921,2096921, 298825, 382050
2096921,2096921, 298947, 382349
2096921,2096921, 299028, 382612
2096921,2096921, 299058, 382617
2096921,2096921, 298923, 382485
2096921,2096921, 299177, 382378
2096921,2096921, 299332, 382689
2096921,2096921, 299552, 382851
2096921,2096921, 299593, 382879
2096921,2096921, 299443, 383196
2096921,2096921, 299251, 382841
2096921,2096921, 299603, 383148
2096921,2096921, 299877, 383199
2096921,2096921, 299924, 383250
2096921,2096921, 299825, 383209
2096921,2096921, 299978, 383343
2096921,2096921, 300037, 383708
2096921,2096921, 300136, 383602
2096921,2096921, 300089, 383411
2096921,2096921, 300181, 383569
2096921,2096921, 300453, 383562
2096921,2096921, 300481, 384035
2096921,2096921, 300580, 384398
2096921,2096921, 300785, 384188
2096921,2096921, 300704, 384209
2096921,2096921, 300743, 384125
2096921,2096921, 300778, 384129
2096921,2096921, 301195, 384455
2096921,2096921, 300852, 384544
2096921,2096921, 301020, 384504
2096921,2096921, 301348, 384542
2096921,2096921, 301389, 385166
2096921,2096921, 301161, 384828
2096921,2096921, 301311, 385005
2096921,2096921, 301402, 384885
2096921,2096921, 301787, 384805
2096921,2096921, 301975, 385123
2096921,2096921, 301735, 385607
2096921,2096921, 301735, 385508
2096921,2096921, 301918, 385380
2096921,2096921, 302284, 385305
2096921,2096921, 302439, 385653
2096921,2096921, 302523, 385714
2096921,2096921, 302373, 385848
2096921,2096921, 302248, 385681
2096921,2096921, 302578, 385675
2096921,2096921, 302684, 386299
2096921,2096921, 302675, 386327
2096921,2096921, 302638, 386228
2096921,2096921, 302443, 386451
2096921,2096921, 302669, 386061
2096921,2096921, 302739, 386398
2096921,2096921, 302889, 386307
2096921,2096921, 303261, 386364
2096921,2096921, 302823, 386570
2096921,2096921, 303178, 386529
2096921,2096921, 303079, 386793
2096921,2096921, 303170, 386621
2096921,2096921, 303298, 386574
2096921,2096921, 303398, 386725
2096921,2096921, 303175, 386642
2096921,2096921, 303184, 386767
2096921,2096921, 303030, 386770
2096921,2096921, 303198, 386950
2096921,2096921, 303306, 387023
2096921,2096921, 303075, 386825
2096921,2096921, 303249, 387170
2096921,2096921, 303561, 386664
2096921,2096921, 303396, 386670
2096921,2096921, 303409, 386964
2096921,2096921, 303365, 386905
2096921,2096921, 303428, 386739
2096921,2096921, 303385, 386545
2096921,2096921, 303398, 386612
2096921,2096921, 303425, 386829
2096921,2096921, 303457, 386864
2096921,2096921, 303524, 386790
2096921,2096921, 303366, 386867
2096921,2096921, 303215, 386858
2096921,2096921, 303382, 386820
2096921,2096921, 303473, 386868
2096921,2096921, 303343, 386910
2096921,2096921, 303402, 386759
2096921,2096921, 303323, 386740
2096921,2096921, 303341, 386770
2096921,2096921, 303085, 386496
2096921,2096921, 303327, 386660
2096921,2096921, 303290, 386539
2096921,2096921, 303418, 386937
2096921,2096921, 303251, 386820
2096921,2096921, 303169, 386887
2096921,2096921, 303081, 386727
2096921,2096921, 303081, 386816
2096921,2096921, 303001, 386645
2096921,2096921, 303263, 386738
2096921,2096921, 302799, 386474
2096921,2096921, 303167, 386230
2096921,2096921, 303120, 386105
2096921,2096921, 302997, 386433
2096921,2096921, 302781, 386366
2096921,2096921, 302817, 386616
2096921,2096921, 302532, 386417
2096921,2096921, 302746, 386303
2096921,2096921, 302857, 386301
2096921,2096921, 302856, 386500
2096921,2096921, 303124, 386281
2096921,2096921, 302969, 386025
2096921,2096921, 302643, 386187
2096921,2096921, 302555, 386217
2096921,2096921, 302771, 386249
2096921,2096921, 302867, 386261
2096921,2096921, 302646, 386424
2096921,2096921, 302753, 386133
2096921,2096921, 302574, 386338
2096921,2096921, 302691, 386381
2096921,2096921, 302791, 386295
2096921,2096921, 302593, 386403
2096921,2096921, 303061, 386387
2096921,2096921, 302634, 386173
2096921,2096921, 302869, 386006
2096921,2096921, 303064, 386146
2096921,2096921, 303034, 386501
2096921,2096921, 303014, 386397
2096921,2096921, 302751, 386494
2096921,2096921, 302888, 386542
2096921,2096921, 303157, 386579
2096921,2096921, 303125, 386789
2096921,2096921, 303006, 386589
2096921,2096921, 303144, 386616
2096921,2096921, 303094, 386288
2096921,2096921, 303062, 386444
2096921,2096921, 303403, 386705
2096921,2096921, 303371, 386924
2096921,2096921, 303486, 387077
2096921,2096921, 303470, 387004
2096921,2096921, 303587, 386841
2096921,2096921, 303554, 387288
2096921,2096921, 303823, 387088
2096921,2096921, 303724, 387116
2096921,2096921, 303640, 387227
2096921,2096921, 303822, 387314
2096921,2096921, 303786, 387278
2096921,2096921, 303975, 387480
2096921,2096921, 304099, 387491
2096921,2096921, 304269, 387834
2096921,2096921, 304036, 387566
2096921,2096921, 304386, 387729
2096921,2096921, 304214, 387653
2096921,2096921, 304222, 388030
2096921,2096921, 304125, 387821
2096921,2096921, 304588, 387572
2096921,2096921, 304537, 387870
2096921,2096921, 304607, 387924
2096921,2096921, 304548, 387825
2096921,2096921, 304631, 387904
2096921,2096921, 304507, 387986
2096921,2096921, 304794, 388288
2096921,2096921, 304644, 388024
2096921,2096921, 304685, 388050
2096921,2096921, 304815, 388335
2096921,2096921, 304784, 388389
2096921,2096921, 304861, 388379
2096921,2096921, 304771, 388458
2096921,2096921, 304643, 388260
2096921,2096921, 304928, 388372
2096921,2096921, 305274, 388045
2096921,2096921, 305438, 388837
2096921,2096921, 305103, 388672
2096921,2096921, 305070, 388987
2096921,2096921, 304894, 388607
2096921,2096921, 305157, 388252
2096921,2096921, 305131, 388792
2096921,2096921, 305471, 388846
2096921,2096921, 305407, 388958
2096921,2096921, 305433, 388859
2096921,2096921, 305452, 388676
2096921,2096921, 305611, 388779
2096921,2096921, 305521, 389081
2096921,2096921, 305734, 389472
2096921,2096921, 305767, 389264
2096921,2096921, 305657, 389185
2096921,2096921, 305839, 389313
2096921,2096921, 305833, 389130
2096921,2096921, 305996, 389151
2096921,2096921, 306078, 389575
2096921,2096921, 305928, 389653
2096921,2096921, 306061, 389654
2096921,2096921, 306164, 389497
2096921,2096921, 305783, 389520
2096921,2096921, 306178, 389412
2096921,2096921, 306412, 389716
2096921,2096921, 306419, 389754
2096921,2096921, 306193, 389857
2096921,2096921, 306176, 389885
2096921,2096921, 306234, 390075
2096921,2096921, 306410, 390012
2096921,2096921, 306566, 390310
2096921,2096921, 306653, 390224
2096921,2096921, 306690, 389801
2096921,2096921, 306770, 390140
2096921,2096921, 306760, 389992
2096921,2096921, 306840, 390254
2096921,2096921, 306585, 390446
2096921,2096921, 306662, 390386
2096921,2096921, 306450, 390207
2096921,2096921, 306820, 390214
2096921,2096921, 307100, 390431
2096921,2096921, 306955, 390424
2096921,2096921, 306814, 390445
2096921,2096921, 306817, 390467
2096921,2096921, 306884, 390366
2096921,2096921, 306921, 390493
2096921,2096921, 307132, 390473
2096921,2096921, 307251, 390682
2096921,2096921, 307395, 390489
2096921,2096921, 307046, 390898
2096921,2096921, 307332, 390690
2096921,2096921, 307290, 390875
2096921,2096921, 307393, 390976
2096921,2096921, 307091, 390619
2096921,2096921, 307083, 390723
2096921,2096921, 307340, 391008
2096921,2096921, 307285, 390903
2096921,2096921, 307386, 390629
2096921,2096921, 307432, 390955
2096921,2096921, 307640, 391110
2096921,2096921, 307475, 391078
2096921,2096921, 307494, 391118
2096921,2096921, 307529, 391268
2096921,2096921, 307569, 391321
2096921,2096921, 307585, 391110
2096921,2096921, 307470, 391258
2096921,2096921, 307745, 391248
2096921,2096921, 308063, 391239
2096921,2096921, 307737, 391030
2096921,2096921, 308197, 391043
2096921,2096921, 308300, 391479
2096921,2096921, 307684, 391879
2096921,2096921, 307871, 391436
2096921,2096921, 307957, 391610
2096921,2096921, 308083, 391438
2096921,2096921, 308175, 391713
2096921,2096921, 308081, 391523
2096921,2096921, 308311, 391342
2096921,2096921, 307924, 391525
2096921,2096921, 308395, 391644
2096921,2096921, 308367, 391538
2096921,2096921, 308341, 391658
2096921,2096921, 308401, 391767
2096921,2096921, 308237, 391521
2096921,2096921, 308229, 391538
2096921,2096921, 308295, 391812
2096921,2096921, 308450, 391900
2096921,2096921, 308606, 392141
2096921,2096921, 308424, 391869
2096921,2096921, 308681, 391927
2096921,2096921, 308603, 391972
2096921,2096921, 308558, 392031
2096921,2096921, 308597, 392226
2096921,2096921, 308751, 392016
2096921,2096921, 308706, 392012
2096921,2096921, 308776, 391872
2096921,2096921, 308528, 392059
2096921,2096921, 308820, 391954
2096921,2096921, 308546, 392227
2096921,2096921, 308666, 391900
2096921,2096921, 308586, 392230
2096921,2096921, 308869, 392170
2096921,2096921, 308593, 392067
2096921,2096921, 308874, 392320
2096921,2096921, 309027, 392203
2096921,2096921, 308732, 392630
2096921,2096921, 308930, 392293
2096921,2096921, 308731, 392518
2096921,2096921, 308771, 392225
2096921,2096921, 308781, 392283
2096921,2096921, 308672, 392336
2096921,2096921, 308907, 392483
2096921,2096921, 308822, 392196
2096921,2096921, 309003, 392133
2096921,2096921, 308886, 392025
2096921,2096921, 308837, 392694
2096921,2096921, 309030, 392449
2096921,2096921, 309177, 392509
2096921,2096921, 308953, 392701
2096921,2096921, 309050, 392342
2096921,2096921, 309078, 392430
2096921,2096921, 309042, 392501
2096921,2096921, 309179, 392575
2096921,2096921, 309145, 392325
2096921,2096921, 309092, 392493
2096921,2096921, 309142, 392439
2096921,2096921, 309226, 392591
2096921,2096921, 309079, 392723
2096921,2096921, 309119, 392795
2096921,2096921, 309077, 392918
2096921,2096921, 309398, 392750
2096921,2096921, 309373, 392879
2096921,2096921, 309209, 392673
2096921,2096921, 309324, 392788
2096921,2096921, 309409, 392550
2096921,2096921, 309347, 392713
2096921,2096921, 309513, 392578
2096921,2096921, 309167, 392688
2096921,2096921, 309162, 392693
2096921,2096921, 309226, 392901
2096921,2096921, 309727, 392821
2096921,2096921, 309236, 392795
2096921,2096921, 309380, 392776
2096921,2096921, 309419, 392975
2096921,2096921, 309288, 392991
2096921,2096921, 309361, 393073
2096921,2096921, 309536, 392791
2096921,2096921, 309470, 392808
2096921,2096921, 309687, 392799
2096921,2096921, 309530, 392951
2096921,2096921, 309416, 392909
2096921,2096921, 309594, 392888
2096921,2096921, 309650, 393070
2096921,2096921, 309579, 393027
2096921,2096921, 309876, 393102
2096921,2096921, 309706, 392945
2096921,2096921, 309840, 392859
2096921,2096921, 309421, 393116
2096921,2096921, 309647, 393363
2096921,2096921, 309352, 393199
2096921,2096921, 309561, 393100
2096921,2096921, 309533, 393274
2096921,2096921, 309631, 393191
2096921,2096921, 309491, 393135
2096921,2096921, 309745, 393175
2096921,2096921, 309694, 393007
2096921,2096921, 309659, 393161
2096921,2096921, 309689, 393307
2096921,2096921, 309846, 393451
2096921,2096921, 309801, 393280
2096921,2096921, 309988, 393188
2096921,2096921, 309702, 393216
2096921,2096921, 309716, 392987
2096921,2096921, 309579, 392836
2096921,2096921, 310020, 393124
2096921,2096921, 309517, 393108
2096921,2096921, 309850, 393223
2096921,2096921, 309591, 393226
2096921,2096921, 309670, 392998
2096921,2096921, 309770, 393368
2096921,2096921, 309982, 393333
2096921,2096921, 310200, 393420
2096921,2096921, 309672, 393415
2096921,2096921, 309777, 393318
2096921,2096921, 309937, 393484
2096921,2096921, 309760, 393338
2096921,2096921, 309967, 393225
2096921,2096921, 309928, 393446
2096921,2096921, 309810, 393245
2096921,2096921, 309822, 393167
2096921,2096921, 309938, 393431
2096921,2096921, 309998, 393168
2096921,2096921, 310061, 393285
2096921,2096921, 309987, 393262
2096921,2096921, 309793, 393350
2096921,2096921, 309662, 393359
2096921,2096921, 309676, 393287
2096921,2096921, 310085, 393509
2096921,2096921, 310051, 393281
2096921,2096921, 309937, 393607
2096921,2096921, 310152, 393466
2096921,2096921, 309962, 393023
2096921,2096921, 310133, 393210
2096921,2096921, 309998, 393235
2096921,2096921, 309814, 393372
2096921,2096921, 309724, 393071
2096921,2096921, 309930, 393312
2096921,2096921, 309849, 393312
2096921,2096921, 309822, 393267
2096921,2096921, 310006, 393290
2096921,2096921, 309703, 393373
2096921,2096921, 309977, 393512
2096921,2096921, 309613, 393384
2096921,2096921, 309790, 393236
2096921,2096921, 309687, 393169
2096921,2096921, 309689, 393305
2096921,2096921, 309955, 393104
2096921,2096921, 309972, 393058
2096921,2096921, 309846, 393189
2096921,2096921, 309659, 393354
2096921,2096921, 309669, 393310
2096921,2096921, 309843, 393294
2096921,2096921, 310138, 393498
2096921,2096921, 310031, 393193
2096921,2096921, 309822, 393573
2096921,2096921, 309515, 393242
2096921,2096921, 309744, 393091
2096921,2096921, 309697, 393513
2096921,2096921, 310061, 393225
2096921,2096921, 309794, 393233
2096921,2096921, 309681, 392872
2096921,2096921, 309302, 392890
2096921,2096921, 309283, 393030
2096921,2096921, 309267, 392815
2096921,2096921, 309242, 392934
2096921,2096921, 309107, 392477
2096921,2096921, 309050, 392547
2096921,2096921, 308944, 392469
2096921,2096921, 309101, 392580
2096921,2096921, 308708, 392225
2096921,2096921, 308682, 392088
2096921,2096921, 308447, 391867
2096921,2096921, 308324, 392131
2096921,2096921, 308427, 391585
2096921,2096921, 307928, 391794
2096921,2096921, 307858, 391151
2096921,2096921, 307890, 391372
2096921,2096921, 307854, 391261
2096921,2096921, 307742, 391342
2096921,2096921, 307127, 391188
2096921,2096921, 306961, 390615
2096921,2096921, 307107, 390526
2096921,2096921, 306709, 390629
2096921,2096921, 306727, 390591
2096921,2096921, 305574, 390722
2096921,2096921, 305133, 388877
2096921,2096921, 304999, 388624
2096921,2096921, 305192, 388548
2096921,2096921, 305014, 388700
2096921,2096921, 303431, 388165
2096921,2096921, 302676, 386691
2096921,2096921, 302899, 386289
2096921,2096921, 302866, 386121
2096921,2096921, 302673, 385892
2096921,2096921, 301503, 386009
2096921,2096921, 301166, 384731
2096921,2096921, 301101, 384620
2096921,2096921, 301060, 384414
2096921,2096921, 300798, 384441
2096921,2096921, 300903, 384405
2096921,2096921, 299911, 383372
2096921,2096921, 299728, 383238
2096921,2096921, 299702, 383046
2096921,2096921, 299905, 383094
2096921,2096921, 299205, 383319
2096921,2096921, 298610, 382277
2096921,2096921, 298615, 382276
2096921,2096921, 298685, 382159
2096921,2096921, 298530, 382239
2096921,2096921, 298276, 381991
2096921,2096921, 297844, 381505
2096921,2096921, 298155, 381484
2096921,2096921, 297858, 381440
2096921,2096921, 297967, 381443
2096921,2096921, 297659, 381450
2096921,2096921, 297601, 381006
2096921,2096921, 297424, 381069
2096921,2096921, 297447, 380821
2096921,2096921, 297395, 380683
2096921,2096921, 297430, 380674
2096921,2096921, 297548, 380634
2096921,2096921, 297394, 380713
2096921,2096921, 297099, 380817
2096921,2096921, 296859, 380349
2096921,2096921, 296907, 380693
2096921,2096921, 297271, 380585
2096921,2096921, 296978, 380662
2096921,2096921, 296912, 380495
2096921,2096921, 296999, 380627
2096921,2096921, 297215, 380415
2096921,2096921, 297264, 380550
2096921,2096921, 297287, 380975
2096921,2096921, 296998, 380982
2096921,2096921, 296870, 380571
2096921,2096921, 296995, 380501
2096921,2096921, 297345, 380640
2096921,2096921, 297411, 380626
2096921,2096921, 297096, 380897
2096921,2096921, 297175, 380688
2096921,2096921, 297289, 380800
2096921,2096921, 297202, 380645
2096921,2096921, 297286, 381042
2096921,2096921, 297112, 380790
2096921,2096921, 297109, 380824
2096921,2096921, 297155, 380601
2096921,2096921, 297144, 380946
2096921,2096921, 297549, 380983
2096921,2096921, 297537, 381261
2096921,2096921, 297443, 381085
2096921,2096921, 297356, 380989
2096921,2096921, 297718, 381202
2096921,2096921, 297939, 381470
2096921,2096921, 297482, 381461
2096921,2096921, 297802, 381525
2096921,2096921, 298222, 381399
2096921,2096921, 297974, 381402
2096921,2096921, 298333, 381626
2096921,2096921, 298313, 381674
2096921,2096921, 298171, 381610
2096921,2096921, 298536, 381699
2096921,2096921, 298530, 381993
2096921,2096921, 298586, 382048
2096921,2096921, 298607, 381917
2096921,2096921, 298863, 381968
2096921,2096921, 299022, 381844
2096921,2096921, 299181, 382677
2096921,2096921, 298863, 382266
2096921,2096921, 298799, 382500
2096921,2096921, 299065, 382518
2096921,2096921, 299522, 382572
2096921,2096921, 299444, 382927
2096921,2096921, 299512, 383124
2096921,2096921, 299523, 383054
2096921,2096921, 299527, 382974
2096921,2096921, 299968, 382982
2096921,2096921, 299981, 383401
2096921,2096921, 299828, 383662
2096921,2096921, 299858, 383395
2096921,2096921, 299788, 383496
2096921,2096921, 299878, 382996
2096921,2096921, 300434, 383743
2096921,2096921, 300414, 383593
2096921,2096921, 300098, 383440
2096921,2096921, 300084, 383557
2096921,2096921, 300189, 383442
2096921,2096921, 300635, 384166
2096921,2096921, 300415, 383790
2096921,2096921, 300761, 384126
2096921,2096921, 300502, 383924
2096921,2096921, 300868, 383927
2096921,2096921, 301044, 384199
2096921,2096921, 301046, 384428
2096921,2096921, 300949, 384260
2096921,2096921, 300959, 384522
2096921,2096921, 301097, 384629
2096921,2096921, 301562, 384878
2096921,2096921, 301313, 384774
2096921,2096921, 301228, 384985
2096921,2096921, 301719, 385071
2096921,2096921, 301921, 384735
2096921,2096921, 301910, 385108
2096921,2096921, 301719, 385139
2096921,2096921, 301577, 385190
2096921,2096921, 301998, 385195
2096921,2096921, 302156, 385459
2096921,2096921, 302154, 385906
2096921,2096921, 302249, 385740
2096921,2096921, 302211, 385675
2096921,2096921, 302520, 385735
2096921,2096921, 302425, 385704
2096921,2096921, 302536, 386007
2096921,2096921, 302618, 386066
2096921,2096921, 302907, 385957
2096921,2096921, 302469, 385996
2096921,2096921, 302776, 386013
2096921,2096921, 302940, 386431
2096921,2096921, 302772, 386475
2096921,2096921, 303035, 386599
2096921,2096921, 302748, 386277
2096921,2096921, 303099, 386271
2096921,2096921, 303339, 386578
2096921,2096921, 303108, 386738
2096921,2096921, 303263, 386768
2096921,2096921, 302921, 386512
2096921,2096921, 303304, 386568
2096921,2096921, 303130, 386480
2096921,2096921, 303275, 386613
2096921,2096921, 303407, 386729
2096921,2096921, 303157, 386626
2096921,2096921, 303381, 386736
2096921,2096921, 303494, 386795
2096921,2096921, 303634, 386764
2096921,2096921, 303530, 386947
2096921,2096921, 303419, 386845
2096921,2096921, 303089, 386814
2096921,2096921, 303344, 386835
2096921,2096921, 303395, 386666
2096921,2096921, 303373, 386988
2096921,2096921, 303671, 387123
2096921,2096921, 303449, 387172
2096921,2096921, 303317, 387239
2096921,2096921, 303334, 386787
2096921,2096921, 303576, 386921
2096921,2096921, 303558, 3869242096921,2096921, 303366, 386829
2096921,2096921, 303045, 386799
2096921,2096921, 303116, 386629
2096921,2096921, 303277, 386485
2096921,2096921, 303493, 386924
2096921,2096921, 303345, 386759
2096921,2096921, 303350, 386569
2096921,2096921, 303206, 386844
2096921,2096921, 303222, 386622
2096921,2096921, 303242, 386824
2096921,2096921, 302888, 386575
2096921,2096921, 302898, 386588
2096921,2096921, 303263, 386589
2096921,2096921, 303134, 386633
2096921,2096921, 303078, 386627
2096921,2096921, 302752, 386617
2096921,2096921, 303102, 386592
2096921,2096921, 303090, 386425
2096921,2096921, 302956, 386374
2096921,2096921, 302959, 386383
2096921,2096921, 303061, 386275
2096921,2096921, 302555, 386167
2096921,2096921, 302734, 386615
2096921,2096921, 303019, 386115
2096921,2096921, 303016, 386460
2096921,2096921, 303141, 386162
2096921,2096921, 302857, 386184
2096921,2096921, 303014, 386075
2096921,2096921, 302769, 386263
2096921,2096921, 302706, 386438
2096921,2096921, 302630, 386395
2096921,2096921, 302778, 386358
2096921,2096921, 302734, 386507
2096921,2096921, 302903, 386355
2096921,2096921, 303019, 386490
2096921,2096921, 302893, 386217
2096921,2096921, 302763, 386243
2096921,2096921, 302567, 386138
2096921,2096921, 302976, 386113
2096921,2096921, 302890, 385942
2096921,2096921, 302990, 386398
2096921,2096921, 303009, 386487
2096921,2096921, 302966, 386717
2096921,2096921, 302999, 386367
2096921,2096921, 303083, 386395
2096921,2096921, 303041, 386513
2096921,2096921, 303016, 386573
2096921,2096921, 303108, 386657
2096921,2096921, 302981, 386799
2096921,2096921, 302815, 386691
2096921,2096921, 302921, 386445
2096921,2096921, 303166, 386709
2096921,2096921, 303496, 386769
2096921,2096921, 303475, 386639
2096921,2096921, 303646, 386762
2096921,2096921, 303450, 386954
2096921,2096921, 303866, 387489
2096921,2096921, 303664, 387092
2096921,2096921, 303409, 387199
2096921,2096921, 303678, 387102
2096921,2096921, 303656, 387144
2096921,2096921, 303834, 387360
2096921,2096921, 303909, 387450
2096921,2096921, 303926, 387754
2096921,2096921, 303861, 387518
2096921,2096921, 303797, 387196
2096921,2096921, 304029, 387934
2096921,2096921, 304203, 387733
2096921,2096921, 304181, 387939
2096921,2096921, 304238, 387705
2096921,2096921, 304473, 387865
2096921,2096921, 304336, 387796
2096921,2096921, 304326, 387796
2096921,2096921, 304271, 387784
2096921,2096921, 304475, 388149
2096921,2096921, 304592, 388028
2096921,2096921, 304746, 388260
2096921,2096921, 304963, 388033
2096921,2096921, 304691, 388004
2096921,2096921, 304774, 388345
2096921,2096921, 305145, 388269
2096921,2096921, 305231, 388365
2096921,2096921, 304790, 388096
2096921,2096921, 304894, 388457
2096921,2096921, 304710, 388286
2096921,2096921, 305331, 388565
2096921,2096921, 305253, 388877
2096921,2096921, 305343, 388696
2096921,2096921, 305149, 388474
2096921,2096921, 305169, 388481
2096921,2096921, 304967, 388788
2096921,2096921, 305320, 388831
2096921,2096921, 305497, 388812
2096921,2096921, 305407, 388795
2096921,2096921, 305436, 388852
2096921,2096921, 305311, 388783
2096921,2096921, 305439, 389131
2096921,2096921, 305994, 389288
2096921,2096921, 305679, 389086
2096921,2096921, 305453, 389321
2096921,2096921, 305615, 389237
2096921,2096921, 305636, 389229
2096921,2096921, 305751, 389207
2096921,2096921, 306350, 389207
2096921,2096921, 305894, 389322
2096921,2096921, 305871, 389482
2096921,2096921, 305979, 389362
2096921,2096921, 306051, 389408
2096921,2096921, 306246, 389682
2096921,2096921, 305943, 389531
2096921,2096921, 306269, 389567
2096921,2096921, 306408, 389376
2096921,2096921, 306173, 389677
2096921,2096921, 306204, 389688
2096921,2096921, 306137, 389874
2096921,2096921, 306422, 389830
2096921,2096921, 306652, 390022
2096921,2096921, 306660, 390215
2096921,2096921, 306437, 390124
2096921,2096921, 306709, 390071
2096921,2096921, 306550, 390021
2096921,2096921, 306726, 390079
2096921,2096921, 306823, 390141
2096921,2096921, 306872, 390173
2096921,2096921, 306622, 390387
2096921,2096921, 306952, 390105
2096921,2096921, 306914, 390152
2096921,2096921, 306762, 390564
2096921,2096921, 306747, 390483
2096921,2096921, 306811, 390401
2096921,2096921, 306838, 390206
2096921,2096921, 307278, 390346
2096921,2096921, 306945, 390364
2096921,2096921, 307254, 390727
2096921,2096921, 307190, 390659
2096921,2096921, 307517, 390573
2096921,2096921, 307462, 390870
2096921,2096921, 307368, 390949
2096921,2096921, 307228, 390930
2096921,2096921, 307170, 390693
2096921,2096921, 307583, 390682
2096921,2096921, 307262, 390811
2096921,2096921, 307291, 390850
2096921,2096921, 307481, 391175
2096921,2096921, 307521, 391209
2096921,2096921, 307778, 390914
2096921,2096921, 307498, 391182
2096921,2096921, 307837, 391070
2096921,2096921, 307707, 391172
2096921,2096921, 307854, 391144
2096921,2096921, 307856, 391057
2096921,2096921, 307800, 391219
2096921,2096921, 307802, 391134
2096921,2096921, 307897, 391106
2096921,2096921, 307906, 391377
2096921,2096921, 307797, 391360
2096921,2096921, 307872, 391460
2096921,2096921, 307940, 391689
2096921,2096921, 308021, 391507
2096921,2096921, 307866, 391476
2096921,2096921, 308069, 391460
2096921,2096921, 308156, 391626
2096921,2096921, 308107, 391455
2096921,2096921, 308094, 391588
2096921,2096921, 308024, 391369
2096921,2096921, 308141, 391699
2096921,2096921, 308308, 391766
2096921,2096921, 308280, 391706
2096921,2096921, 308424, 391976
2096921,2096921, 308346, 391578
2096921,2096921, 308106, 391660
2096921,2096921, 308479, 391825
2096921,2096921, 308425, 392084
2096921,2096921, 308426, 391836
2096921,2096921, 308648, 391785
2096921,2096921, 308295, 391878
2096921,2096921, 308751, 391919
2096921,2096921, 308595, 391836
2096921,2096921, 308606, 391648
2096921,2096921, 308586, 391833
2096921,2096921, 308610, 391863
2096921,2096921, 308472, 391780
2096921,2096921, 308702, 391563
2096921,2096921, 308764, 391774
2096921,2096921, 308679, 391896
2096921,2096921, 308537, 392022
2096921,2096921, 308482, 392077
2096921,2096921, 308449, 392192
2096921,2096921, 308781, 392073
2096921,2096921, 308537, 392326
2096921,2096921, 308827, 392221
2096921,2096921, 308841, 392232
2096921,2096921, 308760, 392427
2096921,2096921, 308634, 392403
2096921,2096921, 308845, 392250
2096921,2096921, 309140, 392145
2096921,2096921, 308844, 392308
2096921,2096921, 308628, 392540
2096921,2096921, 308733, 392203
2096921,2096921, 308678, 392433
2096921,2096921, 308844, 392298
2096921,2096921, 308951, 392359
2096921,2096921, 309061, 392424
2096921,2096921, 308851, 392337
2096921,2096921, 308836, 392229
2096921,2096921, 308853, 392510
2096921,2096921, 309223, 392326
2096921,2096921, 308730, 392341
2096921,2096921, 308947, 392677
2096921,2096921, 308874, 392795
2096921,2096921, 309091, 392389
2096921,2096921, 308819, 392482
2096921,2096921, 308951, 392518
2096921,2096921, 309229, 392792
2096921,2096921, 309429, 392746
2096921,2096921, 309119, 392771
2096921,2096921, 309024, 392494
2096921,2096921, 309157, 392586
2096921,2096921, 308989, 392559
2096921,2096921, 309165, 392896
2096921,2096921, 309259, 392689
2096921,2096921, 309018, 392891
2096921,2096921, 309033, 392603
2096921,2096921, 308850, 392806
2096921,2096921, 309131, 392898
2096921,2096921, 309331, 392944
2096921,2096921, 309448, 392759
2096921,2096921, 309078, 392967
2096921,2096921, 309123, 392651
2096921,2096921, 309286, 392988
2096921,2096921, 309364, 392830
2096921,2096921, 309435, 392819
2096921,2096921, 309489, 392943
2096921,2096921, 309525, 393215
2096921,2096921, 309257, 392757
2096921,2096921, 309534, 392769
2096921,2096921, 309599, 392878
2096921,2096921, 309526, 392868
2096921,2096921, 309764, 393237
2096921,2096921, 309543, 392819
2096921,2096921, 309572, 392959
2096921,2096921, 309543, 392955
2096921,2096921, 309814, 392889
2096921,2096921, 309788, 393149
2096921,2096921, 309570, 392935
2096921,2096921, 309499, 392936
2096921,2096921, 309702, 393151
2096921,2096921, 309528, 393194
2096921,2096921, 309523, 393140
2096921,2096921, 309468, 393000
2096921,2096921, 309681, 393040
2096921,2096921, 309788, 393081
2096921,2096921, 309920, 393090
2096921,2096921, 309651, 393148
2096921,2096921, 309887, 392813
2096921,2096921, 309730, 392755
2096921,2096921, 309780, 393015
2096921,2096921, 309606, 393207
2096921,2096921, 309508, 393164
2096921,2096921, 309595, 393110
2096921,2096921, 309728, 393348
2096921,2096921, 309862, 393097
2096921,2096921, 309613, 393345
2096921,2096921, 309577, 393086
2096921,2096921, 309500, 393343
2096921,2096921, 309772, 392975
2096921,2096921, 309798, 393225
2096921,2096921, 309828, 393414
2096921,2096921, 310014, 393655
2096921,2096921, 309931, 393500
2096921,2096921, 309868, 393303
2096921,2096921, 309788, 393092
2096921,2096921, 309816, 393395
2096921,2096921, 309682, 393184
2096921,2096921, 309917, 393447
2096921,2096921, 309710, 393365
2096921,2096921, 309624, 393542
2096921,2096921, 309707, 393315
2096921,2096921, 309774, 393595
2096921,2096921, 310002, 393351
2096921,2096921, 309531, 393466
2096921,2096921, 309449, 393325
2096921,2096921, 309806, 393325
2096921,2096921, 309869, 393131
2096921,2096921, 309679, 393286
2096921,2096921, 309889, 393386
2096921,2096921, 310080, 393448
2096921,2096921, 309841, 393112
2096921,2096921, 310060, 393112
2096921,2096921, 310010, 393201
2096921,2096921, 310019, 393350
2096921,2096921, 310012, 393183
2096921,2096921, 309712, 393298
2096921,2096921, 310085, 393182
2096921,2096921, 309594, 393285
2096921,2096921, 309815, 393239
2096921,2096921, 309509, 393509
2096921,2096921, 309600, 393190
2096921,2096921, 309656, 393267
2096921,2096921, 309823, 393220
2096921,2096921, 309964, 393396
2096921,2096921, 309472, 393182
2096921,2096921, 309691, 393250
2096921,2096921, 309796, 393241
2096921,2096921, 310038, 393606
2096921,2096921, 309798, 393356
2096921,2096921, 309960, 393521
2096921,2096921, 309988, 393110
2096921,2096921, 309915, 393129
2096921,2096921, 309931, 393175
2096921,2096921, 310049, 393203
2096921,2096921, 309997, 393054
2096921,2096921, 309685, 393425
2096921,2096921, 309863, 393236
2096921,2096921, 309530, 393232
2096921,2096921, 309421, 393227
2096921,2096921, 309518, 393107
