2096921,2096921,177109,614947,0
2096921,2096921,177066,615056,0
2096921,2096921,177038,614742,0
2096921,2096921,177344,615126,0
2096921,2096921,177323,615261,0
2096921,2096921,177549,614909,0
2096921,2096921,177475,615069,0
2096921,2096921,177424,615036,0
2096921,2096921,177546,615026,0
2096921,2096921,177813,615433,0
2096921,2096921,177365,615178,0
2096921,2096921,177390,615266,0
2096921,2096921,177378,615269,0
2096921,2096921,177306,615251,0
2096921,2096921,177375,615293,0
2096921,2096921,177535,615400,0
2096921,2096921,177538,615616,0
2096921,2096921,177743,615679,0
2096921,2096921,177845,615521,0
2096921,2096921,177657,615593,0
2096921,2096921,177848,615658,0
2096921,2096921,177847,615420,0
2096921,2096921,177458,615839,0
2096921,2096921,177211,615473,0
2096921,2096921,177376,615647,0
2096921,2096921,177661,615696,0
2096921,2096921,177837,615712,0
2096921,2096921,177667,615882,0
2096921,2096921,177631,615914,0
2096921,2096921,177906,616111,0
2096921,2096921,177869,615817,0
2096921,2096921,177746,615956,0
2096921,2096921,177856,615898,0
2096921,2096921,177579,616111,0
2096921,2096921,177733,615907,0
2096921,2096921,177677,615842,0
2096921,2096921,177905,615987,0
2096921,2096921,177852,616213,0
2096921,2096921,177872,616293,0
2096921,2096921,177744,616294,0
2096921,2096921,177748,616135,0
2096921,2096921,177699,616137,0
2096921,2096921,177549,616397,0
2096921,2096921,177415,616423,0
2096921,2096921,177857,616265,0
2096921,2096921,177737,616338,0
2096921,2096921,178189,616563,0
2096921,2096921,177885,616223,0
2096921,2096921,177882,616373,0
2096921,2096921,177864,616565,0
2096921,2096921,177978,616353,0
2096921,2096921,177985,616436,0
2096921,2096921,178142,616310,0
2096921,2096921,178113,616780,0
2096921,2096921,178236,616806,0
2096921,2096921,178320,616798,0
2096921,2096921,178406,616400,0
2096921,2096921,178226,616628,0
2096921,2096921,178194,616672,0
2096921,2096921,178001,616713,0
2096921,2096921,178245,616857,0
2096921,2096921,178013,616522,0
2096921,2096921,178234,616609,0
2096921,2096921,178027,616833,0
2096921,2096921,178395,616852,0
2096921,2096921,178065,616779,0
2096921,2096921,178157,616851,0
2096921,2096921,178092,616877,0
2096921,2096921,178290,616824,0
2096921,2096921,178021,617229,0
2096921,2096921,178295,617072,0
2096921,2096921,178275,617177,0
2096921,2096921,178310,617205,0
2096921,2096921,177974,617206,0
2096921,2096921,178308,617033,0
2096921,2096921,178142,617146,0
2096921,2096921,178394,617025,0
2096921,2096921,178458,617174,0
2096921,2096921,178256,617384,0
2096921,2096921,178340,617463,0
2096921,2096921,178320,617044,0
2096921,2096921,178365,617185,0
2096921,2096921,178167,616919,0
2096921,2096921,178516,617151,0
2096921,2096921,178018,617432,0
2096921,2096921,178363,617575,0
2096921,2096921,178297,617451,0
2096921,2096921,178594,617367,0
2096921,2096921,178389,617596,0
2096921,2096921,178555,617316,0
2096921,2096921,178641,617412,0
2096921,2096921,178635,617643,0
2096921,2096921,178620,617633,0
2096921,2096921,178378,617582,0
2096921,2096921,178341,617738,0
2096921,2096921,178501,617804,0
2096921,2096921,178581,617838,0
2096921,2096921,178583,617563,0
2096921,2096921,178620,618078,0
2096921,2096921,178784,617615,0
2096921,2096921,178969,617683,0
2096921,2096921,178376,617750,0
2096921,2096921,178188,618057,0
2096921,2096921,178299,617889,0
2096921,2096921,178505,617868,0
2096921,2096921,178543,617801,0
2096921,2096921,178676,617812,0
2096921,2096921,178867,617980,0
2096921,2096921,178864,617846,0
2096921,2096921,178678,618035,0
2096921,2096921,178874,618312,0
2096921,2096921,178885,618253,0
2096921,2096921,178595,618059,0
2096921,2096921,178743,618073,0
2096921,2096921,178738,618279,0
2096921,2096921,178752,618398,0
2096921,2096921,178577,618331,0
2096921,2096921,178965,618474,0
2096921,2096921,178691,618417,0
2096921,2096921,178988,618335,0
2096921,2096921,178732,618449,0
2096921,2096921,178893,618521,0
2096921,2096921,178602,618521,0
2096921,2096921,178754,618206,0
2096921,2096921,178715,618474,0
2096921,2096921,178815,618419,0
2096921,2096921,178918,618692,0
2096921,2096921,178767,618628,0
2096921,2096921,178903,618602,0
2096921,2096921,179085,618706,0
2096921,2096921,179248,618824,0
2096921,2096921,179033,618696,0
2096921,2096921,178973,618663,0
2096921,2096921,178700,618954,0
2096921,2096921,178757,618982,0
2096921,2096921,178768,618956,0
2096921,2096921,178735,618876,0
2096921,2096921,178783,619224,0
2096921,2096921,178931,618947,0
2096921,2096921,178782,619237,0
2096921,2096921,178923,619044,0
2096921,2096921,179083,618884,0
2096921,2096921,178871,619081,0
2096921,2096921,179142,618812,0
2096921,2096921,178861,619081,0
2096921,2096921,179176,619046,0
2096921,2096921,179009,619204,0
2096921,2096921,178817,619137,0
2096921,2096921,179005,619256,0
2096921,2096921,178826,619294,0
2096921,2096921,178957,619442,0
2096921,2096921,179124,619250,0
2096921,2096921,178926,619274,0
2096921,2096921,178908,619344,0
2096921,2096921,178880,619458,0
2096921,2096921,179004,619456,0
2096921,2096921,178934,619558,0
2096921,2096921,179042,619195,0
2096921,2096921,179238,619425,0
2096921,2096921,179053,619590,0
2096921,2096921,179116,619600,0
2096921,2096921,179037,619390,0
2096921,2096921,179245,619509,0
2096921,2096921,178846,619300,0
2096921,2096921,179457,619917,0
2096921,2096921,178904,619638,0
2096921,2096921,179033,619732,0
2096921,2096921,178997,619850,0
2096921,2096921,179122,619815,0
2096921,2096921,179133,619924,0
2096921,2096921,179053,619921,0
2096921,2096921,179144,619922,0
2096921,2096921,179092,619810,0
2096921,2096921,178861,619893,0
2096921,2096921,178951,619601,0
2096921,2096921,179230,619758,0
2096921,2096921,179182,619610,0
2096921,2096921,179433,619611,0
2096921,2096921,179144,619465,0
2096921,2096921,179134,619560,0
2096921,2096921,179142,619577,0
2096921,2096921,179144,619443,0
2096921,2096921,178898,619345,0
2096921,2096921,178843,619412,0
2096921,2096921,178875,618929,0
2096921,2096921,178706,618972,0
2096921,2096921,178707,619117,0
2096921,2096921,178681,619035,0
2096921,2096921,178879,619075,0
2096921,2096921,178670,618740,0
2096921,2096921,178497,618652,0
2096921,2096921,178567,618611,0
2096921,2096921,178661,618839,0
2096921,2096921,178290,618725,0
2096921,2096921,178246,618311,0
2096921,2096921,178367,618126,0
2096921,2096921,178207,618259,0
2096921,2096921,178422,618005,0
2096921,2096921,177678,618049,0
2096921,2096921,177451,616831,0
2096921,2096921,177720,616840,0
2096921,2096921,177320,616642,0
2096921,2096921,177379,616799,0
2096921,2096921,176801,616404,0
2096921,2096921,176418,615216,0
2096921,2096921,176427,614941,0
2096921,2096921,176468,615202,0
2096921,2096921,176460,615225,0
2096921,2096921,176233,615217,0
2096921,2096921,176072,614240,0
2096921,2096921,175859,613763,0
2096921,2096921,175579,613871,0
2096921,2096921,175675,613595,0
2096921,2096921,175463,613880,0
2096921,2096921,175159,613115,0
2096921,2096921,175484,612835,0
2096921,2096921,175496,612771,0
2096921,2096921,175308,612806,0
2096921,2096921,174883,612958,0
2096921,2096921,175036,612210,0
2096921,2096921,175092,612212,0
2096921,2096921,175330,612179,0
2096921,2096921,174779,612301,0
2096921,2096921,174663,612083,0
2096921,2096921,174578,611722,0
2096921,2096921,174624,611987,0
2096921,2096921,174942,611744,0
2096921,2096921,174859,611731,0
2096921,2096921,174508,611917,0
2096921,2096921,174443,611411,0
2096921,2096921,174671,611431,0
2096921,2096921,174679,611663,0
2096921,2096921,174631,611745,0
2096921,2096921,174643,611336,0
2096921,2096921,174289,611295,0
2096921,2096921,174638,611123,0
2096921,2096921,174702,611094,0
2096921,2096921,174380,611193,0
2096921,2096921,174500,611258,0
2096921,2096921,174388,611095,0
2096921,2096921,174407,611552,0
2096921,2096921,174235,611428,0
2096921,2096921,174262,611523,0
2096921,2096921,174146,611486,0
2096921,2096921,174418,611546,0
2096921,2096921,174591,611647,0
2096921,2096921,174544,611921,0
2096921,2096921,174517,612035,0
2096921,2096921,174648,611966,0
2096921,2096921,174604,612148,0
2096921,2096921,174724,612029,0
2096921,2096921,174637,612098,0
2096921,2096921,174432,611858,0
2096921,2096921,174403,611884,0
2096921,2096921,174926,612166,0
2096921,2096921,174963,612164,0
2096921,2096921,174681,612329,0
2096921,2096921,174711,612220,0
2096921,2096921,174917,612073,0
2096921,2096921,174708,612600,0
2096921,2096921,174970,612414,0
2096921,2096921,174556,612358,0
2096921,2096921,174716,612644,0
2096921,2096921,174911,612600,0
2096921,2096921,175071,612913,0
2096921,2096921,174824,612536,0
2096921,2096921,175142,612771,0
2096921,2096921,175296,612846,0
2096921,2096921,175380,612617,0
2096921,2096921,175229,613256,0
2096921,2096921,175393,613608,0
2096921,2096921,175360,613340,0
2096921,2096921,175436,613346,0
2096921,2096921,175432,613141,0
2096921,2096921,175635,613614,0
2096921,2096921,175554,614034,0
2096921,2096921,175625,614029,0
2096921,2096921,175582,614188,0
2096921,2096921,175740,613939,0
2096921,2096921,175714,614608,0
2096921,2096921,175785,614404,0
2096921,2096921,175738,614410,0
2096921,2096921,175306,614201,0
2096921,2096921,175522,614356,0
2096921,2096921,175858,614935,0
2096921,2096921,175969,614643,0
2096921,2096921,176007,614643,0
2096921,2096921,176210,614866,0
2096921,2096921,176065,614934,0
2096921,2096921,176151,615459,0
2096921,2096921,176224,615672,0
2096921,2096921,176282,615285,0
2096921,2096921,176209,615396,0
2096921,2096921,176147,615200,0
2096921,2096921,175909,615605,0
2096921,2096921,176389,615820,0
2096921,2096921,176377,615943,0
2096921,2096921,176316,615584,0
2096921,2096921,176448,615634,0
2096921,2096921,176416,616042,0
2096921,2096921,176478,616217,0
2096921,2096921,176709,616093,0
2096921,2096921,176475,616109,0
2096921,2096921,176795,616156,0
2096921,2096921,176794,616767,0
2096921,2096921,176875,616812,0
2096921,2096921,176744,616860,0
2096921,2096921,176813,616388,0
2096921,2096921,177030,616737,0
2096921,2096921,176961,617315,0
2096921,2096921,177178,617212,0
2096921,2096921,177048,617114,0
2096921,2096921,176983,617245,0
2096921,2096921,177118,617107,0
2096921,2096921,177196,617413,0
2096921,2096921,177367,617646,0
2096921,2096921,177305,617622,0
2096921,2096921,177128,617487,0
2096921,2096921,177049,617711,0
2096921,2096921,177318,618034,0
2096921,2096921,177611,618477,0
2096921,2096921,177412,618383,0
2096921,2096921,177318,618419,0
2096921,2096921,177747,618365,0
2096921,2096921,177630,618608,0
2096921,2096921,177537,618454,0
2096921,2096921,177694,618689,0
2096921,2096921,177611,618673,0
2096921,2096921,177601,618856,0
2096921,2096921,177631,618851,0
2096921,2096921,177816,619104,0
2096921,2096921,177897,619037,0
2096921,2096921,177624,619423,0
2096921,2096921,177561,619139,0
2096921,2096921,178019,619176,0
2096921,2096921,178043,619310,0
2096921,2096921,178106,619445,0
2096921,2096921,177920,619364,0
2096921,2096921,178009,619515,0
2096921,2096921,177870,619389,0
2096921,2096921,178099,619734,0
2096921,2096921,177885,619497,0
2096921,2096921,178223,619910,0
2096921,2096921,178083,619583,0
2096921,2096921,178147,619654,0
2096921,2096921,178011,619797,0
2096921,2096921,177955,620040,0
2096921,2096921,177955,620061,0
2096921,2096921,178195,620003,0
2096921,2096921,178083,620287,0
2096921,2096921,178347,620141,0
2096921,2096921,178300,620027,0
2096921,2096921,177850,619920,0
2096921,2096921,177982,620070,0
2096921,2096921,178409,620151,0
2096921,2096921,178464,620299,0
2096921,2096921,178244,620240,0
2096921,2096921,178291,620423,0
2096921,2096921,178374,620146,0
2096921,2096921,178150,620382,0
2096921,2096921,178124,620426,0
2096921,2096921,177907,620331,0
2096921,2096921,178105,619918,0
2096921,2096921,178125,620214,0
2096921,2096921,178098,620235,0
2096921,2096921,178206,620346,0
2096921,2096921,178415,620346,0
2096921,2096921,178084,620541,0
2096921,2096921,178214,620509,0
2096921,2096921,178067,620324,0
2096921,2096921,178280,620247,0
2096921,2096921,178004,620599,0
2096921,2096921,178124,620472,0
2096921,2096921,178192,620542,0
2096921,2096921,178180,620376,0
2096921,2096921,177849,620193,0
2096921,2096921,178369,620443,0
2096921,2096921,178232,620577,0
2096921,2096921,178090,620591,0
2096921,2096921,178009,620401,0
2096921,2096921,177988,620303,0
2096921,2096921,178234,620738,0
2096921,2096921,178147,620273,0
2096921,2096921,178361,620543,0
2096921,2096921,178017,620565,0
2096921,2096921,178348,620453,0
2096921,2096921,178259,620475,0
2096921,2096921,178185,620767,0
2096921,2096921,178299,620649,0
2096921,2096921,178394,620809,0
2096921,2096921,178230,620845,0
2096921,2096921,178175,620574,0
2096921,2096921,178102,620420,0
2096921,2096921,178176,620878,0
2096921,2096921,178357,621047,0
2096921,2096921,178567,621054,0
2096921,2096921,178377,621119,0
2096921,2096921,178356,620760,0
2096921,2096921,178485,620750,0
2096921,2096921,178270,620893,0
2096921,2096921,178340,621018,0
2096921,2096921,178463,621040,0
2096921,2096921,178086,620843,0
2096921,2096921,178391,620785,0
2096921,2096921,178551,620908,0
2096921,2096921,178581,621305,0
2096921,2096921,178527,620973,0
2096921,2096921,178546,621474,0
2096921,2096921,178791,621277,0
2096921,2096921,178569,621747,0
2096921,2096921,178840,621742,0
2096921,2096921,178512,621693,0
2096921,2096921,178330,621442,0
2096921,2096921,178807,621658,0
2096921,2096921,178915,621677,0
2096921,2096921,178936,622108,0
2096921,2096921,178738,621924,0
2096921,2096921,178885,622231,0
2096921,2096921,178827,621836,0
2096921,2096921,178792,622469,0
2096921,2096921,179131,622333,0
2096921,2096921,179198,622216,0
2096921,2096921,178847,622391,0
2096921,2096921,178878,622386,0
2096921,2096921,179102,622745,0
2096921,2096921,179053,622754,0
2096921,2096921,179032,622847,0
2096921,2096921,179217,622773,0
2096921,2096921,179232,622965,0
2096921,2096921,179067,623107,0
2096921,2096921,179112,623353,0
2096921,2096921,179336,622969,0
2096921,2096921,179142,623113,0
2096921,2096921,179201,623021,0
2096921,2096921,179382,623331,0
2096921,2096921,179441,622994,0
2096921,2096921,179178,623062,0
2096921,2096921,179167,623250,0
2096921,2096921,179490,623613,0
2096921,2096921,179731,623960,0
2096921,2096921,179727,623871,0
2096921,2096921,179593,623558,0
2096921,2096921,179545,623924,0
2096921,2096921,179579,623772,0
2096921,2096921,179990,623945,0
2096921,2096921,179582,623932,0
2096921,2096921,179570,624170,0
2096921,2096921,179675,624379,0
2096921,2096921,179816,624329,0
2096921,2096921,179927,624311,0
2096921,2096921,179670,624354,0
2096921,2096921,179966,624296,0
2096921,2096921,179590,624475,0
2096921,2096921,179661,624470,0
2096921,2096921,179660,624629,0
2096921,2096921,179616,624739,0
2096921,2096921,179907,624984,0
2096921,2096921,179931,624695,0
2096921,2096921,180176,624647,0
2096921,2096921,180104,625270,0
2096921,2096921,180082,625207,0
2096921,2096921,180088,624956,0
2096921,2096921,179883,624912,0
2096921,2096921,180095,624799,0
2096921,2096921,180148,625345,0
2096921,2096921,180071,625225,0
2096921,2096921,180035,625358,0
2096921,2096921,179960,625064,0
2096921,2096921,180320,625621,0
2096921,2096921,180751,625742,0
2096921,2096921,180445,625656,0
2096921,2096921,180399,625402,0
2096921,2096921,180433,625433,0
2096921,2096921,180463,625197,0
2096921,2096921,180428,625636,0
2096921,2096921,180479,625453,0
2096921,2096921,180566,625765,0
2096921,2096921,180372,625695,0
2096921,2096921,180370,625772,0
2096921,2096921,180439,625696,0
2096921,2096921,180470,625726,0
2096921,2096921,180527,625894,0
2096921,2096921,180744,625724,0
2096921,2096921,180637,625780,0
2096921,2096921,180542,626079,0
2096921,2096921,180623,626169,0
2096921,2096921,180792,626177,0
2096921,2096921,180738,626273,0
2096921,2096921,180568,626258,0
2096921,2096921,180720,626644,0
2096921,2096921,180822,626336,0
2096921,2096921,180635,626150,0
2096921,2096921,180718,626369,0
2096921,2096921,180856,626328,0
2096921,2096921,180715,626527,0
2096921,2096921,180789,626552,0
2096921,2096921,180752,626773,0
2096921,2096921,180667,626584,0
2096921,2096921,181123,626873,0
2096921,2096921,181036,626804,0
2096921,2096921,181019,626706,0
2096921,2096921,180826,626583,0
2096921,2096921,180971,626847,0
2096921,2096921,181161,626638,0
2096921,2096921,180932,626780,0
2096921,2096921,180681,626873,0
2096921,2096921,180986,627055,0
2096921,2096921,180534,627197,0
2096921,2096921,180967,627177,0
2096921,2096921,181189,627185,0
2096921,2096921,181240,627159,0
2096921,2096921,181011,627339,0
2096921,2096921,180873,627255,0
2096921,2096921,180831,627189,0
2096921,2096921,180913,627300,0
2096921,2096921,181054,627682,0
2096921,2096921,181165,627572,0
2096921,2096921,181091,627641,0
2096921,2096921,181326,627516,0
2096921,2096921,181240,627855,0
2096921,2096921,181312,627914,0
2096921,2096921,181265,627700,0
2096921,2096921,181182,627374,0
2096921,2096921,181375,627579,0
2096921,2096921,181321,627867,0
2096921,2096921,181409,627829,0
2096921,2096921,181291,627792,0
2096921,2096921,181548,627631,0
2096921,2096921,181381,627757,0
2096921,2096921,181523,627987,0
2096921,2096921,181621,627765,0
2096921,2096921,181568,628294,0
2096921,2096921,181361,627966,0
2096921,2096921,181269,627981,0
2096921,2096921,181430,628107,0
2096921,2096921,181810,628361,0
2096921,2096921,181548,627958,0
2096921,2096921,181712,628195,0
2096921,2096921,181357,628259,0
2096921,2096921,181446,628365,0
2096921,2096921,181412,628151,0
2096921,2096921,181367,627999,0
2096921,2096921,181362,628208,0
2096921,2096921,181449,628083,0
2096921,2096921,181260,628236,0
2096921,2096921,181352,628296,0
2096921,2096921,181311,628385,0
2096921,2096921,181479,628542,0
2096921,2096921,181437,628203,0
2096921,2096921,181700,628622,0
2096921,2096921,181550,628729,0
2096921,2096921,181606,628983,0
2096921,2096921,181277,628498,0
2096921,2096921,181366,628512,0
2096921,2096921,181677,628594,0
2096921,2096921,181891,628501,0
2096921,2096921,181857,628606,0
2096921,2096921,181740,628610,0
2096921,2096921,182098,628610,0
2096921,2096921,182020,628810,0
2096921,2096921,181784,628719,0
2096921,2096921,181783,628331,0
2096921,2096921,181623,628492,0
2096921,2096921,181753,628755,0
2096921,2096921,181565,629027,0
2096921,2096921,182149,628556,0
2096921,2096921,181988,628778,0
2096921,2096921,181862,628848,0
2096921,2096921,181807,629051,0
2096921,2096921,181734,628872,0
2096921,2096921,181637,628944,0
2096921,2096921,181776,628826,0
2096921,2096921,181889,628725,0
2096921,2096921,181659,628556,0
2096921,2096921,181538,628720,0
2096921,2096921,181930,628885,0
2096921,2096921,181787,629167,0
2096921,2096921,181935,629029,0
2096921,2096921,182161,628946,0
2096921,2096921,181789,628960,0
2096921,2096921,181776,629032,0
2096921,2096921,181823,629153,0
2096921,2096921,181682,629049,0
2096921,2096921,181829,629307,0
2096921,2096921,181690,629053,0
2096921,2096921,181762,629216,0
2096921,2096921,181939,629133,0
2096921,2096921,181952,629111,0
2096921,2096921,181813,628980,0
2096921,2096921,182007,629103,0
2096921,2096921,181869,629222,0
2096921,2096921,181886,629048,0
2096921,2096921,181610,629191,0
2096921,2096921,181732,629038,0
2096921,2096921,181757,629191,0
2096921,2096921,181993,628931,0
2096921,2096921,181860,629228,0
2096921,2096921,182227,629149,0
2096921,2096921,181962,629584,0
2096921,2096921,182102,629455,0
2096921,2096921,182264,629436,0
2096921,2096921,182145,629406,0
2096921,2096921,181865,629444,0
2096921,2096921,182081,629154,0
2096921,2096921,182337,629357,0
2096921,2096921,181979,629085,0
2096921,2096921,181957,629624,0
2096921,2096921,182104,629482,0
2096921,2096921,181888,629600,0
2096921,2096921,181928,629606,0
2096921,2096921,182119,629568,0
2096921,2096921,182086,629331,0
2096921,2096921,182117,629237,0
2096921,2096921,182031,629362,0
2096921,2096921,182108,629308,0
2096921,2096921,182117,629294,0
2096921,2096921,182142,629401,0
2096921,2096921,182122,629512,0
2096921,2096921,181949,629488,0
2096921,2096921,182340,629664,0
2096921,2096921,182224,629546,0
2096921,2096921,181880,629555,0
2096921,2096921,182028,629531,0
2096921,2096921,182028,629696,0
2096921,2096921,182164,629528,0
2096921,2096921,182386,629317,0
2096921,2096921,182057,629390,0
2096921,2096921,182396,629394,0
2096921,2096921,182011,629507,0
2096921,2096921,182119,629561,0
2096921,2096921,181982,629634,0
2096921,2096921,182239,629660,0
2096921,2096921,181990,629361,0
2096921,2096921,182019,629274,0
2096921,2096921,182065,629465,0
2096921,2096921,182168,629696,0
2096921,2096921,182352,629535,0
2096921,2096921,181992,629584,0
2096921,2096921,182262,629712,0
2096921,2096921,182229,629545,0
2096921,2096921,182100,629677,0
2096921,2096921,181810,629684,0
2096921,2096921,181935,629475,0
2096921,2096921,182073,629491,0
2096921,2096921,181931,629500,0
2096921,2096921,182016,629667,0
2096921,2096921,182041,629453,0
2096921,2096921,181940,629678,0
2096921,2096921,182019,629457,0
2096921,2096921,181886,629440,0
2096921,2096921,182093,629667,0
2096921,2096921,182157,629524,0
2096921,2096921,182125,629334,0
2096921,2096921,182036,629534,0
2096921,2096921,181848,629396,0
2096921,2096921,182017,629479,0
2096921,2096921,182076,629616,0
2096921,2096921,182360,629817,0
2096921,2096921,182353,629940,0
2096921,2096921,182239,629756,0
2096921,2096921,182204,629589,0
2096921,2096921,182130,629421,0
2096921,2096921,182182,629260,0
2096921,2096921,182247,629836,0
2096921,2096921,181957,629543,0
2096921,2096921,181932,629340,0
2096921,2096921,182068,629469,0
2096921,2096921,182196,629497,0
2096921,2096921,182170,629477,0
2096921,2096921,182169,629415,0
2096921,2096921,182045,630106,0
2096921,2096921,182208,629682,0
2096921,2096921,182189,629405,0
2096921,2096921,181966,629406,0
2096921,2096921,181707,629292,0
2096921,2096921,181774,629146,0
2096921,2096921,182244,629406,0
2096921,2096921,181933,629345,0
2096921,2096921,181754,629314,0
2096921,2096921,181727,629000,0
2096921,2096921,181804,629061,0
2096921,2096921,181826,628784,0
2096921,2096921,181637,628866,0
2096921,2096921,181348,628733,0
2096921,2096921,181283,628353,0
2096921,2096921,181412,628232,0
2096921,2096921,181465,628467,0
2096921,2096921,181701,628323,0
2096921,2096921,181332,628501,0
2096921,2096921,181155,627859,0
2096921,2096921,181246,628058,0
2096921,2096921,181082,627550,0
2096921,2096921,181038,627622,0
2096921,2096921,181128,627757,0
2096921,2096921,181150,627228,0
2096921,2096921,180945,626938,0
2096921,2096921,180640,627095,0
2096921,2096921,180914,627023,0
2096921,2096921,180053,627324,0
2096921,2096921,180020,625913,0
2096921,2096921,179862,625637,0
2096921,2096921,179954,625484,0
2096921,2096921,179972,625736,0
2096921,2096921,179236,625378,0
2096921,2096921,179061,623891,0
2096921,2096921,178969,623540,0
2096921,2096921,178920,623293,0
2096921,2096921,178946,623556,0
2096921,2096921,178579,623524,0
2096921,2096921,178614,622534,0
2096921,2096921,178312,622334,0
2096921,2096921,178359,622282,0
2096921,2096921,178446,622229,0
2096921,2096921,177872,622232,0
2096921,2096921,177978,621322,0
2096921,2096921,177649,621376,0
2096921,2096921,177678,621122,0
2096921,2096921,177970,620935,0
2096921,2096921,177608,620841,0
2096921,2096921,177317,620447,0
2096921,2096921,177279,620243,0
2096921,2096921,177213,620109,0
2096921,2096921,177504,620225,0
2096921,2096921,177355,620474,0
2096921,2096921,177118,619720,0
2096921,2096921,177221,619661,0
2096921,2096921,176934,619684,0
2096921,2096921,176955,619716,0
2096921,2096921,176945,619779,0
2096921,2096921,177196,619476,0
2096921,2096921,176867,619621,0
2096921,2096921,177009,619463,0
2096921,2096921,176620,619202,0
2096921,2096921,176805,619115,0
2096921,2096921,176424,619133,0
2096921,2096921,176602,619236,0
2096921,2096921,176733,619076,0
2096921,2096921,177166,619052,0
2096921,2096921,176660,619104,0
2096921,2096921,177092,618866,0
2096921,2096921,176570,619202,0
2096921,2096921,176789,618679,0
2096921,2096921,176880,619085,0
2096921,2096921,176679,618932,0
2096921,2096921,176799,619174,0
2096921,2096921,176656,619089,0
2096921,2096921,176597,619065,0
2096921,2096921,176740,619086,0
2096921,2096921,176786,618836,0
2096921,2096921,176723,619048,0
2096921,2096921,176832,619121,0
2096921,2096921,176550,619006,0
2096921,2096921,176565,619126,0
2096921,2096921,176737,619062,0
2096921,2096921,176541,619437,0
2096921,2096921,176832,619454,0
2096921,2096921,176980,619113,0
2096921,2096921,176890,619247,0
2096921,2096921,176827,619410,0
2096921,2096921,176882,619516,0
2096921,2096921,176747,619319,0
2096921,2096921,176959,619174,0
2096921,2096921,176823,619407,0
2096921,2096921,177136,619315,0
2096921,2096921,176733,619503,0
2096921,2096921,177310,619637,0
2096921,2096921,176994,619670,0
2096921,2096921,176975,620003,0
2096921,2096921,177293,619506,0
2096921,2096921,177243,619933,0
2096921,2096921,177178,619893,0
2096921,2096921,177106,619793,0
2096921,2096921,177046,619801,0
2096921,2096921,177334,619509,0
2096921,2096921,177543,620120,0
2096921,2096921,177486,620024,0
2096921,2096921,177570,620185,0
2096921,2096921,177297,620292,0
2096921,2096921,177433,620372,0
2096921,2096921,177505,620535,0
2096921,2096921,177658,620382,0
2096921,2096921,177149,620455,0
2096921,2096921,177536,620138,0
2096921,2096921,177697,620450,0
2096921,2096921,177813,620378,0
2096921,2096921,178045,620996,0
2096921,2096921,177637,620648,0
2096921,2096921,177601,620870,0
2096921,2096921,177685,620838,0
2096921,2096921,177747,620856,0
2096921,2096921,177809,620972,0
2096921,2096921,177673,621081,0
2096921,2096921,178058,620895,0
2096921,2096921,177847,621024,0
2096921,2096921,177519,621161,0
2096921,2096921,177696,621395,0
2096921,2096921,177784,621093,0
2096921,2096921,177974,621170,0
2096921,2096921,178055,621301,0
2096921,2096921,178091,621532,0
2096921,2096921,178185,621524,0
2096921,2096921,178351,621725,0
2096921,2096921,177753,621676,0
2096921,2096921,178057,621590,0
2096921,2096921,178061,621717,0
2096921,2096921,178089,621732,0
2096921,2096921,178280,621906,0
2096921,2096921,178368,621861,0
2096921,2096921,178640,621953,0
2096921,2096921,178417,622047,0
2096921,2096921,178288,622280,0
2096921,2096921,178303,622060,0
2096921,2096921,178224,622106,0
2096921,2096921,178580,622154,0
2096921,2096921,178743,622196,0
2096921,2096921,178599,622308,0
2096921,2096921,178496,622509,0
2096921,2096921,178761,622521,0
2096921,2096921,178688,622220,0
2096921,2096921,178751,622595,0
2096921,2096921,178617,622887,0
2096921,2096921,178744,622613,0
2096921,2096921,178802,622656,0
2096921,2096921,178659,622705,0
2096921,2096921,178798,622851,0
2096921,2096921,178812,622897,0
2096921,2096921,178787,623126,0
2096921,2096921,179051,622999,0
2096921,2096921,178881,622735,0
2096921,2096921,178793,622920,0
2096921,2096921,178997,622999,0
2096921,2096921,178867,623131,0
2096921,2096921,179062,623050,0
2096921,2096921,178764,622818,0
2096921,2096921,178870,622946,0
2096921,2096921,179154,623146,0
2096921,2096921,178955,623254,0
2096921,2096921,179227,623107,0
2096921,2096921,178924,623166,0
2096921,2096921,179057,623384,0
2096921,2096921,179034,623211,0
2096921,2096921,179241,623014,0
2096921,2096921,179079,623166,0
2096921,2096921,179098,623132,0
2096921,2096921,179003,623162,0
2096921,2096921,179044,623252,0
2096921,2096921,179246,623368,0
2096921,2096921,178904,623383,0
2096921,2096921,178922,622927,0
2096921,2096921,179075,623170,0
2096921,2096921,179383,622864,0
2096921,2096921,179100,622887,0
2096921,2096921,179395,623141,0
2096921,2096921,179037,622839,0
2096921,2096921,179288,622805,0
2096921,2096921,178926,622870,0
2096921,2096921,179056,622723,0
2096921,2096921,179251,622854,0
2096921,2096921,178986,622951,0
2096921,2096921,179275,622834,0
2096921,2096921,178952,622754,0
2096921,2096921,178801,623130,0
2096921,2096921,179025,622753,0
2096921,2096921,178949,622634,0
2096921,2096921,178766,622328,0
2096921,2096921,178802,622709,0
2096921,2096921,178957,622599,0
2096921,2096921,178881,622379,0
2096921,2096921,178963,622347,0
2096921,2096921,178895,622419,0
2096921,2096921,178976,622369,0
2096921,2096921,178699,622273,0
2096921,2096921,178647,622400,0
2096921,2096921,178844,622423,0
2096921,2096921,178628,621966,0
2096921,2096921,178664,622213,0
2096921,2096921,178824,622206,0
2096921,2096921,178538,622161,0
2096921,2096921,178391,622232,0
2096921,2096921,178564,622024,0
2096921,2096921,178394,621741,0
2096921,2096921,178599,621938,0
2096921,2096921,178476,621949,0
2096921,2096921,178547,621871,0
2096921,2096921,178554,622076,0
2096921,2096921,178600,621987,0
2096921,2096921,178944,621684,0
2096921,2096921,178441,622174,0
2096921,2096921,178600,621979,0
2096921,2096921,178587,622262,0
2096921,2096921,178716,621638,0
2096921,2096921,178754,621524,0
2096921,2096921,178524,621645,0
2096921,2096921,178406,621677,0
2096921,2096921,178316,621526,0
2096921,2096921,178529,621584,0
2096921,2096921,178543,621580,0
2096921,2096921,178685,621617,0
2096921,2096921,178361,621603,0
2096921,2096921,178887,621512,0
2096921,2096921,178585,621512,0
2096921,2096921,178493,621515,0
2096921,2096921,178105,621522,0
2096921,2096921,178654,621698,0
2096921,2096921,178632,621653,0
2096921,2096921,178395,621580,0
2096921,2096921,178512,621698,0
2096921,2096921,178582,621501,0
2096921,2096921,178654,621527,0
2096921,2096921,178816,621588,0
2096921,2096921,178653,621850,0
2096921,2096921,178722,621562,0
2096921,2096921,178650,621562,0
2096921,2096921,178619,621388,0
2096921,2096921,178720,621594,0
2096921,2096921,178533,621704,0
2096921,2096921,178764,621728,0
2096921,2096921,178707,621653,0
2096921,2096921,179084,621963,0
2096921,2096921,178623,622008,0
2096921,2096921,178695,622206,0
2096921,2096921,178635,622247,0
2096921,2096921,178529,621896,0
2096921,2096921,178673,621642,0
2096921,2096921,178945,621902,0
2096921,2096921,178958,621719,0
2096921,2096921,178855,621925,0
2096921,2096921,178689,622066,0
2096921,2096921,178744,621936,0
2096921,2096921,178818,622036,0
2096921,2096921,178720,621933,0
2096921,2096921,178757,621897,0
2096921,2096921,178812,621701,0
2096921,2096921,178707,622088,0
2096921,2096921,178974,622065,0
2096921,2096921,179093,622178,0
2096921,2096921,178966,621996,0
2096921,2096921,178988,621957,0
2096921,2096921,178971,622226,0
2096921,2096921,179015,622202,0
2096921,2096921,179105,622407,0
2096921,2096921,179038,622145,0
2096921,2096921,179075,622243,0
2096921,2096921,179050,622139,0
2096921,2096921,178983,622160,0
2096921,2096921,178872,622185,0
2096921,2096921,179122,621975,0
2096921,2096921,179214,622111,0
2096921,2096921,179459,622103,0
2096921,2096921,179236,622441,0
2096921,2096921,179425,622308,0
2096921,2096921,179378,622213,0
2096921,2096921,179084,621885,0
2096921,2096921,178915,621956,0
2096921,2096921,178970,622038,0
2096921,2096921,178987,622221,0
2096921,2096921,179387,622264,0
2096921,2096921,179385,622321,0
2096921,2096921,179272,622491,0
2096921,2096921,179282,622333,0
2096921,2096921,179381,622327,0
2096921,2096921,179353,622280,0
2096921,2096921,179199,622245,0
2096921,2096921,179215,622358,0
2096921,2096921,179222,622169,0
2096921,2096921,179368,622190,0
2096921,2096921,179210,622612,0
2096921,2096921,179133,622546,0
2096921,2096921,179374,622655,0
2096921,2096921,179296,622433,0
2096921,2096921,179423,622335,0
2096921,2096921,179510,622367,0
2096921,2096921,179427,622244,0
2096921,2096921,179210,622352,0
2096921,2096921,179316,622471,0
2096921,2096921,179034,622296,0
2096921,2096921,179106,622424,0
2096921,2096921,179341,622186,0
2096921,2096921,179548,622243,0
2096921,2096921,179464,622563,0
2096921,2096921,179366,622462,0
2096921,2096921,179446,622203,0
2096921,2096921,179383,622397,0
2096921,2096921,179673,622221,0
2096921,2096921,179476,622238,0
2096921,2096921,179167,622504,0
2096921,2096921,179627,622364,0
2096921,2096921,179486,622332,0
2096921,2096921,179585,622631,0
2096921,2096921,179503,622530,0
2096921,2096921,179364,622475,0
2096921,2096921,179319,622535,0
2096921,2096921,179390,622516,0
2096921,2096921,179350,622840,0
2096921,2096921,179569,622457,0
2096921,2096921,179677,622585,0
2096921,2096921,179434,622472,0
2096921,2096921,179668,622618,0
2096921,2096921,179655,622546,0
2096921,2096921,179648,622620,0
2096921,2096921,179448,622445,0
2096921,2096921,179554,622432,0
2096921,2096921,179398,622468,0
2096921,2096921,179401,622359,0
2096921,2096921,179322,622372,0
2096921,2096921,179522,622134,0
2096921,2096921,179561,622339,0
2096921,2096921,179521,622198,0
2096921,2096921,179389,622476,0
2096921,2096921,179506,622434,0
2096921,2096921,179570,622461,0
2096921,2096921,179539,622405,0
2096921,2096921,179590,622350,0
2096921,2096921,179777,622152,0
2096921,2096921,179710,622219,0
2096921,2096921,179617,622141,0
2096921,2096921,179544,622350,0
2096921,2096921,179630,622365,0
2096921,2096921,179734,622517,0
2096921,2096921,179491,622204,0
2096921,2096921,179795,622257,0
2096921,2096921,179563,622190,0
2096921,2096921,179614,622254,0
2096921,2096921,179424,622318,0
2096921,2096921,179599,621729,0
2096921,2096921,179419,622068,0
2096921,2096921,179288,622174,0
2096921,2096921,179512,622185,0
2096921,2096921,179645,622058,0
2096921,2096921,179723,622155,0
2096921,2096921,179988,621946,0
2096921,2096921,179569,622412,0
2096921,2096921,179843,622084,0
2096921,2096921,179601,622067,0
2096921,2096921,179517,621895,0
2096921,2096921,179478,622207,0
2096921,2096921,179319,622206,0
2096921,2096921,179956,622332,0
2096921,2096921,179792,622270,0
2096921,2096921,179773,622301,0
2096921,2096921,179915,622113,0
2096921,2096921,179577,621904,0
2096921,2096921,179510,621906,0
2096921,2096921,179456,622145,0
2096921,2096921,179524,622107,0
2096921,2096921,179630,621835,0
2096921,2096921,179412,621929,0
2096921,2096921,179592,622147,0
2096921,2096921,179702,621992,0
2096921,2096921,180082,621865,0
2096921,2096921,180012,621819,0
2096921,2096921,179808,622232,0
2096921,2096921,179709,621975,0
2096921,2096921,179649,621948,0
2096921,2096921,179674,622101,0
2096921,2096921,179571,621799,0
2096921,2096921,179568,621778,0
2096921,2096921,179639,621733,0
2096921,2096921,179851,621741,0
2096921,2096921,179789,621746,0
2096921,2096921,179487,621696,0
2096921,2096921,179575,621758,0
2096921,2096921,179431,621418,0
2096921,2096921,179403,621443,0
2096921,2096921,179418,621313,0
2096921,2096921,179491,621521,0
2096921,2096921,179839,621362,0
2096921,2096921,179560,621673,0
2096921,2096921,179540,621635,0
2096921,2096921,179726,621592,0
2096921,2096921,179565,621650,0
2096921,2096921,179619,621711,0
2096921,2096921,179420,621478,0
2096921,2096921,179656,621369,0
2096921,2096921,179415,621631,0
2096921,2096921,179738,621732,0
2096921,2096921,179589,621625,0
2096921,2096921,179832,621455,0
2096921,2096921,179948,621615,0
2096921,2096921,179727,621287,0
2096921,2096921,179649,621126,0
2096921,2096921,179486,621229,0
2096921,2096921,179271,621204,0
2096921,2096921,179420,621362,0
2096921,2096921,179592,621168,0
2096921,2096921,179601,621255,0
2096921,2096921,179694,621492,0
2096921,2096921,179542,621420,0
2096921,2096921,179747,621608,0
2096921,2096921,179397,621262,0
2096921,2096921,179407,621275,0
2096921,2096921,179425,621014,0
2096921,2096921,179438,621297,0
2096921,2096921,179364,621053,0
2096921,2096921,179208,621214,0
2096921,2096921,179525,621299,0
2096921,2096921,179519,621093,0
2096921,2096921,179605,621132,0
2096921,2096921,179658,621016,0
2096921,2096921,179500,621167,0
2096921,2096921,179653,621139,0
2096921,2096921,179662,620862,0
2096921,2096921,179859,620794,0
2096921,2096921,179420,620678,0
2096921,2096921,179657,620712,0
2096921,2096921,179491,620910,0
2096921,2096921,179575,620798,0
2096921,2096921,179660,620625,0
2096921,2096921,179794,620634,0
2096921,2096921,179692,620834,0
2096921,2096921,179405,620819,0
2096921,2096921,179335,620691,0
2096921,2096921,179353,620825,0
2096921,2096921,179350,620709,0
2096921,2096921,179622,620310,0
2096921,2096921,179298,620797,0
2096921,2096921,179541,620629,0
2096921,2096921,179554,620550,0
2096921,2096921,179464,620578,0
2096921,2096921,179234,620365,0
2096921,2096921,179682,620498,0
2096921,2096921,179440,620575,0
2096921,2096921,179498,620626,0
2096921,2096921,179350,620429,0
2096921,2096921,179474,620441,0
2096921,2096921,179410,620413,0
2096921,2096921,179561,620327,0
2096921,2096921,179487,620221,0
2096921,2096921,179585,620556,0
2096921,2096921,179305,620461,0
2096921,2096921,179423,620212,0
2096921,2096921,179538,620447,0
2096921,2096921,179180,620449,0
2096921,2096921,179214,619997,0
2096921,2096921,179454,620037,0
2096921,2096921,179250,620187,0
2096921,2096921,179128,620444,0
2096921,2096921,179309,620156,0
2096921,2096921,179283,620174,0
2096921,2096921,179048,620200,0
2096921,2096921,179056,619897,0
2096921,2096921,178969,619880,0
2096921,2096921,179028,620011,0
2096921,2096921,179265,619914,0
2096921,2096921,179392,619976,0
2096921,2096921,179263,619817,0
2096921,2096921,179263,620134,0
2096921,2096921,179244,620008,0
2096921,2096921,179511,620089,0
2096921,2096921,179338,620048,0
2096921,2096921,179294,619976,0
2096921,2096921,179295,619769,0
2096921,2096921,179127,619741,0
2096921,2096921,179039,619624,0
2096921,2096921,179383,619612,0
2096921,2096921,179275,619756,0
2096921,2096921,179141,619417,0
2096921,2096921,178988,619788,0
2096921,2096921,178940,619775,0
2096921,2096921,179269,619557,0
2096921,2096921,179145,619428,0
2096921,2096921,179028,619375,0
2096921,2096921,179259,619365,0
2096921,2096921,178931,619454,0
2096921,2096921,179156,619335,0
2096921,2096921,179146,619765,0
2096921,2096921,179186,619274,0
2096921,2096921,179015,619564,0
2096921,2096921,178936,619227,0
2096921,2096921,179139,619198,0
2096921,2096921,179082,619223,0
2096921,2096921,179079,619309,0
2096921,2096921,178629,619317,0
2096921,2096921,178815,619552,0
2096921,2096921,178696,618913,0
2096921,2096921,178929,618655,0
2096921,2096921,178520,618785,0
2096921,2096921,178889,618777,0
2096921,2096921,178590,619033,0
2096921,2096921,178810,618404,0
2096921,2096921,178528,618682,0
2096921,2096921,178785,618356,0
2096921,2096921,178854,618692,0
2096921,2096921,178301,618329,0
2096921,2096921,178172,617706,0
2096921,2096921,178429,617506,0
2096921,2096921,178498,617692,0
2096921,2096921,178280,617657,0
2096921,2096921,178070,617709,0
2096921,2096921,178127,617165,0
2096921,2096921,178240,617483,0
2096921,2096921,177762,617375,0
2096921,2096921,178158,617091,0
2096921,2096921,177799,616857,0
2096921,2096921,177597,616524,0
2096921,2096921,177639,616298,0
2096921,2096921,177610,616247,0
2096921,2096921,177718,616553,0
2096921,2096921,177117,616236,0
2096921,2096921,176858,615066,0
2096921,2096921,176822,614860,0
2096921,2096921,176850,614584,0
2096921,2096921,177035,614639,0
2096921,2096921,175975,614758,0
2096921,2096921,175917,613140,0
2096921,2096921,176005,612882,0
2096921,2096921,176048,612833,0
2096921,2096921,175808,612962,0
2096921,2096921,175313,612851,0
2096921,2096921,175132,611732,0
2096921,2096921,175214,611343,0
2096921,2096921,175120,610987,0
2096921,2096921,175062,611171,0
2096921,2096921,174325,611012,0
2096921,2096921,174274,609892,0
2096921,2096921,174297,610015,0
2096921,2096921,174266,609989,0
2096921,2096921,174423,610223,0
2096921,2096921,174351,609690,0
2096921,2096921,174076,609048,0
2096921,2096921,174325,609430,0
2096921,2096921,174041,609250,0
2096921,2096921,173873,609349,0
2096921,2096921,173642,609289,0
2096921,2096921,173645,608688,0
2096921,2096921,173615,608707,0
2096921,2096921,173601,608522,0
2096921,2096921,173617,608547,0
2096921,2096921,173730,608491,0
2096921,2096921,173504,608271,0
2096921,2096921,173469,608028,0
2096921,2096921,173624,608022,0
2096921,2096921,173446,608086,0
2096921,2096921,173308,607910,0
2096921,2096921,173215,607579,0
2096921,2096921,173274,607574,0
2096921,2096921,173254,607576,0
2096921,2096921,173475,607557,0
2096921,2096921,173257,607399,0
2096921,2096921,173497,607498,0
2096921,2096921,173389,607660,0
2096921,2096921,173122,607379,0
2096921,2096921,173219,607375,0
2096921,2096921,173287,607309,0
2096921,2096921,173066,607360,0
2096921,2096921,173325,607450,0
2096921,2096921,173298,607547,0
2096921,2096921,173323,607420,0
2096921,2096921,173295,607549,0
2096921,2096921,173520,607642,0
2096921,2096921,173308,607743,0
2096921,2096921,173311,607591,0
2096921,2096921,173035,607392,0
2096921,2096921,173020,607392,0
2096921,2096921,173158,607514,0
2096921,2096921,173062,607275,0
2096921,2096921,173397,607532,0
2096921,2096921,173431,607766,0
2096921,2096921,173792,607547,0
2096921,2096921,173104,607613,0
2096921,2096921,173324,607503,0
2096921,2096921,173185,607398,0
2096921,2096921,173511,607472,0
2096921,2096921,173455,607561,0
2096921,2096921,173590,607493,0
2096921,2096921,173597,607789,0
2096921,2096921,173628,607536,0
2096921,2096921,173559,607602,0
2096921,2096921,173673,607649,0
2096921,2096921,173593,608182,0
2096921,2096921,173622,607667,0
2096921,2096921,173799,608150,0
2096921,2096921,173630,607785,0
2096921,2096921,173552,608008,0
2096921,2096921,173478,607967,0
2096921,2096921,173619,608171,0
2096921,2096921,173610,608287,0
2096921,2096921,173829,608473,0
2096921,2096921,173893,608045,0
2096921,2096921,174099,608405,0
2096921,2096921,173812,608426,0
2096921,2096921,173908,608559,0
2096921,2096921,174052,608595,0
2096921,2096921,174252,608381,0
2096921,2096921,174018,608700,0
2096921,2096921,174112,608904,0
2096921,2096921,174061,609054,0
2096921,2096921,174045,608728,0
2096921,2096921,174269,608886,0
2096921,2096921,174447,608932,0
2096921,2096921,174321,609008,0
2096921,2096921,174259,608927,0
2096921,2096921,174026,608882,0
2096921,2096921,174196,608951,0
2096921,2096921,174318,609297,0
2096921,2096921,174260,609509,0
2096921,2096921,174291,609291,0
2096921,2096921,174329,609192,0
2096921,2096921,174653,609171,0
2096921,2096921,174421,609697,0
2096921,2096921,174566,609452,0
2096921,2096921,174214,609628,0
2096921,2096921,174300,609860,0
2096921,2096921,174564,609857,0
2096921,2096921,174728,610066,0
2096921,2096921,174816,610066,0
2096921,2096921,174698,609774,0
2096921,2096921,174675,610236,0
2096921,2096921,174961,610158,0
2096921,2096921,175121,610217,0
2096921,2096921,175024,610274,0
2096921,2096921,174883,610193,0
2096921,2096921,174795,610219,0
2096921,2096921,174960,610243,0
2096921,2096921,174777,610549,0
2096921,2096921,175221,610558,0
2096921,2096921,175040,610742,0
2096921,2096921,174778,610897,0
2096921,2096921,175517,610872,0
2096921,2096921,175527,610914,0
2096921,2096921,175336,610773,0
2096921,2096921,175442,610564,0
2096921,2096921,175446,610761,0
2096921,2096921,175349,610960,0
2096921,2096921,175286,611120,0
2096921,2096921,175257,611088,0
2096921,2096921,175647,611173,0
2096921,2096921,175598,610748,0
2096921,2096921,175514,611008,0
2096921,2096921,175545,611242,0
2096921,2096921,175613,611140,0
2096921,2096921,175506,611333,0
2096921,2096921,175635,611239,0
2096921,2096921,175406,611229,0
2096921,2096921,175638,611561,0
2096921,2096921,175523,611509,0
2096921,2096921,175638,611391,0
2096921,2096921,175402,611401,0
2096921,2096921,175718,611454,0
2096921,2096921,175715,611803,0
2096921,2096921,175752,611871,0
2096921,2096921,175642,611884,0
2096921,2096921,175825,611469,0
2096921,2096921,175349,611509,0
2096921,2096921,175490,611855,0
2096921,2096921,175875,611704,0
2096921,2096921,175610,611821,0
2096921,2096921,175864,611824,0
2096921,2096921,175618,611905,0
2096921,2096921,175684,611811,0
2096921,2096921,175705,612026,0
2096921,2096921,175741,611823,0
2096921,2096921,175578,611718,0
2096921,2096921,175815,611697,0
2096921,2096921,175322,611688,0
2096921,2096921,175733,611534,0
2096921,2096921,175294,611799,0
2096921,2096921,175553,611862,0
2096921,2096921,175798,611863,0
2096921,2096921,175673,611658,0
2096921,2096921,175548,611616,0
2096921,2096921,175557,611619,0
2096921,2096921,175685,611703,0
2096921,2096921,175495,611578,0
2096921,2096921,175544,611522,0
2096921,2096921,175338,611326,0
2096921,2096921,175586,611715,0
2096921,2096921,175653,611561,0
2096921,2096921,175253,611532,0
2096921,2096921,175605,611523,0
2096921,2096921,175550,611304,0
2096921,2096921,175400,611502,0
2096921,2096921,175500,611460,0
2096921,2096921,175539,611479,0
2096921,2096921,175509,611218,0
2096921,2096921,175761,611311,0
2096921,2096921,175539,611275,0
2096921,2096921,175659,611508,0
2096921,2096921,175474,611379,0
2096921,2096921,175658,611413,0
2096921,2096921,175710,611395,0
2096921,2096921,175563,611319,0
2096921,2096921,175546,611258,0
2096921,2096921,175424,611229,0
2096921,2096921,175467,611207,0
2096921,2096921,175377,611464,0
2096921,2096921,175495,611210,0
2096921,2096921,175519,611401,0
2096921,2096921,175386,611325,0
2096921,2096921,175391,611285,0
2096921,2096921,175488,611031,0
2096921,2096921,175495,610805,0
2096921,2096921,175222,611112,0
2096921,2096921,175235,610889,0
2096921,2096921,175480,611268,0
2096921,2096921,175379,611409,0
2096921,2096921,175151,611352,0
2096921,2096921,175449,611171,0
2096921,2096921,175673,611207,0
2096921,2096921,175468,611492,0
2096921,2096921,175620,611439,0
2096921,2096921,175621,611408,0
2096921,2096921,175428,611244,0
2096921,2096921,175499,611164,0
2096921,2096921,175504,611179,0
2096921,2096921,175313,611455,0
2096921,2096921,175645,611532,0
2096921,2096921,175551,611526,0
2096921,2096921,175583,611567,0
2096921,2096921,175430,611872,0
2096921,2096921,175858,611771,0
2096921,2096921,175651,611742,0
2096921,2096921,175711,611745,0
2096921,2096921,176057,611645,0
2096921,2096921,175943,611765,0
2096921,2096921,176126,611793,0
2096921,2096921,176007,611927,0
2096921,2096921,175651,612025,0
2096921,2096921,175756,612134,0
2096921,2096921,175872,612291,0
2096921,2096921,176128,612251,0
2096921,2096921,175888,612063,0
2096921,2096921,175924,612449,0
2096921,2096921,175844,612177,0
2096921,2096921,176072,612093,0
2096921,2096921,175920,612455,0
2096921,2096921,176132,612394,0
2096921,2096921,176148,612528,0
2096921,2096921,176018,612424,0
2096921,2096921,175942,612587,0
2096921,2096921,176166,612516,0
2096921,2096921,176072,612612,0
2096921,2096921,176246,612555,0
2096921,2096921,176179,612724,0
2096921,2096921,176123,612976,0
2096921,2096921,176029,613107,0
2096921,2096921,176242,612772,0
2096921,2096921,176115,612771,0
2096921,2096921,176457,612807,0
2096921,2096921,176301,612755,0
2096921,2096921,176389,612738,0
2096921,2096921,176334,612946,0
2096921,2096921,176482,612945,0
2096921,2096921,176589,612915,0
2096921,2096921,176347,612891,0
2096921,2096921,176382,612856,0
2096921,2096921,176371,613031,0
2096921,2096921,176497,613103,0
2096921,2096921,176306,613352,0
2096921,2096921,176460,613246,0
2096921,2096921,176693,613591,0
2096921,2096921,176383,613298,0
2096921,2096921,176244,613297,0
2096921,2096921,176363,613221,0
2096921,2096921,176412,613360,0
2096921,2096921,176573,613175,0
2096921,2096921,176589,613531,0
2096921,2096921,176450,613427,0
2096921,2096921,176718,613632,0
2096921,2096921,176839,613562,0
2096921,2096921,176678,613686,0
2096921,2096921,176845,613554,0
2096921,2096921,176650,613394,0
2096921,2096921,176883,613719,0
2096921,2096921,176729,613701,0
2096921,2096921,176662,613694,0
2096921,2096921,176658,613926,0
2096921,2096921,176690,613826,0
2096921,2096921,176695,613831,0
2096921,2096921,176895,613957,0
2096921,2096921,177051,614117,0
2096921,2096921,176737,614008,0
2096921,2096921,176874,613929,0
2096921,2096921,176697,614015,0
2096921,2096921,176769,614147,0
2096921,2096921,176701,614161,0
2096921,2096921,176672,613903,0
2096921,2096921,176806,614158,0
2096921,2096921,177093,614207,0
2096921,2096921,176963,614358,0
2096921,2096921,177092,614312,0
2096921,2096921,176923,614365,0
2096921,2096921,177015,614273,0
2096921,2096921,177065,614438,0
2096921,2096921,176955,614664,0
2096921,2096921,177008,614362,0
2096921,2096921,176984,614602,0
2096921,2096921,177035,614571,0
2096921,2096921,177001,614615,0
2096921,2096921,177190,614708,0
2096921,2096921,177000,614691,0
2096921,2096921,177321,614623,0
2096921,2096921,177084,614426,0
2096921,2096921,177370,614678,0
2096921,2096921,177003,614597,0
2096921,2096921,177185,614855,0
2096921,2096921,177453,614776,0
2096921,2096921,177444,614934,0
2096921,2096921,177453,614826,0
2096921,2096921,177074,615097,0
2096921,2096921,177271,615150,0
2096921,2096921,177262,614870,0
2096921,2096921,177206,614738,0
2096921,2096921,177216,615042,0
2096921,2096921,177315,614898,0
2096921,2096921,177424,614804,0
2096921,2096921,177399,614970,0
2096921,2096921,177458,615159,0
2096921,2096921,177465,614998,0
2096921,2096921,177735,615329,0
2096921,2096921,177474,615288,0
2096921,2096921,177582,615006,0
2096921,2096921,177578,614998,0
2096921,2096921,177556,615049,0
2096921,2096921,177442,615265,0
2096921,2096921,177438,615188,0
2096921,2096921,177290,615382,0
2096921,2096921,177535,615496,0
2096921,2096921,177693,615493,0
2096921,2096921,177916,615481,0
2096921,2096921,177896,615736,0
2096921,2096921,177584,615389,0
2096921,2096921,177421,615531,0
2096921,2096921,177539,615331,0
2096921,2096921,177401,615403,0
2096921,2096921,177570,615451,0
2096921,2096921,177635,615916,0
2096921,2096921,177719,615960,0
2096921,2096921,177804,615808,0
2096921,2096921,177834,615906,0
2096921,2096921,177645,616299,0
2096921,2096921,177779,616116,0
2096921,2096921,177708,615805,0
2096921,2096921,177693,615908,0
2096921,2096921,177856,615821,0
2096921,2096921,177932,615627,0
2096921,2096921,177759,615896,0
2096921,2096921,177780,615823,0
2096921,2096921,177927,616008,0
2096921,2096921,178056,616321,0
2096921,2096921,178108,616053,0
2096921,2096921,177937,615924,0
2096921,2096921,177897,615973,0
2096921,2096921,177736,616076,0
2096921,2096921,178013,616090,0
2096921,2096921,177822,616272,0
2096921,2096921,178027,615973,0
2096921,2096921,177879,616175,0
2096921,2096921,177998,616075,0
2096921,2096921,177951,616452,0
2096921,2096921,178296,616503,0
2096921,2096921,177924,616260,0
2096921,2096921,178021,616246,0
2096921,2096921,178038,616559,0
2096921,2096921,178139,616353,0
2096921,2096921,177953,616362,0
2096921,2096921,177811,616635,0
2096921,2096921,178055,616685,0
2096921,2096921,178065,616626,0
2096921,2096921,178134,616790,0
2096921,2096921,178282,616429,0
2096921,2096921,178066,616698,0
2096921,2096921,178240,616681,0
2096921,2096921,178210,616459,0
2096921,2096921,178079,616612,0
2096921,2096921,178149,616759,0
2096921,2096921,177935,616755,0
2096921,2096921,178178,616829,0
2096921,2096921,178254,616820,0
2096921,2096921,178147,616800,0
2096921,2096921,178307,616877,0
2096921,2096921,178327,617007,0
2096921,2096921,178602,616913,0
2096921,2096921,178266,616973,0
2096921,2096921,178138,617006,0
2096921,2096921,178240,617043,0
2096921,2096921,178154,617014,0
2096921,2096921,178311,617347,0
2096921,2096921,178262,617036,0
2096921,2096921,178350,617339,0
2096921,2096921,178432,617010,0
2096921,2096921,178307,617224,0
2096921,2096921,178183,617130,0
2096921,2096921,178427,616926,0
2096921,2096921,178371,616977,0
2096921,2096921,178501,616989,0
2096921,2096921,178423,617147,0
2096921,2096921,178598,617417,0
2096921,2096921,178235,617324,0
2096921,2096921,178431,617465,0
2096921,2096921,178392,617333,0
2096921,2096921,178467,617472,0
2096921,2096921,178254,617443,0
2096921,2096921,178409,617309,0
2096921,2096921,178286,617628,0
2096921,2096921,178278,617738,0
2096921,2096921,178414,617296,0
2096921,2096921,178263,617554,0
2096921,2096921,178442,617760,0
2096921,2096921,178672,617837,0
2096921,2096921,178474,617721,0
2096921,2096921,178690,617777,0
2096921,2096921,178719,617494,0
2096921,2096921,178532,617577,0
2096921,2096921,178685,617577,0
2096921,2096921,178164,617764,0
2096921,2096921,178633,617574,0
2096921,2096921,178582,617928,0
2096921,2096921,178549,617872,0
2096921,2096921,178752,618210,0
2096921,2096921,178461,618046,0
2096921,2096921,178507,618138,0
2096921,2096921,178570,618015,0
2096921,2096921,178496,617956,0
2096921,2096921,178359,618267,0
2096921,2096921,178704,618030,0
2096921,2096921,178723,617817,0
2096921,2096921,178941,618127,0
2096921,2096921,178735,617910,0
2096921,2096921,179250,618155,0
2096921,2096921,178977,618365,0
2096921,2096921,178651,618034,0
2096921,2096921,178659,618186,0
2096921,2096921,178650,618166,0
2096921,2096921,178439,618379,0
2096921,2096921,178775,618325,0
2096921,2096921,178557,618612,0
2096921,2096921,178788,618216,0
2096921,2096921,178840,618440,0
2096921,2096921,178853,618349,0
2096921,2096921,178616,618578,0
2096921,2096921,178877,618363,0
2096921,2096921,178662,618613,0
2096921,2096921,178946,618291,0
2096921,2096921,178724,618705,0
2096921,2096921,178673,618481,0
2096921,2096921,178712,618507,0
2096921,2096921,178905,618658,0
2096921,2096921,178922,618710,0
2096921,2096921,178785,618741,0
2096921,2096921,179068,618740,0
2096921,2096921,178774,618802,0
2096921,2096921,178834,618880,0
2096921,2096921,178772,618622,0
2096921,2096921,178963,618650,0
2096921,2096921,178885,618447,0
2096921,2096921,178918,618791,0
2096921,2096921,178988,618765,0
2096921,2096921,178871,618943,0
2096921,2096921,179254,619078,0
2096921,2096921,179230,618746,0
2096921,2096921,178952,618888,0
2096921,2096921,178841,618657,0
2096921,2096921,178995,618906,0
2096921,2096921,179019,618979,0
2096921,2096921,179065,619012,0
2096921,2096921,179178,619084,0
2096921,2096921,179143,619141,0
2096921,2096921,179157,619190,0
2096921,2096921,178996,619177,0
2096921,2096921,179167,619412,0
2096921,2096921,178571,619031,0
2096921,2096921,178927,619263,0
2096921,2096921,178776,619223,0
2096921,2096921,178676,619424,0
2096921,2096921,178971,619349,0
2096921,2096921,179156,619425,0
2096921,2096921,179137,619348,0
2096921,2096921,179124,619254,0
2096921,2096921,179188,619658,0
2096921,2096921,179239,619680,0
2096921,2096921,178998,619721,0
2096921,2096921,179090,619374,0
2096921,2096921,178676,619419,0
2096921,2096921,179127,619362,0
2096921,2096921,178883,619308,0
2096921,2096921,179031,619074,0
2096921,2096921,179276,619368,0
2096921,2096921,179046,619287,0
2096921,2096921,179113,619378,0
2096921,2096921,179096,619271,0
2096921,2096921,178761,619133,0
2096921,2096921,178801,619166,0
2096921,2096921,178678,619017,0
2096921,2096921,178767,618740,0
2096921,2096921,178696,618655,0
2096921,2096921,178385,618859,0
2096921,2096921,178841,618879,0
2096921,2096921,178072,618879,0
2096921,2096921,178553,618665,0
2096921,2096921,178339,618477,0
2096921,2096921,178530,618390,0
2096921,2096921,178325,618355,0
2096921,2096921,178287,618477,0
2096921,2096921,177778,617584,0
2096921,2096921,177915,617651,0
2096921,2096921,178057,617818,0
2096921,2096921,178144,617850,0
2096921,2096921,177387,617941,0
2096921,2096921,177432,616731,0
2096921,2096921,177344,616499,0
2096921,2096921,177374,616302,0
2096921,2096921,177310,616499,0
2096921,2096921,176597,616289,0
2096921,2096921,176382,614983,0
2096921,2096921,176458,614737,0
2096921,2096921,176376,614869,0
2096921,2096921,176364,614628,0
2096921,2096921,176017,614961,0
2096921,2096921,175864,613942,0
2096921,2096921,175897,613656,0
2096921,2096921,175864,613794,0
2096921,2096921,175849,613691,0
2096921,2096921,175308,613726,0
2096921,2096921,175193,612834,0
2096921,2096921,175390,612486,0
2096921,2096921,175321,612086,0
2096921,2096921,175268,612258,0
2096921,2096921,174953,612451,0
2096921,2096921,175127,611951,0
2096921,2096921,174660,611881,0
2096921,2096921,175022,611708,0
2096921,2096921,174896,611994,0
2096921,2096921,174631,611890,0
2096921,2096921,174385,611550,0
2096921,2096921,174520,611430,0
2096921,2096921,174511,611342,0
2096921,2096921,174494,611767,0
2096921,2096921,174688,611666,0
2096921,2096921,174668,611293,0
2096921,2096921,174438,611336,0
2096921,2096921,174338,611062,0
2096921,2096921,174610,611032,0
2096921,2096921,174462,610979,0
2096921,2096921,174300,610845,0
2096921,2096921,174289,611114,0
2096921,2096921,174348,610957,0
2096921,2096921,174424,610959,0
2096921,2096921,174276,611199,0
2096921,2096921,174219,611299,0
2096921,2096921,174562,611354,0
2096921,2096921,174635,611147,0
2096921,2096921,174690,610957,0
2096921,2096921,174499,611010,0
2096921,2096921,174466,611374,0
2096921,2096921,174502,611215,0
2096921,2096921,174376,611312,0
2096921,2096921,174596,611272,0
2096921,2096921,174475,611248,0
2096921,2096921,174794,611475,0
2096921,2096921,174472,611605,0
2096921,2096921,174738,611561,0
2096921,2096921,174587,611539,0
2096921,2096921,174676,611465,0
2096921,2096921,174662,611781,0
2096921,2096921,174814,611851,0
2096921,2096921,174612,611840,0
2096921,2096921,174532,611626,0
2096921,2096921,174478,612059,0
2096921,2096921,174782,611835,0
2096921,2096921,174879,612031,0
2096921,2096921,174751,612176,0
2096921,2096921,174905,612164,0
2096921,2096921,175151,611933,0
2096921,2096921,175093,612614,0
2096921,2096921,175023,612680,0
2096921,2096921,174884,612862,0
2096921,2096921,175034,612732,0
2096921,2096921,175089,612852,0
2096921,2096921,175252,612931,0
2096921,2096921,175014,613107,0
2096921,2096921,175377,612923,0
2096921,2096921,175081,612853,0
2096921,2096921,175272,613045,0
2096921,2096921,175587,613448,0
2096921,2096921,175167,613553,0
2096921,2096921,175372,613599,0
2096921,2096921,175428,613813,0
2096921,2096921,175399,613928,0
2096921,2096921,175590,613891,0
2096921,2096921,175610,614050,0
2096921,2096921,175769,613888,0
2096921,2096921,175736,613727,0
2096921,2096921,175517,614041,0
2096921,2096921,175554,614535,0
2096921,2096921,175762,614785,0
2096921,2096921,175922,614423,0
2096921,2096921,176111,614610,0
2096921,2096921,175796,614842,0
2096921,2096921,176050,615186,0
2096921,2096921,175856,615144,0
2096921,2096921,176006,615320,0
2096921,2096921,175779,615040,0
2096921,2096921,176314,614882,0
2096921,2096921,175909,615134,0
2096921,2096921,175995,615660,0
2096921,2096921,176310,615313,0
2096921,2096921,176358,615167,0
2096921,2096921,176266,615256,0
2096921,2096921,176856,615951,0
2096921,2096921,176781,616080,0
2096921,2096921,176490,615773,0
2096921,2096921,176094,615990,0
2096921,2096921,176475,615780,0
2096921,2096921,176507,616304,0
2096921,2096921,176777,616260,0
2096921,2096921,176421,616214,0
2096921,2096921,176469,616610,0
2096921,2096921,176917,616540,0
2096921,2096921,176750,616810,0
2096921,2096921,176761,616990,0
2096921,2096921,176700,617069,0
2096921,2096921,176853,616930,0
2096921,2096921,176811,616995,0
2096921,2096921,177026,617262,0
2096921,2096921,177216,617176,0
2096921,2096921,176977,617282,0
2096921,2096921,177288,617432,0
2096921,2096921,177228,617367,0
2096921,2096921,177527,617716,0
2096921,2096921,177510,617935,0
2096921,2096921,177388,617854,0
2096921,2096921,177012,617891,0
2096921,2096921,177599,617859,0
2096921,2096921,177348,618135,0
2096921,2096921,177566,618014,0
2096921,2096921,177495,618205,0
2096921,2096921,177821,617967,0
2096921,2096921,177872,618393,0
2096921,2096921,177682,618696,0
2096921,2096921,177751,618516,0
2096921,2096921,177411,618647,0
2096921,2096921,177528,618726,0
2096921,2096921,177658,618802,0
2096921,2096921,177553,618926,0
2096921,2096921,177550,619280,0
2096921,2096921,177972,618972,0
2096921,2096921,178103,618950,0
2096921,2096921,177937,619099,0
2096921,2096921,177719,619524,0
2096921,2096921,178127,619490,0
2096921,2096921,178106,619319,0
2096921,2096921,177835,619365,0
2096921,2096921,177780,619451,0
2096921,2096921,177986,619397,0
2096921,2096921,178031,619512,0
2096921,2096921,177908,619275,0
2096921,2096921,177748,619442,0
2096921,2096921,178258,619594,0
2096921,2096921,177973,619675,0
2096921,2096921,177937,619737,0
2096921,2096921,178166,619641,0
2096921,2096921,178095,619512,0
2096921,2096921,177876,619511,0
2096921,2096921,178151,619775,0
2096921,2096921,178167,619654,0
2096921,2096921,178021,619819,0
2096921,2096921,178083,619700,0
2096921,2096921,178105,619905,0
2096921,2096921,178240,620012,0
2096921,2096921,178085,619895,0
2096921,2096921,178115,619865,0
2096921,2096921,178213,619764,0
2096921,2096921,177953,620022,0
2096921,2096921,178001,620142,0
2096921,2096921,177882,620286,0
2096921,2096921,178149,620055,0
2096921,2096921,177859,620137,0
2096921,2096921,177868,620053,0
2096921,2096921,177908,620094,0
2096921,2096921,177987,620058,0
2096921,2096921,177969,619955,0
2096921,2096921,177944,620051,0
2096921,2096921,177902,619867,0
2096921,2096921,178153,619992,0
2096921,2096921,178124,620258,0
2096921,2096921,178008,620247,0
2096921,2096921,178154,620309,0
2096921,2096921,178519,619991,0
2096921,2096921,178266,620238,0
2096921,2096921,178061,620360,0
2096921,2096921,178098,620464,0
2096921,2096921,177818,620167,0
2096921,2096921,177826,620278,0
2096921,2096921,178124,620128,0
2096921,2096921,178092,620125,0
2096921,2096921,178071,620053,0
2096921,2096921,177935,620163,0
2096921,2096921,178246,619924,0
2096921,2096921,178369,620413,0
2096921,2096921,178052,620213,0
2096921,2096921,178134,620462,0
2096921,2096921,178196,620334,0
2096921,2096921,177969,620052,0
2096921,2096921,177975,620529,0
2096921,2096921,178184,620451,0
2096921,2096921,178171,620616,0
2096921,2096921,178436,620465,0
2096921,2096921,178356,620378,0
2096921,2096921,178441,620606,0
2096921,2096921,178372,620821,0
2096921,2096921,178337,621021,0
2096921,2096921,178100,620534,0
2096921,2096921,178456,620729,0
2096921,2096921,178560,620912,0
2096921,2096921,178497,620864,0
2096921,2096921,178263,620947,0
2096921,2096921,178620,620780,0
2096921,2096921,178509,621002,0
2096921,2096921,178751,621138,0
2096921,2096921,178477,621385,0
2096921,2096921,178716,621340,0
2096921,2096921,178697,621456,0
2096921,2096921,178581,621209,0
2096921,2096921,178383,621810,0
2096921,2096921,178488,621701,0
2096921,2096921,178776,621606,0
2096921,2096921,178738,621850,0
2096921,2096921,178704,621569,0
2096921,2096921,179036,622038,0
2096921,2096921,178972,622104,0
2096921,2096921,179088,622213,0
2096921,2096921,178959,622311,0
2096921,2096921,178861,622076,0
2096921,2096921,179098,622426,0
2096921,2096921,179109,622568,0
2096921,2096921,179075,622279,0
2096921,2096921,179026,622483,0
2096921,2096921,179016,622464,0
2096921,2096921,179029,622855,0
2096921,2096921,179046,622970,0
2096921,2096921,179233,622939,0
2096921,2096921,179251,622869,0
2096921,2096921,179217,622817,0
2096921,2096921,179272,623332,0
2096921,2096921,179264,622840,0
2096921,2096921,179227,623423,0
2096921,2096921,179432,622784,0
2096921,2096921,179603,623243,0
2096921,2096921,179538,623485,0
2096921,2096921,179642,623515,0
2096921,2096921,179399,623475,0
2096921,2096921,179289,623641,0
2096921,2096921,179327,623423,0
2096921,2096921,179608,623623,0
2096921,2096921,179589,623581,0
2096921,2096921,179528,623867,0
2096921,2096921,179531,623608,0
2096921,2096921,179776,623864,0
2096921,2096921,179765,624221,0
2096921,2096921,179672,624234,0
2096921,2096921,179881,624192,0
2096921,2096921,180047,624175,0
2096921,2096921,179900,624114,0
2096921,2096921,179859,624205,0
2096921,2096921,179978,624536,0
2096921,2096921,179675,624629,0
2096921,2096921,180309,624524,0
2096921,2096921,179934,624238,0
2096921,2096921,180006,624639,0
2096921,2096921,180078,624629,0
2096921,2096921,179917,624833,0
2096921,2096921,179842,624575,0
2096921,2096921,179797,624768,0
2096921,2096921,179945,624978,0
2096921,2096921,180044,624943,0
2096921,2096921,180100,625154,0
2096921,2096921,180146,625043,0
2096921,2096921,180180,625123,0
2096921,2096921,180035,625138,0
2096921,2096921,180283,625302,0
2096921,2096921,180201,625087,0
2096921,2096921,180324,625406,0
2096921,2096921,180363,625177,0
2096921,2096921,180098,625298,0
2096921,2096921,180001,625479,0
2096921,2096921,180422,625582,0
2096921,2096921,180557,625568,0
2096921,2096921,180638,625345,0
2096921,2096921,180494,625831,0
2096921,2096921,180607,626164,0
2096921,2096921,180290,626030,0
2096921,2096921,180704,625805,0
2096921,2096921,180404,625434,0
2096921,2096921,180489,625618,0
2096921,2096921,180292,625903,0
2096921,2096921,180420,626262,0
2096921,2096921,180558,626381,0
2096921,2096921,180525,626034,0
2096921,2096921,180647,626395,0
2096921,2096921,180654,626325,0
2096921,2096921,180743,626225,0
2096921,2096921,180735,626177,0
2096921,2096921,180775,626108,0
2096921,2096921,180790,626223,0
2096921,2096921,180859,626424,0
2096921,2096921,180860,626459,0
2096921,2096921,180874,626925,0
2096921,2096921,180903,626659,0
2096921,2096921,181154,626888,0
2096921,2096921,180892,626813,0
2096921,2096921,180777,626838,0
2096921,2096921,180933,626786,0
2096921,2096921,181106,626991,0
2096921,2096921,180973,626903,0
2096921,2096921,180803,626707,0
2096921,2096921,180918,626644,0
2096921,2096921,180940,627102,0
2096921,2096921,181059,627032,0
2096921,2096921,181030,627279,0
2096921,2096921,180968,627125,0
2096921,2096921,181280,627104,0
2096921,2096921,181107,627129,0
2096921,2096921,181085,627046,0
2096921,2096921,181213,627280,0
2096921,2096921,181423,627178,0
2096921,2096921,180992,627385,0
2096921,2096921,181014,627292,0
2096921,2096921,181084,627240,0
2096921,2096921,181046,627312,0
2096921,2096921,181128,627424,0
2096921,2096921,181262,627726,0
2096921,2096921,180873,627309,0
2096921,2096921,181406,627283,0
2096921,2096921,181274,627446,0
2096921,2096921,181123,627520,0
2096921,2096921,181054,627433,0
2096921,2096921,181358,627607,0
2096921,2096921,181204,627821,0
2096921,2096921,181404,627568,0
2096921,2096921,181272,627753,0
2096921,2096921,181244,627697,0
2096921,2096921,181289,627792,0
2096921,2096921,181380,628055,0
2096921,2096921,181448,627781,0
2096921,2096921,181415,627668,0
2096921,2096921,181278,627964,0
2096921,2096921,181464,628004,0
2096921,2096921,181658,628181,0
2096921,2096921,181749,628309,0
2096921,2096921,181235,628251,0
2096921,2096921,181367,628127,0
2096921,2096921,181567,628366,0
2096921,2096921,181467,628068,0
2096921,2096921,181618,628082,0
2096921,2096921,181368,628222,0
2096921,2096921,181409,628286,0
2096921,2096921,181494,628110,0
2096921,2096921,181625,628208,0
2096921,2096921,181540,628058,0
2096921,2096921,181421,628188,0
2096921,2096921,181357,628537,0
2096921,2096921,181481,628528,0
2096921,2096921,181603,628533,0
2096921,2096921,181490,628613,0
2096921,2096921,181503,628467,0
2096921,2096921,181666,628517,0
2096921,2096921,181749,628592,0
2096921,2096921,181568,628482,0
2096921,2096921,181831,628758,0
2096921,2096921,181932,628766,0
2096921,2096921,181858,628420,0
2096921,2096921,181772,628642,0
2096921,2096921,181508,628387,0
2096921,2096921,181525,628457,0
2096921,2096921,181985,628774,0
2096921,2096921,181528,628708,0
2096921,2096921,182057,628626,0
2096921,2096921,181762,628696,0
2096921,2096921,181813,628736,0
2096921,2096921,181924,629050,0
2096921,2096921,181757,628845,0
2096921,2096921,181699,628812,0
2096921,2096921,181696,628617,0
2096921,2096921,181651,628671,0
2096921,2096921,181814,628721,0
2096921,2096921,181744,628689,0
2096921,2096921,181847,628819,0
2096921,2096921,181785,628704,0
2096921,2096921,181760,629063,0
2096921,2096921,181876,628940,0
2096921,2096921,181835,628736,0
2096921,2096921,181596,629036,0
2096921,2096921,181623,628988,0
2096921,2096921,181822,628938,0
2096921,2096921,181927,629177,0
2096921,2096921,181993,629284,0
2096921,2096921,182001,629119,0
2096921,2096921,182047,629286,0
2096921,2096921,181934,629440,0
2096921,2096921,181724,629253,0
2096921,2096921,181947,629107,0
2096921,2096921,181722,629040,0
2096921,2096921,181610,629121,0
2096921,2096921,181466,629148,0
2096921,2096921,181720,629148,0
2096921,2096921,181928,629427,0
2096921,2096921,181971,629325,0
2096921,2096921,181735,629183,0
2096921,2096921,182233,629249,0
2096921,2096921,182164,629469,0
2096921,2096921,181762,629393,0
2096921,2096921,182006,629428,0
2096921,2096921,182094,629341,0
2096921,2096921,181810,629274,0
2096921,2096921,182050,629354,0
2096921,2096921,182044,629504,0
2096921,2096921,181996,629230,0
2096921,2096921,182056,629134,0
2096921,2096921,181969,629295,0
2096921,2096921,182031,629410,0
2096921,2096921,182015,629339,0
2096921,2096921,182210,629243,0
2096921,2096921,182187,629174,0
2096921,2096921,182181,629020,0
2096921,2096921,182063,629540,0
2096921,2096921,181993,629545,0
2096921,2096921,181841,629470,0
2096921,2096921,182104,629504,0
2096921,2096921,182078,629420,0
2096921,2096921,182241,629493,0
2096921,2096921,181966,629738,0
2096921,2096921,182113,629566,0
2096921,2096921,182236,629507,0
2096921,2096921,182357,629762,0
2096921,2096921,182389,629497,0
2096921,2096921,182313,629479,0
2096921,2096921,182232,629447,0
2096921,2096921,182168,629567,0
2096921,2096921,182101,629365,0
2096921,2096921,181973,629527,0
2096921,2096921,182258,629539,0
2096921,2096921,182127,629343,0
2096921,2096921,182476,629561,0
2096921,2096921,182164,629433,0
2096921,2096921,182316,629175,0
2096921,2096921,182245,629323,0
2096921,2096921,182076,629621,0
2096921,2096921,181991,629495,0
2096921,2096921,182094,629359,0
2096921,2096921,182067,629694,0
2096921,2096921,182110,629478,0
2096921,2096921,182204,629786,0
2096921,2096921,182232,629454,0
2096921,2096921,182245,629567,0
2096921,2096921,182235,629345,0
2096921,2096921,182223,629357,0
2096921,2096921,182078,629325,0
2096921,2096921,182113,629442,0
2096921,2096921,182128,629562,0
2096921,2096921,181929,629699,0
2096921,2096921,181968,629222,0
2096921,2096921,182150,629304,0
2096921,2096921,182043,629339,0
2096921,2096921,181992,629293,0
2096921,2096921,182278,629526,0
2096921,2096921,181934,629560,0
2096921,2096921,182201,629406,0
2096921,2096921,182288,629525,0
2096921,2096921,182281,629460,0
2096921,2096921,182303,629486,0
2096921,2096921,182154,629456,0
2096921,2096921,181901,629388,0
2096921,2096921,181992,629694,0
2096921,2096921,182132,629299,0
2096921,2096921,182105,629481,0
2096921,2096921,182009,629550,0
2096921,2096921,182122,629185,0
2096921,2096921,181825,629786,0
2096921,2096921,182211,629388,0
2096921,2096921,182097,629575,0
2096921,2096921,182181,629515,0
2096921,2096921,182018,629455,0
2096921,2096921,181766,628931,0
2096921,2096921,181839,629154,0
2096921,2096921,181781,628817,0
2096921,2096921,182011,629139,0
2096921,2096921,181876,628788,0
2096921,2096921,182093,629158,0
2096921,2096921,181818,628758,0
2096921,2096921,181751,629095,0
2096921,2096921,181643,629179,0
2096921,2096921,181524,629104,0
2096921,2096921,181607,628741,0
2096921,2096921,181439,628528,0
2096921,2096921,181573,628380,0
2096921,2096921,181563,628629,0
2096921,2096921,181442,628199,0
2096921,2096921,181291,628588,0
2096921,2096921,181229,627937,0
2096921,2096921,181286,627885,0
2096921,2096921,181313,627582,0
2096921,2096921,181334,627846,0
2096921,2096921,180686,627862,0
2096921,2096921,180792,627327,0
2096921,2096921,180751,627173,0
2096921,2096921,180936,627113,0
2096921,2096921,180897,627047,0
2096921,2096921,180289,627112,0
2096921,2096921,180254,625861,0
2096921,2096921,180241,625481,0
2096921,2096921,180056,625422,0
2096921,2096921,180027,625688,0
2096921,2096921,179420,625333,0
2096921,2096921,178976,623916,0
2096921,2096921,179003,623630,0
2096921,2096921,179011,623717,0
2096921,2096921,178905,623470,0
2096921,2096921,178546,623709,0
2096921,2096921,178286,622539,0
2096921,2096921,178397,622278,0
2096921,2096921,178457,622204,0
2096921,2096921,178612,622170,0
2096921,2096921,177791,622424,0
2096921,2096921,177628,621264,0
2096921,2096921,177350,620919,0
2096921,2096921,177680,620782,0
2096921,2096921,177597,620930,0
2096921,2096921,177652,620894,0
2096921,2096921,177328,620402,0
2096921,2096921,176999,620436,0
2096921,2096921,177183,620544,0
2096921,2096921,177306,620310,0
2096921,2096921,177289,620335,0
2096921,2096921,177006,619739,0
2096921,2096921,176977,619757,0
2096921,2096921,177023,619688,0
2096921,2096921,177230,619714,0
2096921,2096921,176860,619584,0
2096921,2096921,176929,619539,0
2096921,2096921,176794,619306,0
2096921,2096921,176860,619408,0
2096921,2096921,176931,619388,0
2096921,2096921,176874,619222,0
2096921,2096921,176456,619169,0
2096921,2096921,176669,619269,0
2096921,2096921,176780,619011,0
2096921,2096921,176659,619002,0
2096921,2096921,176777,619143,0
2096921,2096921,176860,619190,0
2096921,2096921,176723,619071,0
2096921,2096921,176811,619063,0
2096921,2096921,176931,619058,0
2096921,2096921,176822,618984,0
2096921,2096921,176714,619045,0
2096921,2096921,176623,618950,0
2096921,2096921,176805,619007,0
2096921,2096921,176821,619005,0
2096921,2096921,176659,619147,0
2096921,2096921,176658,619695,0
2096921,2096921,176822,619192,0
2096921,2096921,176768,618939,0
2096921,2096921,176771,619624,0
2096921,2096921,176864,619402,0
2096921,2096921,176739,619397,0
2096921,2096921,176942,619210,0
2096921,2096921,176737,619160,0
2096921,2096921,176803,619075,0
2096921,2096921,176812,619219,0
2096921,2096921,176913,619477,0
2096921,2096921,176881,619357,0
2096921,2096921,176934,619406,0
2096921,2096921,177028,619421,0
2096921,2096921,177014,619509,0
2096921,2096921,176861,619846,0
2096921,2096921,176913,619799,0
2096921,2096921,177033,619680,0
2096921,2096921,177388,619587,0
2096921,2096921,177379,619587,0
2096921,2096921,177247,619766,0
2096921,2096921,177192,619887,0
2096921,2096921,177184,619784,0
2096921,2096921,177436,619852,0
2096921,2096921,177348,619723,0
2096921,2096921,177189,620053,0
2096921,2096921,177103,620194,0
2096921,2096921,177133,620046,0
2096921,2096921,177344,619985,0
2096921,2096921,177584,620114,0
2096921,2096921,177561,620849,0
2096921,2096921,177864,620930,0
2096921,2096921,177421,620942,0
2096921,2096921,177638,620607,0
2096921,2096921,177544,620398,0
2096921,2096921,177730,620845,0
2096921,2096921,177458,620932,0
2096921,2096921,177522,620735,0
2096921,2096921,177393,621052,0
2096921,2096921,177803,620844,0
2096921,2096921,178009,621251,0
2096921,2096921,177720,620844,0
2096921,2096921,177923,620849,0
2096921,2096921,177849,621024,0
2096921,2096921,177887,621071,0
2096921,2096921,178124,621115,0
2096921,2096921,178057,621186,0
2096921,2096921,177904,621243,0
2096921,2096921,178134,621154,0
2096921,2096921,178316,621211,0
2096921,2096921,178066,621515,0
2096921,2096921,178241,621522,0
2096921,2096921,178227,621823,0
2096921,2096921,178054,621625,0
2096921,2096921,178005,621656,0
2096921,2096921,178117,621803,0
2096921,2096921,178283,622014,0
2096921,2096921,178414,621940,0
2096921,2096921,178363,622132,0
2096921,2096921,178504,621853,0
2096921,2096921,178442,622052,0
2096921,2096921,178414,622118,0
2096921,2096921,178603,622180,0
2096921,2096921,178398,622287,0
2096921,2096921,178563,622258,0
2096921,2096921,178553,622156,0
2096921,2096921,178570,622052,0
2096921,2096921,178527,622377,0
2096921,2096921,178715,622703,0
2096921,2096921,178661,622331,0
2096921,2096921,178839,622754,0
2096921,2096921,178798,623041,0
2096921,2096921,178792,622922,0
2096921,2096921,178833,622782,0
2096921,2096921,178960,622657,0
2096921,2096921,178925,622675,0
2096921,2096921,178781,622759,0
2096921,2096921,178585,622920,0
2096921,2096921,179075,622629,0
2096921,2096921,179120,622655,0
2096921,2096921,179114,623094,0
2096921,2096921,179376,623116,0
2096921,2096921,179306,623184,0
2096921,2096921,178820,623072,0
2096921,2096921,179002,622737,0
2096921,2096921,179112,622902,0
2096921,2096921,178818,623062,0
2096921,2096921,178987,623454,0
2096921,2096921,179089,623093,0
2096921,2096921,179294,622932,0
2096921,2096921,179133,623209,0
2096921,2096921,179227,623281,0
2096921,2096921,179028,623238,0
2096921,2096921,179235,623249,0
2096921,2096921,179162,622981,0
2096921,2096921,179130,623407,0
2096921,2096921,178937,623073,0
2096921,2096921,178931,622894,0
2096921,2096921,179267,623077,0
2096921,2096921,179075,623254,0
2096921,2096921,179106,623322,0
2096921,2096921,179390,623451,0
2096921,2096921,179204,623071,0
2096921,2096921,178957,623288,0
2096921,2096921,179019,623167,0
2096921,2096921,179139,623590,0
2096921,2096921,179239,622961,0
2096921,2096921,179111,623169,0
2096921,2096921,178886,623405,0
2096921,2096921,179133,623284,0
2096921,2096921,179070,623284,0
2096921,2096921,179198,623086,0
2096921,2096921,178947,623077,0
2096921,2096921,178876,622775,0
2096921,2096921,178725,622860,0
2096921,2096921,178776,622632,0
2096921,2096921,178647,622581,0
2096921,2096921,178768,622774,0
2096921,2096921,179111,622799,0
2096921,2096921,178978,622827,0
2096921,2096921,179028,622872,0
2096921,2096921,179033,622547,0
2096921,2096921,178841,622730,0
2096921,2096921,178688,622730,0
2096921,2096921,178787,622390,0
2096921,2096921,178657,622276,0
2096921,2096921,178664,622167,0
2096921,2096921,178675,622308,0
2096921,2096921,178684,622258,0
2096921,2096921,178588,622567,0
2096921,2096921,178763,622256,0
2096921,2096921,178793,622294,0
2096921,2096921,178678,622156,0
2096921,2096921,178941,622255,0
2096921,2096921,178844,622000,0
2096921,2096921,178743,621985,0
2096921,2096921,178443,622043,0
2096921,2096921,178769,621914,0
2096921,2096921,178733,621962,0
2096921,2096921,178568,622265,0
2096921,2096921,178453,622015,0
2096921,2096921,178844,622081,0
2096921,2096921,178582,622264,0
2096921,2096921,178649,621776,0
2096921,2096921,178581,621966,0
2096921,2096921,178633,621561,0
2096921,2096921,178417,621871,0
2096921,2096921,178685,621723,0
2096921,2096921,178572,621872,0
2096921,2096921,178531,621697,0
2096921,2096921,178583,622103,0
2096921,2096921,178688,622053,0
2096921,2096921,178742,621763,0
2096921,2096921,178698,621859,0
2096921,2096921,178686,621879,0
2096921,2096921,178653,621589,0
2096921,2096921,178334,622037,0
2096921,2096921,178424,622143,0
2096921,2096921,178721,621520,0
2096921,2096921,178696,621880,0
2096921,2096921,178648,621952,0
2096921,2096921,178712,621884,0
2096921,2096921,178875,621985,0
2096921,2096921,178752,622088,0
2096921,2096921,178946,621997,0
2096921,2096921,178887,622160,0
2096921,2096921,178925,622143,0
2096921,2096921,178919,622092,0
2096921,2096921,178863,622065,0
2096921,2096921,179063,622057,0
2096921,2096921,178606,621929,0
2096921,2096921,178808,622038,0
2096921,2096921,178605,622186,0
2096921,2096921,178869,622180,0
2096921,2096921,178766,622222,0
2096921,2096921,178786,622075,0
2096921,2096921,178822,622176,0
2096921,2096921,178774,622213,0
2096921,2096921,179088,622339,0
2096921,2096921,179113,622247,0
2096921,2096921,179130,622586,0
2096921,2096921,179075,622146,0
2096921,2096921,178927,622356,0
2096921,2096921,178844,622221,0
2096921,2096921,179045,622399,0
2096921,2096921,178992,622381,0
2096921,2096921,179082,622444,0
2096921,2096921,179141,622164,0
2096921,2096921,179080,622348,0
2096921,2096921,179279,622138,0
2096921,2096921,179464,622371,0
2096921,2096921,179163,622560,0
2096921,2096921,179174,622442,0
2096921,2096921,178860,622520,0
2096921,2096921,179126,622292,0
2096921,2096921,179048,622355,0
2096921,2096921,179128,622115,0
2096921,2096921,179239,622572,0
2096921,2096921,179245,622604,0
2096921,2096921,179156,622130,0
2096921,2096921,178975,622531,0
2096921,2096921,179275,622501,0
2096921,2096921,179550,622497,0
2096921,2096921,179181,622662,0
2096921,2096921,179153,622553,0
2096921,2096921,179346,622446,0
2096921,2096921,179520,622399,0
2096921,2096921,179569,622374,0
2096921,2096921,179269,622567,0
2096921,2096921,179412,622621,0
2096921,2096921,179626,622693,0
2096921,2096921,179347,622689,0
2096921,2096921,179251,622533,0
2096921,2096921,179350,622584,0
2096921,2096921,179261,622759,0
2096921,2096921,179459,622461,0
2096921,2096921,179410,622369,0
2096921,2096921,179406,622707,0
2096921,2096921,179577,622667,0
2096921,2096921,179187,622448,0
2096921,2096921,179382,622457,0
2096921,2096921,179358,622579,0
2096921,2096921,179670,622754,0
2096921,2096921,179400,622812,0
2096921,2096921,179444,622631,0
2096921,2096921,179579,622775,0
2096921,2096921,179686,622565,0
2096921,2096921,179672,622566,0
2096921,2096921,179643,622552,0
2096921,2096921,179420,623023,0
2096921,2096921,179507,622554,0
2096921,2096921,179717,622736,0
2096921,2096921,179708,622474,0
2096921,2096921,179776,622670,0
2096921,2096921,179527,622479,0
2096921,2096921,179698,622597,0
2096921,2096921,179375,622400,0
2096921,2096921,179685,622537,0
2096921,2096921,179576,622731,0
2096921,2096921,179382,622817,0
2096921,2096921,179707,622859,0
2096921,2096921,179573,622654,0
2096921,2096921,179592,622769,0
2096921,2096921,179626,622782,0
2096921,2096921,179809,622877,0
2096921,2096921,179712,622760,0
2096921,2096921,179515,622891,0
2096921,2096921,179676,622809,0
2096921,2096921,179771,622761,0
2096921,2096921,179620,622855,0
2096921,2096921,179828,622689,0
2096921,2096921,179948,622633,0
2096921,2096921,179538,622549,0
2096921,2096921,179719,622637,0
2096921,2096921,179749,622573,0
2096921,2096921,179757,622638,0
2096921,2096921,179583,622625,0
2096921,2096921,179508,622717,0
2096921,2096921,179715,622356,0
2096921,2096921,179579,622687,0
2096921,2096921,179755,622773,0
2096921,2096921,179883,623074,0
2096921,2096921,179815,622701,0
2096921,2096921,179901,622758,0
2096921,2096921,179911,622748,0
2096921,2096921,179641,622580,0
2096921,2096921,179487,622816,0
2096921,2096921,179816,622600,0
2096921,2096921,179651,622481,0
2096921,2096921,179922,622639,0
2096921,2096921,179948,622723,0
2096921,2096921,179972,622911,0
2096921,2096921,179660,622751,0
2096921,2096921,179979,622987,0
2096921,2096921,179738,622721,0
2096921,2096921,179629,622401,0
2096921,2096921,179689,622530,0
2096921,2096921,179508,622672,0
2096921,2096921,179677,622676,0
2096921,2096921,179847,622434,0
2096921,2096921,179914,622854,0
2096921,2096921,179894,622688,0
2096921,2096921,179841,622640,0
2096921,2096921,179842,622605,0
2096921,2096921,179740,622510,0
2096921,2096921,179967,622565,0
2096921,2096921,179649,622376,0
2096921,2096921,179788,622683,0
2096921,2096921,179658,622573,0
2096921,2096921,179687,622522,0
2096921,2096921,180094,622090,0
2096921,2096921,179782,622356,0
2096921,2096921,179767,622431,0
2096921,2096921,179887,622434,0
2096921,2096921,179774,622125,0
2096921,2096921,179553,622164,0
2096921,2096921,179732,622214,0
2096921,2096921,179883,622025,0
2096921,2096921,179532,622100,0
2096921,2096921,179855,622174,0
2096921,2096921,179849,622201,0
2096921,2096921,179704,622497,0
2096921,2096921,179764,622250,0
2096921,2096921,179791,622233,0
2096921,2096921,179311,622208,0
2096921,2096921,180120,622190,0
2096921,2096921,179738,621962,0
2096921,2096921,179875,622094,0
2096921,2096921,179875,622122,0
2096921,2096921,179482,622382,0
2096921,2096921,179818,622391,0
2096921,2096921,179749,622059,0
2096921,2096921,179657,622157,0
2096921,2096921,179582,621964,0
2096921,2096921,179663,621997,0
2096921,2096921,179613,621862,0
2096921,2096921,179653,621849,0
2096921,2096921,179936,622128,0
2096921,2096921,179739,622141,0
2096921,2096921,179869,622024,0
2096921,2096921,179529,622094,0
2096921,2096921,179674,622108,0
2096921,2096921,179593,621685,0
2096921,2096921,179875,621789,0
2096921,2096921,179552,621633,0
2096921,2096921,179872,621803,0
2096921,2096921,179550,621765,0
2096921,2096921,179651,621900,0
2096921,2096921,179647,621975,0
2096921,2096921,179828,622178,0
2096921,2096921,179952,621964,0
2096921,2096921,179763,621755,0
2096921,2096921,179573,621823,0
2096921,2096921,179661,621735,0
2096921,2096921,179443,622002,0
2096921,2096921,179195,621665,0
2096921,2096921,179523,621493,0
2096921,2096921,179552,621477,0
2096921,2096921,179673,621535,0
2096921,2096921,179798,621682,0
2096921,2096921,179638,621749,0
2096921,2096921,179946,621523,0
2096921,2096921,179734,621441,0
2096921,2096921,179332,621555,0
2096921,2096921,179627,621690,0
2096921,2096921,179434,621440,0
2096921,2096921,179708,621240,0
2096921,2096921,179694,621400,0
2096921,2096921,179457,621352,0
2096921,2096921,179467,621285,0
2096921,2096921,179542,621425,0
2096921,2096921,179918,621288,0
2096921,2096921,180051,621357,0
2096921,2096921,179643,621338,0
2096921,2096921,179558,621271,0
2096921,2096921,179441,621024,0
2096921,2096921,179790,621085,0
2096921,2096921,179447,620974,0
2096921,2096921,179809,621275,0
2096921,2096921,179649,621255,0
2096921,2096921,179378,620973,0
2096921,2096921,179617,621052,0
2096921,2096921,179736,621058,0
2096921,2096921,179410,621232,0
2096921,2096921,179597,621058,0
2096921,2096921,179488,621077,0
2096921,2096921,179629,620986,0
2096921,2096921,180052,620846,0
2096921,2096921,179524,620982,0
2096921,2096921,179499,621025,0
2096921,2096921,179557,621024,0
2096921,2096921,179823,620933,0
2096921,2096921,179417,620965,0
2096921,2096921,179281,620924,0
2096921,2096921,179557,621026,0
2096921,2096921,179516,620802,0
2096921,2096921,179287,620865,0
2096921,2096921,179193,620720,0
2096921,2096921,179613,620744,0
2096921,2096921,179424,620731,0
2096921,2096921,179427,620932,0
2096921,2096921,179314,620324,0
2096921,2096921,179702,620589,0
2096921,2096921,179586,620721,0
2096921,2096921,179304,620626,0
2096921,2096921,179434,620465,0
2096921,2096921,179387,620704,0
2096921,2096921,179329,620627,0
2096921,2096921,179385,620861,0
2096921,2096921,179282,620576,0
2096921,2096921,179242,620564,0
2096921,2096921,179424,620554,0
2096921,2096921,179521,620529,0
2096921,2096921,179347,620666,0
2096921,2096921,179540,619994,0
2096921,2096921,179002,620467,0
2096921,2096921,179395,620182,0
2096921,2096921,179346,620245,0
2096921,2096921,179355,619884,0
2096921,2096921,178978,620178,0
2096921,2096921,179446,620229,0
2096921,2096921,179637,620153,0
2096921,2096921,179416,619921,0
2096921,2096921,179198,619916,0
2096921,2096921,179340,619733,0
2096921,2096921,179237,619968,0
2096921,2096921,179032,620053,0
2096921,2096921,179444,619990,0
2096921,2096921,178930,620078,0
2096921,2096921,179137,619673,0
2096921,2096921,179158,619877,0
2096921,2096921,179094,619596,0
2096921,2096921,179522,619594,0
2096921,2096921,179114,619553,0
2096921,2096921,179146,619630,0
2096921,2096921,179164,619422,0
2096921,2096921,179259,619321,0
2096921,2096921,179137,619389,0
2096921,2096921,178949,619581,0
2096921,2096921,178812,619630,0
2096921,2096921,179102,619471,0
2096921,2096921,179000,619764,0
2096921,2096921,179045,619300,0
2096921,2096921,179283,619586,0
2096921,2096921,178934,619497,0
2096921,2096921,178798,619138,0
2096921,2096921,178973,618942,0
2096921,2096921,178966,619218,0
2096921,2096921,178919,619019,0
2096921,2096921,179005,619167,0
2096921,2096921,178720,618784,0
2096921,2096921,179061,618841,0
2096921,2096921,178866,618660,0
2096921,2096921,178834,618510,0
2096921,2096921,178535,618642,0
2096921,2096921,178764,618165,0
2096921,2096921,178428,617886,0
2096921,2096921,178552,618096,0
2096921,2096921,178357,618135,0
2096921,2096921,178175,618087,0
2096921,2096921,178071,617579,0
2096921,2096921,178269,617375,0
2096921,2096921,178241,617521,0
2096921,2096921,178170,617445,0
2096921,2096921,177708,617523,0
2096921,2096921,177731,616710,0
2096921,2096921,177639,616672,0
2096921,2096921,177628,616188,0
2096921,2096921,177571,616739,0
2096921,2096921,176882,616360,0
2096921,2096921,176996,615328,0
2096921,2096921,176814,615217,0
2096921,2096921,177029,615287,0
2096921,2096921,176657,615104,0
2096921,2096921,176077,615112,0
2096921,2096921,175684,613102,0
2096921,2096921,175694,612748,0
2096921,2096921,175683,613144,0
2096921,2096921,175872,612905,0
2096921,2096921,175252,612766,0
2096921,2096921,175217,611619,0
2096921,2096921,175388,611797,0
2096921,2096921,174946,611449,0
2096921,2096921,174960,611213,0
2096921,2096921,174510,611136,0
2096921,2096921,174436,610322,0
2096921,2096921,174699,610226,0
2096921,2096921,174516,610498,0
2096921,2096921,174617,610381,0
2096921,2096921,174661,610236,0
2096921,2096921,174227,609661,0
2096921,2096921,174235,609731,0
2096921,2096921,174127,609297,0
2096921,2096921,173970,609272,0
2096921,2096921,173940,609500,0
2096921,2096921,173893,608927,0
2096921,2096921,173864,608966,0
2096921,2096921,173991,609011,0
2096921,2096921,173981,608545,0
2096921,2096921,173689,608744,0
2096921,2096921,173733,608258,0
2096921,2096921,173779,608431,0
2096921,2096921,173350,608336,0
2096921,2096921,173690,608411,0
2096921,2096921,173375,608084,0
2096921,2096921,173492,607837,0
2096921,2096921,173366,607801,0
2096921,2096921,173300,608031,0
2096921,2096921,173440,607885,0
2096921,2096921,173281,607926,0
2096921,2096921,173372,607783,0
2096921,2096921,173289,607775,0
2096921,2096921,173276,607915,0
2096921,2096921,173249,607772,0
2096921,2096921,173482,607795,0
2096921,2096921,173487,607880,0
2096921,2096921,173339,607692,0
2096921,2096921,173313,607557,0
2096921,2096921,173451,607574,0
2096921,2096921,173326,607872,0
2096921,2096921,173350,608037,0
2096921,2096921,173443,607701,0
2096921,2096921,173471,607760,0
2096921,2096921,173578,607766,0
2096921,2096921,173205,607639,0
2096921,2096921,173291,607484,0
2096921,2096921,173182,607689,0
2096921,2096921,173284,607631,0
2096921,2096921,173734,607643,0
2096921,2096921,173431,607934,0
2096921,2096921,173533,607811,0
2096921,2096921,173542,607908,0
2096921,2096921,173551,607917,0
2096921,2096921,173402,608009,0
2096921,2096921,173639,607781,0
2096921,2096921,173853,607856,0
2096921,2096921,173750,607936,0
2096921,2096921,173465,607912,0
2096921,2096921,173596,608037,0
2096921,2096921,173978,607928,0
2096921,2096921,173825,607921,0
2096921,2096921,173744,608029,0
2096921,2096921,173553,608287,0
2096921,2096921,173781,608322,0
2096921,2096921,173960,608395,0
2096921,2096921,173893,608568,0
2096921,2096921,174008,608397,0
2096921,2096921,173647,608706,0
2096921,2096921,173743,608234,0
2096921,2096921,173867,608552,0
2096921,2096921,174112,608787,0
2096921,2096921,173972,608859,0
2096921,2096921,174006,608764,0
2096921,2096921,174081,608758,0
2096921,2096921,173844,608707,0
2096921,2096921,174205,609059,0
2096921,2096921,173875,608820,0
2096921,2096921,174268,608494,0
2096921,2096921,174413,608755,0
2096921,2096921,174537,608967,0
2096921,2096921,174703,609217,0
2096921,2096921,174478,609179,0
2096921,2096921,174288,609100,0
2096921,2096921,174354,609511,0
2096921,2096921,174444,609253,0
2096921,2096921,174283,609033,0
2096921,2096921,174378,609289,0
2096921,2096921,174281,609267,0
2096921,2096921,174436,609338,0
2096921,2096921,174784,609563,0
2096921,2096921,174800,610025,0
2096921,2096921,174624,609787,0
2096921,2096921,174635,610117,0
2096921,2096921,174629,609667,0
2096921,2096921,174795,609443,0
2096921,2096921,174786,609951,0
2096921,2096921,174843,610108,0
2096921,2096921,174638,609712,0
2096921,2096921,174777,609853,0
2096921,2096921,175037,610124,0
2096921,2096921,175121,610310,0
2096921,2096921,174766,610245,0
2096921,2096921,174811,610044,0
2096921,2096921,174699,610295,0
2096921,2096921,174911,610345,0
2096921,2096921,175088,610437,0
2096921,2096921,175030,610649,0
2096921,2096921,174980,610810,0
2096921,2096921,175255,610499,0
2096921,2096921,175198,610782,0
2096921,2096921,175420,610747,0
2096921,2096921,175269,610926,0
2096921,2096921,175098,610914,0
2096921,2096921,175393,610970,0
2096921,2096921,175448,610674,0
2096921,2096921,175360,610934,0
2096921,2096921,175536,611181,0
2096921,2096921,175249,611124,0
2096921,2096921,175135,611313,0
2096921,2096921,175542,611079,0
2096921,2096921,175499,611254,0
2096921,2096921,175696,611420,0
2096921,2096921,175625,611504,0
2096921,2096921,175073,611269,0
2096921,2096921,175326,611270,0
2096921,2096921,175505,611566,0
2096921,2096921,175143,611156,0
2096921,2096921,175615,611469,0
2096921,2096921,175765,611900,0
2096921,2096921,175700,611486,0
2096921,2096921,175916,611898,0
2096921,2096921,175648,611883,0
2096921,2096921,175603,611745,0
2096921,2096921,175686,611777,0
2096921,2096921,175532,611554,0
2096921,2096921,175847,611628,0
2096921,2096921,175799,611585,0
2096921,2096921,175557,611563,0
2096921,2096921,175259,611806,0
2096921,2096921,175509,611472,0
2096921,2096921,175630,611820,0
2096921,2096921,175560,611872,0
2096921,2096921,175588,611458,0
2096921,2096921,175700,611649,0
2096921,2096921,175516,611541,0
2096921,2096921,175706,611611,0
2096921,2096921,175713,611534,0
2096921,2096921,175446,611694,0
2096921,2096921,175604,611811,0
2096921,2096921,175729,611926,0
2096921,2096921,175579,611775,0
2096921,2096921,175855,612026,0
2096921,2096921,176064,611769,0
2096921,2096921,175803,611617,0
2096921,2096921,175695,611963,0
2096921,2096921,175474,611577,0
2096921,2096921,175502,611412,0
2096921,2096921,175888,611610,0
2096921,2096921,175467,611559,0
2096921,2096921,175697,611589,0
2096921,2096921,175501,611441,0
2096921,2096921,175524,611659,0
2096921,2096921,175681,611264,0
2096921,2096921,175242,611379,0
2096921,2096921,175525,611352,0
2096921,2096921,175524,611062,0
2096921,2096921,175421,611184,0
2096921,2096921,175255,611264,0
2096921,2096921,175489,611445,0
2096921,2096921,175611,611510,0
2096921,2096921,175397,611227,0
2096921,2096921,175664,611341,0
2096921,2096921,175490,611283,0
2096921,2096921,175670,611056,0
2096921,2096921,175480,611091,0
2096921,2096921,175436,611030,0
2096921,2096921,175378,611049,0
2096921,2096921,175187,610877,0
2096921,2096921,175525,610866,0
2096921,2096921,175467,610832,0
2096921,2096921,175260,611132,0
2096921,2096921,175330,611096,0
2096921,2096921,175447,611356,0
2096921,2096921,175457,611361,0
2096921,2096921,175152,611381,0
2096921,2096921,175266,611101,0
2096921,2096921,175379,611080,0
2096921,2096921,175031,611259,0
2096921,2096921,175290,611123,0
2096921,2096921,175819,611012,0
2096921,2096921,175628,611349,0
2096921,2096921,175575,611434,0
2096921,2096921,175660,611454,0
2096921,2096921,175354,611363,0
2096921,2096921,175216,611373,0
2096921,2096921,175207,611485,0
2096921,2096921,175638,611345,0
2096921,2096921,175560,611345,0
2096921,2096921,175661,611422,0
2096921,2096921,175279,611520,0
2096921,2096921,175626,611475,0
2096921,2096921,175530,611921,0
2096921,2096921,175630,611649,0
2096921,2096921,175493,611664,0
2096921,2096921,175851,611800,0
2096921,2096921,175660,611974,0
2096921,2096921,175762,611880,0
2096921,2096921,175615,611947,0
2096921,2096921,176009,612103,0
2096921,2096921,175921,612057,0
2096921,2096921,175963,612021,0
2096921,2096921,176081,612113,0
2096921,2096921,176064,612131,0
2096921,2096921,176047,612219,0
2096921,2096921,175871,612073,0
2096921,2096921,176052,612393,0
2096921,2096921,175738,612280,0
2096921,2096921,175970,612226,0
2096921,2096921,176048,612287,0
2096921,2096921,176037,612436,0
2096921,2096921,176256,612573,0
2096921,2096921,175924,612673,0
2096921,2096921,176009,612657,0
2096921,2096921,176171,612795,0
2096921,2096921,176155,612392,0
2096921,2096921,175969,612305,0
2096921,2096921,176115,612647,0
2096921,2096921,176116,612761,0
2096921,2096921,176337,612885,0
2096921,2096921,176157,612818,0
2096921,2096921,176219,612977,0
2096921,2096921,176266,612923,0
2096921,2096921,176269,613022,0
2096921,2096921,176320,612864,0
2096921,2096921,176477,612953,0
2096921,2096921,176498,612947,0
2096921,2096921,176420,613195,0
2096921,2096921,176187,613286,0
2096921,2096921,176277,613051,0
2096921,2096921,176518,613462,0
2096921,2096921,176422,613476,0
2096921,2096921,176624,613747,0
2096921,2096921,176478,613376,0
2096921,2096921,176570,613371,0
2096921,2096921,176581,613152,0
2096921,2096921,176516,613672,0
2096921,2096921,176450,613441,0
2096921,2096921,176537,613342,0
2096921,2096921,176542,613459,0
2096921,2096921,176980,613810,0
2096921,2096921,176576,613718,0
2096921,2096921,176592,613679,0
2096921,2096921,176789,613861,0
2096921,2096921,176977,613897,0
2096921,2096921,176830,613787,0
2096921,2096921,176975,613612,0
2096921,2096921,177020,613694,0
2096921,2096921,176680,613734,0
2096921,2096921,176850,614305,0
2096921,2096921,177010,614084,0
2096921,2096921,176848,613930,0
2096921,2096921,176999,614122,0
2096921,2096921,176911,614202,0
2096921,2096921,176711,614136,0
2096921,2096921,176722,613922,0
2096921,2096921,176974,613887,0
2096921,2096921,176893,614175,0
2096921,2096921,176831,613986,0
2096921,2096921,176875,614171,0
2096921,2096921,177024,614177,0
2096921,2096921,176990,614463,0
2096921,2096921,177067,614555,0
2096921,2096921,177076,614520,0
2096921,2096921,176878,614413,0
2096921,2096921,176955,614535,0
2096921,2096921,177281,614909,0
2096921,2096921,177115,614280,0
2096921,2096921,177249,614687,0
2096921,2096921,177034,614423,0
2096921,2096921,177268,614400,0
2096921,2096921,177263,614664,0
2096921,2096921,177325,614821,0
2096921,2096921,177140,614747,0
2096921,2096921,176943,614545,0
2096921,2096921,177180,614435,0
2096921,2096921,177308,614553,0
2096921,2096921,177350,614691,0
2096921,2096921,177425,614577,0
2096921,2096921,177560,614835,0
2096921,2096921,177655,614764,0
2096921,2096921,177305,615253,0
2096921,2096921,177206,615032,0
2096921,2096921,177519,614937,0
2096921,2096921,177263,614902,0
2096921,2096921,177198,614811,0
2096921,2096921,177169,615014,0
2096921,2096921,177334,614998,0
2096921,2096921,177166,614974,0
2096921,2096921,177350,615076,0
2096921,2096921,177549,615194,0
2096921,2096921,177532,615309,0
2096921,2096921,177715,615454,0
2096921,2096921,177742,615252,0
2096921,2096921,177920,615351,0
2096921,2096921,177745,615412,0
2096921,2096921,177769,615056,0
2096921,2096921,177610,615218,0
2096921,2096921,177592,615526,0
2096921,2096921,177673,615395,0
2096921,2096921,177812,615560,0
2096921,2096921,177494,615674,0
2096921,2096921,177817,615679,0
2096921,2096921,177549,615749,0
2096921,2096921,178184,615670,0
2096921,2096921,177953,615366,0
2096921,2096921,177959,615290,0
2096921,2096921,177680,615468,0
2096921,2096921,177499,615435,0
2096921,2096921,177635,615593,0
2096921,2096921,177677,615529,0
2096921,2096921,177677,615817,0
2096921,2096921,177817,616112,0
2096921,2096921,177596,616080,0
2096921,2096921,177836,615942,0
2096921,2096921,177692,616101,0
2096921,2096921,177658,615933,0
2096921,2096921,177546,616082,0
2096921,2096921,177783,615711,0
2096921,2096921,177757,615961,0
2096921,2096921,177787,616003,0
2096921,2096921,178084,616297,0
2096921,2096921,177854,616024,0
2096921,2096921,178111,616048,0
2096921,2096921,177844,615853,0
2096921,2096921,178121,616141,0
2096921,2096921,178006,616247,0
2096921,2096921,177750,616197,0
2096921,2096921,178105,615845,0
2096921,2096921,177868,616082,0
2096921,2096921,177880,616032,0
2096921,2096921,178147,616361,0
2096921,2096921,177944,616355,0
2096921,2096921,177998,616268,0
2096921,2096921,178139,616598,0
2096921,2096921,177923,616337,0
2096921,2096921,177987,616189,0
2096921,2096921,178034,616286,0
2096921,2096921,178129,616465,0
2096921,2096921,178174,616670,0
2096921,2096921,178086,616566,0
2096921,2096921,178146,616589,0
2096921,2096921,178386,616422,0
2096921,2096921,178077,616575,0
2096921,2096921,178305,616517,0
2096921,2096921,178197,616382,0
2096921,2096921,178113,616502,0
2096921,2096921,177862,616280,0
2096921,2096921,177965,616424,0
2096921,2096921,178186,616623,0
2096921,2096921,178210,616707,0
2096921,2096921,178225,616811,0
2096921,2096921,178349,616561,0
2096921,2096921,178241,616846,0
2096921,2096921,178226,616834,0
2096921,2096921,178509,616803,0
2096921,2096921,177986,616984,0
2096921,2096921,178258,617057,0
2096921,2096921,178371,616920,0
2096921,2096921,178548,616934,0
2096921,2096921,178317,617192,0
2096921,2096921,178493,617391,0
2096921,2096921,178137,617378,0
2096921,2096921,178392,617365,0
2096921,2096921,178316,617384,0
2096921,2096921,178243,617043,0
2096921,2096921,178180,617220,0
2096921,2096921,178278,617118,0
2096921,2096921,178185,617231,0
2096921,2096921,178339,617180,0
2096921,2096921,178248,617368,0
2096921,2096921,178406,617304,0
2096921,2096921,178453,617674,0
2096921,2096921,178723,617517,0
2096921,2096921,178492,617475,0
2096921,2096921,178435,617571,0
2096921,2096921,178875,617431,0
2096921,2096921,178529,617677,0
2096921,2096921,178539,617649,0
2096921,2096921,178688,617387,0
2096921,2096921,178482,617398,0
2096921,2096921,178645,617614,0
2096921,2096921,178655,617757,0
2096921,2096921,178638,617622,0
2096921,2096921,178492,617749,0
2096921,2096921,178519,617730,0
2096921,2096921,178697,617913,0
2096921,2096921,178632,617828,0
2096921,2096921,178738,617703,0
2096921,2096921,178663,617923,0
2096921,2096921,178724,617887,0
2096921,2096921,178895,617638,0
2096921,2096921,178753,618027,0
2096921,2096921,178863,618027,0
2096921,2096921,178622,618242,0
2096921,2096921,178584,617833,0
2096921,2096921,178486,618035,0
2096921,2096921,178746,617979,0
2096921,2096921,178671,618087,0
2096921,2096921,178526,618198,0
2096921,2096921,178515,618435,0
2096921,2096921,178695,618347,0
2096921,2096921,178936,618382,0
2096921,2096921,178877,618208,0
2096921,2096921,178655,618502,0
2096921,2096921,178692,618262,0
2096921,2096921,178985,618442,0
2096921,2096921,178747,618304,0
2096921,2096921,178653,618382,0
2096921,2096921,178976,618577,0
2096921,2096921,179196,618483,0
2096921,2096921,178827,618411,0
2096921,2096921,178746,618859,0
2096921,2096921,178857,618518,0
2096921,2096921,178937,618545,0
2096921,2096921,178887,618703,0
2096921,2096921,178824,618596,0
2096921,2096921,178712,618524,0
2096921,2096921,178834,618566,0
2096921,2096921,178753,618294,0
2096921,2096921,178833,618536,0
2096921,2096921,178901,618643,0
2096921,2096921,179139,618711,0
2096921,2096921,179058,618623,0
2096921,2096921,178884,618654,0
2096921,2096921,179066,618667,0
2096921,2096921,178927,618783,0
2096921,2096921,179058,618536,0
2096921,2096921,178799,618874,0
2096921,2096921,179074,618519,0
2096921,2096921,178842,618761,0
2096921,2096921,179081,618735,0
2096921,2096921,179161,618831,0
2096921,2096921,178913,618823,0
2096921,2096921,178840,619168,0
2096921,2096921,178872,618971,0
2096921,2096921,179031,619137,0
2096921,2096921,178917,618848,0
2096921,2096921,178909,619080,0
2096921,2096921,178923,619126,0
2096921,2096921,179111,618902,0
2096921,2096921,179173,619024,0
2096921,2096921,179323,619104,0
2096921,2096921,179212,619000,0
2096921,2096921,179022,619313,0
2096921,2096921,178849,619143,0
2096921,2096921,178953,619187,0
2096921,2096921,178811,619300,0
2096921,2096921,179180,619149,0
2096921,2096921,179207,619545,0
2096921,2096921,179207,619343,0
2096921,2096921,179220,619530,0
2096921,2096921,179070,619583,0
2096921,2096921,178914,619511,0
2096921,2096921,179007,619312,0
2096921,2096921,179212,619692,0
2096921,2096921,179169,619239,0
2096921,2096921,178803,619411,0
2096921,2096921,178785,619445,0
2096921,2096921,178883,619314,0
2096921,2096921,178629,619325,0
2096921,2096921,178875,619363,0
2096921,2096921,178893,619073,0
2096921,2096921,178628,619244,0
2096921,2096921,178740,619227,0
2096921,2096921,178475,619157,0
2096921,2096921,178417,618928,0
2096921,2096921,178573,618856,0
2096921,2096921,178784,618892,0
2096921,2096921,178595,618619,0
2096921,2096921,178481,618758,0
2096921,2096921,178377,618459,0
2096921,2096921,178522,618066,0
2096921,2096921,178218,618051,0
2096921,2096921,178483,617963,0
2096921,2096921,178322,617989,0
2096921,2096921,178135,617511,0
2096921,2096921,178076,617707,0
2096921,2096921,178262,617609,0
2096921,2096921,177950,617588,0
2096921,2096921,177391,617532,0
2096921,2096921,177456,616425,0
2096921,2096921,177420,616075,0
2096921,2096921,177199,616181,0
2096921,2096921,177077,616151,0
2096921,2096921,176319,616021,0
2096921,2096921,176351,614543,0
2096921,2096921,176335,614443,0
2096921,2096921,176281,614423,0
2096921,2096921,176064,614420,0
2096921,2096921,175744,614543,0
2096921,2096921,175690,613453,0
2096921,2096921,175620,613095,0
2096921,2096921,175670,613176,0
2096921,2096921,175783,613309,0
2096921,2096921,175090,613044,0
2096921,2096921,174837,612624,0
2096921,2096921,174918,611982,0
2096921,2096921,175038,611863,0
2096921,2096921,175289,612052,0
2096921,2096921,174761,612468,0
2096921,2096921,174641,611850,0
2096921,2096921,175176,611503,0
2096921,2096921,174577,611490,0
2096921,2096921,174817,611563,0
2096921,2096921,174517,611730,0
2096921,2096921,174435,611281,0
2096921,2096921,174577,611269,0
2096921,2096921,174664,611139,0
2096921,2096921,174803,611301,0
2096921,2096921,174680,611236,0
2096921,2096921,174345,611029,0
2096921,2096921,174721,611102,0
2096921,2096921,174507,611067,0
2096921,2096921,174696,610869,0
2096921,2096921,174066,610964,0
2096921,2096921,174342,610812,0
2096921,2096921,174364,610374,0
2096921,2096921,174319,610459,0
2096921,2096921,174310,610658,0
2096921,2096921,174310,610797,0
2096921,2096921,174404,610992,0
2096921,2096921,174048,610949,0
2096921,2096921,174347,610876,0
2096921,2096921,174243,610771,0
2096921,2096921,174496,610934,0
2096921,2096921,174374,611078,0
2096921,2096921,174298,610922,0
2096921,2096921,174283,611187,0
2096921,2096921,174543,610875,0
2096921,2096921,174527,611269,0
2096921,2096921,174621,611249,0
2096921,2096921,174460,611264,0
2096921,2096921,174700,611465,0
2096921,2096921,174389,611645,0
2096921,2096921,174663,611387,0
2096921,2096921,174517,611651,0
2096921,2096921,174509,611473,0
2096921,2096921,174491,611523,0
2096921,2096921,174615,611342,0
2096921,2096921,174867,611773,0
2096921,2096921,174681,611775,0
2096921,2096921,174492,611932,0
2096921,2096921,174289,611738,0
2096921,2096921,174678,612070,0
2096921,2096921,174495,611780,0
2096921,2096921,174726,612207,0
2096921,2096921,174661,612236,0
2096921,2096921,174975,612308,0
2096921,2096921,174960,612420,0
2096921,2096921,175308,612496,0
2096921,2096921,175131,612714,0
2096921,2096921,175403,612787,0
2096921,2096921,175076,612710,0
2096921,2096921,175278,612913,0
2096921,2096921,175508,613024,0
2096921,2096921,175390,613038,0
2096921,2096921,175135,613358,0
2096921,2096921,175330,613197,0
2096921,2096921,175244,613195,0
2096921,2096921,175525,613400,0
2096921,2096921,175962,613575,0
2096921,2096921,175566,613621,0
2096921,2096921,175621,613878,0
2096921,2096921,175721,613811,0
2096921,2096921,175854,614049,0
2096921,2096921,175728,614089,0
2096921,2096921,175450,614142,0
2096921,2096921,175798,614202,0
2096921,2096921,175678,614275,0
2096921,2096921,176070,614365,0
2096921,2096921,175860,614853,0
2096921,2096921,175963,614780,0
2096921,2096921,175816,614813,0
2096921,2096921,176001,614792,0
2096921,2096921,176314,614542,0
2096921,2096921,175969,614907,0
2096921,2096921,175912,615073,0
2096921,2096921,176129,615128,0
2096921,2096921,176061,615164,0
2096921,2096921,176319,614943,0
2096921,2096921,176405,615691,0
2096921,2096921,176390,615987,0
2096921,2096921,176363,615851,0
2096921,2096921,176519,615773,0
2096921,2096921,176279,615764,0
2096921,2096921,176332,616167,0
2096921,2096921,176608,616219,0
2096921,2096921,176654,616203,0
2096921,2096921,176669,616242,0
2096921,2096921,176764,616076,0
2096921,2096921,176677,616580,0
2096921,2096921,176809,616770,0
2096921,2096921,176855,616604,0
2096921,2096921,176674,616595,0
2096921,2096921,177021,616737,0
2096921,2096921,176883,616990,0
2096921,2096921,176718,616947,0
2096921,2096921,176981,617175,0
2096921,2096921,176984,617175,0
2096921,2096921,176984,617110,0
2096921,2096921,177181,617512,0
2096921,2096921,177411,617829,0
2096921,2096921,177469,617629,0
2096921,2096921,177147,617759,0
2096921,2096921,177334,617738,0
2096921,2096921,177315,617930,0
2096921,2096921,177105,617922,0
2096921,2096921,177404,618011,0
2096921,2096921,177494,618113,0
2096921,2096921,177592,618393,0
2096921,2096921,177712,618533,0
2096921,2096921,177621,618842,0
2096921,2096921,177750,618586,0
2096921,2096921,177579,618432,0
2096921,2096921,177569,618520,0
2096921,2096921,177515,618851,0
2096921,2096921,177664,618738,0
2096921,2096921,177942,618695,0
2096921,2096921,177648,618649,0
2096921,2096921,178003,619042,0
2096921,2096921,178144,619208,0
2096921,2096921,177809,619028,0
2096921,2096921,177997,619271,0
2096921,2096921,177637,618876,0
2096921,2096921,177847,619055,0
2096921,2096921,177649,619164,0
2096921,2096921,177548,619362,0
2096921,2096921,177939,619212,0
2096921,2096921,177991,619290,0
2096921,2096921,178209,619326,0
2096921,2096921,178205,619261,0
2096921,2096921,177907,619619,0
2096921,2096921,177996,619489,0
2096921,2096921,177766,619511,0
2096921,2096921,178016,619357,0
2096921,2096921,177968,619685,0
2096921,2096921,178275,619449,0
2096921,2096921,178238,619557,0
2096921,2096921,178110,619510,0
2096921,2096921,178041,619910,0
2096921,2096921,178053,619793,0
2096921,2096921,178124,619869,0
2096921,2096921,177916,619718,0
2096921,2096921,178180,619697,0
2096921,2096921,178581,619550,0
2096921,2096921,178483,619714,0
2096921,2096921,178248,619608,0
2096921,2096921,178247,619525,0
2096921,2096921,178270,619711,0
2096921,2096921,178180,619861,0
2096921,2096921,178172,619769,0
2096921,2096921,178171,619923,0
2096921,2096921,177886,619978,0
2096921,2096921,177827,619860,0
2096921,2096921,177716,620026,0
2096921,2096921,177966,620105,0
2096921,2096921,177725,620177,0
2096921,2096921,178174,619880,0
2096921,2096921,178026,619849,0
2096921,2096921,178130,619908,0
2096921,2096921,178094,620137,0
2096921,2096921,178180,619946,0
2096921,2096921,178096,619752,0
2096921,2096921,178145,620027,0
2096921,2096921,177808,619918,0
2096921,2096921,177862,620112,0
2096921,2096921,177962,620146,0
2096921,2096921,177956,620369,0
2096921,2096921,178008,620248,0
2096921,2096921,178157,619898,0
2096921,2096921,178043,619903,0
2096921,2096921,178153,620219,0
2096921,2096921,178073,620170,0
2096921,2096921,178150,620182,0
2096921,2096921,178085,620583,0
2096921,2096921,177981,620556,0
2096921,2096921,177967,620265,0
2096921,2096921,177984,620430,0
2096921,2096921,178042,620318,0
2096921,2096921,178263,620019,0
2096921,2096921,178368,620609,0
2096921,2096921,178143,620631,0
2096921,2096921,177964,620569,0
2096921,2096921,178396,620608,0
2096921,2096921,178040,620610,0
2096921,2096921,178205,620651,0
2096921,2096921,178139,621101,0
2096921,2096921,178083,620718,0
2096921,2096921,178341,620850,0
2096921,2096921,178658,620891,0
2096921,2096921,178631,621137,0
2096921,2096921,178704,621258,0
2096921,2096921,178505,620995,0
2096921,2096921,178659,621204,0
2096921,2096921,178600,621388,0
2096921,2096921,179115,621436,0
2096921,2096921,179089,621821,0
2096921,2096921,178486,621764,0
2096921,2096921,179010,621428,0
2096921,2096921,179047,621666,0
2096921,2096921,178920,621994,0
2096921,2096921,178797,621955,0
2096921,2096921,178783,621999,0
2096921,2096921,178688,622179,0
2096921,2096921,178812,621985,0
2096921,2096921,178944,622043,0
2096921,2096921,178869,622393,0
2096921,2096921,178980,622372,0
2096921,2096921,179044,622244,0
2096921,2096921,179246,622394,0
2096921,2096921,179124,622672,0
2096921,2096921,179145,622580,0
2096921,2096921,179145,622664,0
2096921,2096921,179103,622958,0
2096921,2096921,179247,622774,0
2096921,2096921,179391,622747,0
2096921,2096921,179285,622895,0
2096921,2096921,179316,623159,0
2096921,2096921,179226,622990,0
2096921,2096921,179409,622983,0
2096921,2096921,179339,623254,0
2096921,2096921,179336,623117,0
2096921,2096921,179552,623419,0
2096921,2096921,179321,623363,0
2096921,2096921,179577,623187,0
2096921,2096921,179533,623319,0
2096921,2096921,179389,623710,0
2096921,2096921,179401,623493,0
2096921,2096921,179458,623882,0
2096921,2096921,179345,623498,0
2096921,2096921,179696,623774,0
2096921,2096921,179669,623708,0
2096921,2096921,179592,624122,0
2096921,2096921,179544,624129,0
2096921,2096921,179629,623807,0
2096921,2096921,179805,624126,0
2096921,2096921,179635,624198,0
2096921,2096921,179770,624058,0
2096921,2096921,179730,624376,0
2096921,2096921,180021,624577,0
2096921,2096921,180277,624720,0
2096921,2096921,180024,624744,0
2096921,2096921,179797,624505,0
2096921,2096921,179876,624821,0
2096921,2096921,180507,624559,0
2096921,2096921,180139,624945,0
2096921,2096921,180058,624555,0
2096921,2096921,179998,624662,0
2096921,2096921,180074,624750,0
2096921,2096921,180055,624967,0
2096921,2096921,180172,625268,0
2096921,2096921,180168,625304,0
2096921,2096921,180084,625114,0
2096921,2096921,180047,625126,0
2096921,2096921,180333,624966,0
2096921,2096921,180166,625293,0
2096921,2096921,180257,625266,0
2096921,2096921,180577,625348,0
2096921,2096921,180390,625262,0
2096921,2096921,180340,625615,0
2096921,2096921,180420,625712,0
2096921,2096921,180423,625600,0
2096921,2096921,180367,625539,0
2096921,2096921,180440,625411,0
2096921,2096921,180464,625371,0
2096921,2096921,180479,625992,0
2096921,2096921,180549,625909,0
2096921,2096921,180585,625651,0
2096921,2096921,180775,625718,0
2096921,2096921,180489,625812,0
2096921,2096921,180516,625978,0
2096921,2096921,180578,626044,0
2096921,2096921,180487,626298,0
2096921,2096921,180708,626462,0
2096921,2096921,180746,626012,0
2096921,2096921,180901,626387,0
2096921,2096921,180931,626343,0
2096921,2096921,180693,626289,0
2096921,2096921,180691,626347,0
2096921,2096921,181200,626674,0
2096921,2096921,180680,626543,0
2096921,2096921,180876,626888,0
2096921,2096921,180897,626902,0
2096921,2096921,180846,626845,0
2096921,2096921,180761,626508,0
2096921,2096921,181121,626908,0
2096921,2096921,180958,626656,0
2096921,2096921,180996,626999,0
2096921,2096921,180678,626898,0
2096921,2096921,180990,626723,0
2096921,2096921,181014,626969,0
2096921,2096921,181125,626997,0
2096921,2096921,181095,627001,0
2096921,2096921,181078,626986,0
2096921,2096921,181101,626981,0
2096921,2096921,180925,626919,0
2096921,2096921,181161,627232,0
2096921,2096921,180913,627220,0
2096921,2096921,181045,627307,0
2096921,2096921,180855,627141,0
2096921,2096921,180950,627217,0
2096921,2096921,181119,627320,0
2096921,2096921,181120,627272,0
2096921,2096921,181183,627367,0
2096921,2096921,181336,627470,0
2096921,2096921,181374,627396,0
2096921,2096921,181409,627398,0
2096921,2096921,181116,627262,0
2096921,2096921,181028,627652,0
2096921,2096921,181260,627486,0
2096921,2096921,181300,627871,0
2096921,2096921,181538,627991,0
2096921,2096921,181368,627903,0
2096921,2096921,181196,627733,0
2096921,2096921,181422,627590,0
2096921,2096921,181600,627680,0
2096921,2096921,181416,627558,0
2096921,2096921,181326,627807,0
2096921,2096921,181539,628054,0
2096921,2096921,181632,627908,0
2096921,2096921,181404,628250,0
2096921,2096921,181533,628033,0
2096921,2096921,181487,627979,0
2096921,2096921,181518,627907,0
2096921,2096921,181556,628217,0
2096921,2096921,181454,628142,0
2096921,2096921,181447,628288,0
2096921,2096921,181494,628065,0
2096921,2096921,181585,628070,0
2096921,2096921,181654,627968,0
2096921,2096921,181795,628380,0
2096921,2096921,181652,628058,0
2096921,2096921,181664,628190,0
2096921,2096921,181422,628283,0
2096921,2096921,181495,628244,0
2096921,2096921,181727,628122,0
2096921,2096921,181519,628504,0
2096921,2096921,181628,628520,0
2096921,2096921,181836,628446,0
2096921,2096921,181348,628437,0
2096921,2096921,181871,628668,0
2096921,2096921,182036,628558,0
2096921,2096921,181580,628698,0
2096921,2096921,181596,628600,0
2096921,2096921,181686,628684,0
2096921,2096921,181678,628534,0
2096921,2096921,181480,628667,0
2096921,2096921,181494,628396,0
2096921,2096921,181689,628866,0
2096921,2096921,182117,628885,0
2096921,2096921,181826,628970,0
2096921,2096921,181870,628865,0
2096921,2096921,181869,628962,0
2096921,2096921,181711,628992,0
2096921,2096921,181858,628794,0
2096921,2096921,181733,628745,0
2096921,2096921,181651,628935,0
2096921,2096921,181671,628744,0
2096921,2096921,181657,628886,0
2096921,2096921,181763,629092,0
2096921,2096921,181788,629215,0
2096921,2096921,181776,628778,0
2096921,2096921,181805,629385,0
2096921,2096921,181975,629221,0
2096921,2096921,181901,628872,0
2096921,2096921,181800,628801,0
2096921,2096921,181861,629170,0
2096921,2096921,181713,628885,0
2096921,2096921,182075,629176,0
2096921,2096921,182011,629160,0
2096921,2096921,182060,629311,0
2096921,2096921,181926,629392,0
2096921,2096921,182262,629403,0
2096921,2096921,182013,629185,0
2096921,2096921,181794,628982,0
2096921,2096921,181740,629308,0
2096921,2096921,181927,629062,0
2096921,2096921,181858,629247,0
2096921,2096921,181901,629380,0
2096921,2096921,181848,629482,0
2096921,2096921,182178,629476,0
2096921,2096921,182065,629409,0
2096921,2096921,182360,629556,0
2096921,2096921,182445,629302,0
2096921,2096921,182062,629377,0
2096921,2096921,182126,629395,0
2096921,2096921,182189,629086,0
2096921,2096921,182145,629348,0
2096921,2096921,181744,629223,0
2096921,2096921,182196,629385,0
2096921,2096921,182150,629354,0
2096921,2096921,182163,629583,0
2096921,2096921,182207,629396,0
2096921,2096921,182303,629223,0
2096921,2096921,181955,629619,0
2096921,2096921,182101,629406,0
2096921,2096921,181870,629567,0
2096921,2096921,181977,629343,0
2096921,2096921,182284,629679,0
2096921,2096921,182457,629356,0
2096921,2096921,182273,629648,0
2096921,2096921,182148,629514,0
2096921,2096921,181982,629416,0
2096921,2096921,181992,629585,0
2096921,2096921,181980,629576,0
2096921,2096921,182196,629747,0
2096921,2096921,181999,629610,0
2096921,2096921,181721,629390,0
2096921,2096921,182026,629700,0
2096921,2096921,181949,629575,0
2096921,2096921,182267,629566,0
2096921,2096921,182156,629938,0
2096921,2096921,182318,629642,0
2096921,2096921,182024,629658,0
2096921,2096921,181893,629422,0
2096921,2096921,182187,629471,0
2096921,2096921,182099,629378,0
2096921,2096921,182312,629530,0
2096921,2096921,182219,629522,0
2096921,2096921,182052,629346,0
2096921,2096921,182129,629777,0
2096921,2096921,182017,629700,0
2096921,2096921,182196,629608,0
2096921,2096921,182120,629517,0
2096921,2096921,182000,629621,0
2096921,2096921,182080,629344,0
2096921,2096921,182176,629773,0
2096921,2096921,182043,629360,0
2096921,2096921,182128,629647,0
2096921,2096921,182360,629449,0
2096921,2096921,182471,629918,0
2096921,2096921,182289,630020,0
2096921,2096921,182558,629871,0
2096921,2096921,182318,629629,0
2096921,2096921,182221,629975,0
2096921,2096921,182204,629604,0
2096921,2096921,182161,629526,0
2096921,2096921,182198,629615,0
2096921,2096921,182206,629371,0
2096921,2096921,182189,629645,0
2096921,2096921,182312,629339,0
2096921,2096921,182138,629285,0
2096921,2096921,182216,629520,0
2096921,2096921,182152,629553,0
2096921,2096921,182171,629825,0
2096921,2096921,182024,629686,0
2096921,2096921,182138,629523,0
2096921,2096921,181958,629702,0
2096921,2096921,182111,629364,0
2096921,2096921,182199,629693,0
2096921,2096921,182161,629496,0
2096921,2096921,182083,629445,0
2096921,2096921,182156,629818,0
2096921,2096921,182240,629587,0
2096921,2096921,182054,629210,0
2096921,2096921,182224,629117,0
2096921,2096921,181947,628739,0
2096921,2096921,181942,628789,0
2096921,2096921,181790,629173,0
2096921,2096921,181721,629272,0
2096921,2096921,181738,629230,0
2096921,2096921,181784,628949,0
2096921,2096921,181892,629109,0
2096921,2096921,181551,629205,0
2096921,2096921,181649,628929,0
2096921,2096921,181557,628314,0
2096921,2096921,181706,628471,0
2096921,2096921,181711,628109,0
2096921,2096921,181724,628277,0
2096921,2096921,181452,628613,0
2096921,2096921,181317,627838,0
2096921,2096921,181391,627861,0
2096921,2096921,181476,628178,0
2096921,2096921,181279,628014,0
2096921,2096921,181199,627838,0
2096921,2096921,181069,627581,0
2096921,2096921,180942,627325,0
2096921,2096921,180872,627354,0
2096921,2096921,181018,627068,0
2096921,2096921,180238,627566,0
2096921,2096921,180261,626134,0
2096921,2096921,180294,625788,0
2096921,2096921,180139,625624,0
2096921,2096921,180034,625685,0
2096921,2096921,179137,625502,0
2096921,2096921,179196,623952,0
2096921,2096921,179156,623937,0
2096921,2096921,179127,623593,0
2096921,2096921,179150,624006,0
2096921,2096921,178549,623939,0
2096921,2096921,178384,622751,0
2096921,2096921,178648,622355,0
2096921,2096921,178493,622349,0
2096921,2096921,178230,622237,0
2096921,2096921,177753,622123,0
2096921,2096921,177786,621475,0
2096921,2096921,177965,621153,0
2096921,2096921,177760,621160,0
2096921,2096921,177516,621433,0
2096921,2096921,177617,621001,0
2096921,2096921,177571,620438,0
2096921,2096921,177256,620456,0
2096921,2096921,177209,620210,0
2096921,2096921,177398,620296,0
2096921,2096921,177149,620277,0
2096921,2096921,177144,619900,0
2096921,2096921,176987,619727,0
2096921,2096921,177170,619666,0
2096921,2096921,177126,619651,0
2096921,2096921,176866,619675,0
2096921,2096921,177165,619463,0
2096921,2096921,177016,619460,0
2096921,2096921,176987,619865,0
2096921,2096921,176791,619412,0
2096921,2096921,176693,619192,0
2096921,2096921,176584,618921,0
2096921,2096921,176711,619025,0
2096921,2096921,176644,619019,0
2096921,2096921,176555,619119,0
2096921,2096921,176655,619066,0
2096921,2096921,176672,618923,0
2096921,2096921,176687,619041,0
2096921,2096921,176876,619240,0
2096921,2096921,176709,618768,0
2096921,2096921,176548,619209,0
2096921,2096921,176720,619014,0
2096921,2096921,176684,618806,0
2096921,2096921,176804,618863,0
2096921,2096921,176865,618860,0
2096921,2096921,176832,618806,0
2096921,2096921,176801,619217,0
