2096921,2096921,186747,626708,0
2096921,2096921,186778,626761,0
2096921,2096921,186720,626800,0
2096921,2096921,187036,626695,0
2096921,2096921,187091,626765,0
2096921,2096921,186904,626511,0
2096921,2096921,186864,626686,0
2096921,2096921,186932,626569,0
2096921,2096921,186889,626470,0
2096921,2096921,187133,626538,0
2096921,2096921,187023,626928,0
2096921,2096921,187187,627140,0
2096921,2096921,187011,627084,0
2096921,2096921,187103,627225,0
2096921,2096921,186987,626831,0
2096921,2096921,187152,627215,0
2096921,2096921,187059,626958,0
2096921,2096921,187212,627260,0
2096921,2096921,187099,626681,0
2096921,2096921,187322,626828,0
2096921,2096921,187115,626829,0
2096921,2096921,187293,627205,0
2096921,2096921,187028,627237,0
2096921,2096921,187080,627512,0
2096921,2096921,187357,627170,0
2096921,2096921,187288,627490,0
2096921,2096921,187326,627127,0
2096921,2096921,187540,627342,0
2096921,2096921,187109,627383,0
2096921,2096921,187472,627300,0
2096921,2096921,187622,627222,0
2096921,2096921,187380,627326,0
2096921,2096921,187186,627115,0
2096921,2096921,187256,627459,0
2096921,2096921,187377,627487,0
2096921,2096921,187285,627731,0
2096921,2096921,187220,627661,0
2096921,2096921,187329,627684,0
2096921,2096921,186989,627632,0
2096921,2096921,187213,627633,0
2096921,2096921,187518,627620,0
2096921,2096921,187646,627803,0
2096921,2096921,187597,627616,0
2096921,2096921,187588,627792,0
2096921,2096921,187643,627698,0
2096921,2096921,187443,627706,0
2096921,2096921,187427,627627,0
2096921,2096921,187333,627597,0
2096921,2096921,187479,627953,0
2096921,2096921,187318,627587,0
2096921,2096921,187514,627829,0
2096921,2096921,187614,628080,0
2096921,2096921,187664,627889,0
2096921,2096921,187869,628064,0
2096921,2096921,187761,627999,0
2096921,2096921,187512,628039,0
2096921,2096921,187579,627947,0
2096921,2096921,187622,628247,0
2096921,2096921,187376,627988,0
2096921,2096921,187300,627839,0
2096921,2096921,187359,627860,0
2096921,2096921,187534,628060,0
2096921,2096921,187497,628077,0
2096921,2096921,187770,628057,0
2096921,2096921,188025,628021,0
2096921,2096921,187616,627936,0
2096921,2096921,187783,628250,0
2096921,2096921,188002,627874,0
2096921,2096921,187846,628102,0
2096921,2096921,187605,628296,0
2096921,2096921,187852,628266,0
2096921,2096921,187674,628226,0
2096921,2096921,187948,628109,0
2096921,2096921,187593,628022,0
2096921,2096921,187606,628508,0
2096921,2096921,187825,628391,0
2096921,2096921,187897,628343,0
2096921,2096921,187806,628347,0
2096921,2096921,187661,628397,0
2096921,2096921,187862,628409,0
2096921,2096921,187617,628226,0
2096921,2096921,187877,628149,0
2096921,2096921,187713,628391,0
2096921,2096921,187709,628243,0
2096921,2096921,187852,628285,0
2096921,2096921,187806,628304,0
2096921,2096921,187358,628258,0
2096921,2096921,187544,628405,0
2096921,2096921,187634,628181,0
2096921,2096921,187611,628112,0
2096921,2096921,187647,628229,0
2096921,2096921,187539,628192,0
2096921,2096921,187528,627973,0
2096921,2096921,187816,628303,0
2096921,2096921,187702,628355,0
2096921,2096921,188099,628571,0
2096921,2096921,187979,628601,0
2096921,2096921,187834,628113,0
2096921,2096921,187808,628198,0
2096921,2096921,187731,628132,0
2096921,2096921,187395,628118,0
2096921,2096921,188101,628190,0
2096921,2096921,187775,628272,0
2096921,2096921,187852,628319,0
2096921,2096921,187861,628160,0
2096921,2096921,187974,628593,0
2096921,2096921,187773,628413,0
2096921,2096921,187738,628333,0
2096921,2096921,187661,627923,0
2096921,2096921,187919,628474,0
2096921,2096921,187907,628203,0
2096921,2096921,187954,628067,0
2096921,2096921,187786,628150,0
2096921,2096921,187717,628195,0
2096921,2096921,187548,627988,0
2096921,2096921,187633,628159,0
2096921,2096921,187930,628119,0
2096921,2096921,187845,628198,0
2096921,2096921,187794,628153,0
2096921,2096921,187616,628102,0
2096921,2096921,187706,628179,0
2096921,2096921,187604,628174,0
2096921,2096921,187700,628235,0
2096921,2096921,187568,628644,0
2096921,2096921,187890,628284,0
2096921,2096921,187776,628480,0
2096921,2096921,187484,627657,0
2096921,2096921,187389,627811,0
2096921,2096921,187233,627877,0
2096921,2096921,187701,627841,0
2096921,2096921,187445,627900,0
2096921,2096921,187040,627211,0
2096921,2096921,187066,627106,0
2096921,2096921,187037,627219,0
2096921,2096921,187035,627015,0
2096921,2096921,187285,627430,0
2096921,2096921,186617,626649,0
2096921,2096921,186589,626038,0
2096921,2096921,186637,626213,0
2096921,2096921,186591,626235,0
2096921,2096921,186757,626242,0
2096921,2096921,186149,625225,0
2096921,2096921,186224,625118,0
2096921,2096921,186087,625302,0
2096921,2096921,186271,625319,0
2096921,2096921,186098,625427,0
2096921,2096921,185751,624187,0
2096921,2096921,185506,623672,0
2096921,2096921,185528,623852,0
2096921,2096921,185495,623833,0
2096921,2096921,185267,623849,0
2096921,2096921,184426,621545,0
2096921,2096921,183993,620935,0
2096921,2096921,183998,621041,0
2096921,2096921,184051,621052,0
2096921,2096921,183917,621385,0
2096921,2096921,182483,618411,0
2096921,2096921,182142,617615,0
2096921,2096921,182033,617486,0
2096921,2096921,182092,617535,0
2096921,2096921,181918,617713,0
2096921,2096921,181094,615738,0
2096921,2096921,180971,615351,0
2096921,2096921,180983,615202,0
2096921,2096921,180905,615388,0
2096921,2096921,180803,615157,0
2096921,2096921,179961,613642,0
2096921,2096921,179889,613443,0
2096921,2096921,179755,613178,0
2096921,2096921,179458,613332,0
2096921,2096921,179630,613343,0
2096921,2096921,179012,612129,0
2096921,2096921,178974,612079,0
2096921,2096921,178817,611890,0
2096921,2096921,179168,611680,0
2096921,2096921,178975,611900,0
2096921,2096921,178615,611165,0
2096921,2096921,178572,610999,0
2096921,2096921,178252,610569,0
2096921,2096921,178536,610488,0
2096921,2096921,178348,610703,0
2096921,2096921,177980,610053,0
2096921,2096921,178030,610021,0
2096921,2096921,178074,610140,0
2096921,2096921,178393,609864,0
2096921,2096921,178094,609826,0
2096921,2096921,177953,609481,0
2096921,2096921,177896,609434,0
2096921,2096921,177945,609397,0
2096921,2096921,177962,609195,0
2096921,2096921,177948,609466,0
2096921,2096921,177833,609490,0
2096921,2096921,177646,609063,0
2096921,2096921,177803,609538,0
2096921,2096921,177932,609064,0
2096921,2096921,177973,609289,0
2096921,2096921,177689,609006,0
2096921,2096921,177665,609254,0
2096921,2096921,177797,609105,0
2096921,2096921,177729,609153,0
2096921,2096921,177784,608751,0
2096921,2096921,177698,609465,0
2096921,2096921,177838,609444,0
2096921,2096921,177615,609520,0
2096921,2096921,177981,609287,0
2096921,2096921,178004,609441,0
2096921,2096921,177879,609262,0
2096921,2096921,177674,609261,0
2096921,2096921,177707,609407,0
2096921,2096921,177914,609513,0
2096921,2096921,177951,609559,0
2096921,2096921,177777,609656,0
2096921,2096921,177876,609655,0
2096921,2096921,177992,609366,0
2096921,2096921,177897,609241,0
2096921,2096921,177766,609480,0
2096921,2096921,178277,609854,0
2096921,2096921,178639,609663,0
2096921,2096921,178092,609907,0
2096921,2096921,178256,609768,0
2096921,2096921,178036,609638,0
2096921,2096921,178415,610031,0
2096921,2096921,178700,610052,0
2096921,2096921,178325,610032,0
2096921,2096921,178413,610366,0
2096921,2096921,178708,610484,0
2096921,2096921,178756,610644,0
2096921,2096921,178878,610639,0
2096921,2096921,178839,610492,0
2096921,2096921,178994,610659,0
2096921,2096921,178718,610735,0
2096921,2096921,178858,611152,0
2096921,2096921,178906,610928,0
2096921,2096921,179055,611270,0
2096921,2096921,179142,610911,0
2096921,2096921,178900,611201,0
2096921,2096921,179124,611617,0
2096921,2096921,179030,611666,0
2096921,2096921,179306,611312,0
2096921,2096921,179286,611529,0
2096921,2096921,179187,611627,0
2096921,2096921,179235,611882,0
2096921,2096921,179592,612108,0
2096921,2096921,179452,611919,0
2096921,2096921,179753,611965,0
2096921,2096921,179573,611909,0
2096921,2096921,179538,612240,0
2096921,2096921,179691,612147,0
2096921,2096921,179876,612254,0
2096921,2096921,179751,612454,0
2096921,2096921,179693,612300,0
2096921,2096921,179782,612826,0
2096921,2096921,179918,612655,0
2096921,2096921,179747,612891,0
2096921,2096921,179869,612805,0
2096921,2096921,179949,613100,0
2096921,2096921,179979,613049,0
2096921,2096921,180170,613171,0
2096921,2096921,180128,612898,0
2096921,2096921,180418,613239,0
2096921,2096921,180220,612981,0
2096921,2096921,180641,613590,0
2096921,2096921,180708,613402,0
2096921,2096921,180847,613829,0
2096921,2096921,180743,613608,0
2096921,2096921,180525,613676,0
2096921,2096921,180667,613857,0
2096921,2096921,180840,613698,0
2096921,2096921,180521,613514,0
2096921,2096921,180689,613973,0
2096921,2096921,180409,613763,0
2096921,2096921,180680,614229,0
2096921,2096921,180903,614272,0
2096921,2096921,180809,614155,0
2096921,2096921,181143,614305,0
2096921,2096921,181176,614440,0
2096921,2096921,180914,614407,0
2096921,2096921,181051,614446,0
2096921,2096921,181073,614459,0
2096921,2096921,181056,614387,0
2096921,2096921,181155,614403,0
2096921,2096921,180936,614916,0
2096921,2096921,181233,614647,0
2096921,2096921,181326,614788,0
2096921,2096921,181546,614956,0
2096921,2096921,181188,614900,0
2096921,2096921,181332,614759,0
2096921,2096921,181358,614870,0
2096921,2096921,181162,614475,0
2096921,2096921,181480,614680,0
2096921,2096921,181414,614869,0
2096921,2096921,181252,614673,0
2096921,2096921,181386,614952,0
2096921,2096921,181649,614820,0
2096921,2096921,181569,614599,0
2096921,2096921,181350,614761,0
2096921,2096921,181419,614698,0
2096921,2096921,181611,614943,0
2096921,2096921,181524,614611,0
2096921,2096921,181744,614789,0
2096921,2096921,181325,614763,0
2096921,2096921,181522,614370,0
2096921,2096921,181586,614237,0
2096921,2096921,181599,614830,0
2096921,2096921,181588,614329,0
2096921,2096921,181515,614619,0
2096921,2096921,181376,614277,0
2096921,2096921,181562,614344,0
2096921,2096921,181430,613773,0
2096921,2096921,181189,614084,0
2096921,2096921,181329,614030,0
2096921,2096921,181223,614143,0
2096921,2096921,181261,614206,0
2096921,2096921,181242,614116,0
2096921,2096921,181201,613552,0
2096921,2096921,180840,613752,0
2096921,2096921,181152,613326,0
2096921,2096921,180973,613508,0
2096921,2096921,180858,613017,0
2096921,2096921,180721,613187,0
2096921,2096921,181058,613167,0
2096921,2096921,181131,612609,0
2096921,2096921,181175,612647,0
2096921,2096921,180813,612928,0
2096921,2096921,180723,612804,0
2096921,2096921,180966,612699,0
2096921,2096921,180948,612123,0
2096921,2096921,180856,612383,0
2096921,2096921,180987,612260,0
2096921,2096921,180300,612088,0
2096921,2096921,180618,612087,0
2096921,2096921,180348,611721,0
2096921,2096921,180385,611584,0
2096921,2096921,180551,611850,0
2096921,2096921,180500,611852,0
2096921,2096921,180279,611667,0
2096921,2096921,180147,611529,0
2096921,2096921,180175,611189,0
2096921,2096921,180300,611462,0
2096921,2096921,180221,611152,0
2096921,2096921,180261,611148,0
2096921,2096921,180162,611236,0
2096921,2096921,180218,611212,0
2096921,2096921,180269,611266,0
2096921,2096921,180398,611459,0
2096921,2096921,180231,611165,0
2096921,2096921,179831,610901,0
2096921,2096921,180183,611191,0
2096921,2096921,179965,610769,0
2096921,2096921,180282,611009,0
2096921,2096921,180017,610594,0
2096921,2096921,180275,610727,0
2096921,2096921,180221,610987,0
2096921,2096921,180032,610902,0
2096921,2096921,180275,610753,0
2096921,2096921,180164,610720,0
2096921,2096921,180465,610773,0
2096921,2096921,179983,610728,0
2096921,2096921,179986,610486,0
2096921,2096921,180343,610616,0
2096921,2096921,180107,610338,0
2096921,2096921,180243,610298,0
2096921,2096921,180356,610466,0
2096921,2096921,180423,610657,0
2096921,2096921,180263,610810,0
2096921,2096921,180208,610664,0
2096921,2096921,180510,610443,0
2096921,2096921,180353,610505,0
2096921,2096921,179985,610657,0
2096921,2096921,179987,610732,0
2096921,2096921,180139,610637,0
2096921,2096921,180321,611185,0
2096921,2096921,180596,611226,0
2096921,2096921,180610,611188,0
2096921,2096921,180662,611107,0
2096921,2096921,180665,611027,0
2096921,2096921,180786,611229,0
2096921,2096921,180911,611062,0
2096921,2096921,180610,611077,0
2096921,2096921,180582,611278,0
2096921,2096921,180665,611352,0
2096921,2096921,180641,611310,0
2096921,2096921,180576,611131,0
2096921,2096921,181011,611378,0
2096921,2096921,180955,611471,0
2096921,2096921,180852,611324,0
2096921,2096921,180730,611531,0
2096921,2096921,180821,611326,0
2096921,2096921,180587,611326,0
2096921,2096921,180817,610944,0
2096921,2096921,180628,610961,0
2096921,2096921,180860,610845,0
2096921,2096921,180884,610942,0
2096921,2096921,180954,611122,0
2096921,2096921,180495,611097,0
2096921,2096921,180652,611099,0
2096921,2096921,180894,611090,0
2096921,2096921,181207,610998,0
2096921,2096921,181064,610909,0
2096921,2096921,181197,611064,0
2096921,2096921,180713,611289,0
2096921,2096921,181082,611226,0
2096921,2096921,181119,611146,0
2096921,2096921,181180,611088,0
2096921,2096921,180838,611164,0
2096921,2096921,181235,611359,0
2096921,2096921,181209,611302,0
2096921,2096921,181039,611345,0
2096921,2096921,181021,610931,0
2096921,2096921,181004,610968,0
2096921,2096921,180940,610874,0
2096921,2096921,180910,610953,0
2096921,2096921,181131,610858,0
2096921,2096921,181139,610989,0
2096921,2096921,181140,611345,0
2096921,2096921,181042,611300,0
2096921,2096921,181183,610937,0
2096921,2096921,181014,610923,0
2096921,2096921,181135,610841,0
2096921,2096921,180887,610845,0
2096921,2096921,181292,610798,0
2096921,2096921,181337,610970,0
2096921,2096921,181380,610934,0
2096921,2096921,181235,610982,0
2096921,2096921,181426,610960,0
2096921,2096921,181358,611389,0
2096921,2096921,181180,611025,0
2096921,2096921,181108,610885,0
2096921,2096921,181035,610643,0
2096921,2096921,181152,610643,0
2096921,2096921,181275,610656,0
2096921,2096921,181241,610730,0
2096921,2096921,181260,611140,0
2096921,2096921,181522,610956,0
2096921,2096921,181569,610711,0
2096921,2096921,181481,610901,0
2096921,2096921,181641,610878,0
2096921,2096921,181398,610705,0
2096921,2096921,181537,610554,0
2096921,2096921,181432,610481,0
2096921,2096921,181494,610711,0
2096921,2096921,181588,610649,0
2096921,2096921,181449,610754,0
2096921,2096921,181464,610669,0
2096921,2096921,181507,611107,0
2096921,2096921,181381,610735,0
2096921,2096921,181297,610479,0
2096921,2096921,181532,610397,0
2096921,2096921,181562,610435,0
2096921,2096921,181493,610536,0
2096921,2096921,181227,610501,0
2096921,2096921,181429,610252,0
2096921,2096921,181291,610100,0
2096921,2096921,181684,610010,0
2096921,2096921,181537,610399,0
2096921,2096921,181672,610132,0
2096921,2096921,181420,610220,0
2096921,2096921,181287,610090,0
2096921,2096921,181041,610166,0
2096921,2096921,181466,610009,0
2096921,2096921,181388,610018,0
2096921,2096921,181480,610148,0
2096921,2096921,181351,609954,0
2096921,2096921,181503,609843,0
2096921,2096921,181587,609937,0
2096921,2096921,181472,609911,0
2096921,2096921,181342,609738,0
2096921,2096921,181464,609570,0
2096921,2096921,181331,609459,0
2096921,2096921,181312,609571,0
2096921,2096921,181477,609637,0
2096921,2096921,181666,609851,0
2096921,2096921,181486,609637,0
2096921,2096921,181562,609568,0
2096921,2096921,181567,609686,0
2096921,2096921,181651,609858,0
2096921,2096921,181428,609302,0
2096921,2096921,181506,609576,0
2096921,2096921,181499,609641,0
2096921,2096921,181425,609368,0
2096921,2096921,181188,609605,0
2096921,2096921,181372,609134,0
2096921,2096921,181415,609205,0
2096921,2096921,181639,609197,0
2096921,2096921,181633,609167,0
2096921,2096921,181501,609068,0
2096921,2096921,181385,609211,0
2096921,2096921,181422,608798,0
2096921,2096921,181438,608854,0
2096921,2096921,181327,609132,0
2096921,2096921,181365,609026,0
2096921,2096921,181378,608658,0
2096921,2096921,181133,608882,0
2096921,2096921,181531,608724,0
2096921,2096921,181456,608638,0
2096921,2096921,181483,608513,0
2096921,2096921,181246,608642,0
2096921,2096921,181301,608634,0
2096921,2096921,181204,608660,0
2096921,2096921,181138,608468,0
2096921,2096921,181094,608283,0
2096921,2096921,181392,608183,0
2096921,2096921,181328,608151,0
2096921,2096921,181426,608195,0
2096921,2096921,181246,608144,0
2096921,2096921,181203,608250,0
2096921,2096921,180913,608095,0
2096921,2096921,181019,608203,0
2096921,2096921,181200,607888,0
2096921,2096921,181299,607741,0
2096921,2096921,181165,608177,0
2096921,2096921,181226,607751,0
2096921,2096921,181126,607721,0
2096921,2096921,181130,607861,0
2096921,2096921,181389,607849,0
2096921,2096921,181428,607817,0
2096921,2096921,181245,607726,0
2096921,2096921,181054,607496,0
2096921,2096921,180971,607303,0
2096921,2096921,180958,607325,0
2096921,2096921,181065,607453,0
2096921,2096921,181205,607194,0
2096921,2096921,181025,607487,0
2096921,2096921,181274,607177,0
2096921,2096921,180913,607252,0
2096921,2096921,180835,607137,0
2096921,2096921,180819,607210,0
2096921,2096921,181207,607205,0
2096921,2096921,180959,607233,0
2096921,2096921,180914,606680,0
2096921,2096921,180871,606863,0
2096921,2096921,180937,606688,0
2096921,2096921,180829,606906,0
2096921,2096921,180926,606798,0
2096921,2096921,180905,606753,0
2096921,2096921,181051,606962,0
2096921,2096921,180680,606771,0
2096921,2096921,180820,606621,0
2096921,2096921,180846,606477,0
2096921,2096921,180830,606412,0
2096921,2096921,181001,606562,0
2096921,2096921,180991,606294,0
2096921,2096921,180882,606233,0
2096921,2096921,180761,605919,0
2096921,2096921,180716,606160,0
2096921,2096921,180815,606227,0
2096921,2096921,180532,606055,0
2096921,2096921,180809,605965,0
2096921,2096921,180700,605912,0
2096921,2096921,180866,605736,0
2096921,2096921,180820,605829,0
2096921,2096921,180597,605758,0
2096921,2096921,180597,605791,0
2096921,2096921,180727,605904,0
2096921,2096921,180696,606085,0
2096921,2096921,180786,606016,0
2096921,2096921,180476,605679,0
2096921,2096921,180643,605641,0
2096921,2096921,180599,605326,0
2096921,2096921,180475,605301,0
2096921,2096921,180428,605124,0
2096921,2096921,180731,604925,0
2096921,2096921,180540,605088,0
2096921,2096921,180715,605193,0
2096921,2096921,180399,605145,0
2096921,2096921,180798,605150,0
2096921,2096921,180357,604771,0
2096921,2096921,180570,604867,0
2096921,2096921,180212,604713,0
2096921,2096921,180318,605067,0
2096921,2096921,180522,604777,0
2096921,2096921,180549,604688,0
2096921,2096921,180425,604720,0
2096921,2096921,180648,604726,0
2096921,2096921,180542,604624,0
2096921,2096921,180395,604655,0
2096921,2096921,180428,604497,0
2096921,2096921,180535,604492,0
2096921,2096921,180065,604392,0
2096921,2096921,180101,604401,0
2096921,2096921,180142,604000,0
2096921,2096921,180438,603546,0
2096921,2096921,180342,603369,0
2096921,2096921,180266,603706,0
2096921,2096921,180174,604075,0
2096921,2096921,180534,603836,0
2096921,2096921,180102,603338,0
2096921,2096921,180257,603368,0
2096921,2096921,179944,603564,0
2096921,2096921,180118,603394,0
2096921,2096921,180067,603281,0
2096921,2096921,180069,603258,0
2096921,2096921,180322,603199,0
2096921,2096921,180030,603492,0
2096921,2096921,179798,603417,0
2096921,2096921,180344,603213,0
2096921,2096921,180069,603125,0
2096921,2096921,179845,603151,0
2096921,2096921,179955,603001,0
2096921,2096921,179925,603213,0
2096921,2096921,179810,602853,0
2096921,2096921,180030,602654,0
2096921,2096921,179975,602634,0
2096921,2096921,180083,602841,0
2096921,2096921,179791,602674,0
2096921,2096921,179967,602910,0
2096921,2096921,179601,602295,0
2096921,2096921,179642,602515,0
2096921,2096921,179528,602159,0
2096921,2096921,179485,602153,0
2096921,2096921,179550,602320,0
2096921,2096921,179653,602042,0
2096921,2096921,179415,602184,0
2096921,2096921,179665,602218,0
2096921,2096921,179768,602244,0
2096921,2096921,179884,602165,0
2096921,2096921,179680,601857,0
2096921,2096921,179393,601630,0
2096921,2096921,179571,601604,0
2096921,2096921,179522,601476,0
2096921,2096921,179679,601442,0
2096921,2096921,179515,601212,0
2096921,2096921,179355,601600,0
2096921,2096921,179373,601569,0
2096921,2096921,179565,601654,0
2096921,2096921,179460,601599,0
2096921,2096921,179234,600866,0
2096921,2096921,179154,600606,0
2096921,2096921,179199,600764,0
2096921,2096921,178878,600740,0
2096921,2096921,179165,600512,0
2096921,2096921,178669,600023,0
2096921,2096921,178571,600038,0
2096921,2096921,178633,599829,0
2096921,2096921,178653,599751,0
2096921,2096921,178844,599684,0
2096921,2096921,178279,599159,0
2096921,2096921,178315,598633,0
2096921,2096921,177957,598542,0
2096921,2096921,178419,598753,0
2096921,2096921,177874,598691,0
2096921,2096921,177766,597677,0
2096921,2096921,177714,597378,0
2096921,2096921,177788,597335,0
2096921,2096921,177488,597309,0
2096921,2096921,177330,597355,0
2096921,2096921,176798,596537,0
2096921,2096921,176802,595981,0
2096921,2096921,176699,596011,0
2096921,2096921,176926,596305,0
2096921,2096921,176502,596189,0
2096921,2096921,175618,593741,0
2096921,2096921,175256,593099,0
2096921,2096921,175195,593081,0
2096921,2096921,175405,592838,0
2096921,2096921,175205,593287,0
2096921,2096921,173847,590517,0
2096921,2096921,173591,589844,0
2096921,2096921,173621,589778,0
2096921,2096921,173739,589648,0
2096921,2096921,173442,589862,0
2096921,2096921,172607,587833,0
2096921,2096921,172508,587123,0
2096921,2096921,172474,586936,0
2096921,2096921,172471,587227,0
2096921,2096921,172267,587450,0
2096921,2096921,171287,585598,0
2096921,2096921,171276,585103,0
2096921,2096921,171158,585091,0
2096921,2096921,171188,584904,0
2096921,2096921,171324,585094,0
2096921,2096921,170659,583722,0
2096921,2096921,170618,583713,0
2096921,2096921,170672,583416,0
2096921,2096921,170302,583521,0
2096921,2096921,170394,583759,0
2096921,2096921,169813,582830,0
2096921,2096921,169973,582219,0
2096921,2096921,169769,582268,0
2096921,2096921,169887,582391,0
2096921,2096921,169581,582338,0
2096921,2096921,169335,581822,0
2096921,2096921,169477,581516,0
2096921,2096921,169743,581398,0
2096921,2096921,169299,581425,0
2096921,2096921,169483,581397,0
2096921,2096921,169048,580957,0
2096921,2096921,169082,580800,0
2096921,2096921,168983,580715,0
2096921,2096921,169038,580845,0
2096921,2096921,169154,580985,0
2096921,2096921,169431,580511,0
2096921,2096921,169101,580559,0
2096921,2096921,168969,580527,0
2096921,2096921,169491,580728,0
2096921,2096921,169491,580551,0
2096921,2096921,168973,580440,0
2096921,2096921,169155,580313,0
2096921,2096921,169010,580199,0
2096921,2096921,169052,580217,0
2096921,2096921,168936,580173,0
2096921,2096921,169009,580615,0
2096921,2096921,168984,580705,0
2096921,2096921,169065,580637,0
2096921,2096921,169066,580715,0
2096921,2096921,169171,580428,0
2096921,2096921,168884,580420,0
2096921,2096921,169362,580565,0
2096921,2096921,169299,580395,0
2096921,2096921,169264,580543,0
2096921,2096921,169002,580646,0
2096921,2096921,169114,580696,0
2096921,2096921,169199,580599,0
2096921,2096921,169229,580591,0
2096921,2096921,169111,580680,0
2096921,2096921,169165,580650,0
2096921,2096921,169369,580906,0
2096921,2096921,169618,581001,0
2096921,2096921,169175,581192,0
2096921,2096921,169335,580947,0
2096921,2096921,169596,581092,0
2096921,2096921,169638,581473,0
2096921,2096921,169524,581317,0
2096921,2096921,169762,581355,0
2096921,2096921,169963,581564,0
2096921,2096921,169780,581602,0
2096921,2096921,169913,581848,0
2096921,2096921,169886,581814,0
2096921,2096921,169922,581711,0
2096921,2096921,170185,581955,0
2096921,2096921,170376,582037,0
2096921,2096921,170300,582314,0
2096921,2096921,170110,582470,0
2096921,2096921,170021,582574,0
2096921,2096921,170127,582556,0
2096921,2096921,170289,582274,0
2096921,2096921,170394,582843,0
2096921,2096921,170688,582702,0
2096921,2096921,170505,582770,0
2096921,2096921,170359,583038,0
2096921,2096921,170405,582930,0
2096921,2096921,171054,583258,0
2096921,2096921,170679,583363,0
2096921,2096921,170955,583703,0
2096921,2096921,170361,583368,0
2096921,2096921,170683,583773,0
2096921,2096921,170642,583720,0
2096921,2096921,170918,583687,0
2096921,2096921,170886,583571,0
2096921,2096921,170808,583821,0
2096921,2096921,170945,584084,0
2096921,2096921,171332,584066,0
2096921,2096921,171312,584190,0
2096921,2096921,171264,584516,0
2096921,2096921,171093,584228,0
2096921,2096921,171228,584112,0
2096921,2096921,171493,584646,0
2096921,2096921,171689,584637,0
2096921,2096921,171587,584857,0
2096921,2096921,171571,584859,0
2096921,2096921,171766,584418,0
2096921,2096921,171793,585113,0
2096921,2096921,171763,585324,0
2096921,2096921,171809,585509,0
2096921,2096921,171961,585237,0
2096921,2096921,171798,585420,0
2096921,2096921,172237,585764,0
2096921,2096921,172255,585935,0
2096921,2096921,172094,585536,0
2096921,2096921,172194,585746,0
2096921,2096921,172341,585943,0
2096921,2096921,172487,586596,0
2096921,2096921,172372,586460,0
2096921,2096921,172629,586514,0
2096921,2096921,172510,586715,0
2096921,2096921,172714,586735,0
2096921,2096921,172786,586965,0
2096921,2096921,172678,586923,0
2096921,2096921,172711,586810,0
2096921,2096921,172509,586709,0
2096921,2096921,172652,587166,0
2096921,2096921,172737,587463,0
2096921,2096921,172791,587522,0
2096921,2096921,173025,587559,0
2096921,2096921,172817,587372,0
2096921,2096921,173130,587246,0
2096921,2096921,173097,587576,0
2096921,2096921,173016,587489,0
2096921,2096921,172948,587586,0
2096921,2096921,173363,587775,0
2096921,2096921,173174,587821,0
2096921,2096921,173273,587786,0
2096921,2096921,173239,587931,0
2096921,2096921,173334,588140,0
2096921,2096921,172934,587951,0
2096921,2096921,173487,587792,0
2096921,2096921,173197,588039,0
2096921,2096921,173281,588192,0
2096921,2096921,173104,588136,0
2096921,2096921,173431,587984,0
2096921,2096921,173219,588221,0
2096921,2096921,173111,588171,0
2096921,2096921,173113,588021,0
2096921,2096921,173249,588135,0
2096921,2096921,173349,588183,0
2096921,2096921,173508,588209,0
2096921,2096921,173247,588028,0
2096921,2096921,173277,587997,0
2096921,2096921,173288,587821,0
2096921,2096921,173244,588036,0
2096921,2096921,173332,588029,0
2096921,2096921,173420,588099,0
2096921,2096921,173242,587814,0
2096921,2096921,173309,588038,0
2096921,2096921,173164,588042,0
2096921,2096921,172908,588304,0
2096921,2096921,173206,587859,0
2096921,2096921,173111,587950,0
2096921,2096921,172999,587721,0
2096921,2096921,172898,587753,0
2096921,2096921,173197,587834,0
2096921,2096921,172963,587692,0
2096921,2096921,173308,587922,0
2096921,2096921,172882,587779,0
2096921,2096921,173052,587855,0
2096921,2096921,173196,587739,0
2096921,2096921,173171,587720,0
2096921,2096921,173083,587321,0
2096921,2096921,172959,587194,0
2096921,2096921,173094,587330,0
2096921,2096921,172862,587702,0
2096921,2096921,173151,587524,0
2096921,2096921,173014,587435,0
2096921,2096921,173140,587178,0
2096921,2096921,172672,587133,0
2096921,2096921,172907,587424,0
2096921,2096921,172678,587382,0
2096921,2096921,173084,587332,0
2096921,2096921,172682,587229,0
2096921,2096921,173002,587044,0
2096921,2096921,172791,587212,0
2096921,2096921,173073,587401,0
2096921,2096921,173002,587197,0
2096921,2096921,173177,587387,0
2096921,2096921,172922,587269,0
2096921,2096921,172918,587488,0
2096921,2096921,172672,587298,0
2096921,2096921,172919,587370,0
2096921,2096921,173087,587077,0
2096921,2096921,173237,587208,0
2096921,2096921,172804,587297,0
2096921,2096921,173152,587183,0
2096921,2096921,173116,587314,0
2096921,2096921,173074,587496,0
2096921,2096921,173021,587403,0
2096921,2096921,173160,587602,0
2096921,2096921,172954,587740,0
2096921,2096921,173293,587602,0
2096921,2096921,172919,587634,0
2096921,2096921,172881,587549,0
2096921,2096921,172905,587508,0
2096921,2096921,173503,587746,0
2096921,2096921,173549,587792,0
2096921,2096921,173375,588133,0
2096921,2096921,173244,588197,0
2096921,2096921,173343,587999,0
2096921,2096921,173399,588215,0
2096921,2096921,173197,588158,0
2096921,2096921,173175,588650,0
2096921,2096921,173574,588290,0
2096921,2096921,173553,588559,0
2096921,2096921,173734,588551,0
2096921,2096921,173846,588823,0
2096921,2096921,173877,589001,0
2096921,2096921,173724,588955,0
2096921,2096921,173800,588845,0
2096921,2096921,173941,589012,0
2096921,2096921,173887,589091,0
2096921,2096921,174075,589186,0
2096921,2096921,174426,589088,0
2096921,2096921,173688,589080,0
2096921,2096921,174099,589475,0
2096921,2096921,173973,589972,0
2096921,2096921,174056,589669,0
2096921,2096921,173664,589657,0
2096921,2096921,174165,589510,0
2096921,2096921,174106,589802,0
2096921,2096921,174047,590016,0
2096921,2096921,174178,589940,0
2096921,2096921,174368,589955,0
2096921,2096921,174331,589941,0
2096921,2096921,174504,590167,0
2096921,2096921,174528,590131,0
2096921,2096921,174467,590516,0
2096921,2096921,174358,590065,0
2096921,2096921,174485,590322,0
2096921,2096921,174535,590479,0
2096921,2096921,174526,590364,0
2096921,2096921,174479,590283,0
2096921,2096921,174519,590587,0
2096921,2096921,174629,590406,0
2096921,2096921,174880,590592,0
2096921,2096921,174669,590601,0
2096921,2096921,174987,590758,0
2096921,2096921,174606,590625,0
2096921,2096921,174733,590648,0
2096921,2096921,175190,591137,0
2096921,2096921,174902,591226,0
2096921,2096921,175014,591220,0
2096921,2096921,174844,591388,0
2096921,2096921,175117,591322,0
2096921,2096921,175068,591462,0
2096921,2096921,175168,591456,0
2096921,2096921,175161,591458,0
2096921,2096921,175146,591306,0
2096921,2096921,175038,591241,0
2096921,2096921,175090,591424,0
2096921,2096921,175062,591642,0
2096921,2096921,175583,591756,0
2096921,2096921,175388,591902,0
2096921,2096921,175428,591702,0
2096921,2096921,175656,592023,0
2096921,2096921,175547,592296,0
2096921,2096921,175763,592064,0
2096921,2096921,175420,592337,0
2096921,2096921,175698,592081,0
2096921,2096921,175480,592520,0
2096921,2096921,175864,592384,0
2096921,2096921,175751,592463,0
2096921,2096921,175680,592346,0
2096921,2096921,175892,592398,0
2096921,2096921,175772,592709,0
2096921,2096921,175561,592919,0
2096921,2096921,175462,592776,0
2096921,2096921,175743,592885,0
2096921,2096921,175665,592728,0
2096921,2096921,175995,593151,0
2096921,2096921,175986,593069,0
2096921,2096921,175799,593203,0
2096921,2096921,175990,593277,0
2096921,2096921,175837,593211,0
2096921,2096921,176217,593326,0
2096921,2096921,176473,593388,0
2096921,2096921,176268,593531,0
2096921,2096921,176325,593609,0
2096921,2096921,176159,593485,0
2096921,2096921,176250,593855,0
2096921,2096921,176251,593832,0
2096921,2096921,176418,593540,0
2096921,2096921,176302,593546,0
2096921,2096921,176300,593570,0
2096921,2096921,176445,594089,0
2096921,2096921,176344,594010,0
2096921,2096921,176560,594123,0
2096921,2096921,176482,593963,0
2096921,2096921,176382,594257,0
2096921,2096921,176849,594014,0
2096921,2096921,176660,594280,0
2096921,2096921,176872,594478,0
2096921,2096921,176512,594671,0
2096921,2096921,176429,594545,0
2096921,2096921,176635,594694,0
2096921,2096921,176542,594755,0
2096921,2096921,176759,594967,0
2096921,2096921,176739,595188,0
2096921,2096921,177054,594802,0
2096921,2096921,176884,595006,0
2096921,2096921,177243,595166,0
2096921,2096921,177083,595253,0
2096921,2096921,176743,595301,0
2096921,2096921,176844,595317,0
2096921,2096921,177190,595564,0
2096921,2096921,177263,595613,0
2096921,2096921,177416,595401,0
2096921,2096921,177240,595805,0
2096921,2096921,177004,595561,0
2096921,2096921,176849,595713,0
2096921,2096921,177293,595797,0
2096921,2096921,177404,595816,0
2096921,2096921,177147,595652,0
2096921,2096921,177266,595854,0
2096921,2096921,177433,596194,0
2096921,2096921,177177,596344,0
2096921,2096921,177406,596320,0
2096921,2096921,177136,596224,0
2096921,2096921,177405,596301,0
2096921,2096921,177061,596460,0
2096921,2096921,177263,596662,0
2096921,2096921,177620,596349,0
2096921,2096921,177507,596553,0
2096921,2096921,177744,596461,0
2096921,2096921,177787,596882,0
2096921,2096921,177747,596864,0
2096921,2096921,177597,596863,0
2096921,2096921,177830,597078,0
2096921,2096921,177689,596805,0
2096921,2096921,178017,597205,0
2096921,2096921,178022,597265,0
2096921,2096921,177951,597492,0
2096921,2096921,177771,596852,0
2096921,2096921,177762,597031,0
2096921,2096921,178117,597467,0
2096921,2096921,177971,597511,0
2096921,2096921,178006,597301,0
2096921,2096921,178084,597806,0
2096921,2096921,177931,597674,0
2096921,2096921,177804,597540,0
2096921,2096921,177944,597620,0
2096921,2096921,177843,597878,0
2096921,2096921,178009,597554,0
2096921,2096921,178049,597447,0
2096921,2096921,178154,597867,0
2096921,2096921,178183,598120,0
2096921,2096921,178298,598012,0
2096921,2096921,178390,598032,0
2096921,2096921,178103,598004,0
2096921,2096921,178328,598305,0
2096921,2096921,178497,598033,0
2096921,2096921,178379,598436,0
2096921,2096921,178265,598425,0
2096921,2096921,178190,598443,0
2096921,2096921,178426,598485,0
2096921,2096921,178330,598827,0
2096921,2096921,178346,598854,0
2096921,2096921,178275,598562,0
2096921,2096921,178401,598743,0
2096921,2096921,178237,598996,0
2096921,2096921,178255,599018,0
2096921,2096921,178538,598937,0
2096921,2096921,178602,599117,0
2096921,2096921,178640,599040,0
2096921,2096921,178999,599552,0
2096921,2096921,178718,599396,0
2096921,2096921,178678,599475,0
2096921,2096921,178641,599552,0
2096921,2096921,178474,599599,0
2096921,2096921,178537,599874,0
2096921,2096921,178716,599891,0
2096921,2096921,178652,599603,0
2096921,2096921,178621,599825,0
2096921,2096921,178765,599632,0
2096921,2096921,178960,600021,0
2096921,2096921,178970,599923,0
2096921,2096921,178945,600279,0
2096921,2096921,179171,600006,0
2096921,2096921,179312,600192,0
2096921,2096921,179039,600388,0
2096921,2096921,178960,600536,0
2096921,2096921,178943,600447,0
2096921,2096921,179117,600480,0
2096921,2096921,179003,600193,0
2096921,2096921,179176,600699,0
2096921,2096921,179076,600741,0
2096921,2096921,179161,600901,0
2096921,2096921,179130,600918,0
2096921,2096921,179088,600666,0
2096921,2096921,179562,601157,0
2096921,2096921,179331,601161,0
2096921,2096921,179343,601050,0
2096921,2096921,179317,601367,0
2096921,2096921,179507,601170,0
2096921,2096921,179528,601180,0
2096921,2096921,179522,601339,0
2096921,2096921,179211,601373,0
2096921,2096921,179642,601587,0
2096921,2096921,179789,601992,0
2096921,2096921,179477,601869,0
2096921,2096921,179357,601803,0
2096921,2096921,179435,601709,0
2096921,2096921,179283,602013,0
2096921,2096921,179855,601762,0
2096921,2096921,179483,602182,0
2096921,2096921,179805,601938,0
2096921,2096921,179921,602160,0
2096921,2096921,179790,602307,0
2096921,2096921,179817,602137,0
2096921,2096921,179571,602242,0
2096921,2096921,179703,602365,0
2096921,2096921,179869,602409,0
2096921,2096921,179641,602665,0
2096921,2096921,179822,602688,0
2096921,2096921,179963,602967,0
2096921,2096921,179876,603060,0
2096921,2096921,179642,602849,0
2096921,2096921,179739,602704,0
2096921,2096921,179836,603235,0
2096921,2096921,180108,603291,0
2096921,2096921,180236,603417,0
2096921,2096921,179921,603339,0
2096921,2096921,179980,603087,0
2096921,2096921,180151,603060,0
2096921,2096921,179983,603523,0
2096921,2096921,180223,603540,0
2096921,2096921,179965,603462,0
2096921,2096921,180155,603336,0
2096921,2096921,180223,603566,0
2096921,2096921,180236,603778,0
2096921,2096921,180566,603905,0
2096921,2096921,180355,603594,0
2096921,2096921,180035,603986,0
2096921,2096921,180280,603939,0
2096921,2096921,180447,604343,0
2096921,2096921,180323,604424,0
2096921,2096921,180280,604322,0
2096921,2096921,180360,604207,0
2096921,2096921,180295,604278,0
2096921,2096921,180257,604634,0
2096921,2096921,180297,604527,0
2096921,2096921,180067,604673,0
2096921,2096921,180455,604839,0
2096921,2096921,180499,604586,0
2096921,2096921,180717,604827,0
2096921,2096921,180590,604913,0
2096921,2096921,180675,604772,0
2096921,2096921,180562,604876,0
2096921,2096921,180295,605005,0
2096921,2096921,180389,605077,0
2096921,2096921,180569,605304,0
2096921,2096921,180586,604933,0
2096921,2096921,180457,605232,0
2096921,2096921,180675,605115,0
2096921,2096921,180688,605562,0
2096921,2096921,180437,605714,0
2096921,2096921,180728,605793,0
2096921,2096921,180777,605560,0
2096921,2096921,180688,606021,0
2096921,2096921,180262,605434,0
2096921,2096921,180331,604999,0
2096921,2096921,180291,605209,0
2096921,2096921,180350,605361,0
2096921,2096921,180257,605051,0
2096921,2096921,180341,605252,0
2096921,2096921,180743,605204,0
2096921,2096921,180235,605303,0
2096921,2096921,180438,605195,0
2096921,2096921,180335,605389,0
2096921,2096921,180514,604852,0
2096921,2096921,180142,604570,0
2096921,2096921,180398,604643,0
2096921,2096921,179997,604856,0
2096921,2096921,179765,604550,0
2096921,2096921,179391,604353,0
2096921,2096921,179843,603937,0
2096921,2096921,179711,604272,0
2096921,2096921,179795,604124,0
2096921,2096921,179568,603985,0
2096921,2096921,179185,603242,0
2096921,2096921,179190,603160,0
2096921,2096921,178943,603120,0
2096921,2096921,179114,603338,0
2096921,2096921,178757,603275,0
2096921,2096921,177993,601429,0
2096921,2096921,177978,600922,0
2096921,2096921,177934,601035,0
2096921,2096921,177932,600951,0
2096921,2096921,177598,601014,0
2096921,2096921,176244,598760,0
2096921,2096921,176132,598298,0
2096921,2096921,176166,598167,0
2096921,2096921,176213,597955,0
2096921,2096921,175821,597866,0
2096921,2096921,175189,596442,0
2096921,2096921,175085,595907,0
2096921,2096921,174926,596046,0
2096921,2096921,175020,595997,0
2096921,2096921,174937,596102,0
2096921,2096921,174486,594774,0
2096921,2096921,174039,594327,0
2096921,2096921,174083,594178,0
2096921,2096921,173962,594658,0
2096921,2096921,173787,594383,0
2096921,2096921,173857,593549,0
2096921,2096921,173652,593421,0
2096921,2096921,173433,593698,0
2096921,2096921,173360,593451,0
2096921,2096921,173191,593380,0
2096921,2096921,173035,592950,0
2096921,2096921,173202,592973,0
2096921,2096921,173259,592775,0
2096921,2096921,173049,592973,0
2096921,2096921,173147,592918,0
2096921,2096921,172832,592645,0
2096921,2096921,173051,592547,0
2096921,2096921,173189,592456,0
2096921,2096921,172794,592513,0
2096921,2096921,172733,592712,0
2096921,2096921,173048,592607,0
2096921,2096921,172693,592603,0
2096921,2096921,172779,592429,0
2096921,2096921,172813,592498,0
2096921,2096921,172640,592294,0
2096921,2096921,172875,592745,0
2096921,2096921,172731,592771,0
2096921,2096921,172870,592830,0
2096921,2096921,172916,592925,0
2096921,2096921,172900,592893,0
2096921,2096921,172774,593039,0
2096921,2096921,172587,592910,0
2096921,2096921,172821,592853,0
2096921,2096921,172835,592987,0
2096921,2096921,173031,593011,0
2096921,2096921,173105,593691,0
2096921,2096921,173314,593918,0
2096921,2096921,173191,593813,0
2096921,2096921,173209,593853,0
2096921,2096921,173135,593904,0
2096921,2096921,173246,593898,0
2096921,2096921,173126,594094,0
2096921,2096921,173054,593745,0
2096921,2096921,173181,593818,0
2096921,2096921,173021,593760,0
2096921,2096921,173222,594312,0
2096921,2096921,173621,594609,0
2096921,2096921,173485,594706,0
2096921,2096921,173340,594501,0
2096921,2096921,173315,594496,0
2096921,2096921,173801,595236,0
2096921,2096921,173904,595317,0
2096921,2096921,173792,595196,0
2096921,2096921,173601,595278,0
2096921,2096921,173894,595277,0
2096921,2096921,174001,595888,0
2096921,2096921,174016,596163,0
2096921,2096921,174187,596109,0
2096921,2096921,174319,596173,0
2096921,2096921,174189,596371,0
2096921,2096921,174731,596693,0
2096921,2096921,174800,596936,0
2096921,2096921,174536,596968,0
2096921,2096921,174630,597268,0
2096921,2096921,174672,597044,0
2096921,2096921,175159,598112,0
2096921,2096921,175116,598240,0
2096921,2096921,175132,598420,0
2096921,2096921,174870,598264,0
2096921,2096921,175093,598165,0
2096921,2096921,175308,599096,0
2096921,2096921,175267,599088,0
2096921,2096921,175295,598932,0
2096921,2096921,175519,599119,0
2096921,2096921,175443,599122,0
2096921,2096921,175876,599671,0
2096921,2096921,176058,599827,0
2096921,2096921,175893,600306,0
2096921,2096921,175877,600077,0
2096921,2096921,175727,599905,0
2096921,2096921,176345,600642,0
2096921,2096921,175931,600797,0
2096921,2096921,176456,600782,0
2096921,2096921,176427,600810,0
2096921,2096921,176298,600910,0
2096921,2096921,176667,602061,0
2096921,2096921,176712,601853,0
2096921,2096921,176675,601980,0
2096921,2096921,176611,601763,0
2096921,2096921,176758,602321,0
2096921,2096921,177109,602770,0
2096921,2096921,176989,603091,0
2096921,2096921,177081,602846,0
2096921,2096921,177209,602689,0
2096921,2096921,177404,602861,0
2096921,2096921,177646,603560,0
2096921,2096921,177648,603884,0
2096921,2096921,177433,603850,0
2096921,2096921,177259,604114,0
2096921,2096921,177463,604005,0
2096921,2096921,177847,604860,0
2096921,2096921,177966,604678,0
2096921,2096921,177797,604651,0
2096921,2096921,177931,604670,0
2096921,2096921,178040,605206,0
2096921,2096921,178322,605707,0
2096921,2096921,178511,605824,0
2096921,2096921,178525,605830,0
2096921,2096921,178414,605704,0
2096921,2096921,178549,605731,0
2096921,2096921,178830,606566,0
2096921,2096921,179078,606576,0
2096921,2096921,178420,606436,0
2096921,2096921,178855,606595,0
2096921,2096921,178683,606677,0
2096921,2096921,179210,607556,0
2096921,2096921,179213,607501,0
2096921,2096921,179280,607669,0
2096921,2096921,178912,607433,0
2096921,2096921,178891,607164,0
2096921,2096921,179084,607841,0
2096921,2096921,179501,608037,0
2096921,2096921,179400,608156,0
2096921,2096921,179774,608173,0
2096921,2096921,179487,608373,0
2096921,2096921,179722,608616,0
2096921,2096921,179600,608676,0
2096921,2096921,179692,608900,0
2096921,2096921,179545,608999,0
2096921,2096921,179696,608755,0
2096921,2096921,180007,609170,0
2096921,2096921,180007,609336,0
2096921,2096921,179790,609330,0
2096921,2096921,179679,609187,0
2096921,2096921,179939,609272,0
2096921,2096921,180107,609891,0
2096921,2096921,180186,609492,0
2096921,2096921,180104,609909,0
2096921,2096921,180176,609621,0
2096921,2096921,179891,609734,0
2096921,2096921,180039,609811,0
2096921,2096921,180055,609909,0
2096921,2096921,180154,609913,0
2096921,2096921,179950,609935,0
2096921,2096921,179674,610161,0
2096921,2096921,179947,610615,0
2096921,2096921,180006,610422,0
2096921,2096921,179881,610462,0
2096921,2096921,180211,610634,0
2096921,2096921,179896,610285,0
2096921,2096921,180299,610359,0
2096921,2096921,180180,610157,0
2096921,2096921,180002,610428,0
2096921,2096921,180074,610410,0
2096921,2096921,180328,610466,0
2096921,2096921,180139,610722,0
2096921,2096921,179941,610693,0
2096921,2096921,179780,610805,0
2096921,2096921,179972,610649,0
2096921,2096921,180293,610497,0
2096921,2096921,180147,610833,0
2096921,2096921,180015,610548,0
2096921,2096921,180286,610589,0
2096921,2096921,180198,610764,0
2096921,2096921,180252,610928,0
2096921,2096921,180226,611064,0
2096921,2096921,180122,611076,0
2096921,2096921,180130,610905,0
2096921,2096921,180080,610957,0
2096921,2096921,180028,610814,0
2096921,2096921,180322,611064,0
2096921,2096921,179983,611208,0
2096921,2096921,180020,611079,0
2096921,2096921,180217,611249,0
2096921,2096921,179886,611294,0
2096921,2096921,180038,611651,0
2096921,2096921,180346,611573,0
2096921,2096921,180323,611581,0
2096921,2096921,180313,611441,0
2096921,2096921,180511,611523,0
2096921,2096921,180397,611818,0
2096921,2096921,180291,611951,0
2096921,2096921,180236,611733,0
2096921,2096921,180307,611726,0
2096921,2096921,180232,611464,0
2096921,2096921,180492,612230,0
2096921,2096921,180685,612172,0
2096921,2096921,180456,612400,0
2096921,2096921,180558,612428,0
2096921,2096921,180730,612288,0
2096921,2096921,180852,612444,0
2096921,2096921,180773,612819,0
2096921,2096921,180689,612673,0
2096921,2096921,180837,612872,0
2096921,2096921,180992,612982,0
2096921,2096921,181143,613448,0
2096921,2096921,181084,613765,0
2096921,2096921,181265,613543,0
2096921,2096921,181274,613757,0
2096921,2096921,181064,613706,0
2096921,2096921,181277,614175,0
2096921,2096921,181120,614280,0
2096921,2096921,181211,614015,0
2096921,2096921,181525,614244,0
2096921,2096921,181472,614350,0
2096921,2096921,181547,615027,0
2096921,2096921,181521,615045,0
2096921,2096921,181983,614979,0
2096921,2096921,181836,614855,0
2096921,2096921,181704,614680,0
2096921,2096921,182007,615260,0
2096921,2096921,182027,615429,0
2096921,2096921,181882,615697,0
2096921,2096921,182101,615711,0
2096921,2096921,182233,615694,0
2096921,2096921,182368,616104,0
2096921,2096921,182221,616131,0
2096921,2096921,182702,616376,0
2096921,2096921,182320,616229,0
2096921,2096921,182341,616254,0
2096921,2096921,182504,616452,0
2096921,2096921,182398,616801,0
2096921,2096921,182329,616888,0
2096921,2096921,182612,616817,0
2096921,2096921,182798,616837,0
2096921,2096921,182762,617293,0
2096921,2096921,182980,617510,0
2096921,2096921,182729,617454,0
2096921,2096921,182773,617425,0
2096921,2096921,182831,617844,0
2096921,2096921,182980,617720,0
2096921,2096921,183020,618201,0
2096921,2096921,183049,617910,0
2096921,2096921,183054,618196,0
2096921,2096921,182945,618111,0
2096921,2096921,183139,618630,0
2096921,2096921,183379,618661,0
2096921,2096921,183415,618440,0
2096921,2096921,183134,618390,0
2096921,2096921,183158,618803,0
2096921,2096921,183563,619146,0
2096921,2096921,183541,619195,0
2096921,2096921,183599,619107,0
2096921,2096921,183645,619286,0
2096921,2096921,183566,619201,0
2096921,2096921,183927,619723,0
2096921,2096921,183922,619933,0
2096921,2096921,183678,620132,0
2096921,2096921,183685,619737,0
2096921,2096921,183729,619822,0
2096921,2096921,184145,620137,0
2096921,2096921,184055,620322,0
2096921,2096921,184136,620381,0
2096921,2096921,184134,620456,0
2096921,2096921,184313,620341,0
2096921,2096921,184408,620921,0
2096921,2096921,184508,620710,0
2096921,2096921,184332,620628,0
2096921,2096921,184358,620713,0
2096921,2096921,184509,620751,0
2096921,2096921,184580,621145,0
2096921,2096921,184716,621122,0
2096921,2096921,184502,621264,0
2096921,2096921,184619,621192,0
2096921,2096921,184932,621492,0
2096921,2096921,184741,621798,0
2096921,2096921,184431,621795,0
2096921,2096921,184634,621765,0
2096921,2096921,184807,621859,0
2096921,2096921,184835,621904,0
2096921,2096921,184908,622077,0
2096921,2096921,184833,622315,0
2096921,2096921,184812,622039,0
2096921,2096921,185054,622082,0
2096921,2096921,184949,622442,0
2096921,2096921,185325,622708,0
2096921,2096921,185014,622751,0
2096921,2096921,185446,622594,0
2096921,2096921,185065,622898,0
2096921,2096921,185215,622943,0
2096921,2096921,185359,622872,0
2096921,2096921,185303,623191,0
2096921,2096921,185122,623219,0
2096921,2096921,185130,623165,0
2096921,2096921,185240,623216,0
2096921,2096921,185698,623795,0
2096921,2096921,185395,623495,0
2096921,2096921,185734,623488,0
2096921,2096921,185755,623579,0
2096921,2096921,185318,623648,0
2096921,2096921,185712,623704,0
2096921,2096921,185577,623549,0
2096921,2096921,185599,623695,0
2096921,2096921,185660,623621,0
2096921,2096921,185670,623893,0
2096921,2096921,185862,624224,0
2096921,2096921,185855,624380,0
2096921,2096921,186009,624334,0
2096921,2096921,185760,624388,0
2096921,2096921,185599,624402,0
2096921,2096921,185705,624490,0
2096921,2096921,186149,624599,0
2096921,2096921,185982,624625,0
2096921,2096921,185885,624375,0
2096921,2096921,186012,624411,0
2096921,2096921,186041,624852,0
2096921,2096921,186296,625176,0
2096921,2096921,186379,624780,0
2096921,2096921,186164,625092,0
2096921,2096921,186112,625402,0
2096921,2096921,186546,625482,0
2096921,2096921,186301,625700,0
2096921,2096921,186345,625323,0
2096921,2096921,186501,625423,0
2096921,2096921,186025,625369,0
2096921,2096921,186445,625790,0
2096921,2096921,186527,625852,0
2096921,2096921,186588,625583,0
2096921,2096921,186437,625725,0
2096921,2096921,186439,625755,0
2096921,2096921,186380,625789,0
2096921,2096921,186387,625887,0
2096921,2096921,186434,625876,0
2096921,2096921,186426,625757,0
2096921,2096921,186650,625918,0
2096921,2096921,186920,626068,0
2096921,2096921,186600,626082,0
2096921,2096921,186714,626204,0
2096921,2096921,186439,626101,0
2096921,2096921,186595,626289,0
2096921,2096921,186516,626017,0
2096921,2096921,186842,626430,0
2096921,2096921,186586,626165,0
2096921,2096921,186865,626547,0
2096921,2096921,186734,626067,0
2096921,2096921,186739,626573,0
2096921,2096921,186898,626463,0
2096921,2096921,186943,626599,0
2096921,2096921,187102,626597,0
2096921,2096921,186766,626479,0
2096921,2096921,186602,626694,0
2096921,2096921,186690,626918,0
2096921,2096921,186801,627010,0
2096921,2096921,186726,626697,0
2096921,2096921,186948,626614,0
2096921,2096921,187145,627021,0
2096921,2096921,187097,626808,0
2096921,2096921,187008,626882,0
2096921,2096921,187374,626991,0
2096921,2096921,187068,626906,0
2096921,2096921,187323,626757,0
2096921,2096921,186943,626888,0
2096921,2096921,186824,626831,0
2096921,2096921,186981,627001,0
2096921,2096921,187099,626956,0
2096921,2096921,187278,627073,0
2096921,2096921,187329,626848,0
2096921,2096921,187047,627078,0
2096921,2096921,186914,627201,0
2096921,2096921,186963,627361,0
2096921,2096921,187382,627414,0
2096921,2096921,187449,627235,0
2096921,2096921,187274,627031,0
2096921,2096921,187142,627355,0
2096921,2096921,187337,627339,0
2096921,2096921,187626,627379,0
2096921,2096921,187336,627638,0
2096921,2096921,187229,627512,0
2096921,2096921,187323,627533,0
2096921,2096921,187405,627333,0
2096921,2096921,187198,627816,0
2096921,2096921,187338,627537,0
2096921,2096921,187535,627634,0
2096921,2096921,187385,627492,0
2096921,2096921,187133,627328,0
2096921,2096921,187556,627791,0
2096921,2096921,187438,627689,0
2096921,2096921,187352,627750,0
2096921,2096921,187530,627456,0
2096921,2096921,187439,627632,0
2096921,2096921,187264,627592,0
2096921,2096921,187493,627571,0
2096921,2096921,187552,627390,0
2096921,2096921,187682,627621,0
2096921,2096921,187336,627690,0
2096921,2096921,187594,627893,0
2096921,2096921,187643,628119,0
2096921,2096921,187854,628025,0
2096921,2096921,187743,628085,0
2096921,2096921,187480,628034,0
2096921,2096921,187365,627855,0
2096921,2096921,187511,627917,0
2096921,2096921,187368,628090,0
2096921,2096921,187488,628036,0
2096921,2096921,187385,627888,0
2096921,2096921,187534,627992,0
2096921,2096921,187558,628058,0
2096921,2096921,187596,627861,0
2096921,2096921,187522,628443,0
2096921,2096921,187714,628200,0
2096921,2096921,187680,628064,0
2096921,2096921,187495,628271,0
2096921,2096921,187841,628377,0
2096921,2096921,187747,628157,0
2096921,2096921,187574,628068,0
2096921,2096921,187667,627944,0
2096921,2096921,187807,628354,0
2096921,2096921,187716,628312,0
2096921,2096921,187915,628079,0
2096921,2096921,187981,628286,0
2096921,2096921,187877,628108,0
2096921,2096921,187927,628473,0
2096921,2096921,187663,628373,0
2096921,2096921,187863,628211,0
2096921,2096921,187802,628430,0
2096921,2096921,187683,628352,0
2096921,2096921,187680,628201,0
2096921,2096921,187721,628464,0
2096921,2096921,187865,628195,0
2096921,2096921,187697,628439,0
2096921,2096921,187730,628298,0
2096921,2096921,187892,628153,0
2096921,2096921,187860,628125,0
2096921,2096921,187789,628281,0
2096921,2096921,187819,627965,0
2096921,2096921,187864,628184,0
2096921,2096921,188004,628309,0
2096921,2096921,187755,628251,0
2096921,2096921,187713,628258,0
2096921,2096921,187733,627971,0
2096921,2096921,187443,628297,0
2096921,2096921,187432,628330,0
2096921,2096921,187716,628215,0
2096921,2096921,187796,628501,0
2096921,2096921,187534,628159,0
2096921,2096921,187859,628384,0
2096921,2096921,187575,628421,0
2096921,2096921,187861,628158,0
2096921,2096921,187664,628289,0
2096921,2096921,187654,628546,0
2096921,2096921,187909,628121,0
2096921,2096921,187710,628351,0
2096921,2096921,187621,628066,0
2096921,2096921,188072,628438,0
2096921,2096921,187770,627931,0
2096921,2096921,187682,627957,0
2096921,2096921,187548,628029,0
2096921,2096921,187678,628382,0
2096921,2096921,187692,628020,0
2096921,2096921,187781,628404,0
2096921,2096921,187820,627954,0
2096921,2096921,187841,628174,0
2096921,2096921,187609,628036,0
2096921,2096921,187977,628293,0
2096921,2096921,187832,628159,0
2096921,2096921,187910,628104,0
2096921,2096921,187937,628299,0
2096921,2096921,187790,628313,0
2096921,2096921,187782,628225,0
2096921,2096921,187375,628453,0
2096921,2096921,187284,627792,0
2096921,2096921,187300,627719,0
2096921,2096921,187332,627513,0
2096921,2096921,187212,627758,0
2096921,2096921,187233,627633,0
2096921,2096921,187124,627144,0
2096921,2096921,187322,627153,0
2096921,2096921,187281,627063,0
2096921,2096921,187222,627200,0
2096921,2096921,187031,627153,0
2096921,2096921,187058,626559,0
2096921,2096921,186795,626478,0
2096921,2096921,186500,626396,0
2096921,2096921,186536,626444,0
2096921,2096921,186156,626411,0
2096921,2096921,186019,625435,0
2096921,2096921,186266,625184,0
2096921,2096921,186218,625227,0
2096921,2096921,186201,625394,0
2096921,2096921,185925,625067,0
2096921,2096921,185657,624081,0
2096921,2096921,185607,624116,0
2096921,2096921,185396,623868,0
2096921,2096921,185509,623847,0
2096921,2096921,184904,623682,0
2096921,2096921,184067,621569,0
2096921,2096921,184322,621013,0
2096921,2096921,184212,621260,0
2096921,2096921,183891,621170,0
2096921,2096921,183415,621320,0
2096921,2096921,182547,618374,0
2096921,2096921,182238,617829,0
2096921,2096921,181971,617573,0
2096921,2096921,182095,617809,0
2096921,2096921,181960,617504,0
2096921,2096921,181329,616067,0
2096921,2096921,181116,615405,0
2096921,2096921,180985,615402,0
2096921,2096921,180738,615280,0
2096921,2096921,180117,615459,0
2096921,2096921,179770,613748,0
2096921,2096921,179619,613392,0
2096921,2096921,179775,613112,0
2096921,2096921,179574,613226,0
2096921,2096921,179623,613085,0
2096921,2096921,179113,612135,0
2096921,2096921,179143,611732,0
2096921,2096921,178934,612259,0
2096921,2096921,179133,612050,0
2096921,2096921,178883,611829,0
2096921,2096921,178720,611053,0
2096921,2096921,178388,610951,0
2096921,2096921,178364,610624,0
2096921,2096921,178180,610875,0
2096921,2096921,178423,610744,0
2096921,2096921,178014,610135,0
2096921,2096921,178016,609926,0
2096921,2096921,178240,610045,0
2096921,2096921,178528,610139,0
2096921,2096921,178330,610002,0
2096921,2096921,177952,609736,0
2096921,2096921,177917,609849,0
2096921,2096921,177770,609674,0
2096921,2096921,177819,609503,0
2096921,2096921,177785,609399,0
2096921,2096921,177702,609391,0
2096921,2096921,177660,609440,0
2096921,2096921,177719,609730,0
2096921,2096921,177696,609673,0
2096921,2096921,177870,609517,0
2096921,2096921,177626,609441,0
2096921,2096921,177538,609214,0
2096921,2096921,177770,608952,0
2096921,2096921,177408,609295,0
2096921,2096921,177575,609210,0
2096921,2096921,177923,609631,0
2096921,2096921,177989,609151,0
2096921,2096921,177878,609715,0
2096921,2096921,177734,609487,0
2096921,2096921,177895,609637,0
2096921,2096921,178255,609698,0
2096921,2096921,178077,609919,0
2096921,2096921,177908,609584,0
2096921,2096921,178229,609739,0
2096921,2096921,178333,609728,0
2096921,2096921,178146,609766,0
2096921,2096921,178198,609572,0
2096921,2096921,178092,609752,0
2096921,2096921,178296,609701,0
2096921,2096921,178039,609701,0
2096921,2096921,178535,609763,0
2096921,2096921,178266,610042,0
2096921,2096921,178085,610048,0
2096921,2096921,178017,610264,0
2096921,2096921,178219,610270,0
2096921,2096921,178310,610702,0
2096921,2096921,178673,610575,0
2096921,2096921,178682,610396,0
2096921,2096921,178766,610587,0
2096921,2096921,178526,610450,0
2096921,2096921,178761,610945,0
2096921,2096921,178494,611077,0
2096921,2096921,178968,611125,0
2096921,2096921,178635,610906,0
2096921,2096921,178788,610979,0
2096921,2096921,179002,611478,0
2096921,2096921,178921,611394,0
2096921,2096921,179091,611522,0
2096921,2096921,179095,611651,0
2096921,2096921,179220,611470,0
2096921,2096921,179306,611788,0
2096921,2096921,179486,611840,0
2096921,2096921,179469,611775,0
2096921,2096921,179467,611834,0
2096921,2096921,179483,612103,0
2096921,2096921,179568,612037,0
2096921,2096921,179651,612188,0
2096921,2096921,179660,612199,0
2096921,2096921,179594,612015,0
2096921,2096921,179697,612022,0
2096921,2096921,179835,612664,0
2096921,2096921,179814,612778,0
2096921,2096921,179887,612511,0
2096921,2096921,179796,612722,0
2096921,2096921,180188,612788,0
2096921,2096921,180006,612998,0
2096921,2096921,179969,613114,0
2096921,2096921,180207,613302,0
2096921,2096921,180010,613133,0
2096921,2096921,180045,613011,0
2096921,2096921,180365,613064,0
2096921,2096921,180311,613250,0
2096921,2096921,180224,613550,0
2096921,2096921,180347,613154,0
2096921,2096921,180538,613529,0
2096921,2096921,180531,614008,0
2096921,2096921,180769,614150,0
2096921,2096921,180741,613897,0
2096921,2096921,180769,614064,0
2096921,2096921,180484,614356,0
2096921,2096921,180901,614451,0
2096921,2096921,180514,614253,0
2096921,2096921,180624,614496,0
2096921,2096921,181028,614167,0
2096921,2096921,181097,614585,0
2096921,2096921,180910,614820,0
2096921,2096921,181427,614496,0
2096921,2096921,181298,615003,0
2096921,2096921,181428,614964,0
2096921,2096921,181370,614740,0
2096921,2096921,181476,615168,0
2096921,2096921,181221,615228,0
2096921,2096921,181170,614821,0
2096921,2096921,181264,614944,0
2096921,2096921,181690,615098,0
2096921,2096921,181627,615420,0
2096921,2096921,181665,615755,0
2096921,2096921,181889,614915,0
2096921,2096921,181800,615216,0
2096921,2096921,181468,615253,0
2096921,2096921,181548,615317,0
2096921,2096921,181470,615534,0
2096921,2096921,181352,615470,0
2096921,2096921,181604,615555,0
2096921,2096921,181756,615741,0
2096921,2096921,181416,615683,0
2096921,2096921,181467,615793,0
2096921,2096921,181402,615192,0
2096921,2096921,181499,615517,0
2096921,2096921,181733,615775,0
2096921,2096921,181598,615236,0
2096921,2096921,181448,615006,0
2096921,2096921,181510,615045,0
2096921,2096921,181585,615135,0
2096921,2096921,181603,615395,0
2096921,2096921,181582,615199,0
2096921,2096921,181440,614843,0
2096921,2096921,181545,614908,0
2096921,2096921,181423,615343,0
2096921,2096921,181555,614966,0
2096921,2096921,181346,614647,0
2096921,2096921,181547,614912,0
2096921,2096921,181593,614631,0
2096921,2096921,181796,614732,0
2096921,2096921,181658,614735,0
2096921,2096921,181384,614718,0
2096921,2096921,181135,614200,0
2096921,2096921,181201,614498,0
2096921,2096921,181329,614718,0
2096921,2096921,181368,614541,0
2096921,2096921,181245,613927,0
2096921,2096921,181201,613953,0
2096921,2096921,181345,613742,0
2096921,2096921,181222,613800,0
2096921,2096921,181078,614034,0
2096921,2096921,180795,613619,0
2096921,2096921,181072,613550,0
2096921,2096921,180961,613676,0
2096921,2096921,180945,613466,0
2096921,2096921,180978,613561,0
2096921,2096921,180904,613066,0
2096921,2096921,180716,612920,0
2096921,2096921,180939,613124,0
2096921,2096921,180597,612738,0
2096921,2096921,180989,612973,0
2096921,2096921,180766,612706,0
2096921,2096921,180770,612512,0
2096921,2096921,180464,612686,0
2096921,2096921,180694,612378,0
2096921,2096921,180688,612305,0
2096921,2096921,180502,611780,0
2096921,2096921,180170,611873,0
2096921,2096921,180354,612346,0
2096921,2096921,180208,612139,0
2096921,2096921,180454,612234,0
2096921,2096921,180489,611977,0
2096921,2096921,180464,611846,0
2096921,2096921,180416,611781,0
2096921,2096921,180499,611814,0
2096921,2096921,180297,611720,0
2096921,2096921,180396,611481,0
2096921,2096921,180323,611568,0
2096921,2096921,180242,611344,0
2096921,2096921,180321,611675,0
2096921,2096921,180437,611494,0
2096921,2096921,180292,611526,0
2096921,2096921,180542,611415,0
2096921,2096921,180438,611221,0
2096921,2096921,180358,611279,0
2096921,2096921,180265,611176,0
2096921,2096921,180468,611282,0
2096921,2096921,180310,611319,0
2096921,2096921,180481,611458,0
2096921,2096921,180322,611334,0
2096921,2096921,180424,611013,0
2096921,2096921,180282,611237,0
2096921,2096921,180551,611559,0
2096921,2096921,180453,611586,0
2096921,2096921,180755,611531,0
2096921,2096921,180501,611520,0
2096921,2096921,180772,611537,0
2096921,2096921,180811,611447,0
2096921,2096921,180522,611267,0
2096921,2096921,180331,611374,0
2096921,2096921,180547,611369,0
2096921,2096921,180552,611642,0
2096921,2096921,180816,611485,0
2096921,2096921,180764,611226,0
2096921,2096921,180686,611466,0
2096921,2096921,180525,611576,0
2096921,2096921,180646,611302,0
2096921,2096921,180886,611446,0
2096921,2096921,180976,611283,0
2096921,2096921,180631,611247,0
2096921,2096921,180883,611422,0
2096921,2096921,180794,611586,0
2096921,2096921,180936,611659,0
2096921,2096921,180800,611567,0
2096921,2096921,180898,611618,0
2096921,2096921,180706,611472,0
2096921,2096921,180751,611378,0
2096921,2096921,180795,611457,0
2096921,2096921,181180,611786,0
2096921,2096921,180890,611708,0
2096921,2096921,181091,611563,0
2096921,2096921,181126,611473,0
2096921,2096921,181108,611573,0
2096921,2096921,180971,611265,0
2096921,2096921,181226,611417,0
2096921,2096921,181169,611259,0
2096921,2096921,181079,611463,0
2096921,2096921,180798,611552,0
2096921,2096921,181150,611494,0
2096921,2096921,181209,611210,0
2096921,2096921,181220,611231,0
2096921,2096921,181106,611364,0
2096921,2096921,181171,611651,0
2096921,2096921,181312,611683,0
2096921,2096921,181103,611588,0
2096921,2096921,181035,611777,0
2096921,2096921,181261,611390,0
2096921,2096921,181249,611424,0
2096921,2096921,181522,611569,0
2096921,2096921,181445,611418,0
2096921,2096921,181299,611507,0
2096921,2096921,181333,611286,0
2096921,2096921,181461,611238,0
2096921,2096921,181490,611359,0
2096921,2096921,181338,611701,0
2096921,2096921,181308,611573,0
2096921,2096921,181045,611452,0
2096921,2096921,181095,611224,0
2096921,2096921,181401,611248,0
2096921,2096921,181718,611184,0
2096921,2096921,181399,611203,0
2096921,2096921,181389,611384,0
2096921,2096921,181541,611561,0
2096921,2096921,181452,611152,0
2096921,2096921,181346,611395,0
2096921,2096921,181546,611232,0
2096921,2096921,181588,611049,0
2096921,2096921,181130,611139,0
2096921,2096921,181297,611189,0
2096921,2096921,181496,611122,0
2096921,2096921,181648,611307,0
2096921,2096921,181410,611397,0
2096921,2096921,181507,611184,0
2096921,2096921,181451,611152,0
2096921,2096921,181722,611154,0
2096921,2096921,181415,611220,0
2096921,2096921,181471,610987,0
2096921,2096921,181514,610890,0
2096921,2096921,181589,610909,0
2096921,2096921,181564,610883,0
2096921,2096921,181708,610886,0
2096921,2096921,181647,610997,0
2096921,2096921,181529,611171,0
2096921,2096921,181294,611140,0
2096921,2096921,181665,610779,0
2096921,2096921,181553,611153,0
2096921,2096921,181631,610816,0
2096921,2096921,181411,611061,0
2096921,2096921,181611,611111,0
2096921,2096921,181392,610764,0
2096921,2096921,181733,610692,0
2096921,2096921,181378,610349,0
2096921,2096921,181637,610600,0
2096921,2096921,181359,610691,0
2096921,2096921,181672,610627,0
2096921,2096921,181614,610373,0
2096921,2096921,181572,610328,0
2096921,2096921,181573,610230,0
2096921,2096921,181493,610400,0
2096921,2096921,181596,610852,0
2096921,2096921,181767,610660,0
2096921,2096921,181399,610474,0
2096921,2096921,181940,610247,0
2096921,2096921,181245,610391,0
2096921,2096921,181537,610024,0
2096921,2096921,181717,609935,0
2096921,2096921,181484,609940,0
2096921,2096921,181395,609766,0
2096921,2096921,181505,610011,0
2096921,2096921,181641,609901,0
2096921,2096921,181634,610023,0
2096921,2096921,181709,609929,0
2096921,2096921,181699,610180,0
2096921,2096921,181585,609962,0
2096921,2096921,181524,609961,0
2096921,2096921,181840,610189,0
2096921,2096921,181635,609697,0
2096921,2096921,181389,609953,0
2096921,2096921,181429,610043,0
2096921,2096921,181708,610013,0
2096921,2096921,181667,609645,0
2096921,2096921,181529,609665,0
2096921,2096921,181702,609641,0
2096921,2096921,181454,609651,0
2096921,2096921,181716,609621,0
2096921,2096921,181642,609517,0
2096921,2096921,181361,609366,0
2096921,2096921,181197,609540,0
2096921,2096921,181338,609404,0
2096921,2096921,181376,609358,0
2096921,2096921,181609,609211,0
2096921,2096921,181481,609243,0
2096921,2096921,181472,609075,0
2096921,2096921,181247,609091,0
2096921,2096921,181755,609290,0
2096921,2096921,181102,609267,0
2096921,2096921,181240,608600,0
2096921,2096921,181228,608489,0
2096921,2096921,181434,608545,0
2096921,2096921,181123,608590,0
2096921,2096921,181317,608931,0
2096921,2096921,181448,608778,0
2096921,2096921,181353,608556,0
2096921,2096921,181347,608730,0
2096921,2096921,181383,608570,0
2096921,2096921,181710,608387,0
2096921,2096921,181716,608324,0
2096921,2096921,181416,608172,0
2096921,2096921,181075,608306,0
2096921,2096921,181062,608371,0
2096921,2096921,181256,608374,0
2096921,2096921,181207,608040,0
2096921,2096921,181220,608183,0
2096921,2096921,181079,608119,0
2096921,2096921,181363,608008,0
2096921,2096921,181363,608173,0
2096921,2096921,181499,607846,0
2096921,2096921,181096,607670,0
2096921,2096921,181144,607787,0
2096921,2096921,181220,607789,0
2096921,2096921,181278,607844,0
2096921,2096921,180906,607774,0
2096921,2096921,181226,607666,0
2096921,2096921,181177,607673,0
2096921,2096921,181123,607466,0
2096921,2096921,181107,607626,0
2096921,2096921,181046,607444,0
2096921,2096921,181012,607021,0
2096921,2096921,180837,607126,0
2096921,2096921,180940,607050,0
2096921,2096921,180957,607191,0
2096921,2096921,180749,607421,0
2096921,2096921,181178,607541,0
2096921,2096921,181091,607542,0
2096921,2096921,181109,607488,0
2096921,2096921,181038,607242,0
2096921,2096921,181018,606945,0
2096921,2096921,181040,607129,0
2096921,2096921,181125,606942,0
2096921,2096921,181123,607050,0
2096921,2096921,181410,607072,0
2096921,2096921,180886,606853,0
2096921,2096921,180975,606832,0
2096921,2096921,181046,606852,0
2096921,2096921,180988,606765,0
2096921,2096921,181173,606938,0
2096921,2096921,181252,606649,0
2096921,2096921,181047,606838,0
2096921,2096921,181109,606404,0
2096921,2096921,181150,606755,0
2096921,2096921,181120,606765,0
2096921,2096921,180841,606534,0
2096921,2096921,180820,606323,0
2096921,2096921,180889,606737,0
2096921,2096921,180908,606562,0
2096921,2096921,180956,606478,0
2096921,2096921,180706,605919,0
2096921,2096921,180731,605909,0
2096921,2096921,180860,605714,0
2096921,2096921,180650,605707,0
2096921,2096921,180666,605831,0
2096921,2096921,180892,605976,0
2096921,2096921,180504,605896,0
2096921,2096921,180641,605737,0
2096921,2096921,180648,605830,0
2096921,2096921,180557,605589,0
2096921,2096921,180665,605479,0
2096921,2096921,180594,605469,0
2096921,2096921,180403,605382,0
2096921,2096921,180472,605499,0
2096921,2096921,180538,605653,0
2096921,2096921,180406,605436,0
2096921,2096921,180845,605049,0
2096921,2096921,180820,605002,0
2096921,2096921,180787,605141,0
2096921,2096921,180841,605127,0
2096921,2096921,180623,604930,0
2096921,2096921,180334,605151,0
2096921,2096921,180517,604682,0
2096921,2096921,180310,605206,0
2096921,2096921,180468,604925,0
2096921,2096921,180185,604848,0
2096921,2096921,180399,604612,0
2096921,2096921,180547,604663,0
2096921,2096921,180393,604512,0
2096921,2096921,180421,604446,0
2096921,2096921,180381,604307,0
2096921,2096921,180373,603978,0
2096921,2096921,180312,604134,0
2096921,2096921,180239,604122,0
2096921,2096921,180289,604247,0
2096921,2096921,180121,603944,0
2096921,2096921,180354,603902,0
2096921,2096921,180149,603834,0
2096921,2096921,180443,603821,0
2096921,2096921,180005,603703,0
2096921,2096921,179896,603485,0
2096921,2096921,180084,603519,0
2096921,2096921,180237,603524,0
2096921,2096921,180159,603563,0
2096921,2096921,180300,603436,0
2096921,2096921,179954,603290,0
2096921,2096921,180053,603236,0
2096921,2096921,179784,603417,0
2096921,2096921,179827,603391,0
2096921,2096921,179771,603063,0
2096921,2096921,180087,602745,0
2096921,2096921,179853,602819,0
2096921,2096921,179987,602522,0
2096921,2096921,179996,602797,0
2096921,2096921,179887,602887,0
2096921,2096921,179351,602709,0
2096921,2096921,179688,602880,0
2096921,2096921,179873,602848,0
2096921,2096921,180007,602810,0
2096921,2096921,179634,602574,0
2096921,2096921,179686,602141,0
2096921,2096921,179618,602319,0
2096921,2096921,179770,602362,0
2096921,2096921,179474,602173,0
2096921,2096921,179792,602408,0
2096921,2096921,179573,602335,0
2096921,2096921,179804,602251,0
2096921,2096921,179626,602155,0
2096921,2096921,180021,602314,0
2096921,2096921,179621,602244,0
2096921,2096921,179321,601523,0
2096921,2096921,179007,601137,0
2096921,2096921,178997,601276,0
2096921,2096921,179297,601244,0
2096921,2096921,178971,601258,0
2096921,2096921,179103,600630,0
2096921,2096921,179151,600466,0
2096921,2096921,179050,600188,0
2096921,2096921,178990,600268,0
2096921,2096921,178914,600234,0
2096921,2096921,178823,599532,0
2096921,2096921,178414,599197,0
2096921,2096921,178255,599432,0
2096921,2096921,178259,599376,0
2096921,2096921,178197,599313,0
2096921,2096921,177749,598309,0
2096921,2096921,177729,598114,0
2096921,2096921,177495,598165,0
2096921,2096921,177574,598127,0
2096921,2096921,177324,597927,0
2096921,2096921,177186,596882,0
2096921,2096921,176740,596580,0
2096921,2096921,176730,596459,0
2096921,2096921,177013,596453,0
2096921,2096921,176751,596567,0
2096921,2096921,175784,593992,0
2096921,2096921,175705,593562,0
2096921,2096921,175530,593813,0
2096921,2096921,175749,593992,0
2096921,2096921,174803,593810,0
2096921,2096921,174175,590952,0
2096921,2096921,173795,589902,0
2096921,2096921,173461,590043,0
2096921,2096921,173606,589784,0
2096921,2096921,173131,589987,0
2096921,2096921,172401,587997,0
2096921,2096921,172516,587500,0
2096921,2096921,172413,587651,0
2096921,2096921,172355,587609,0
2096921,2096921,172000,587503,0
2096921,2096921,171603,585728,0
2096921,2096921,171303,585644,0
2096921,2096921,171225,585511,0
2096921,2096921,171396,585626,0
2096921,2096921,171307,585536,0
2096921,2096921,170708,584447,0
2096921,2096921,170681,583889,0
2096921,2096921,170645,583978,0
2096921,2096921,170524,583836,0
2096921,2096921,170338,583972,0
2096921,2096921,169961,582746,0
2096921,2096921,169916,582828,0
2096921,2096921,170181,582625,0
2096921,2096921,169894,582497,0
2096921,2096921,169862,582412,0
2096921,2096921,169664,582224,0
2096921,2096921,169437,581920,0
2096921,2096921,169390,581849,0
2096921,2096921,169511,581964,0
2096921,2096921,169229,581755,0
2096921,2096921,169212,581131,0
2096921,2096921,169152,581151,0
2096921,2096921,169172,581201,0
2096921,2096921,169131,581423,0
2096921,2096921,169346,581161,0
2096921,2096921,169244,581071,0
2096921,2096921,169175,580768,0
2096921,2096921,169147,580886,0
2096921,2096921,169423,581157,0
2096921,2096921,169225,581175,0
2096921,2096921,169025,580521,0
2096921,2096921,169068,580634,0
2096921,2096921,169064,580712,0
2096921,2096921,169126,580705,0
2096921,2096921,169227,580773,0
2096921,2096921,169263,580666,0
2096921,2096921,169419,580951,0
2096921,2096921,169080,581290,0
2096921,2096921,169335,581068,0
2096921,2096921,169337,580733,0
2096921,2096921,169393,580902,0
2096921,2096921,169394,580616,0
2096921,2096921,169114,580715,0
2096921,2096921,168991,580656,0
2096921,2096921,169329,580879,0
2096921,2096921,169380,580566,0
2096921,2096921,169208,580790,0
2096921,2096921,169271,580877,0
2096921,2096921,169383,580710,0
2096921,2096921,169620,580740,0
2096921,2096921,169373,581385,0
2096921,2096921,169391,581385,0
2096921,2096921,169298,581132,0
2096921,2096921,169516,581546,0
2096921,2096921,169652,581339,0
2096921,2096921,169619,581666,0
2096921,2096921,169966,581530,0
2096921,2096921,169926,581757,0
2096921,2096921,169664,581654,0
2096921,2096921,169859,581790,0
2096921,2096921,169916,581790,0
2096921,2096921,169731,581920,0
2096921,2096921,169931,581688,0
2096921,2096921,170018,582001,0
2096921,2096921,170346,582027,0
2096921,2096921,170145,582323,0
2096921,2096921,170228,582535,0
2096921,2096921,170314,582570,0
2096921,2096921,170319,582595,0
2096921,2096921,170569,582459,0
2096921,2096921,170544,583033,0
2096921,2096921,170438,583179,0
2096921,2096921,170399,583151,0
2096921,2096921,170700,582944,0
2096921,2096921,170888,582810,0
2096921,2096921,170844,583290,0
2096921,2096921,170761,583248,0
2096921,2096921,170783,583415,0
2096921,2096921,170792,583276,0
2096921,2096921,170853,583259,0
2096921,2096921,170729,583438,0
2096921,2096921,170587,583858,0
2096921,2096921,170991,583636,0
2096921,2096921,171305,583953,0
2096921,2096921,171227,583975,0
2096921,2096921,171334,584055,0
2096921,2096921,171254,584294,0
2096921,2096921,171301,584357,0
2096921,2096921,171960,584527,0
2096921,2096921,171349,584444,0
2096921,2096921,171717,584524,0
2096921,2096921,171329,584779,0
2096921,2096921,171508,584971,0
2096921,2096921,171416,585005,0
2096921,2096921,171532,584854,0
2096921,2096921,171694,585175,0
2096921,2096921,171845,585368,0
2096921,2096921,171859,585232,0
2096921,2096921,171708,585507,0
2096921,2096921,172172,585585,0
2096921,2096921,172145,585827,0
2096921,2096921,172237,585835,0
2096921,2096921,172203,586006,0
2096921,2096921,172222,585902,0
2096921,2096921,172395,585984,0
2096921,2096921,172556,586637,0
2096921,2096921,172641,586581,0
2096921,2096921,172339,586601,0
2096921,2096921,172175,586531,0
2096921,2096921,172470,586538,0
2096921,2096921,172610,586899,0
2096921,2096921,172737,586998,0
2096921,2096921,172786,586963,0
2096921,2096921,172727,587088,0
2096921,2096921,172785,586790,0
2096921,2096921,172892,587230,0
2096921,2096921,172883,587381,0
2096921,2096921,172871,587534,0
2096921,2096921,173043,587395,0
2096921,2096921,173009,587216,0
2096921,2096921,173065,587553,0
2096921,2096921,173011,587832,0
2096921,2096921,173107,587554,0
2096921,2096921,173295,587600,0
2096921,2096921,173068,587761,0
2096921,2096921,173011,587754,0
2096921,2096921,173378,588005,0
2096921,2096921,173455,587828,0
2096921,2096921,173583,588008,0
2096921,2096921,173252,588074,0
2096921,2096921,173306,588229,0
2096921,2096921,173229,588166,0
2096921,2096921,173447,588042,0
2096921,2096921,173404,587861,0
2096921,2096921,173262,587911,0
2096921,2096921,173182,587908,0
2096921,2096921,173283,588230,0
2096921,2096921,173548,588159,0
2096921,2096921,173461,588119,0
2096921,2096921,173218,588029,0
2096921,2096921,173157,587878,0
2096921,2096921,173510,588096,0
2096921,2096921,173069,587980,0
2096921,2096921,173296,588114,0
2096921,2096921,173561,588294,0
2096921,2096921,173240,587941,0
2096921,2096921,173247,587941,0
2096921,2096921,172872,588043,0
2096921,2096921,173561,587864,0
2096921,2096921,172997,588158,0
2096921,2096921,173309,587728,0
2096921,2096921,173096,587654,0
2096921,2096921,173296,587897,0
2096921,2096921,173179,587953,0
2096921,2096921,173310,587673,0
2096921,2096921,173252,587658,0
2096921,2096921,173321,587539,0
2096921,2096921,173225,587126,0
2096921,2096921,173026,587618,0
2096921,2096921,172823,587438,0
2096921,2096921,172981,587553,0
2096921,2096921,173035,587381,0
2096921,2096921,173057,587171,0
2096921,2096921,172974,587367,0
2096921,2096921,172776,587559,0
2096921,2096921,172836,587148,0
2096921,2096921,172955,587013,0
2096921,2096921,172877,587241,0
2096921,2096921,172844,587430,0
2096921,2096921,173054,587300,0
2096921,2096921,172902,587125,0
2096921,2096921,172838,587148,0
2096921,2096921,172964,587234,0
2096921,2096921,172702,587230,0
2096921,2096921,172778,587105,0
2096921,2096921,173052,587332,0
2096921,2096921,172847,587233,0
2096921,2096921,172908,587616,0
2096921,2096921,172693,587212,0
2096921,2096921,172565,587057,0
2096921,2096921,172710,587303,0
2096921,2096921,172918,587216,0
2096921,2096921,173069,586826,0
2096921,2096921,172658,586928,0
2096921,2096921,172749,587295,0
2096921,2096921,172911,587350,0
2096921,2096921,173067,587246,0
2096921,2096921,173084,587372,0
2096921,2096921,173086,587022,0
2096921,2096921,172862,587211,0
2096921,2096921,172902,587547,0
2096921,2096921,172854,587470,0
2096921,2096921,172730,587475,0
2096921,2096921,172943,587531,0
2096921,2096921,173050,587351,0
2096921,2096921,173230,587867,0
2096921,2096921,173058,587844,0
2096921,2096921,173231,587928,0
2096921,2096921,173306,587945,0
2096921,2096921,173548,587890,0
2096921,2096921,173526,588235,0
2096921,2096921,173475,588170,0
2096921,2096921,173508,588461,0
2096921,2096921,173562,588244,0
2096921,2096921,173461,588257,0
2096921,2096921,173642,588784,0
2096921,2096921,173870,588653,0
2096921,2096921,173807,588982,0
2096921,2096921,173925,588565,0
2096921,2096921,173912,588460,0
2096921,2096921,173962,589104,0
2096921,2096921,174016,589104,0
2096921,2096921,173942,589293,0
2096921,2096921,173826,589255,0
2096921,2096921,174225,589263,0
2096921,2096921,174288,589464,0
2096921,2096921,174300,589437,0
2096921,2096921,174005,589621,0
2096921,2096921,174243,589579,0
2096921,2096921,174096,589677,0
2096921,2096921,174491,589572,0
2096921,2096921,174393,589497,0
2096921,2096921,174210,589674,0
2096921,2096921,173932,589655,0
2096921,2096921,174506,589569,0
2096921,2096921,174181,589994,0
2096921,2096921,174502,590249,0
2096921,2096921,174369,590023,0
2096921,2096921,174458,590234,0
2096921,2096921,174226,590011,0
2096921,2096921,174407,590420,0
2096921,2096921,174332,590563,0
2096921,2096921,174518,590645,0
2096921,2096921,174469,590462,0
2096921,2096921,174631,590601,0
2096921,2096921,174710,590841,0
2096921,2096921,174792,590758,0
2096921,2096921,174865,590902,0
2096921,2096921,174843,591235,0
2096921,2096921,174401,591133,0
2096921,2096921,174886,591509,0
2096921,2096921,175015,591310,0
2096921,2096921,174841,590999,0
2096921,2096921,175002,590967,0
2096921,2096921,174995,591107,0
2096921,2096921,175164,591543,0
2096921,2096921,175381,591684,0
2096921,2096921,175386,591628,0
2096921,2096921,175304,591311,0
2096921,2096921,175295,591597,0
2096921,2096921,175641,591462,0
2096921,2096921,175319,591787,0
2096921,2096921,175351,591582,0
2096921,2096921,175119,591655,0
2096921,2096921,175347,591645,0
2096921,2096921,175457,591763,0
2096921,2096921,175314,591892,0
2096921,2096921,175349,591971,0
2096921,2096921,175449,592007,0
2096921,2096921,175303,591720,0
2096921,2096921,175614,592163,0
2096921,2096921,175410,592185,0
2096921,2096921,175523,592295,0
2096921,2096921,175460,592362,0
2096921,2096921,175518,592259,0
2096921,2096921,175830,592873,0
2096921,2096921,175700,592707,0
2096921,2096921,176006,592641,0
2096921,2096921,175897,592401,0
2096921,2096921,175772,592522,0
2096921,2096921,175726,592695,0
2096921,2096921,175948,592847,0
2096921,2096921,175778,592929,0
2096921,2096921,176019,593071,0
2096921,2096921,176145,592978,0
2096921,2096921,176282,593551,0
2096921,2096921,176428,593472,0
2096921,2096921,176371,593634,0
2096921,2096921,176427,593395,0
2096921,2096921,176266,593362,0
2096921,2096921,176422,593487,0
2096921,2096921,176412,593898,0
2096921,2096921,176250,593794,0
2096921,2096921,176291,593655,0
2096921,2096921,176212,593506,0
2096921,2096921,176506,593837,0
2096921,2096921,176233,594044,0
2096921,2096921,176404,594011,0
2096921,2096921,176697,594214,0
2096921,2096921,176531,593814,0
2096921,2096921,176531,594191,0
2096921,2096921,176728,594083,0
2096921,2096921,176725,594254,0
2096921,2096921,176935,594272,0
2096921,2096921,176304,594346,0
2096921,2096921,176376,594465,0
2096921,2096921,176624,594677,0
2096921,2096921,176827,594745,0
2096921,2096921,176692,594753,0
2096921,2096921,176611,594830,0
2096921,2096921,176531,594842,0
2096921,2096921,176586,594884,0
2096921,2096921,176724,594822,0
2096921,2096921,176719,594932,0
2096921,2096921,176892,594766,0
2096921,2096921,176839,594939,0
2096921,2096921,176960,595160,0
2096921,2096921,176932,595093,0
2096921,2096921,177145,595219,0
2096921,2096921,177057,595538,0
2096921,2096921,177126,595654,0
2096921,2096921,177290,595567,0
2096921,2096921,177114,595730,0
2096921,2096921,176956,595575,0
2096921,2096921,177253,595741,0
2096921,2096921,177063,595987,0
2096921,2096921,177281,595793,0
2096921,2096921,177248,595639,0
2096921,2096921,177407,595894,0
2096921,2096921,177198,595890,0
2096921,2096921,177343,596004,0
2096921,2096921,177352,596004,0
2096921,2096921,177660,596025,0
2096921,2096921,177395,596024,0
2096921,2096921,177750,596281,0
2096921,2096921,177251,596600,0
2096921,2096921,177085,596564,0
2096921,2096921,177558,596570,0
2096921,2096921,177657,596565,0
2096921,2096921,177542,596519,0
2096921,2096921,177526,596458,0
2096921,2096921,177661,596577,0
2096921,2096921,177497,596753,0
2096921,2096921,177627,596694,0
2096921,2096921,178008,596802,0
2096921,2096921,177930,597141,0
2096921,2096921,177812,597012,0
2096921,2096921,177882,597211,0
2096921,2096921,177820,597090,0
2096921,2096921,177724,597136,0
2096921,2096921,177928,597461,0
2096921,2096921,177862,597363,0
2096921,2096921,178087,597482,0
2096921,2096921,177984,597258,0
2096921,2096921,178082,597275,0
2096921,2096921,177896,597515,0
2096921,2096921,177930,597632,0
2096921,2096921,177555,597449,0
2096921,2096921,177823,597661,0
2096921,2096921,177947,597631,0
2096921,2096921,177922,597836,0
2096921,2096921,177934,597558,0
2096921,2096921,177675,597866,0
2096921,2096921,177915,597940,0
2096921,2096921,178254,597970,0
2096921,2096921,177982,598283,0
2096921,2096921,178241,598690,0
2096921,2096921,178429,598260,0
2096921,2096921,178166,598319,0
2096921,2096921,178111,598153,0
2096921,2096921,178068,598606,0
2096921,2096921,178263,598486,0
2096921,2096921,178213,598553,0
2096921,2096921,178405,598445,0
2096921,2096921,178427,598497,0
2096921,2096921,178704,598718,0
2096921,2096921,178334,599294,0
2096921,2096921,178613,598952,0
2096921,2096921,178436,598952,0
2096921,2096921,178514,598732,0
2096921,2096921,178400,599076,0
2096921,2096921,178697,599095,0
2096921,2096921,178464,599196,0
2096921,2096921,178661,599176,0
2096921,2096921,178535,599293,0
2096921,2096921,178610,599514,0
2096921,2096921,178799,599551,0
2096921,2096921,178736,599502,0
2096921,2096921,178415,599719,0
2096921,2096921,178869,599657,0
2096921,2096921,178797,599909,0
2096921,2096921,179094,599903,0
2096921,2096921,178995,599932,0
2096921,2096921,178855,600022,0
2096921,2096921,178927,599943,0
2096921,2096921,178780,600207,0
2096921,2096921,178861,600287,0
2096921,2096921,179006,600237,0
2096921,2096921,179134,600504,0
2096921,2096921,178812,600485,0
2096921,2096921,179094,600625,0
2096921,2096921,179041,600787,0
2096921,2096921,179237,600741,0
2096921,2096921,178901,600473,0
2096921,2096921,179229,600830,0
2096921,2096921,179134,601003,0
2096921,2096921,179305,601091,0
2096921,2096921,179210,600851,0
2096921,2096921,178918,601073,0
2096921,2096921,179114,601089,0
2096921,2096921,179205,601363,0
2096921,2096921,179174,601083,0
2096921,2096921,179179,601238,0
2096921,2096921,179366,601261,0
2096921,2096921,179354,601364,0
2096921,2096921,179840,601660,0
2096921,2096921,179521,601683,0
2096921,2096921,179604,601437,0
2096921,2096921,179637,601577,0
2096921,2096921,179542,601700,0
2096921,2096921,179517,601961,0
2096921,2096921,179736,601945,0
2096921,2096921,179795,601984,0
2096921,2096921,179662,602020,0
2096921,2096921,179457,601901,0
2096921,2096921,179736,601927,0
2096921,2096921,179840,602060,0
2096921,2096921,179861,602019,0
2096921,2096921,179613,602639,0
2096921,2096921,179744,602584,0
2096921,2096921,179758,602512,0
2096921,2096921,179759,602604,0
2096921,2096921,179747,602822,0
2096921,2096921,179896,602757,0
2096921,2096921,179811,602556,0
2096921,2096921,179876,602865,0
2096921,2096921,179808,603199,0
2096921,2096921,180047,602723,0
2096921,2096921,179914,602572,0
2096921,2096921,179657,603078,0
2096921,2096921,179960,603245,0
2096921,2096921,179668,603198,0
2096921,2096921,179806,603110,0
2096921,2096921,179750,603273,0
2096921,2096921,180046,602996,0
2096921,2096921,179874,603512,0
2096921,2096921,180342,603404,0
2096921,2096921,179968,603201,0
2096921,2096921,180111,603493,0
2096921,2096921,180088,603473,0
2096921,2096921,180139,603873,0
2096921,2096921,180068,603592,0
2096921,2096921,180106,603735,0
2096921,2096921,180306,603790,0
2096921,2096921,180331,603808,0
2096921,2096921,180262,604187,0
2096921,2096921,180427,604228,0
2096921,2096921,180421,603922,0
2096921,2096921,180313,604249,0
2096921,2096921,180435,603979,0
2096921,2096921,180174,604541,0
2096921,2096921,180328,604356,0
2096921,2096921,180204,604748,0
2096921,2096921,180510,604425,0
2096921,2096921,180250,604528,0
2096921,2096921,180535,604716,0
2096921,2096921,180459,605112,0
2096921,2096921,180774,605050,0
2096921,2096921,180447,604927,0
2096921,2096921,180224,604871,0
2096921,2096921,180277,604788,0
2096921,2096921,180334,604548,0
2096921,2096921,180068,604613,0
2096921,2096921,180308,604637,0
2096921,2096921,180316,604449,0
2096921,2096921,180209,604482,0
2096921,2096921,180094,604569,0
2096921,2096921,180279,604460,0
2096921,2096921,180160,604470,0
2096921,2096921,180321,604570,0
2096921,2096921,179802,604296,0
2096921,2096921,179885,604258,0
2096921,2096921,179952,604037,0
2096921,2096921,179726,603832,0
2096921,2096921,179759,604027,0
2096921,2096921,179677,603249,0
2096921,2096921,179469,603437,0
2096921,2096921,179134,603163,0
2096921,2096921,179280,603474,0
2096921,2096921,179229,603300,0
2096921,2096921,179064,602592,0
2096921,2096921,178897,602678,0
2096921,2096921,178826,602508,0
2096921,2096921,178877,602275,0
2096921,2096921,178219,602684,0
2096921,2096921,177850,600896,0
2096921,2096921,177563,600449,0
2096921,2096921,177535,600347,0
2096921,2096921,177352,600041,0
2096921,2096921,176989,600174,0
2096921,2096921,175965,597724,0
2096921,2096921,176025,597311,0
2096921,2096921,175699,597328,0
2096921,2096921,176131,597193,0
2096921,2096921,175797,597368,0
2096921,2096921,175029,595687,0
2096921,2096921,174658,595399,0
2096921,2096921,174682,595270,0
2096921,2096921,174756,595296,0
2096921,2096921,174517,595066,0
2096921,2096921,174000,593922,0
2096921,2096921,173808,593616,0
2096921,2096921,173892,593735,0
2096921,2096921,173925,593682,0
2096921,2096921,173612,593743,0
2096921,2096921,173431,592643,0
2096921,2096921,173161,593020,0
2096921,2096921,173318,593078,0
2096921,2096921,173229,592806,0
2096921,2096921,173131,592413,0
2096921,2096921,172938,592186,0
2096921,2096921,172766,592102,0
2096921,2096921,172645,592242,0
2096921,2096921,172800,591966,0
2096921,2096921,172689,592165,0
2096921,2096921,172651,591561,0
2096921,2096921,172762,591779,0
2096921,2096921,172562,591853,0
2096921,2096921,172527,591903,0
2096921,2096921,172699,591674,0
2096921,2096921,172433,591926,0
2096921,2096921,172405,591717,0
2096921,2096921,172448,591700,0
2096921,2096921,172467,591492,0
2096921,2096921,172529,591654,0
2096921,2096921,172290,591694,0
2096921,2096921,172441,592007,0
2096921,2096921,172690,591937,0
2096921,2096921,172738,592082,0
2096921,2096921,172488,591987,0
2096921,2096921,172619,592386,0
2096921,2096921,172567,592498,0
2096921,2096921,172515,592448,0
2096921,2096921,172642,592217,0
2096921,2096921,172719,592481,0
2096921,2096921,172904,592706,0
2096921,2096921,173019,593230,0
2096921,2096921,172823,592956,0
2096921,2096921,173109,592990,0
2096921,2096921,172996,593038,0
2096921,2096921,172784,593409,0
2096921,2096921,172953,593305,0
2096921,2096921,172735,593542,0
2096921,2096921,173101,593399,0
2096921,2096921,172830,593563,0
2096921,2096921,173254,593714,0
2096921,2096921,173259,594126,0
2096921,2096921,173341,594091,0
2096921,2096921,173421,594161,0
2096921,2096921,173628,594222,0
2096921,2096921,173843,594867,0
2096921,2096921,173493,595006,0
2096921,2096921,173637,595172,0
2096921,2096921,173583,594913,0
2096921,2096921,173656,595090,0
2096921,2096921,174025,595626,0
2096921,2096921,173982,596118,0
2096921,2096921,174250,595778,0
2096921,2096921,174043,596001,0
2096921,2096921,174037,595780,0
2096921,2096921,174440,596792,0
2096921,2096921,174583,596823,0
2096921,2096921,174469,596977,0
2096921,2096921,174444,596541,0
2096921,2096921,174951,596465,0
2096921,2096921,175035,597436,0
2096921,2096921,174742,597763,0
2096921,2096921,174903,597830,0
2096921,2096921,174879,597777,0
2096921,2096921,175250,597543,0
2096921,2096921,175033,598325,0
2096921,2096921,175119,598708,0
2096921,2096921,175365,598667,0
2096921,2096921,175451,598851,0
2096921,2096921,175631,598527,0
2096921,2096921,175711,599759,0
2096921,2096921,175654,599667,0
2096921,2096921,175785,599547,0
2096921,2096921,176053,599802,0
2096921,2096921,175942,599708,0
2096921,2096921,176300,600507,0
2096921,2096921,175983,600726,0
2096921,2096921,176095,600506,0
2096921,2096921,176243,600511,0
2096921,2096921,176569,600453,0
2096921,2096921,176600,601353,0
2096921,2096921,176785,601754,0
2096921,2096921,176453,601498,0
2096921,2096921,176383,601429,0
2096921,2096921,176560,601693,0
2096921,2096921,176891,602201,0
2096921,2096921,176826,602301,0
2096921,2096921,177046,602324,0
2096921,2096921,176850,602180,0
2096921,2096921,177301,602350,0
2096921,2096921,177779,603413,0
2096921,2096921,177273,603589,0
2096921,2096921,177324,603409,0
2096921,2096921,177580,603501,0
2096921,2096921,177895,603276,0
2096921,2096921,177809,604283,0
2096921,2096921,177933,604183,0
2096921,2096921,177655,604544,0
2096921,2096921,178198,604470,0
2096921,2096921,177970,604635,0
2096921,2096921,178150,605203,0
2096921,2096921,178238,605382,0
2096921,2096921,178335,605684,0
2096921,2096921,178457,605476,0
2096921,2096921,178542,605577,0
2096921,2096921,178466,605843,0
2096921,2096921,178576,605966,0
2096921,2096921,178601,606172,0
2096921,2096921,178685,606045,0
2096921,2096921,179011,606224,0
2096921,2096921,178681,606940,0
2096921,2096921,179179,606948,0
2096921,2096921,179185,607086,0
2096921,2096921,179247,607472,0
2096921,2096921,178920,607317,0
2096921,2096921,179200,607898,0
2096921,2096921,179340,607727,0
2096921,2096921,179425,607658,0
2096921,2096921,179408,607522,0
2096921,2096921,179659,607895,0
2096921,2096921,179765,608432,0
2096921,2096921,179894,608526,0
2096921,2096921,179889,608249,0
2096921,2096921,179801,608595,0
2096921,2096921,179697,608350,0
2096921,2096921,179602,608700,0
2096921,2096921,179795,608793,0
2096921,2096921,179738,608921,0
2096921,2096921,179657,609145,0
2096921,2096921,179687,609015,0
2096921,2096921,179964,609160,0
2096921,2096921,180040,609544,0
2096921,2096921,180245,609229,0
2096921,2096921,179754,609239,0
2096921,2096921,179702,609208,0
2096921,2096921,179737,609477,0
2096921,2096921,179657,609644,0
2096921,2096921,179894,609711,0
2096921,2096921,180120,609793,0
2096921,2096921,179791,609702,0
2096921,2096921,180244,609758,0
2096921,2096921,180010,609961,0
2096921,2096921,179959,609767,0
2096921,2096921,180051,610032,0
2096921,2096921,179805,610156,0
2096921,2096921,180108,610299,0
2096921,2096921,179833,609856,0
2096921,2096921,180200,610059,0
2096921,2096921,180090,610432,0
2096921,2096921,180139,610164,0
2096921,2096921,179881,610362,0
2096921,2096921,179960,610133,0
2096921,2096921,179859,610194,0
2096921,2096921,179968,610537,0
2096921,2096921,180182,610354,0
2096921,2096921,179838,610667,0
2096921,2096921,179926,610253,0
2096921,2096921,180131,610292,0
2096921,2096921,180166,610262,0
2096921,2096921,179954,610570,0
2096921,2096921,180192,610769,0
2096921,2096921,180109,610770,0
2096921,2096921,179950,610365,0
2096921,2096921,180170,610670,0
2096921,2096921,180058,610581,0
2096921,2096921,179922,610829,0
2096921,2096921,179964,610513,0
2096921,2096921,179877,610967,0
2096921,2096921,180071,610527,0
2096921,2096921,180079,610890,0
2096921,2096921,180292,610786,0
2096921,2096921,180097,611155,0
2096921,2096921,180189,611180,0
2096921,2096921,180074,611170,0
2096921,2096921,180063,610995,0
2096921,2096921,180080,611687,0
2096921,2096921,180220,611295,0
2096921,2096921,179937,611503,0
2096921,2096921,180209,611468,0
2096921,2096921,180431,611499,0
2096921,2096921,180428,611939,0
2096921,2096921,180405,611817,0
2096921,2096921,180524,611700,0
2096921,2096921,180539,611854,0
2096921,2096921,180482,611942,0
2096921,2096921,180746,612247,0
2096921,2096921,180401,612326,0
2096921,2096921,180515,612510,0
2096921,2096921,180540,612704,0
2096921,2096921,180968,612461,0
2096921,2096921,181201,613150,0
2096921,2096921,181081,613115,0
2096921,2096921,181123,613094,0
2096921,2096921,181273,613323,0
2096921,2096921,180741,613165,0
2096921,2096921,181076,613560,0
2096921,2096921,181647,613535,0
2096921,2096921,181250,613476,0
2096921,2096921,181394,613480,0
2096921,2096921,181470,613624,0
2096921,2096921,181503,613986,0
2096921,2096921,181845,614506,0
2096921,2096921,181679,614223,0
2096921,2096921,181483,614691,0
2096921,2096921,181590,614277,0
2096921,2096921,181823,614693,0
2096921,2096921,181678,614621,0
2096921,2096921,181900,615074,0
2096921,2096921,181850,614737,0
2096921,2096921,181755,614842,0
2096921,2096921,182411,615275,0
2096921,2096921,182100,615782,0
2096921,2096921,182212,615827,0
2096921,2096921,182350,615730,0
2096921,2096921,182498,615611,0
2096921,2096921,182404,616230,0
2096921,2096921,182298,616161,0
2096921,2096921,182173,616199,0
2096921,2096921,182232,616104,0
2096921,2096921,182242,615986,0
2096921,2096921,182693,616665,0
2096921,2096921,182650,616912,0
2096921,2096921,182524,616833,0
2096921,2096921,182639,616946,0
2096921,2096921,182747,616861,0
2096921,2096921,183108,617232,0
2096921,2096921,182851,617274,0
2096921,2096921,182930,617493,0
2096921,2096921,182961,617060,0
2096921,2096921,182965,617597,0
2096921,2096921,183247,617711,0
2096921,2096921,183490,618074,0
2096921,2096921,183311,618159,0
2096921,2096921,183372,618271,0
2096921,2096921,183219,617978,0
2096921,2096921,183399,618623,0
2096921,2096921,183377,618661,0
2096921,2096921,183487,619127,0
2096921,2096921,183468,618747,0
2096921,2096921,183667,618728,0
2096921,2096921,183822,619117,0
2096921,2096921,183930,619559,0
2096921,2096921,183902,619398,0
2096921,2096921,183535,619547,0
2096921,2096921,183800,619148,0
2096921,2096921,184146,619611,0
2096921,2096921,184046,619629,0
2096921,2096921,183825,619613,0
2096921,2096921,184167,619723,0
2096921,2096921,184126,620025,0
2096921,2096921,184364,620119,0
2096921,2096921,184337,620457,0
2096921,2096921,184121,620313,0
2096921,2096921,184064,620460,0
2096921,2096921,183994,620351,0
2096921,2096921,184386,620670,0
2096921,2096921,184473,620555,0
2096921,2096921,184642,620731,0
2096921,2096921,184567,620942,0
2096921,2096921,184439,620594,0
2096921,2096921,184528,621265,0
2096921,2096921,184464,621111,0
2096921,2096921,184611,621392,0
2096921,2096921,184604,621385,0
2096921,2096921,184591,621525,0
2096921,2096921,184910,621615,0
2096921,2096921,184719,621780,0
2096921,2096921,184931,621898,0
2096921,2096921,184776,621839,0
2096921,2096921,185019,621885,0
2096921,2096921,185248,622325,0
2096921,2096921,185182,622589,0
2096921,2096921,185394,622510,0
2096921,2096921,185168,622460,0
2096921,2096921,185191,622525,0
2096921,2096921,184927,622826,0
2096921,2096921,185098,622903,0
2096921,2096921,185171,623001,0
2096921,2096921,185307,622683,0
2096921,2096921,185402,623035,0
2096921,2096921,185251,622890,0
2096921,2096921,185440,623438,0
2096921,2096921,185284,623313,0
2096921,2096921,185227,623076,0
2096921,2096921,185313,623281,0
2096921,2096921,185374,623570,0
2096921,2096921,185294,623435,0
2096921,2096921,185516,623572,0
2096921,2096921,185371,623509,0
2096921,2096921,185427,623727,0
2096921,2096921,185574,624062,0
2096921,2096921,185782,624117,0
2096921,2096921,185769,624016,0
2096921,2096921,186098,624050,0
2096921,2096921,186094,624115,0
2096921,2096921,185668,624073,0
2096921,2096921,185759,624403,0
2096921,2096921,185955,624403,0
2096921,2096921,185863,624215,0
2096921,2096921,185807,624259,0
2096921,2096921,186022,624673,0
2096921,2096921,186335,625104,0
2096921,2096921,186132,624979,0
2096921,2096921,186250,624953,0
2096921,2096921,186120,624778,0
2096921,2096921,186178,625006,0
2096921,2096921,186353,625052,0
2096921,2096921,186273,625070,0
2096921,2096921,186307,625206,0
2096921,2096921,186590,625497,0
2096921,2096921,186471,625389,0
2096921,2096921,186333,625594,0
2096921,2096921,186344,625290,0
2096921,2096921,186280,625375,0
2096921,2096921,186420,625296,0
2096921,2096921,186201,625415,0
2096921,2096921,186111,625615,0
2096921,2096921,186471,625693,0
2096921,2096921,186498,625718,0
2096921,2096921,186569,625713,0
2096921,2096921,186787,625880,0
2096921,2096921,186671,626087,0
2096921,2096921,186830,625802,0
2096921,2096921,186723,625978,0
2096921,2096921,186300,625812,0
2096921,2096921,186619,626190,0
2096921,2096921,186697,625961,0
2096921,2096921,186515,626166,0
2096921,2096921,186688,626163,0
2096921,2096921,186582,626095,0
2096921,2096921,186682,626096,0
2096921,2096921,186970,626372,0
2096921,2096921,186656,626498,0
2096921,2096921,186932,626468,0
2096921,2096921,186944,626582,0
2096921,2096921,186681,626530,0
2096921,2096921,186790,626125,0
2096921,2096921,186861,626445,0
2096921,2096921,186882,626574,0
2096921,2096921,186982,626433,0
2096921,2096921,186776,626233,0
2096921,2096921,187026,626513,0
2096921,2096921,186914,626559,0
2096921,2096921,187098,626575,0
2096921,2096921,186848,626706,0
2096921,2096921,186903,626719,0
2096921,2096921,186910,626642,0
2096921,2096921,186933,627164,0
2096921,2096921,187118,627156,0
2096921,2096921,187268,627063,0
2096921,2096921,187199,626796,0
2096921,2096921,187256,627099,0
2096921,2096921,187284,627104,0
2096921,2096921,187436,627145,0
2096921,2096921,187247,627025,0
2096921,2096921,187196,627166,0
2096921,2096921,187139,627192,0
2096921,2096921,187165,627263,0
2096921,2096921,187409,627057,0
2096921,2096921,187223,627211,0
2096921,2096921,187359,627673,0
2096921,2096921,187286,627558,0
2096921,2096921,187111,627083,0
2096921,2096921,186917,627064,0
2096921,2096921,187103,627119,0
2096921,2096921,187538,627223,0
2096921,2096921,187165,627644,0
2096921,2096921,187545,627632,0
2096921,2096921,187595,627690,0
2096921,2096921,187426,627652,0
2096921,2096921,187841,627567,0
2096921,2096921,187628,627582,0
2096921,2096921,187507,627528,0
2096921,2096921,187508,627645,0
2096921,2096921,187131,627703,0
2096921,2096921,187253,627636,0
2096921,2096921,187283,627609,0
2096921,2096921,187501,627600,0
2096921,2096921,187715,627748,0
2096921,2096921,187793,627665,0
2096921,2096921,187772,627945,0
2096921,2096921,187527,628324,0
2096921,2096921,187747,628038,0
2096921,2096921,187651,627846,0
2096921,2096921,187365,627812,0
2096921,2096921,187796,627791,0
2096921,2096921,187667,627709,0
2096921,2096921,187830,628019,0
2096921,2096921,187535,627920,0
2096921,2096921,187808,628098,0
2096921,2096921,187717,627911,0
2096921,2096921,187492,628197,0
2096921,2096921,187329,627698,0
2096921,2096921,187361,627878,0
2096921,2096921,187568,627775,0
2096921,2096921,187641,628265,0
2096921,2096921,187660,627867,0
2096921,2096921,187738,628091,0
2096921,2096921,187621,627978,0
2096921,2096921,187670,628140,0
2096921,2096921,187665,628129,0
2096921,2096921,187527,628400,0
2096921,2096921,187752,628026,0
2096921,2096921,187473,628208,0
2096921,2096921,187628,628233,0
2096921,2096921,187591,628225,0
2096921,2096921,187747,627971,0
2096921,2096921,187724,628230,0
2096921,2096921,187512,628212,0
2096921,2096921,187407,628375,0
2096921,2096921,187818,627848,0
2096921,2096921,187573,628449,0
2096921,2096921,187609,628280,0
2096921,2096921,187920,628304,0
2096921,2096921,187537,627909,0
2096921,2096921,187477,628224,0
2096921,2096921,187514,627992,0
2096921,2096921,187318,628252,0
2096921,2096921,187744,628163,0
2096921,2096921,187818,628357,0
2096921,2096921,187861,628283,0
2096921,2096921,187772,628271,0
2096921,2096921,187832,628119,0
2096921,2096921,187675,628382,0
2096921,2096921,187854,628017,0
2096921,2096921,187748,627995,0
2096921,2096921,187900,628226,0
2096921,2096921,187759,628072,0
2096921,2096921,187627,628106,0
2096921,2096921,187661,628208,0
2096921,2096921,187808,628242,0
2096921,2096921,187802,628585,0
2096921,2096921,187745,628352,0
2096921,2096921,187671,628300,0
2096921,2096921,187785,628178,0
2096921,2096921,187762,628478,0
2096921,2096921,187862,628411,0
2096921,2096921,187589,628070,0
2096921,2096921,187574,628373,0
2096921,2096921,187713,628135,0
2096921,2096921,187612,628040,0
2096921,2096921,187740,628213,0
2096921,2096921,187612,628177,0
2096921,2096921,187465,628031,0
2096921,2096921,187843,627999,0
2096921,2096921,187746,628153,0
2096921,2096921,187465,628135,0
2096921,2096921,187570,627928,0
2096921,2096921,187862,628061,0
2096921,2096921,187750,628436,0
2096921,2096921,187957,628253,0
2096921,2096921,187704,628429,0
2096921,2096921,187713,628101,0
2096921,2096921,187577,628295,0
2096921,2096921,187230,627884,0
2096921,2096921,187253,627790,0
2096921,2096921,187452,627698,0
2096921,2096921,187369,627461,0
2096921,2096921,187392,627338,0
2096921,2096921,187303,627784,0
2096921,2096921,187212,627368,0
2096921,2096921,187198,627307,0
2096921,2096921,186819,627209,0
2096921,2096921,187355,627118,0
2096921,2096921,187098,627137,0
2096921,2096921,186660,626400,0
2096921,2096921,186796,626283,0
2096921,2096921,186950,626051,0
2096921,2096921,186742,626089,0
2096921,2096921,186636,626353,0
2096921,2096921,186109,625581,0
2096921,2096921,186163,625130,0
2096921,2096921,186155,625065,0
2096921,2096921,186060,625110,0
2096921,2096921,185549,625157,0
2096921,2096921,185375,624168,0
2096921,2096921,185219,623970,0
2096921,2096921,185439,623892,0
2096921,2096921,185525,623751,0
2096921,2096921,184798,623815,0
2096921,2096921,184253,621775,0
2096921,2096921,184043,621383,0
2096921,2096921,184162,621110,0
2096921,2096921,183964,621097,0
2096921,2096921,183240,621256,0
2096921,2096921,182388,618393,0
2096921,2096921,182063,617635,0
2096921,2096921,181859,617668,0
2096921,2096921,182236,617635,0
2096921,2096921,181672,617927,0
2096921,2096921,180964,615827,0
2096921,2096921,181124,615339,0
2096921,2096921,180661,615194,0
2096921,2096921,180950,615100,0
2096921,2096921,180528,614921,0
2096921,2096921,179813,613666,0
2096921,2096921,180062,613554,0
2096921,2096921,180016,613275,0
2096921,2096921,179893,613233,0
2096921,2096921,179670,613383,0
2096921,2096921,179315,612293,0
2096921,2096921,179184,611808,0
2096921,2096921,179074,612097,0
2096921,2096921,178820,612063,0
2096921,2096921,178688,611853,0
2096921,2096921,178329,611019,0
2096921,2096921,178379,610757,0
2096921,2096921,178480,610732,0
2096921,2096921,178682,610672,0
2096921,2096921,178444,610837,0
2096921,2096921,178488,610386,0
2096921,2096921,178276,610130,0
2096921,2096921,178214,610366,0
2096921,2096921,178156,610127,0
2096921,2096921,177713,610050,0
2096921,2096921,178190,609855,0
2096921,2096921,177775,609600,0
2096921,2096921,177651,609707,0
2096921,2096921,177403,609434,0
2096921,2096921,177445,609645,0
2096921,2096921,177883,609137,0
2096921,2096921,177808,609192,0
2096921,2096921,177888,609525,0
2096921,2096921,177816,609804,0
2096921,2096921,177812,609619,0
2096921,2096921,177774,609558,0
2096921,2096921,177906,609560,0
2096921,2096921,177821,609304,0
2096921,2096921,177688,609043,0
2096921,2096921,177708,609191,0
2096921,2096921,177869,609785,0
2096921,2096921,177705,609803,0
2096921,2096921,177898,609788,0
2096921,2096921,177625,609718,0
2096921,2096921,178004,609483,0
2096921,2096921,178108,609472,0
2096921,2096921,177990,609570,0
2096921,2096921,178107,609756,0
2096921,2096921,178098,609574,0
2096921,2096921,178020,609890,0
2096921,2096921,177713,609720,0
2096921,2096921,178022,609704,0
2096921,2096921,178011,609695,0
2096921,2096921,178167,609805,0
2096921,2096921,177950,609865,0
2096921,2096921,178264,610338,0
2096921,2096921,178187,610160,0
2096921,2096921,178504,610137,0
2096921,2096921,178380,610126,0
2096921,2096921,178610,610329,0
2096921,2096921,178807,610562,0
2096921,2096921,178367,610986,0
2096921,2096921,178437,610455,0
2096921,2096921,178567,610945,0
2096921,2096921,178613,610568,0
2096921,2096921,178492,611042,0
2096921,2096921,178760,611066,0
2096921,2096921,178869,611299,0
2096921,2096921,179014,610975,0
2096921,2096921,178875,611112,0
2096921,2096921,178992,611486,0
2096921,2096921,179166,611696,0
2096921,2096921,179222,611895,0
2096921,2096921,178853,611626,0
2096921,2096921,179413,611487,0
2096921,2096921,179521,612113,0
2096921,2096921,179352,612042,0
2096921,2096921,179098,612358,0
2096921,2096921,179331,612202,0
2096921,2096921,179573,612246,0
2096921,2096921,179806,612413,0
2096921,2096921,179798,612502,0
2096921,2096921,180000,612667,0
2096921,2096921,179644,612417,0
2096921,2096921,179605,612339,0
2096921,2096921,179763,612906,0
2096921,2096921,179913,612505,0
2096921,2096921,179926,612907,0
2096921,2096921,179852,613087,0
2096921,2096921,180205,613179,0
2096921,2096921,180567,613459,0
2096921,2096921,180436,613496,0
2096921,2096921,180048,613389,0
2096921,2096921,180129,613883,0
2096921,2096921,180365,613232,0
2096921,2096921,180441,613523,0
2096921,2096921,180585,613728,0
2096921,2096921,180500,613791,0
2096921,2096921,180657,613574,0
2096921,2096921,180693,614228,0
2096921,2096921,180902,614498,0
2096921,2096921,180644,614384,0
2096921,2096921,180808,614401,0
2096921,2096921,180874,614538,0
2096921,2096921,180948,614379,0
2096921,2096921,181045,614723,0
2096921,2096921,180860,614563,0
2096921,2096921,181053,614670,0
2096921,2096921,180790,614579,0
2096921,2096921,181266,614708,0
2096921,2096921,181337,615296,0
2096921,2096921,181381,615112,0
2096921,2096921,181221,615084,0
2096921,2096921,181135,614995,0
2096921,2096921,181130,615131,0
2096921,2096921,181184,615570,0
2096921,2096921,181240,615201,0
2096921,2096921,181548,615253,0
2096921,2096921,181348,615459,0
2096921,2096921,181809,615217,0
2096921,2096921,181693,615321,0
2096921,2096921,181729,615700,0
2096921,2096921,181505,615575,0
2096921,2096921,181968,615605,0
2096921,2096921,181844,615491,0
2096921,2096921,181921,615387,0
2096921,2096921,181780,615637,0
2096921,2096921,181614,615780,0
2096921,2096921,181966,615666,0
2096921,2096921,181901,616139,0
2096921,2096921,181559,615842,0
2096921,2096921,181934,615653,0
2096921,2096921,181850,615544,0
2096921,2096921,181732,615764,0
2096921,2096921,181934,615821,0
2096921,2096921,181457,615650,0
2096921,2096921,181829,615663,0
2096921,2096921,181624,615689,0
2096921,2096921,181867,615741,0
2096921,2096921,182025,615674,0
2096921,2096921,182037,615660,0
2096921,2096921,181895,615814,0
2096921,2096921,181769,615492,0
2096921,2096921,181929,615495,0
2096921,2096921,181756,615529,0
2096921,2096921,181287,614970,0
2096921,2096921,181576,614928,0
2096921,2096921,181859,615231,0
2096921,2096921,181830,615265,0
2096921,2096921,181899,615710,0
2096921,2096921,181579,614900,0
2096921,2096921,181422,614730,0
2096921,2096921,181524,615076,0
2096921,2096921,181430,615062,0
2096921,2096921,181417,614698,0
2096921,2096921,181413,614398,0
2096921,2096921,181380,614235,0
2096921,2096921,181387,614305,0
2096921,2096921,181349,614354,0
2096921,2096921,181329,614287,0
2096921,2096921,181211,613937,0
2096921,2096921,181123,614024,0
2096921,2096921,181274,613969,0
2096921,2096921,181546,613912,0
2096921,2096921,180992,613630,0
2096921,2096921,180979,613942,0
2096921,2096921,180883,613353,0
2096921,2096921,181160,613524,0
2096921,2096921,181239,613438,0
2096921,2096921,181113,613581,0
2096921,2096921,181033,613043,0
2096921,2096921,180882,612997,0
2096921,2096921,180786,613085,0
2096921,2096921,180610,613086,0
2096921,2096921,180858,613216,0
2096921,2096921,180640,612629,0
2096921,2096921,180614,612592,0
2096921,2096921,180580,612687,0
2096921,2096921,180632,612635,0
2096921,2096921,180585,612601,0
2096921,2096921,180539,612469,0
2096921,2096921,180422,612352,0
2096921,2096921,180623,612575,0
2096921,2096921,180518,612588,0
2096921,2096921,180617,612489,0
2096921,2096921,180769,612363,0
2096921,2096921,180633,612377,0
2096921,2096921,180493,612183,0
2096921,2096921,180855,612025,0
2096921,2096921,180351,612432,0
2096921,2096921,180621,612229,0
2096921,2096921,180722,612026,0
2096921,2096921,180576,611878,0
2096921,2096921,180543,612081,0
2096921,2096921,180516,611800,0
2096921,2096921,180455,612121,0
2096921,2096921,180260,612094,0
2096921,2096921,180329,611755,0
2096921,2096921,180632,611820,0
2096921,2096921,180730,612168,0
2096921,2096921,180593,612180,0
2096921,2096921,180647,611993,0
2096921,2096921,180649,611933,0
2096921,2096921,180499,612174,0
2096921,2096921,180703,611974,0
2096921,2096921,180738,612028,0
2096921,2096921,180869,612130,0
2096921,2096921,180436,612291,0
2096921,2096921,180567,612098,0
2096921,2096921,180840,612253,0
2096921,2096921,181082,612232,0
2096921,2096921,180852,612241,0
2096921,2096921,181105,612188,0
2096921,2096921,180934,612138,0
2096921,2096921,180909,612241,0
2096921,2096921,180873,612141,0
2096921,2096921,181142,612377,0
2096921,2096921,181113,612429,0
2096921,2096921,181150,612157,0
2096921,2096921,180950,612438,0
2096921,2096921,181160,612304,0
2096921,2096921,181419,612140,0
2096921,2096921,181169,612219,0
2096921,2096921,180803,612158,0
2096921,2096921,180806,612097,0
2096921,2096921,181161,612324,0
2096921,2096921,180984,612373,0
2096921,2096921,181106,612284,0
2096921,2096921,181129,612173,0
2096921,2096921,181200,612153,0
2096921,2096921,180982,612265,0
2096921,2096921,181061,612159,0
2096921,2096921,181046,612430,0
2096921,2096921,180926,612276,0
2096921,2096921,181109,612168,0
2096921,2096921,181443,612127,0
2096921,2096921,181289,612057,0
2096921,2096921,181079,612311,0
2096921,2096921,181058,611861,0
2096921,2096921,181519,612192,0
2096921,2096921,181387,612163,0
2096921,2096921,181486,612332,0
2096921,2096921,181440,612409,0
2096921,2096921,181632,612489,0
2096921,2096921,181355,612341,0
2096921,2096921,181597,612240,0
2096921,2096921,181721,611816,0
2096921,2096921,181319,612287,0
2096921,2096921,181326,612022,0
2096921,2096921,181686,612294,0
2096921,2096921,181437,612106,0
2096921,2096921,181412,612210,0
2096921,2096921,181386,611913,0
2096921,2096921,181166,612408,0
2096921,2096921,181293,612151,0
2096921,2096921,181229,611903,0
2096921,2096921,181495,611775,0
2096921,2096921,181546,611797,0
2096921,2096921,181615,611735,0
2096921,2096921,181787,611968,0
2096921,2096921,181512,611941,0
2096921,2096921,181485,611950,0
2096921,2096921,181533,612042,0
2096921,2096921,181425,612017,0
2096921,2096921,181775,611806,0
2096921,2096921,181546,611925,0
2096921,2096921,181754,611876,0
2096921,2096921,181870,611837,0
2096921,2096921,181695,611946,0
2096921,2096921,181640,612020,0
2096921,2096921,181599,611977,0
2096921,2096921,181651,612070,0
2096921,2096921,181566,611912,0
2096921,2096921,181601,612011,0
2096921,2096921,181679,611946,0
2096921,2096921,181608,611559,0
2096921,2096921,181474,611788,0
2096921,2096921,181671,611965,0
2096921,2096921,182069,612168,0
2096921,2096921,182033,611983,0
2096921,2096921,181705,611719,0
2096921,2096921,181574,611465,0
2096921,2096921,181815,611634,0
2096921,2096921,181845,611800,0
2096921,2096921,181925,611714,0
2096921,2096921,181837,611724,0
2096921,2096921,181557,611402,0
2096921,2096921,181628,611539,0
2096921,2096921,181507,611103,0
2096921,2096921,182105,611556,0
2096921,2096921,181736,611532,0
2096921,2096921,181904,611460,0
2096921,2096921,181726,611325,0
2096921,2096921,181382,611550,0
2096921,2096921,181599,611452,0
2096921,2096921,181828,611185,0
2096921,2096921,181634,610867,0
2096921,2096921,181628,611198,0
2096921,2096921,181642,611033,0
2096921,2096921,181827,611040,0
2096921,2096921,181814,611165,0
2096921,2096921,181518,610916,0
2096921,2096921,181600,610872,0
2096921,2096921,181759,611099,0
2096921,2096921,181758,610926,0
2096921,2096921,181638,610767,0
2096921,2096921,181610,610567,0
2096921,2096921,181534,610593,0
2096921,2096921,181623,610883,0
2096921,2096921,181611,610894,0
2096921,2096921,181558,610837,0
2096921,2096921,181689,610639,0
2096921,2096921,181657,610568,0
2096921,2096921,181794,610659,0
2096921,2096921,181552,610857,0
2096921,2096921,181592,610595,0
2096921,2096921,181730,610679,0
2096921,2096921,181617,610687,0
2096921,2096921,181528,610258,0
2096921,2096921,181570,610371,0
2096921,2096921,181638,610280,0
2096921,2096921,181999,610656,0
2096921,2096921,182064,610289,0
2096921,2096921,181740,610298,0
2096921,2096921,181749,610195,0
2096921,2096921,181555,610181,0
2096921,2096921,181732,610062,0
2096921,2096921,181887,610145,0
2096921,2096921,181809,610309,0
2096921,2096921,181631,610204,0
2096921,2096921,181918,610242,0
2096921,2096921,181867,610047,0
2096921,2096921,181702,609598,0
2096921,2096921,181808,609752,0
2096921,2096921,181726,609832,0
2096921,2096921,181499,609736,0
2096921,2096921,181417,609410,0
2096921,2096921,181476,609541,0
2096921,2096921,181615,609540,0
2096921,2096921,181557,609408,0
2096921,2096921,181493,609422,0
2096921,2096921,181499,609490,0
2096921,2096921,181314,609142,0
2096921,2096921,181137,609381,0
2096921,2096921,181536,609535,0
2096921,2096921,181397,609191,0
2096921,2096921,181393,609138,0
2096921,2096921,181503,608889,0
2096921,2096921,181490,609019,0
2096921,2096921,181846,609111,0
2096921,2096921,181395,608684,0
2096921,2096921,181479,608796,0
2096921,2096921,181355,608927,0
2096921,2096921,181359,608887,0
2096921,2096921,181380,608919,0
2096921,2096921,181427,608639,0
2096921,2096921,181637,608553,0
2096921,2096921,181609,608655,0
2096921,2096921,181387,608653,0
2096921,2096921,181655,608577,0
2096921,2096921,181423,608383,0
2096921,2096921,181389,608573,0
2096921,2096921,181281,608100,0
2096921,2096921,181321,608235,0
2096921,2096921,181223,608063,0
2096921,2096921,181176,607936,0
2096921,2096921,181484,607862,0
2096921,2096921,181247,607958,0
2096921,2096921,181294,607801,0
2096921,2096921,181135,608120,0
2096921,2096921,181072,607751,0
2096921,2096921,181129,607836,0
2096921,2096921,181268,607709,0
2096921,2096921,181449,607887,0
2096921,2096921,181577,608117,0
2096921,2096921,181267,607456,0
2096921,2096921,181361,607247,0
2096921,2096921,181203,607340,0
2096921,2096921,181026,607554,0
2096921,2096921,181019,607510,0
2096921,2096921,181115,607327,0
2096921,2096921,181107,607189,0
2096921,2096921,180950,607393,0
2096921,2096921,180797,607180,0
2096921,2096921,180829,607264,0
2096921,2096921,181007,607012,0
2096921,2096921,180993,607095,0
2096921,2096921,181068,607118,0
2096921,2096921,181156,606836,0
2096921,2096921,181167,606842,0
2096921,2096921,180965,606618,0
2096921,2096921,180849,606710,0
2096921,2096921,181062,606589,0
2096921,2096921,180876,606846,0
2096921,2096921,180775,606545,0
2096921,2096921,180767,606739,0
2096921,2096921,180964,606339,0
2096921,2096921,180976,606567,0
2096921,2096921,180818,606414,0
2096921,2096921,181147,606471,0
2096921,2096921,181068,605944,0
2096921,2096921,180987,606105,0
2096921,2096921,181159,605862,0
2096921,2096921,180992,606336,0
2096921,2096921,181095,606138,0
2096921,2096921,180736,605633,0
2096921,2096921,181091,605471,0
2096921,2096921,180603,605851,0
2096921,2096921,180820,605594,0
2096921,2096921,180984,605740,0
2096921,2096921,180877,605987,0
2096921,2096921,180849,605705,0
2096921,2096921,180891,605582,0
2096921,2096921,180659,605749,0
2096921,2096921,180852,605704,0
2096921,2096921,180672,605243,0
2096921,2096921,180809,605202,0
2096921,2096921,180609,605328,0
2096921,2096921,181046,605432,0
2096921,2096921,180805,605317,0
2096921,2096921,180692,604974,0
2096921,2096921,180582,604940,0
2096921,2096921,180463,604804,0
2096921,2096921,180437,604929,0
2096921,2096921,180487,605022,0
2096921,2096921,180152,604499,0
2096921,2096921,180191,604459,0
2096921,2096921,180404,604529,0
2096921,2096921,180344,604599,0
2096921,2096921,180494,604628,0
2096921,2096921,180444,604179,0
2096921,2096921,180335,603984,0
2096921,2096921,180219,603945,0
2096921,2096921,180323,604274,0
2096921,2096921,180234,604229,0
2096921,2096921,180187,604023,0
2096921,2096921,180369,603787,0
2096921,2096921,180289,604047,0
2096921,2096921,180242,604015,0
2096921,2096921,180226,603904,0
2096921,2096921,180259,603604,0
2096921,2096921,180435,603711,0
2096921,2096921,180215,603376,0
2096921,2096921,180372,603571,0
2096921,2096921,179844,603428,0
2096921,2096921,179640,603318,0
2096921,2096921,179973,602876,0
2096921,2096921,179918,603211,0
2096921,2096921,179939,603547,0
2096921,2096921,179890,603372,0
2096921,2096921,179908,603117,0
2096921,2096921,180011,602991,0
2096921,2096921,179978,603027,0
2096921,2096921,180061,603069,0
2096921,2096921,180074,602764,0
2096921,2096921,179727,602624,0
2096921,2096921,179587,602535,0
2096921,2096921,179653,602679,0
2096921,2096921,179625,602567,0
2096921,2096921,179948,602468,0
2096921,2096921,180050,602193,0
2096921,2096921,180172,602485,0
2096921,2096921,179624,602345,0
2096921,2096921,180004,602238,0
2096921,2096921,179616,602061,0
2096921,2096921,179306,601547,0
2096921,2096921,179161,601432,0
2096921,2096921,179448,601670,0
2096921,2096921,179164,601407,0
2096921,2096921,179447,601474,0
2096921,2096921,178991,600486,0
2096921,2096921,179157,600658,0
2096921,2096921,178837,600698,0
2096921,2096921,178797,601063,0
2096921,2096921,178681,600780,0
2096921,2096921,178628,599830,0
2096921,2096921,178292,599531,0
2096921,2096921,178369,599613,0
2096921,2096921,178508,599327,0
2096921,2096921,178164,599498,0
2096921,2096921,178002,598488,0
2096921,2096921,178010,598482,0
2096921,2096921,178091,598192,0
2096921,2096921,177927,598478,0
2096921,2096921,177599,598280,0
2096921,2096921,177047,597043,0
2096921,2096921,177054,596783,0
2096921,2096921,177033,596754,0
2096921,2096921,177095,596894,0
2096921,2096921,176384,597008,0
2096921,2096921,175858,594503,0
2096921,2096921,175778,594157,0
2096921,2096921,175894,594039,0
2096921,2096921,175801,593963,0
2096921,2096921,174656,593750,0
2096921,2096921,174038,591134,0
2096921,2096921,173744,590215,0
2096921,2096921,173775,590385,0
2096921,2096921,173639,590312,0
2096921,2096921,173145,590371,0
2096921,2096921,172747,588301,0
2096921,2096921,172222,588007,0
2096921,2096921,172591,587735,0
2096921,2096921,172417,587810,0
2096921,2096921,171834,587942,0
2096921,2096921,171536,586218,0
2096921,2096921,171438,585668,0
2096921,2096921,171760,585876,0
2096921,2096921,171560,585565,0
2096921,2096921,170767,585851,0
2096921,2096921,170801,584677,0
2096921,2096921,170739,584152,0
2096921,2096921,170390,583870,0
2096921,2096921,170837,584214,0
2096921,2096921,170410,583893,0
2096921,2096921,170389,583124,0
2096921,2096921,170037,583312,0
2096921,2096921,170392,582989,0
2096921,2096921,170386,583099,0
2096921,2096921,169776,582933,0
2096921,2096921,169601,582160,0
2096921,2096921,169479,582382,0
2096921,2096921,169550,581747,0
2096921,2096921,169575,582068,0
2096921,2096921,169360,581958,0
2096921,2096921,169338,581592,0
2096921,2096921,169280,581522,0
2096921,2096921,169298,581600,0
2096921,2096921,169232,581234,0
2096921,2096921,169256,581650,0
2096921,2096921,169523,581329,0
2096921,2096921,169130,581465,0
2096921,2096921,169096,581053,0
2096921,2096921,168993,581314,0
2096921,2096921,169038,581119,0
2096921,2096921,168836,581026,0
2096921,2096921,169420,581111,0
2096921,2096921,169474,580708,0
2096921,2096921,169515,580948,0
2096921,2096921,169419,581415,0
2096921,2096921,169421,581296,0
2096921,2096921,169234,581337,0
2096921,2096921,169212,581219,0
2096921,2096921,169401,581204,0
2096921,2096921,169177,581206,0
2096921,2096921,169381,581035,0
2096921,2096921,169213,580810,0
2096921,2096921,169388,581133,0
2096921,2096921,169030,580989,0
2096921,2096921,169255,581356,0
2096921,2096921,169492,580892,0
2096921,2096921,169513,581245,0
2096921,2096921,169370,581101,0
2096921,2096921,169667,581399,0
2096921,2096921,169580,581283,0
2096921,2096921,169381,581413,0
2096921,2096921,169458,581490,0
2096921,2096921,169512,581564,0
2096921,2096921,169654,581414,0
2096921,2096921,169609,581541,0
2096921,2096921,169750,581836,0
2096921,2096921,169502,581836,0
2096921,2096921,169590,581542,0
2096921,2096921,169731,581797,0
2096921,2096921,169951,582104,0
2096921,2096921,169867,582144,0
2096921,2096921,169899,582333,0
2096921,2096921,169981,582282,0
2096921,2096921,170145,582439,0
2096921,2096921,170269,582412,0
2096921,2096921,170475,582881,0
2096921,2096921,170365,582758,0
2096921,2096921,170261,582623,0
2096921,2096921,170397,582451,0
2096921,2096921,170251,582817,0
2096921,2096921,170506,582880,0
2096921,2096921,170570,582951,0
2096921,2096921,170654,583313,0
2096921,2096921,170381,583285,0
2096921,2096921,170783,583351,0
2096921,2096921,170839,583663,0
2096921,2096921,170781,583936,0
2096921,2096921,171003,583528,0
2096921,2096921,170913,583687,0
2096921,2096921,171107,583620,0
2096921,2096921,171136,583815,0
2096921,2096921,171024,583875,0
2096921,2096921,170963,584168,0
2096921,2096921,171119,583864,0
