2096921,2096921, 154527, 751328
2096921,2096921, 154511, 751268
2096921,2096921, 154743, 751644
2096921,2096921, 154874, 751765
2096921,2096921, 154706, 751481
2096921,2096921, 154669, 751640
2096921,2096921, 154630, 751400
2096921,2096921, 154453, 751656
2096921,2096921, 154447, 751797
2096921,2096921, 154453, 751856
2096921,2096921, 154539, 751971
2096921,2096921, 154776, 751882
2096921,2096921, 154583, 751868
2096921,2096921, 154842, 751971
2096921,2096921, 154853, 752167
2096921,2096921, 154728, 752223
2096921,2096921, 154744, 752051
2096921,2096921, 154859, 751893
2096921,2096921, 154853, 752034
2096921,2096921, 154654, 752066
2096921,2096921, 154835, 752376
2096921,2096921, 154949, 752457
2096921,2096921, 154846, 752269
2096921,2096921, 154908, 752395
2096921,2096921, 155238, 752418
2096921,2096921, 154862, 752609
2096921,2096921, 154869, 752521
2096921,2096921, 154731, 752646
2096921,2096921, 154797, 752242
2096921,2096921, 154964, 752515
2096921,2096921, 155058, 752697
2096921,2096921, 154905, 752806
2096921,2096921, 154853, 752808
2096921,2096921, 155159, 752670
2096921,2096921, 155089, 752999
2096921,2096921, 155215, 752991
2096921,2096921, 154938, 752861
2096921,2096921, 155004, 753078
2096921,2096921, 155056, 753072
2096921,2096921, 154867, 753088
2096921,2096921, 154895, 753293
2096921,2096921, 154846, 752871
2096921,2096921, 154883, 753046
2096921,2096921, 155056, 753306
2096921,2096921, 155006, 753193
2096921,2096921, 155012, 753155
2096921,2096921, 155137, 752872
2096921,2096921, 155157, 752993
2096921,2096921, 154802, 753156
2096921,2096921, 154724, 753133
2096921,2096921, 155146, 753225
2096921,2096921, 155158, 753075
2096921,2096921, 155175, 753801
2096921,2096921, 155160, 753665
2096921,2096921, 155111, 753660
2096921,2096921, 155168, 753739
2096921,2096921, 155237, 753628
2096921,2096921, 155099, 753894
2096921,2096921, 155174, 753892
2096921,2096921, 154896, 754163
2096921,2096921, 155323, 754102
2096921,2096921, 155128, 754126
2096921,2096921, 155350, 753852
2096921,2096921, 155722, 753807
2096921,2096921, 155108, 754254
2096921,2096921, 155360, 754181
2096921,2096921, 154931, 754103
2096921,2096921, 155074, 754054
2096921,2096921, 155081, 753925
2096921,2096921, 155074, 753978
2096921,2096921, 155337, 753962
2096921,2096921, 155232, 754184
2096921,2096921, 155205, 754222
2096921,2096921, 155343, 754314
2096921,2096921, 155631, 754443
2096921,2096921, 155266, 754529
2096921,2096921, 155140, 754278
2096921,2096921, 155094, 754152
2096921,2096921, 155366, 754384
2096921,2096921, 155143, 754447
2096921,2096921, 155344, 754493
2096921,2096921, 155582, 754640
2096921,2096921, 155740, 754443
2096921,2096921, 155545, 754618
2096921,2096921, 155531, 754559
2096921,2096921, 155733, 754423
2096921,2096921, 155321, 754662
2096921,2096921, 155337, 754211
2096921,2096921, 155145, 754602
2096921,2096921, 155456, 754475
2096921,2096921, 155554, 754602
2096921,2096921, 155371, 754874
2096921,2096921, 155355, 754478
2096921,2096921, 155600, 754832
2096921,2096921, 155403, 754977
2096921,2096921, 155507, 755004
2096921,2096921, 155373, 754734
2096921,2096921, 155294, 754804
2096921,2096921, 155258, 754948
2096921,2096921, 155644, 754944
2096921,2096921, 155395, 754675
2096921,2096921, 155641, 754694
2096921,2096921, 155615, 755087
2096921,2096921, 155704, 755138
2096921,2096921, 155453, 754665
2096921,2096921, 155829, 754894
2096921,2096921, 155624, 754854
2096921,2096921, 155645, 754312
2096921,2096921, 155399, 754698
2096921,2096921, 155330, 754779
2096921,2096921, 155638, 754884
2096921,2096921, 155430, 754798
2096921,2096921, 155459, 754684
2096921,2096921, 155441, 754869
2096921,2096921, 155496, 754660
2096921,2096921, 155478, 754452
2096921,2096921, 155396, 754689
2096921,2096921, 155586, 754403
2096921,2096921, 155364, 754628
2096921,2096921, 155440, 754903
2096921,2096921, 155603, 755145
2096921,2096921, 155764, 755079
2096921,2096921, 155715, 754919
2096921,2096921, 155603, 754902
2096921,2096921, 155505, 755169
2096921,2096921, 155326, 754874
2096921,2096921, 155546, 754594
2096921,2096921, 155511, 754763
2096921,2096921, 155560, 754445
2096921,2096921, 155292, 754865
2096921,2096921, 155776, 754847
2096921,2096921, 155521, 754744
2096921,2096921, 155218, 754564
2096921,2096921, 155658, 754733
2096921,2096921, 155232, 754810
2096921,2096921, 155341, 754706
2096921,2096921, 155466, 754709
2096921,2096921, 155468, 754472
2096921,2096921, 155419, 754613
2096921,2096921, 155920, 754459
2096921,2096921, 155738, 754339
2096921,2096921, 155308, 754636
2096921,2096921, 155696, 754460
2096921,2096921, 155253, 753797
2096921,2096921, 155477, 753600
2096921,2096921, 155153, 753516
2096921,2096921, 155298, 753781
2096921,2096921, 155115, 753682
2096921,2096921, 154934, 752805
2096921,2096921, 154753, 752965
2096921,2096921, 155219, 752992
2096921,2096921, 155038, 753147
2096921,2096921, 155244, 752768
2096921,2096921, 154739, 751984
2096921,2096921, 154502, 751686
2096921,2096921, 154634, 751512
2096921,2096921, 154601, 751206
2096921,2096921, 154435, 751168
2096921,2096921, 153863, 749845
2096921,2096921, 154034, 749549
2096921,2096921, 154145, 749784
2096921,2096921, 153896, 749327
2096921,2096921, 154194, 749516
2096921,2096921, 153453, 747621
2096921,2096921, 153342, 747468
2096921,2096921, 153384, 747424
2096921,2096921, 153298, 747147
2096921,2096921, 153218, 747121
2096921,2096921, 152388, 743714
2096921,2096921, 152256, 743033
2096921,2096921, 152158, 742748
2096921,2096921, 152354, 742946
2096921,2096921, 152327, 742929
2096921,2096921, 151027, 738614
2096921,2096921, 150898, 737582
2096921,2096921, 150734, 737355
2096921,2096921, 150313, 737192
2096921,2096921, 150526, 737089
2096921,2096921, 149734, 733752
2096921,2096921, 149421, 733312
2096921,2096921, 149946, 733197
2096921,2096921, 149660, 733054
2096921,2096921, 149822, 733370
2096921,2096921, 148844, 731112
2096921,2096921, 149014, 730333
2096921,2096921, 148661, 729875
2096921,2096921, 148994, 729680
2096921,2096921, 148413, 729892
2096921,2096921, 148140, 727999
2096921,2096921, 148173, 727183
2096921,2096921, 148339, 727249
2096921,2096921, 148006, 727249
2096921,2096921, 148193, 727325
2096921,2096921, 147867, 726528
2096921,2096921, 147592, 725872
2096921,2096921, 147673, 725864
2096921,2096921, 147465, 725340
2096921,2096921, 147554, 725259
2096921,2096921, 147351, 724811
2096921,2096921, 147582, 724556
2096921,2096921, 147507, 724497
2096921,2096921, 147553, 724410
2096921,2096921, 147332, 724680
2096921,2096921, 147075, 723877
2096921,2096921, 147154, 723753
2096921,2096921, 147083, 723436
2096921,2096921, 146969, 723388
2096921,2096921, 146889, 723535
2096921,2096921, 147016, 723093
2096921,2096921, 146878, 722959
2096921,2096921, 146698, 723080
2096921,2096921, 146967, 722975
2096921,2096921, 146923, 723152
2096921,2096921, 147054, 723028
2096921,2096921, 146885, 722767
2096921,2096921, 146742, 723072
2096921,2096921, 146933, 722981
2096921,2096921, 147024, 723134
2096921,2096921, 146870, 723594
2096921,2096921, 147030, 723359
2096921,2096921, 147200, 723703
2096921,2096921, 147220, 723694
2096921,2096921, 147159, 723618
2096921,2096921, 147203, 723302
2096921,2096921, 147199, 723789
2096921,2096921, 147112, 723297
2096921,2096921, 147140, 723573
2096921,2096921, 146916, 723561
2096921,2096921, 146986, 723334
2096921,2096921, 147288, 723693
2096921,2096921, 147091, 723774
2096921,2096921, 147266, 724156
2096921,2096921, 147263, 723810
2096921,2096921, 147352, 724275
2096921,2096921, 147427, 724613
2096921,2096921, 147291, 724345
2096921,2096921, 147209, 724608
2096921,2096921, 147168, 724597
2096921,2096921, 147272, 725089
2096921,2096921, 147318, 725275
2096921,2096921, 147773, 724925
2096921,2096921, 147247, 724689
2096921,2096921, 147372, 725037
2096921,2096921, 147361, 725795
2096921,2096921, 147897, 725895
2096921,2096921, 147601, 725886
2096921,2096921, 147633, 725844
2096921,2096921, 147622, 726199
2096921,2096921, 147565, 726482
2096921,2096921, 148112, 726429
2096921,2096921, 148077, 726609
2096921,2096921, 147853, 726669
2096921,2096921, 147744, 726746
2096921,2096921, 148111, 727362
2096921,2096921, 148230, 727548
2096921,2096921, 148005, 727596
2096921,2096921, 147883, 727409
2096921,2096921, 147869, 727281
2096921,2096921, 148282, 728091
2096921,2096921, 148330, 727976
2096921,2096921, 148683, 728123
2096921,2096921, 148449, 728170
2096921,2096921, 148669, 728002
2096921,2096921, 148602, 728525
2096921,2096921, 148625, 728677
2096921,2096921, 148523, 728966
2096921,2096921, 148483, 728732
2096921,2096921, 148280, 728700
2096921,2096921, 148629, 729326
2096921,2096921, 148820, 729741
2096921,2096921, 148789, 729633
2096921,2096921, 148911, 729514
2096921,2096921, 148797, 729621
2096921,2096921, 149157, 730212
2096921,2096921, 149332, 730426
2096921,2096921, 148792, 730406
2096921,2096921, 149008, 730238
2096921,2096921, 148930, 730221
2096921,2096921, 149052, 730628
2096921,2096921, 149037, 730865
2096921,2096921, 149184, 731277
2096921,2096921, 149229, 731282
2096921,2096921, 149387, 731186
2096921,2096921, 149359, 731805
2096921,2096921, 149334, 731818
2096921,2096921, 149601, 731793
2096921,2096921, 149431, 732053
2096921,2096921, 149428, 731510
2096921,2096921, 149498, 732467
2096921,2096921, 149741, 732337
2096921,2096921, 149770, 732596
2096921,2096921, 149745, 732831
2096921,2096921, 149934, 733017
2096921,2096921, 149766, 733281
2096921,2096921, 150110, 733248
2096921,2096921, 150009, 733228
2096921,2096921, 149926, 733298
2096921,2096921, 149794, 733133
2096921,2096921, 149779, 733716
2096921,2096921, 150141, 733607
2096921,2096921, 149963, 733543
2096921,2096921, 149795, 733894
2096921,2096921, 149918, 733828
2096921,2096921, 150071, 734131
2096921,2096921, 150119, 734118
2096921,2096921, 149900, 734124
2096921,2096921, 150045, 734268
2096921,2096921, 149845, 734098
2096921,2096921, 150095, 734034
2096921,2096921, 150211, 734001
2096921,2096921, 149990, 734224
2096921,2096921, 150237, 733917
2096921,2096921, 150420, 734077
2096921,2096921, 150451, 734359
2096921,2096921, 150179, 734453
2096921,2096921, 150230, 734373
2096921,2096921, 150494, 734168
2096921,2096921, 150289, 734269
2096921,2096921, 149974, 734073
2096921,2096921, 150168, 733837
2096921,2096921, 150294, 734265
2096921,2096921, 150291, 734141
2096921,2096921, 150221, 734085
2096921,2096921, 150460, 733902
2096921,2096921, 150215, 733853
2096921,2096921, 150192, 733998
2096921,2096921, 150008, 734085
2096921,2096921, 150192, 733568
2096921,2096921, 149919, 733376
2096921,2096921, 149967, 733213
2096921,2096921, 149843, 733231
2096921,2096921, 150299, 733179
2096921,2096921, 150083, 733235
2096921,2096921, 150151, 732851
2096921,2096921, 149720, 732928
2096921,2096921, 149564, 733041
2096921,2096921, 149856, 732814
2096921,2096921, 149868, 732962
2096921,2096921, 149644, 732277
2096921,2096921, 149742, 731891
2096921,2096921, 149625, 732631
2096921,2096921, 149588, 732241
2096921,2096921, 149472, 732323
2096921,2096921, 149993, 731814
2096921,2096921, 149656, 731659
2096921,2096921, 149618, 731562
2096921,2096921, 149729, 731857
2096921,2096921, 149692, 731868
2096921,2096921, 149555, 731112
2096921,2096921, 149521, 730610
2096921,2096921, 149681, 731080
2096921,2096921, 149575, 731140
2096921,2096921, 149797, 731295
2096921,2096921, 149318, 730703
2096921,2096921, 149346, 730945
2096921,2096921, 149218, 730909
2096921,2096921, 149173, 730554
2096921,2096921, 149389, 730876
2096921,2096921, 149320, 730506
2096921,2096921, 149221, 730732
2096921,2096921, 149515, 730391
2096921,2096921, 149440, 730314
2096921,2096921, 149586, 730293
2096921,2096921, 149332, 730403
2096921,2096921, 149197, 730480
2096921,2096921, 149213, 730672
2096921,2096921, 149036, 730372
2096921,2096921, 149287, 730254
2096921,2096921, 149267, 730411
2096921,2096921, 149094, 730082
2096921,2096921, 149281, 730360
2096921,2096921, 149299, 730438
2096921,2096921, 149575, 730362
2096921,2096921, 149430, 730539
2096921,2096921, 149425, 730590
2096921,2096921, 149188, 730360
2096921,2096921, 149076, 730061
2096921,2096921, 148897, 730555
2096921,2096921, 149373, 730560
2096921,2096921, 149492, 730576
2096921,2096921, 149677, 730692
2096921,2096921, 149460, 730692
2096921,2096921, 149448, 731191
2096921,2096921, 149809, 731338
2096921,2096921, 149625, 731509
2096921,2096921, 149462, 731338
2096921,2096921, 149465, 731481
2096921,2096921, 149578, 731192
2096921,2096921, 149966, 731470
2096921,2096921, 149733, 731551
2096921,2096921, 149914, 731533
2096921,2096921, 149642, 731237
2096921,2096921, 149691, 731678
2096921,2096921, 149901, 731841
2096921,2096921, 149943, 731981
2096921,2096921, 149833, 732018
2096921,2096921, 149624, 731505
2096921,2096921, 149918, 732005
2096921,2096921, 149959, 732190
2096921,2096921, 149919, 732091
2096921,2096921, 149924, 732106
2096921,2096921, 150140, 732199
2096921,2096921, 149939, 732077
2096921,2096921, 150303, 732161
2096921,2096921, 149999, 732895
2096921,2096921, 150112, 732931
2096921,2096921, 150169, 732756
2096921,2096921, 150167, 732425
2096921,2096921, 149852, 732484
2096921,2096921, 150105, 732536
2096921,2096921, 150117, 732496
2096921,2096921, 149998, 732883
2096921,2096921, 150143, 732804
2096921,2096921, 150058, 733212
2096921,2096921, 149988, 732896
2096921,2096921, 149937, 733011
2096921,2096921, 149646, 733112
2096921,2096921, 149951, 732805
2096921,2096921, 150221, 733218
2096921,2096921, 150081, 733290
2096921,2096921, 150231, 733290
2096921,2096921, 150409, 733544
2096921,2096921, 150287, 733536
2096921,2096921, 150426, 733562
2096921,2096921, 150412, 733900
2096921,2096921, 150438, 733484
2096921,2096921, 150315, 733556
2096921,2096921, 150415, 733879
2096921,2096921, 150460, 733672
2096921,2096921, 150430, 734013
2096921,2096921, 150447, 734157
2096921,2096921, 150536, 734002
2096921,2096921, 150418, 733892
2096921,2096921, 150705, 734291
2096921,2096921, 150458, 734193
2096921,2096921, 150157, 734090
2096921,2096921, 150402, 733987
2096921,2096921, 150651, 734021
2096921,2096921, 150240, 734674
2096921,2096921, 150573, 734065
2096921,2096921, 150765, 734441
2096921,2096921, 150883, 734186
2096921,2096921, 150929, 734353
2096921,2096921, 150974, 734664
2096921,2096921, 150499, 734494
2096921,2096921, 150591, 734682
2096921,2096921, 150796, 734301
2096921,2096921, 150610, 734242
2096921,2096921, 150401, 734154
2096921,2096921, 150510, 734432
2096921,2096921, 150561, 734524
2096921,2096921, 150809, 734548
2096921,2096921, 150885, 734671
2096921,2096921, 150901, 734682
2096921,2096921, 150477, 734587
2096921,2096921, 150601, 734833
2096921,2096921, 150482, 734841
2096921,2096921, 150692, 734770
2096921,2096921, 150572, 735284
2096921,2096921, 150928, 734822
2096921,2096921, 150981, 735219
2096921,2096921, 151062, 734848
2096921,2096921, 151056, 734670
2096921,2096921, 150773, 735161
2096921,2096921, 150912, 735418
2096921,2096921, 150776, 734973
2096921,2096921, 151038, 735185
2096921,2096921, 150928, 735120
2096921,2096921, 150824, 735367
2096921,2096921, 150945, 735258
2096921,2096921, 150973, 735416
2096921,2096921, 150936, 735262
2096921,2096921, 150864, 735612
2096921,2096921, 151133, 735660
2096921,2096921, 151244, 735441
2096921,2096921, 150816, 735569
2096921,2096921, 151088, 735637
2096921,2096921, 150863, 735274
2096921,2096921, 150593, 735265
2096921,2096921, 151015, 735334
2096921,2096921, 150957, 735286
2096921,2096921, 150929, 735588
2096921,2096921, 151054, 736000
2096921,2096921, 151160, 735620
2096921,2096921, 151277, 735611
2096921,2096921, 150966, 735680
2096921,2096921, 151204, 735515
2096921,2096921, 150979, 735642
2096921,2096921, 150972, 735537
2096921,2096921, 151011, 735867
2096921,2096921, 150976, 735655
2096921,2096921, 150935, 735377
2096921,2096921, 151185, 735795
2096921,2096921, 151031, 735962
2096921,2096921, 151226, 735897
2096921,2096921, 151141, 735488
2096921,2096921, 151079, 735884
2096921,2096921, 151175, 735919
2096921,2096921, 151078, 735560
2096921,2096921, 151225, 735359
2096921,2096921, 150939, 735624
2096921,2096921, 151287, 735913
2096921,2096921, 151470, 735796
2096921,2096921, 151226, 735783
2096921,2096921, 151373, 735998
2096921,2096921, 151157, 735847
2096921,2096921, 151145, 735850
2096921,2096921, 151212, 735679
2096921,2096921, 151073, 735823
2096921,2096921, 151215, 735491
2096921,2096921, 151356, 735685
2096921,2096921, 151321, 735790
2096921,2096921, 151165, 735885
2096921,2096921, 151549, 735868
2096921,2096921, 151165, 735879
2096921,2096921, 151140, 735655
2096921,2096921, 151181, 735782
2096921,2096921, 151182, 735621
2096921,2096921, 151238, 735735
2096921,2096921, 150917, 735539
2096921,2096921, 151345, 735830
2096921,2096921, 151190, 735815
2096921,2096921, 151340, 735679
2096921,2096921, 151169, 735651
2096921,2096921, 151439, 735738
2096921,2096921, 151209, 735600
2096921,2096921, 151338, 735509
2096921,2096921, 151372, 735548
2096921,2096921, 151141, 735595
2096921,2096921, 151277, 735532
2096921,2096921, 151193, 735825
2096921,2096921, 151303, 735925
2096921,2096921, 151357, 735898
2096921,2096921, 151705, 735410
2096921,2096921, 151294, 735539
2096921,2096921, 151276, 735927
2096921,2096921, 151239, 735568
2096921,2096921, 151012, 735383
2096921,2096921, 151100, 735518
2096921,2096921, 151158, 735541
2096921,2096921, 150978, 735524
2096921,2096921, 150939, 735158
2096921,2096921, 151096, 735508
2096921,2096921, 151393, 735371
2096921,2096921, 151081, 735208
2096921,2096921, 151226, 735280
2096921,2096921, 151151, 735686
2096921,2096921, 151481, 735355
2096921,2096921, 151213, 735275
2096921,2096921, 151130, 735351
2096921,2096921, 151174, 735640
2096921,2096921, 151208, 735318
2096921,2096921, 151243, 735317
2096921,2096921, 151285, 735574
2096921,2096921, 151641, 735577
2096921,2096921, 151177, 735099
2096921,2096921, 151130, 735304
2096921,2096921, 150876, 735333
2096921,2096921, 151235, 735407
2096921,2096921, 151363, 735323
2096921,2096921, 151271, 735626
2096921,2096921, 151161, 735537
2096921,2096921, 151267, 735356
2096921,2096921, 151420, 735314
2096921,2096921, 151291, 735430
2096921,2096921, 151264, 735337
2096921,2096921, 151354, 735305
2096921,2096921, 151131, 735413
2096921,2096921, 151263, 735376
2096921,2096921, 151072, 735065
2096921,2096921, 151363, 735397
2096921,2096921, 151540, 735190
2096921,2096921, 151567, 735386
2096921,2096921, 151381, 735077
2096921,2096921, 151269, 734962
2096921,2096921, 151001, 735127
2096921,2096921, 151073, 735179
2096921,2096921, 151058, 734996
2096921,2096921, 151177, 735093
2096921,2096921, 151119, 734991
2096921,2096921, 151181, 734961
2096921,2096921, 151420, 734971
2096921,2096921, 151368, 735148
2096921,2096921, 151143, 735061
2096921,2096921, 151233, 735158
2096921,2096921, 151270, 734886
2096921,2096921, 150868, 734606
2096921,2096921, 151205, 734721
2096921,2096921, 151208, 734633
2096921,2096921, 150986, 734748
2096921,2096921, 151331, 734929
2096921,2096921, 151257, 735139
2096921,2096921, 151312, 735060
2096921,2096921, 151284, 734715
2096921,2096921, 151132, 734884
2096921,2096921, 150837, 734654
2096921,2096921, 151097, 734734
2096921,2096921, 151235, 734552
2096921,2096921, 151273, 734451
2096921,2096921, 151254, 734585
2096921,2096921, 151200, 734434
2096921,2096921, 151260, 734391
2096921,2096921, 151247, 734436
2096921,2096921, 151444, 734458
2096921,2096921, 150963, 734127
2096921,2096921, 151044, 734605
2096921,2096921, 151196, 734363
2096921,2096921, 151179, 734117
2096921,2096921, 151043, 734533
2096921,2096921, 151176, 734112
2096921,2096921, 150890, 734225
2096921,2096921, 151249, 734318
2096921,2096921, 151085, 734373
2096921,2096921, 150880, 734153
2096921,2096921, 150958, 734213
2096921,2096921, 150621, 734286
2096921,2096921, 150915, 734094
2096921,2096921, 150798, 733883
2096921,2096921, 151145, 733837
2096921,2096921, 150925, 733973
2096921,2096921, 150820, 734007
2096921,2096921, 151232, 733865
2096921,2096921, 151287, 734011
2096921,2096921, 151248, 733745
2096921,2096921, 150878, 733725
2096921,2096921, 150942, 733677
2096921,2096921, 151043, 733892
2096921,2096921, 150774, 733792
2096921,2096921, 151120, 733660
2096921,2096921, 150735, 733692
2096921,2096921, 151094, 733798
2096921,2096921, 151009, 733915
2096921,2096921, 150942, 733694
2096921,2096921, 150921, 733721
2096921,2096921, 150777, 733504
2096921,2096921, 150519, 733622
2096921,2096921, 150747, 733633
2096921,2096921, 150905, 733573
2096921,2096921, 151045, 733676
2096921,2096921, 150662, 733246
2096921,2096921, 150822, 733239
2096921,2096921, 151058, 733359
2096921,2096921, 150979, 733721
2096921,2096921, 150635, 732642
2096921,2096921, 150515, 732322
2096921,2096921, 150658, 732258
2096921,2096921, 150527, 732297
2096921,2096921, 150472, 732044
2096921,2096921, 150468, 731601
2096921,2096921, 150275, 731437
2096921,2096921, 150427, 731207
2096921,2096921, 150153, 730877
2096921,2096921, 150291, 731565
2096921,2096921, 150077, 730259
2096921,2096921, 149988, 729892
2096921,2096921, 149982, 730059
2096921,2096921, 149644, 729614
2096921,2096921, 149906, 729950
2096921,2096921, 149460, 728379
2096921,2096921, 149484, 727986
2096921,2096921, 149344, 728314
2096921,2096921, 149521, 728103
2096921,2096921, 149846, 728013
2096921,2096921, 149288, 726373
2096921,2096921, 149185, 726242
2096921,2096921, 149004, 725814
2096921,2096921, 149455, 725987
2096921,2096921, 148958, 725917
2096921,2096921, 147755, 722499
2096921,2096921, 147765, 721749
2096921,2096921, 147860, 721279
2096921,2096921, 147869, 721393
2096921,2096921, 147505, 721571
2096921,2096921, 146453, 717623
2096921,2096921, 146432, 716617
2096921,2096921, 146141, 716218
2096921,2096921, 146176, 715832
2096921,2096921, 146204, 715922
2096921,2096921, 145084, 712939
2096921,2096921, 144888, 712074
2096921,2096921, 144968, 712109
2096921,2096921, 145095, 711975
2096921,2096921, 145486, 712015
2096921,2096921, 144446, 709561
2096921,2096921, 144229, 709071
2096921,2096921, 144035, 709090
2096921,2096921, 144208, 708789
2096921,2096921, 144285, 708952
2096921,2096921, 143704, 707209
2096921,2096921, 143640, 706555
2096921,2096921, 143422, 706527
2096921,2096921, 143459, 706680
2096921,2096921, 143789, 706800
2096921,2096921, 143405, 705418
2096921,2096921, 143374, 705060
2096921,2096921, 143419, 705267
2096921,2096921, 143411, 705080
2096921,2096921, 143423, 704959
2096921,2096921, 142695, 704104
2096921,2096921, 142806, 703991
2096921,2096921, 142929, 704258
2096921,2096921, 142823, 703994
2096921,2096921, 142964, 704047
2096921,2096921, 142687, 703385
2096921,2096921, 142723, 703370
2096921,2096921, 142584, 703270
2096921,2096921, 142663, 703277
2096921,2096921, 142526, 703256
2096921,2096921, 142489, 702818
2096921,2096921, 142475, 703060
2096921,2096921, 142380, 702978
2096921,2096921, 142572, 702758
2096921,2096921, 142729, 702675
2096921,2096921, 142785, 702877
2096921,2096921, 142594, 703017
2096921,2096921, 142619, 702670
2096921,2096921, 142566, 702841
2096921,2096921, 142198, 702963
2096921,2096921, 142373, 702918
2096921,2096921, 142768, 702846
2096921,2096921, 142631, 702989
2096921,2096921, 142731, 702912
2096921,2096921, 142494, 702865
2096921,2096921, 142975, 703553
2096921,2096921, 142807, 703511
2096921,2096921, 142769, 703240
2096921,2096921, 142794, 703426
2096921,2096921, 142541, 703149
2096921,2096921, 142355, 703600
2096921,2096921, 142498, 703757
2096921,2096921, 142740, 703778
2096921,2096921, 142712, 704047
2096921,2096921, 142460, 704259
2096921,2096921, 143149, 704486
2096921,2096921, 143128, 704803
2096921,2096921, 142882, 704999
2096921,2096921, 142800, 704717
2096921,2096921, 142985, 704707
2096921,2096921, 143312, 705333
2096921,2096921, 143184, 705417
2096921,2096921, 143427, 705264
2096921,2096921, 143359, 705706
2096921,2096921, 143454, 705636
2096921,2096921, 143521, 706044
2096921,2096921, 143655, 706334
2096921,2096921, 143523, 706387
2096921,2096921, 143242, 706336
2096921,2096921, 143459, 706033
2096921,2096921, 143636, 707083
2096921,2096921, 144052, 707163
2096921,2096921, 143685, 707380
2096921,2096921, 143776, 707489
2096921,2096921, 143912, 707406
2096921,2096921, 144115, 708372
2096921,2096921, 144161, 708565
2096921,2096921, 144133, 708436
2096921,2096921, 144059, 708390
2096921,2096921, 144089, 708121
2096921,2096921, 144339, 709319
2096921,2096921, 144354, 708913
2096921,2096921, 144152, 708921
2096921,2096921, 144220, 709159
2096921,2096921, 144261, 709096
2096921,2096921, 144542, 710122
2096921,2096921, 144485, 710026
2096921,2096921, 144725, 709992
2096921,2096921, 144564, 710126
2096921,2096921, 144536, 710087
2096921,2096921, 144595, 710696
2096921,2096921, 145023, 710975
2096921,2096921, 144724, 711016
2096921,2096921, 144952, 711024
2096921,2096921, 144714, 711431
2096921,2096921, 144926, 711458
2096921,2096921, 145128, 712032
2096921,2096921, 145433, 711780
2096921,2096921, 145203, 711758
2096921,2096921, 144886, 712023
2096921,2096921, 145326, 712486
2096921,2096921, 145147, 712824
2096921,2096921, 145309, 712751
2096921,2096921, 145365, 712825
2096921,2096921, 145573, 712866
2096921,2096921, 145487, 713691
2096921,2096921, 145557, 713623
2096921,2096921, 145724, 714116
2096921,2096921, 145483, 714009
2096921,2096921, 145748, 714015
2096921,2096921, 145775, 714808
2096921,2096921, 146058, 714686
2096921,2096921, 146129, 714652
2096921,2096921, 146028, 714732
2096921,2096921, 145856, 715175
2096921,2096921, 145977, 715318
2096921,2096921, 146058, 715613
2096921,2096921, 145901, 715560
2096921,2096921, 146034, 715731
2096921,2096921, 145880, 715315
2096921,2096921, 146103, 715675
2096921,2096921, 146308, 716168
2096921,2096921, 146452, 716319
2096921,2096921, 146110, 716162
2096921,2096921, 146301, 715945
2096921,2096921, 146653, 716439
2096921,2096921, 146540, 716371
2096921,2096921, 146388, 716738
2096921,2096921, 145948, 716746
2096921,2096921, 146279, 716615
2096921,2096921, 146079, 716854
2096921,2096921, 146183, 716899
2096921,2096921, 146161, 717021
2096921,2096921, 146487, 717086
2096921,2096921, 146254, 717167
2096921,2096921, 146587, 717280
2096921,2096921, 146760, 717163
2096921,2096921, 146577, 717341
2096921,2096921, 146468, 717483
2096921,2096921, 146537, 717310
2096921,2096921, 146470, 717376
2096921,2096921, 146227, 717417
2096921,2096921, 146385, 717157
2096921,2096921, 146646, 717427
2096921,2096921, 146619, 717189
2096921,2096921, 146606, 717429
2096921,2096921, 146605, 717564
2096921,2096921, 146490, 717346
2096921,2096921, 146530, 717438
2096921,2096921, 146592, 717247
2096921,2096921, 146478, 717336
2096921,2096921, 146543, 717220
2096921,2096921, 146377, 717071
2096921,2096921, 146464, 717399
2096921,2096921, 146586, 717383
2096921,2096921, 146436, 717181
2096921,2096921, 146611, 717076
2096921,2096921, 146521, 717162
2096921,2096921, 146332, 716773
2096921,2096921, 146214, 716960
2096921,2096921, 146187, 716238
2096921,2096921, 146320, 716629
2096921,2096921, 146470, 716502
2096921,2096921, 146630, 716836
2096921,2096921, 146525, 716713
2096921,2096921, 146492, 716232
2096921,2096921, 146291, 716403
2096921,2096921, 146245, 716418
2096921,2096921, 146206, 716416
2096921,2096921, 145979, 716475
2096921,2096921, 146194, 716071
2096921,2096921, 146329, 715869
2096921,2096921, 146265, 715545
2096921,2096921, 146308, 716055
2096921,2096921, 146363, 716207
2096921,2096921, 146334, 716308
2096921,2096921, 146178, 716155
2096921,2096921, 146384, 715785
2096921,2096921, 146102, 715877
2096921,2096921, 146215, 716049
2096921,2096921, 146304, 715884
2096921,2096921, 146269, 716019
2096921,2096921, 146370, 716039
2096921,2096921, 146211, 716220
2096921,2096921, 146090, 716261
2096921,2096921, 146235, 716449
2096921,2096921, 146233, 716348
2096921,2096921, 146100, 716446
2096921,2096921, 146033, 716430
2096921,2096921, 146266, 715889
2096921,2096921, 146187, 716173
2096921,2096921, 146208, 716140
2096921,2096921, 146143, 716167
2096921,2096921, 146063, 716240
2096921,2096921, 146325, 716300
2096921,2096921, 146323, 716533
2096921,2096921, 146131, 716872
2096921,2096921, 146394, 716989
2096921,2096921, 146462, 716751
2096921,2096921, 146416, 716601
2096921,2096921, 146385, 717046
2096921,2096921, 146509, 717280
2096921,2096921, 146814, 717322
2096921,2096921, 146580, 717432
2096921,2096921, 146462, 717944
2096921,2096921, 146884, 718221
2096921,2096921, 146677, 718420
2096921,2096921, 146633, 718281
2096921,2096921, 146720, 718002
2096921,2096921, 146645, 718199
2096921,2096921, 147154, 718691
2096921,2096921, 147041, 718999
2096921,2096921, 147088, 718890
2096921,2096921, 146955, 718647
2096921,2096921, 146900, 719021
2096921,2096921, 147165, 719618
2096921,2096921, 147050, 719475
2096921,2096921, 147206, 719749
2096921,2096921, 146817, 719557
2096921,2096921, 147028, 719745
2096921,2096921, 147102, 719959
2096921,2096921, 147143, 719838
2096921,2096921, 147135, 720088
2096921,2096921, 147254, 720129
2096921,2096921, 147194, 720101
2096921,2096921, 147526, 720717
2096921,2096921, 147268, 720776
2096921,2096921, 147329, 720629
2096921,2096921, 147439, 720810
2096921,2096921, 147223, 720430
2096921,2096921, 147225, 721155
2096921,2096921, 147561, 721245
2096921,2096921, 147610, 721133
2096921,2096921, 147774, 721125
2096921,2096921, 147362, 720946
2096921,2096921, 147705, 721611
2096921,2096921, 147919, 721661
2096921,2096921, 147639, 721991
2096921,2096921, 147568, 721733
2096921,2096921, 147601, 721974
2096921,2096921, 148048, 722568
2096921,2096921, 148029, 722684
2096921,2096921, 147704, 722608
2096921,2096921, 147880, 722511
2096921,2096921, 147518, 722746
2096921,2096921, 148161, 722855
2096921,2096921, 148277, 722921
2096921,2096921, 147882, 722952
2096921,2096921, 148192, 723153
2096921,2096921, 147868, 722912
2096921,2096921, 148345, 723605
2096921,2096921, 147897, 723549
2096921,2096921, 147980, 723673
2096921,2096921, 148328, 723579
2096921,2096921, 148111, 723593
2096921,2096921, 148376, 724394
2096921,2096921, 148224, 724367
2096921,2096921, 148229, 724342
2096921,2096921, 148266, 724049
2096921,2096921, 148483, 724100
2096921,2096921, 148500, 724449
2096921,2096921, 148541, 724740
2096921,2096921, 148580, 724551
2096921,2096921, 148320, 724631
2096921,2096921, 148386, 724837
2096921,2096921, 148712, 724951
2096921,2096921, 148956, 725527
2096921,2096921, 148499, 725503
2096921,2096921, 148964, 725482
2096921,2096921, 148702, 725489
2096921,2096921, 148877, 725996
2096921,2096921, 148933, 725915
2096921,2096921, 148626, 725954
2096921,2096921, 148938, 726082
2096921,2096921, 148917, 726120
2096921,2096921, 149045, 726659
2096921,2096921, 149192, 727014
2096921,2096921, 149139, 726750
2096921,2096921, 149129, 726721
2096921,2096921, 148881, 726806
2096921,2096921, 149089, 727111
2096921,2096921, 148996, 727019
2096921,2096921, 149100, 727179
2096921,2096921, 149209, 727068
2096921,2096921, 149265, 727124
2096921,2096921, 149557, 727690
2096921,2096921, 149213, 727633
2096921,2096921, 149455, 727408
2096921,2096921, 149219, 727876
2096921,2096921, 149028, 727808
2096921,2096921, 149368, 728111
2096921,2096921, 149158, 728173
2096921,2096921, 149242, 727965
2096921,2096921, 149314, 728181
2096921,2096921, 149297, 728333
2096921,2096921, 149684, 728611
2096921,2096921, 149600, 728588
2096921,2096921, 149439, 728795
2096921,2096921, 149575, 728885
2096921,2096921, 149597, 728725
2096921,2096921, 149388, 728913
2096921,2096921, 149640, 728850
2096921,2096921, 149880, 729046
2096921,2096921, 149725, 729435
2096921,2096921, 149664, 729205
2096921,2096921, 149934, 729632
2096921,2096921, 149994, 729505
2096921,2096921, 149768, 729630
2096921,2096921, 149505, 729897
2096921,2096921, 149617, 730025
2096921,2096921, 149501, 730355
2096921,2096921, 149848, 730364
2096921,2096921, 149842, 730467
2096921,2096921, 149903, 730214
2096921,2096921, 150055, 730302
2096921,2096921, 150389, 730906
2096921,2096921, 150189, 730873
2096921,2096921, 150024, 730588
2096921,2096921, 149899, 730844
2096921,2096921, 149969, 730771
2096921,2096921, 150223, 731422
2096921,2096921, 150091, 730942
2096921,2096921, 150275, 731111
2096921,2096921, 150382, 731497
2096921,2096921, 150349, 731121
2096921,2096921, 150208, 731352
2096921,2096921, 150119, 731683
2096921,2096921, 150081, 731352
2096921,2096921, 150259, 731240
2096921,2096921, 150228, 731652
2096921,2096921, 150610, 731893
2096921,2096921, 150753, 731931
2096921,2096921, 150469, 732217
2096921,2096921, 150637, 732145
2096921,2096921, 150435, 732194
2096921,2096921, 150638, 732446
2096921,2096921, 150516, 732513
2096921,2096921, 150516, 732768
2096921,2096921, 150529, 732702
2096921,2096921, 150522, 732358
2096921,2096921, 150485, 733070
2096921,2096921, 150629, 733014
2096921,2096921, 150460, 732937
2096921,2096921, 150781, 733067
2096921,2096921, 150794, 732927
2096921,2096921, 150714, 733484
2096921,2096921, 150619, 733658
2096921,2096921, 150501, 733510
2096921,2096921, 150706, 733605
2096921,2096921, 150716, 733053
2096921,2096921, 150762, 733592
2096921,2096921, 150834, 733566
2096921,2096921, 150795, 733547
2096921,2096921, 150628, 733516
2096921,2096921, 150898, 733852
2096921,2096921, 151033, 734036
2096921,2096921, 150782, 734358
2096921,2096921, 150756, 734094
2096921,2096921, 151149, 734159
2096921,2096921, 150915, 734214
2096921,2096921, 151208, 734587
2096921,2096921, 151107, 734650
2096921,2096921, 151199, 734606
2096921,2096921, 151005, 734627
2096921,2096921, 151049, 734832
2096921,2096921, 151228, 735132
2096921,2096921, 151316, 735090
2096921,2096921, 151260, 735117
2096921,2096921, 150954, 734974
2096921,2096921, 151181, 734972
2096921,2096921, 150976, 735364
2096921,2096921, 150992, 735151
2096921,2096921, 151061, 735481
2096921,2096921, 151344, 735913
2096921,2096921, 151285, 735483
2096921,2096921, 151107, 735680
2096921,2096921, 151222, 735937
2096921,2096921, 151312, 735986
2096921,2096921, 151357, 736017
2096921,2096921, 151237, 735674
2096921,2096921, 151204, 735739
2096921,2096921, 151423, 736023
2096921,2096921, 151338, 735988
2096921,2096921, 151654, 736301
2096921,2096921, 151561, 736555
2096921,2096921, 151738, 736727
2096921,2096921, 151677, 736640
2096921,2096921, 151659, 736685
2096921,2096921, 151416, 736522
2096921,2096921, 151327, 736632
2096921,2096921, 151533, 737077
2096921,2096921, 151772, 737035
2096921,2096921, 151670, 737073
2096921,2096921, 151613, 737052
2096921,2096921, 151478, 737545
2096921,2096921, 151621, 737271
2096921,2096921, 151689, 737432
2096921,2096921, 151567, 737518
2096921,2096921, 151528, 737275
2096921,2096921, 151504, 737191
2096921,2096921, 151634, 737805
2096921,2096921, 151918, 737595
2096921,2096921, 151920, 737543
2096921,2096921, 151656, 738110
2096921,2096921, 151640, 737929
2096921,2096921, 151811, 737941
2096921,2096921, 151892, 738121
2096921,2096921, 151767, 737998
2096921,2096921, 151813, 738215
2096921,2096921, 151758, 738198
2096921,2096921, 152131, 738439
2096921,2096921, 151726, 738646
2096921,2096921, 151685, 738615
2096921,2096921, 151902, 738763
2096921,2096921, 152125, 738881
2096921,2096921, 152022, 738784
2096921,2096921, 152150, 738987
2096921,2096921, 151933, 739017
2096921,2096921, 152287, 738633
2096921,2096921, 151867, 738784
2096921,2096921, 151839, 738901
2096921,2096921, 151874, 739000
2096921,2096921, 152149, 739259
2096921,2096921, 152158, 739416
2096921,2096921, 152040, 739254
2096921,2096921, 152423, 739341
2096921,2096921, 152039, 739562
2096921,2096921, 152210, 739451
2096921,2096921, 152180, 739461
2096921,2096921, 152023, 739415
2096921,2096921, 152268, 739917
2096921,2096921, 152255, 739525
2096921,2096921, 151981, 739700
2096921,2096921, 152263, 739810
2096921,2096921, 152054, 739742
2096921,2096921, 151871, 739515
2096921,2096921, 152334, 739991
2096921,2096921, 152176, 740007
2096921,2096921, 151893, 739943
2096921,2096921, 152270, 740358
2096921,2096921, 152519, 740058
2096921,2096921, 152371, 740207
2096921,2096921, 152129, 740203
2096921,2096921, 152437, 740256
2096921,2096921, 152321, 740128
2096921,2096921, 152420, 740709
2096921,2096921, 152490, 740838
2096921,2096921, 152376, 740462
2096921,2096921, 152387, 740319
2096921,2096921, 152069, 740292
2096921,2096921, 152457, 740848
2096921,2096921, 152517, 740787
2096921,2096921, 152487, 740713
2096921,2096921, 152433, 740618
2096921,2096921, 152351, 740979
2096921,2096921, 152572, 741020
2096921,2096921, 152376, 741073
2096921,2096921, 152678, 741246
2096921,2096921, 152416, 741205
2096921,2096921, 152577, 741088
2096921,2096921, 152221, 741203
2096921,2096921, 152597, 741325
2096921,2096921, 152565, 741273
2096921,2096921, 152941, 741112
2096921,2096921, 152720, 741441
2096921,2096921, 152608, 740813
2096921,2096921, 152525, 740722
2096921,2096921, 152228, 740588
2096921,2096921, 152329, 740855
2096921,2096921, 152446, 740492
2096921,2096921, 152180, 740228
2096921,2096921, 152037, 740189
2096921,2096921, 152338, 740099
2096921,2096921, 152365, 740059
2096921,2096921, 152283, 740277
2096921,2096921, 152152, 739293
2096921,2096921, 151941, 739388
2096921,2096921, 151827, 739323
2096921,2096921, 151880, 739128
2096921,2096921, 151903, 739048
2096921,2096921, 151550, 737912
2096921,2096921, 151305, 737396
2096921,2096921, 151273, 737318
2096921,2096921, 151397, 737241
2096921,2096921, 151630, 737511
2096921,2096921, 151133, 736461
2096921,2096921, 151078, 736130
2096921,2096921, 150841, 735825
2096921,2096921, 150820, 736031
2096921,2096921, 150782, 735786
2096921,2096921, 149880, 732497
2096921,2096921, 149713, 731670
2096921,2096921, 149992, 731566
2096921,2096921, 149796, 731622
2096921,2096921, 149895, 731594
2096921,2096921, 148810, 727837
2096921,2096921, 148426, 726652
2096921,2096921, 148293, 726556
2096921,2096921, 148299, 726663
2096921,2096921, 148388, 726552
2096921,2096921, 147636, 723521
2096921,2096921, 147466, 722998
2096921,2096921, 147342, 723057
2096921,2096921, 147317, 722808
2096921,2096921, 147473, 722832
2096921,2096921, 146802, 720768
2096921,2096921, 146583, 720065
2096921,2096921, 146583, 719884
2096921,2096921, 146611, 719931
2096921,2096921, 146458, 720071
2096921,2096921, 146261, 718589
2096921,2096921, 146174, 717953
2096921,2096921, 146121, 717897
2096921,2096921, 146211, 718101
2096921,2096921, 146285, 717555
2096921,2096921, 146069, 716998
2096921,2096921, 145938, 716856
2096921,2096921, 145921, 716751
2096921,2096921, 145467, 716727
2096921,2096921, 145760, 716688
2096921,2096921, 145581, 716099
2096921,2096921, 145367, 715684
2096921,2096921, 145253, 715546
2096921,2096921, 145138, 715707
2096921,2096921, 145240, 715682
2096921,2096921, 145159, 715184
2096921,2096921, 145160, 715560
2096921,2096921, 145120, 715337
2096921,2096921, 145241, 715512
2096921,2096921, 145053, 715432
2096921,2096921, 145088, 715312
2096921,2096921, 145161, 715493
2096921,2096921, 145071, 715257
2096921,2096921, 145213, 715632
2096921,2096921, 145156, 714984
2096921,2096921, 145366, 715853
2096921,2096921, 145424, 715776
2096921,2096921, 145577, 715691
2096921,2096921, 145367, 715734
2096921,2096921, 145335, 715475
2096921,2096921, 145452, 716310
2096921,2096921, 145455, 716204
2096921,2096921, 145669, 716361
2096921,2096921, 145718, 716218
2096921,2096921, 145315, 716479
2096921,2096921, 145564, 717013
2096921,2096921, 145794, 716731
2096921,2096921, 145558, 717027
2096921,2096921, 145562, 716988
2096921,2096921, 145634, 717048
2096921,2096921, 145632, 717496
2096921,2096921, 145794, 717654
2096921,2096921, 145776, 717388
2096921,2096921, 145767, 717690
2096921,2096921, 145848, 717830
2096921,2096921, 146153, 718578
2096921,2096921, 146032, 718875
2096921,2096921, 146273, 719101
2096921,2096921, 145846, 719038
2096921,2096921, 146015, 718787
2096921,2096921, 146367, 719711
2096921,2096921, 146238, 719642
2096921,2096921, 146217, 719919
2096921,2096921, 146393, 719938
2096921,2096921, 146603, 719927
2096921,2096921, 146664, 720926
2096921,2096921, 146951, 720826
2096921,2096921, 146905, 720954
2096921,2096921, 146676, 720604
2096921,2096921, 146153, 720768
2096921,2096921, 146930, 721912
2096921,2096921, 147029, 722295
2096921,2096921, 146875, 722069
2096921,2096921, 147106, 722024
2096921,2096921, 147104, 722060
2096921,2096921, 147463, 723276
2096921,2096921, 147245, 723350
2096921,2096921, 147392, 723393
2096921,2096921, 147311, 723530
2096921,2096921, 147586, 723451
2096921,2096921, 147592, 724307
2096921,2096921, 147707, 724465
2096921,2096921, 147701, 724601
2096921,2096921, 147791, 724542
2096921,2096921, 147547, 724828
2096921,2096921, 147660, 725560
2096921,2096921, 148160, 725446
2096921,2096921, 148089, 725882
2096921,2096921, 147676, 725642
2096921,2096921, 147929, 725783
2096921,2096921, 148028, 726593
2096921,2096921, 148046, 726718
2096921,2096921, 147935, 726870
2096921,2096921, 148285, 726863
2096921,2096921, 148156, 727148
2096921,2096921, 148699, 727712
2096921,2096921, 148689, 728065
2096921,2096921, 148567, 728058
2096921,2096921, 148515, 728455
2096921,2096921, 148551, 728122
2096921,2096921, 148908, 728979
2096921,2096921, 149010, 729373
2096921,2096921, 148981, 729495
2096921,2096921, 148757, 729358
2096921,2096921, 148713, 729463
2096921,2096921, 149079, 730511
2096921,2096921, 149140, 730501
2096921,2096921, 149181, 730470
2096921,2096921, 148979, 730554
2096921,2096921, 149015, 730573
2096921,2096921, 149401, 731204
2096921,2096921, 149516, 731538
2096921,2096921, 149475, 731756
2096921,2096921, 149664, 731875
2096921,2096921, 149754, 731850
2096921,2096921, 149696, 732737
2096921,2096921, 149988, 732910
2096921,2096921, 150065, 732757
2096921,2096921, 149968, 732740
2096921,2096921, 149716, 732812
2096921,2096921, 150188, 733488
2096921,2096921, 150306, 733731
2096921,2096921, 150106, 733996
2096921,2096921, 150147, 734073
2096921,2096921, 149971, 734047
2096921,2096921, 150168, 734457
2096921,2096921, 150092, 734686
2096921,2096921, 150330, 734520
2096921,2096921, 150229, 734227
2096921,2096921, 150208, 734238
2096921,2096921, 150351, 734928
2096921,2096921, 150256, 735132
2096921,2096921, 150454, 734878
2096921,2096921, 150038, 734895
2096921,2096921, 150525, 735229
2096921,2096921, 150514, 735507
2096921,2096921, 150383, 735278
2096921,2096921, 150578, 735419
2096921,2096921, 150386, 735404
2096921,2096921, 150529, 735442
2096921,2096921, 150584, 735557
2096921,2096921, 150577, 735643
2096921,2096921, 150744, 735432
2096921,2096921, 151062, 736022
2096921,2096921, 150443, 735599
2096921,2096921, 150693, 736232
2096921,2096921, 150809, 735771
2096921,2096921, 150742, 736284
2096921,2096921, 150315, 736123
2096921,2096921, 150632, 735843
2096921,2096921, 150759, 735994
2096921,2096921, 150857, 735984
2096921,2096921, 150671, 736118
2096921,2096921, 150710, 735835
2096921,2096921, 150704, 736513
2096921,2096921, 150434, 736298
2096921,2096921, 150594, 736102
2096921,2096921, 150513, 735894
2096921,2096921, 150671, 736073
2096921,2096921, 150345, 736045
2096921,2096921, 150483, 735990
2096921,2096921, 150427, 735827
2096921,2096921, 150352, 736052
2096921,2096921, 150258, 735849
2096921,2096921, 150546, 735939
2096921,2096921, 150672, 735576
2096921,2096921, 150611, 735410
2096921,2096921, 150333, 735466
2096921,2096921, 150629, 735598
2096921,2096921, 150360, 735594
2096921,2096921, 150327, 735490
2096921,2096921, 150378, 735437
2096921,2096921, 150442, 735338
2096921,2096921, 150445, 735859
2096921,2096921, 150639, 735902
2096921,2096921, 150359, 735711
2096921,2096921, 150144, 736016
2096921,2096921, 150351, 735574
2096921,2096921, 150307, 735766
2096921,2096921, 150441, 735779
2096921,2096921, 150374, 735671
2096921,2096921, 150364, 735994
2096921,2096921, 150518, 735862
2096921,2096921, 150702, 735761
2096921,2096921, 150356, 735618
2096921,2096921, 150663, 735973
2096921,2096921, 150242, 736202
2096921,2096921, 150450, 736582
2096921,2096921, 150547, 736296
2096921,2096921, 150101, 736400
2096921,2096921, 150569, 736366
2096921,2096921, 150625, 736459
2096921,2096921, 150678, 736600
2096921,2096921, 150859, 736762
2096921,2096921, 150744, 736661
2096921,2096921, 150629, 737226
2096921,2096921, 150786, 736990
2096921,2096921, 150720, 737078
2096921,2096921, 150994, 737395
2096921,2096921, 150701, 737318
2096921,2096921, 150921, 737599
2096921,2096921, 151124, 737752
2096921,2096921, 150917, 737789
2096921,2096921, 151029, 738043
2096921,2096921, 151198, 737661
2096921,2096921, 150995, 738606
2096921,2096921, 151230, 739221
2096921,2096921, 150943, 738950
2096921,2096921, 151237, 739067
2096921,2096921, 151041, 738820
2096921,2096921, 151612, 739522
2096921,2096921, 151654, 739408
2096921,2096921, 151353, 739559
2096921,2096921, 151322, 739779
2096921,2096921, 151659, 739840
2096921,2096921, 151765, 740309
2096921,2096921, 151710, 740308
2096921,2096921, 151497, 740463
2096921,2096921, 151552, 740310
2096921,2096921, 151422, 740416
2096921,2096921, 151881, 741145
2096921,2096921, 151859, 740984
2096921,2096921, 151952, 741275
2096921,2096921, 152000, 741124
2096921,2096921, 151756, 740698
2096921,2096921, 151936, 741512
2096921,2096921, 151797, 741756
2096921,2096921, 152278, 741668
2096921,2096921, 152197, 741844
2096921,2096921, 151687, 741664
2096921,2096921, 152084, 742196
2096921,2096921, 151933, 742208
2096921,2096921, 152153, 742126
2096921,2096921, 152071, 742540
2096921,2096921, 152187, 742441
2096921,2096921, 152148, 743238
2096921,2096921, 152374, 743493
2096921,2096921, 152733, 743111
2096921,2096921, 152314, 742979
2096921,2096921, 152215, 743093
2096921,2096921, 152268, 743784
2096921,2096921, 152675, 743504
2096921,2096921, 152727, 743482
2096921,2096921, 152649, 743636
2096921,2096921, 152419, 743706
2096921,2096921, 152446, 744449
2096921,2096921, 152570, 744245
2096921,2096921, 152831, 744505
2096921,2096921, 152822, 744601
2096921,2096921, 152764, 744313
2096921,2096921, 152402, 744507
2096921,2096921, 152665, 744741
2096921,2096921, 152958, 744844
2096921,2096921, 153036, 744979
2096921,2096921, 152718, 744876
2096921,2096921, 153030, 745486
2096921,2096921, 153314, 745197
2096921,2096921, 153003, 745501
2096921,2096921, 153379, 745548
2096921,2096921, 153269, 745675
2096921,2096921, 153364, 745940
2096921,2096921, 153514, 746503
2096921,2096921, 153300, 746216
2096921,2096921, 153399, 746307
2096921,2096921, 153336, 746239
2096921,2096921, 153529, 746863
2096921,2096921, 153673, 747049
2096921,2096921, 153258, 747043
2096921,2096921, 153392, 746898
2096921,2096921, 153350, 747031
2096921,2096921, 153345, 747248
2096921,2096921, 152984, 747390
2096921,2096921, 153603, 747343
2096921,2096921, 153292, 747161
2096921,2096921, 153464, 747208
2096921,2096921, 153536, 747667
2096921,2096921, 153694, 747816
2096921,2096921, 153756, 747969
2096921,2096921, 153532, 747729
2096921,2096921, 153525, 747601
2096921,2096921, 153649, 748404
2096921,2096921, 153702, 748248
2096921,2096921, 153532, 748197
2096921,2096921, 153918, 748444
2096921,2096921, 154102, 748358
2096921,2096921, 153894, 748859
2096921,2096921, 154172, 749127
2096921,2096921, 154010, 748694
2096921,2096921, 153785, 749061
2096921,2096921, 153729, 748708
2096921,2096921, 154076, 749175
2096921,2096921, 153950, 749265
2096921,2096921, 153928, 749319
2096921,2096921, 154174, 749175
2096921,2096921, 154128, 749257
2096921,2096921, 154262, 749855
2096921,2096921, 154172, 749617
2096921,2096921, 154172, 749545
2096921,2096921, 154240, 749792
2096921,2096921, 153881, 749710
2096921,2096921, 154186, 750029
2096921,2096921, 154058, 749939
2096921,2096921, 154069, 750101
2096921,2096921, 154086, 749949
2096921,2096921, 154029, 749820
2096921,2096921, 154086, 750387
2096921,2096921, 154475, 750387
2096921,2096921, 154257, 750589
2096921,2096921, 154367, 750289
2096921,2096921, 154164, 750477
2096921,2096921, 154457, 750558
2096921,2096921, 154428, 750486
2096921,2096921, 154578, 750545
2096921,2096921, 154682, 750564
2096921,2096921, 154412, 750862
2096921,2096921, 154323, 751097
2096921,2096921, 154283, 751287
2096921,2096921, 154466, 751113
2096921,2096921, 154605, 751356
2096921,2096921, 154580, 751284
2096921,2096921, 154604, 751506
2096921,2096921, 154640, 751469
2096921,2096921, 154612, 751403
2096921,2096921, 154600, 751535
2096921,2096921, 154839, 751521
2096921,2096921, 154572, 751617
2096921,2096921, 154315, 751881
2096921,2096921, 154574, 751752
2096921,2096921, 154478, 751515
2096921,2096921, 154445, 751437
2096921,2096921, 154711, 751938
2096921,2096921, 154635, 751712
2096921,2096921, 154404, 751803
2096921,2096921, 154860, 751891
2096921,2096921, 154726, 751993
2096921,2096921, 154530, 752201
2096921,2096921, 154722, 752303
2096921,2096921, 154835, 752143
2096921,2096921, 154816, 752107
2096921,2096921, 154752, 752038
2096921,2096921, 154904, 752403
2096921,2096921, 154732, 752097
2096921,2096921, 154798, 752312
2096921,2096921, 155150, 752517
2096921,2096921, 154965, 752595
2096921,2096921, 155009, 752878
2096921,2096921, 155174, 752771
2096921,2096921, 155079, 752676
2096921,2096921, 155139, 752529
2096921,2096921, 154673, 752698
2096921,2096921, 155147, 752721
2096921,2096921, 155248, 752636
2096921,2096921, 155004, 752818
2096921,2096921, 154981, 752618
2096921,2096921, 154784, 752680
2096921,2096921, 154984, 753251
2096921,2096921, 154868, 753161
2096921,2096921, 154853, 752969
2096921,2096921, 154885, 752976
2096921,2096921, 154852, 752840
2096921,2096921, 155219, 753265
2096921,2096921, 154873, 753196
2096921,2096921, 154831, 753204
2096921,2096921, 155145, 753366
2096921,2096921, 155108, 752996
2096921,2096921, 155160, 753305
2096921,2096921, 155173, 753163
2096921,2096921, 154937, 753454
2096921,2096921, 155291, 753049
2096921,2096921, 155222, 752963
2096921,2096921, 154834, 753327
2096921,2096921, 155030, 753396
2096921,2096921, 155167, 753366
2096921,2096921, 155230, 753499
2096921,2096921, 155508, 753586
2096921,2096921, 155277, 753957
2096921,2096921, 155223, 753826
2096921,2096921, 155203, 753723
2096921,2096921, 155071, 753767
2096921,2096921, 155042, 753561
2096921,2096921, 155427, 753828
2096921,2096921, 155342, 753794
2096921,2096921, 155562, 753618
2096921,2096921, 155420, 754030
2096921,2096921, 155478, 754018
2096921,2096921, 155667, 754312
2096921,2096921, 155447, 754403
2096921,2096921, 155628, 754053
2096921,2096921, 155281, 753896
2096921,2096921, 155136, 753964
2096921,2096921, 155356, 754293
2096921,2096921, 155413, 754075
2096921,2096921, 155158, 754389
2096921,2096921, 155287, 754313
2096921,2096921, 155497, 754437
2096921,2096921, 155377, 754135
2096921,2096921, 155432, 754310
2096921,2096921, 155537, 754521
2096921,2096921, 155432, 754542
2096921,2096921, 155206, 754600
2096921,2096921, 155311, 754242
2096921,2096921, 155555, 754584
2096921,2096921, 155308, 754265
2096921,2096921, 155383, 754615
2096921,2096921, 155592, 754441
2096921,2096921, 155484, 754717
2096921,2096921, 155719, 754660
2096921,2096921, 155675, 754522
2096921,2096921, 155565, 754617
2096921,2096921, 155629, 754513
2096921,2096921, 155617, 754848
2096921,2096921, 155556, 754828
2096921,2096921, 155554, 754592
2096921,2096921, 155678, 754833
2096921,2096921, 155560, 755131
2096921,2096921, 155538, 755030
2096921,2096921, 155673, 755070
2096921,2096921, 155624, 754797
2096921,2096921, 155511, 754663
2096921,2096921, 155565, 754747
2096921,2096921, 155672, 754752
2096921,2096921, 155289, 754999
2096921,2096921, 155561, 754919
2096921,2096921, 155535, 754740
2096921,2096921, 155521, 754747
2096921,2096921, 155729, 755086
2096921,2096921, 155524, 754886
2096921,2096921, 155511, 755051
2096921,2096921, 155544, 754748
2096921,2096921, 155669, 754787
2096921,2096921, 155726, 754970
2096921,2096921, 155539, 754999
2096921,2096921, 155675, 754932
2096921,2096921, 155462, 755111
2096921,2096921, 155758, 755123
2096921,2096921, 155687, 755155
2096921,2096921, 155766, 754682
2096921,2096921, 155619, 754704
2096921,2096921, 155518, 754842
2096921,2096921, 155535, 754747
2096921,2096921, 155713, 754557
2096921,2096921, 155649, 755016
2096921,2096921, 155450, 754625
2096921,2096921, 155551, 754725
2096921,2096921, 155273, 754902
2096921,2096921, 155443, 754837
2096921,2096921, 155555, 754893
2096921,2096921, 155727, 754700
2096921,2096921, 155505, 755193
2096921,2096921, 155308, 754831
2096921,2096921, 155584, 754807
2096921,2096921, 155224, 754576
2096921,2096921, 155533, 754832
2096921,2096921, 155612, 754684
2096921,2096921, 155708, 754589
2096921,2096921, 155367, 755028
2096921,2096921, 155756, 754919
2096921,2096921, 155735, 754966
2096921,2096921, 155875, 755006
2096921,2096921, 155706, 754711
2096921,2096921, 155987, 754495
2096921,2096921, 155580, 754633
2096921,2096921, 155426, 754509
2096921,2096921, 155791, 754713
2096921,2096921, 155678, 754905
2096921,2096921, 155535, 754079
2096921,2096921, 155155, 753725
2096921,2096921, 155198, 753936
2096921,2096921, 155159, 753646
2096921,2096921, 155067, 753490
2096921,2096921, 154826, 752784
2096921,2096921, 154800, 753129
2096921,2096921, 154907, 752780
2096921,2096921, 154923, 752658
2096921,2096921, 154749, 752778
2096921,2096921, 154698, 751635
2096921,2096921, 154439, 751276
2096921,2096921, 154576, 751528
2096921,2096921, 154375, 751316
2096921,2096921, 154492, 751235
2096921,2096921, 153787, 750053
2096921,2096921, 154017, 749658
2096921,2096921, 154070, 749385
2096921,2096921, 154302, 749405
2096921,2096921, 154189, 749465
2096921,2096921, 153926, 747779
2096921,2096921, 153757, 747574
2096921,2096921, 153726, 747601
2096921,2096921, 153485, 747469
2096921,2096921, 153258, 747560
2096921,2096921, 152542, 743655
2096921,2096921, 152480, 742905
2096921,2096921, 152426, 742993
2096921,2096921, 152502, 743026
2096921,2096921, 152437, 742932
2096921,2096921, 151398, 738652
2096921,2096921, 150569, 737399
2096921,2096921, 150687, 737588
2096921,2096921, 150528, 737207
2096921,2096921, 150735, 737304
2096921,2096921, 149598, 734119
2096921,2096921, 149879, 733367
2096921,2096921, 149593, 733117
2096921,2096921, 149782, 733203
2096921,2096921, 149638, 733133
2096921,2096921, 149136, 730483
2096921,2096921, 148959, 730185
2096921,2096921, 148706, 729677
2096921,2096921, 148554, 729726
2096921,2096921, 148622, 729640
2096921,2096921, 148315, 727969
2096921,2096921, 148000, 727423
2096921,2096921, 148017, 727478
2096921,2096921, 147858, 727460
2096921,2096921, 147875, 727530
2096921,2096921, 147545, 726354
2096921,2096921, 147698, 725780
2096921,2096921, 147638, 725557
2096921,2096921, 147437, 725729
2096921,2096921, 147647, 725601
2096921,2096921, 147171, 724716
2096921,2096921, 147093, 724502
2096921,2096921, 147373, 724645
2096921,2096921, 147583, 724580
2096921,2096921, 147446, 724897
2096921,2096921, 147141, 724041
2096921,2096921, 147212, 724045
2096921,2096921, 147236, 723907
2096921,2096921, 147162, 723591
2096921,2096921, 146903, 723708
2096921,2096921, 147205, 723183
2096921,2096921, 146976, 723253
2096921,2096921, 147208, 723137
2096921,2096921, 147059, 723326
2096921,2096921, 147215, 723476
2096921,2096921, 147193, 723262
2096921,2096921, 146876, 723300
2096921,2096921, 147212, 723476
2096921,2096921, 146915, 723178
2096921,2096921, 146648, 723216
2096921,2096921, 147068, 723288
2096921,2096921, 146822, 723504
2096921,2096921, 147202, 723416
2096921,2096921, 147348, 723562
2096921,2096921, 147123, 723342
2096921,2096921, 147056, 723505
2096921,2096921, 147061, 723508
2096921,2096921, 146976, 723681
2096921,2096921, 147349, 723693
2096921,2096921, 147062, 723467
2096921,2096921, 147103, 723395
2096921,2096921, 147141, 723730
2096921,2096921, 147076, 723793
2096921,2096921, 147395, 723920
2096921,2096921, 147178, 723907
2096921,2096921, 147312, 724163
2096921,2096921, 147287, 724618
2096921,2096921, 147485, 724513
2096921,2096921, 147217, 724601
2096921,2096921, 147269, 724323
2096921,2096921, 147435, 724815
2096921,2096921, 147585, 724880
2096921,2096921, 147603, 725280
2096921,2096921, 147151, 725391
2096921,2096921, 147458, 725367
2096921,2096921, 147563, 725790
2096921,2096921, 147792, 725798
2096921,2096921, 147838, 726246
2096921,2096921, 148104, 725937
2096921,2096921, 147835, 726126
2096921,2096921, 148005, 726355
2096921,2096921, 147746, 727001
2096921,2096921, 147883, 726957
2096921,2096921, 148117, 726901
2096921,2096921, 147915, 727085
2096921,2096921, 148296, 727809
2096921,2096921, 148270, 727787
2096921,2096921, 148462, 727930
2096921,2096921, 148313, 727677
2096921,2096921, 148330, 727606
2096921,2096921, 148345, 728229
2096921,2096921, 148171, 728391
2096921,2096921, 148121, 728219
2096921,2096921, 148205, 728498
2096921,2096921, 148486, 728640
2096921,2096921, 148461, 728955
2096921,2096921, 148722, 729252
2096921,2096921, 148654, 729477
2096921,2096921, 148815, 729422
2096921,2096921, 148692, 729184
2096921,2096921, 148709, 729597
2096921,2096921, 148888, 730016
2096921,2096921, 148722, 730024
2096921,2096921, 149037, 730030
2096921,2096921, 149122, 729975
2096921,2096921, 149253, 730726
2096921,2096921, 149397, 730813
2096921,2096921, 149427, 730764
2096921,2096921, 149065, 731002
2096921,2096921, 149117, 730714
2096921,2096921, 149639, 731200
2096921,2096921, 149328, 731669
2096921,2096921, 149520, 731563
2096921,2096921, 149300, 731761
2096921,2096921, 149410, 731576
2096921,2096921, 149691, 732578
2096921,2096921, 149775, 732385
2096921,2096921, 149755, 732463
2096921,2096921, 149579, 732226
2096921,2096921, 149453, 732097
2096921,2096921, 149382, 732481
2096921,2096921, 149487, 732854
2096921,2096921, 149753, 733114
2096921,2096921, 149820, 732906
2096921,2096921, 149834, 733127
2096921,2096921, 149988, 733704
2096921,2096921, 149895, 733493
2096921,2096921, 149653, 733518
2096921,2096921, 149886, 733608
2096921,2096921, 149737, 733787
2096921,2096921, 149969, 733776
2096921,2096921, 149929, 734046
2096921,2096921, 150050, 734174
2096921,2096921, 149909, 734271
2096921,2096921, 150009, 734197
2096921,2096921, 150194, 734307
2096921,2096921, 150154, 734384
2096921,2096921, 150313, 734721
2096921,2096921, 150180, 734446
2096921,2096921, 150157, 734278
2096921,2096921, 149945, 734569
2096921,2096921, 150109, 734338
2096921,2096921, 149966, 734499
2096921,2096921, 150170, 734604
2096921,2096921, 150015, 734924
2096921,2096921, 150260, 734849
2096921,2096921, 150497, 734813
2096921,2096921, 150532, 734789
2096921,2096921, 150130, 734881
2096921,2096921, 150376, 734743
2096921,2096921, 150048, 734340
2096921,2096921, 149936, 734353
2096921,2096921, 149983, 734336
2096921,2096921, 150126, 734649
2096921,2096921, 150272, 734703
2096921,2096921, 150325, 734307
2096921,2096921, 150429, 734192
2096921,2096921, 150412, 734244
2096921,2096921, 150060, 734165
2096921,2096921, 150104, 734322
2096921,2096921, 150005, 733911
2096921,2096921, 149798, 733786
2096921,2096921, 149750, 733578
2096921,2096921, 149822, 733606
2096921,2096921, 150324, 734011
2096921,2096921, 150003, 733226
2096921,2096921, 150079, 733114
2096921,2096921, 149955, 733337
2096921,2096921, 149470, 733054
2096921,2096921, 149546, 733081
2096921,2096921, 149383, 732311
2096921,2096921, 149548, 732755
2096921,2096921, 149693, 732409
2096921,2096921, 149716, 732535
2096921,2096921, 149580, 732618
2096921,2096921, 149757, 732109
2096921,2096921, 149492, 731967
2096921,2096921, 149751, 732409
2096921,2096921, 149473, 732230
2096921,2096921, 149681, 732120
2096921,2096921, 149470, 731720
2096921,2096921, 149716, 731655
2096921,2096921, 149440, 731898
2096921,2096921, 149559, 731694
2096921,2096921, 149565, 731739
2096921,2096921, 149395, 731394
2096921,2096921, 149447, 731298
2096921,2096921, 149516, 731316
2096921,2096921, 149412, 731245
2096921,2096921, 149644, 731516
2096921,2096921, 149297, 730883
2096921,2096921, 149455, 731153
2096921,2096921, 149172, 730826
2096921,2096921, 149414, 731029
2096921,2096921, 149746, 730944
2096921,2096921, 149656, 731190
2096921,2096921, 149508, 730832
2096921,2096921, 149397, 731138
2096921,2096921, 149461, 731105
2096921,2096921, 149462, 730880
2096921,2096921, 149391, 730913
2096921,2096921, 149177, 730824
2096921,2096921, 149549, 730563
2096921,2096921, 149428, 730739
2096921,2096921, 149495, 731065
2096921,2096921, 149279, 731277
2096921,2096921, 149267, 730833
2096921,2096921, 149507, 730970
2096921,2096921, 149423, 730679
2096921,2096921, 149325, 730894
2096921,2096921, 149480, 731097
2096921,2096921, 149484, 731267
2096921,2096921, 149634, 731488
2096921,2096921, 149861, 731433
2096921,2096921, 149598, 731291
2096921,2096921, 149780, 731789
2096921,2096921, 149614, 731590
2096921,2096921, 149626, 731710
2096921,2096921, 149515, 731872
2096921,2096921, 149520, 731950
2096921,2096921, 149901, 732091
2096921,2096921, 150062, 732152
2096921,2096921, 149905, 732386
2096921,2096921, 149784, 732057
2096921,2096921, 149883, 732217
2096921,2096921, 149979, 732721
2096921,2096921, 149874, 732582
2096921,2096921, 150073, 732736
2096921,2096921, 150188, 732149
2096921,2096921, 149943, 732390
2096921,2096921, 149871, 732780
2096921,2096921, 149881, 732803
2096921,2096921, 150174, 732737
2096921,2096921, 149896, 732875
2096921,2096921, 149970, 733074
2096921,2096921, 150240, 732971
2096921,2096921, 150327, 732762
2096921,2096921, 150169, 732880
2096921,2096921, 149975, 732829
2096921,2096921, 149863, 732807
2096921,2096921, 150128, 732923
2096921,2096921, 150259, 733383
2096921,2096921, 150298, 733223
2096921,2096921, 150265, 733265
2096921,2096921, 150502, 733445
2096921,2096921, 150415, 733524
2096921,2096921, 150242, 733815
2096921,2096921, 150218, 733658
2096921,2096921, 150129, 733531
2096921,2096921, 150201, 733616
2096921,2096921, 150312, 733806
2096921,2096921, 150060, 733674
2096921,2096921, 150103, 733943
2096921,2096921, 150384, 733796
2096921,2096921, 150542, 733689
2096921,2096921, 150506, 734008
2096921,2096921, 150373, 734265
2096921,2096921, 150310, 734219
2096921,2096921, 150362, 734092
2096921,2096921, 150316, 734177
2096921,2096921, 150428, 734385
2096921,2096921, 150392, 734167
2096921,2096921, 150436, 734118
2096921,2096921, 150647, 734161
2096921,2096921, 150721, 734578
2096921,2096921, 150794, 734837
2096921,2096921, 150788, 734479
2096921,2096921, 150377, 734555
2096921,2096921, 150458, 734827
2096921,2096921, 150816, 734647
2096921,2096921, 150561, 734603
2096921,2096921, 150818, 734634
2096921,2096921, 150815, 734683
2096921,2096921, 150744, 734768
2096921,2096921, 150681, 734892
2096921,2096921, 150837, 734982
2096921,2096921, 150840, 735028
2096921,2096921, 150618, 735109
2096921,2096921, 150594, 735279
2096921,2096921, 150820, 735224
2096921,2096921, 150904, 734954
2096921,2096921, 150470, 735059
2096921,2096921, 151009, 735343
2096921,2096921, 151173, 735393
2096921,2096921, 150979, 735408
2096921,2096921, 151058, 735589
2096921,2096921, 150961, 735393
2096921,2096921, 151242, 735482
2096921,2096921, 150875, 735554
2096921,2096921, 150766, 735452
2096921,2096921, 150561, 735742
2096921,2096921, 150768, 735726
2096921,2096921, 151150, 735555
2096921,2096921, 151058, 735623
2096921,2096921, 151305, 735680
2096921,2096921, 151302, 735725
2096921,2096921, 151492, 735875
2096921,2096921, 151079, 735943
2096921,2096921, 151468, 736186
2096921,2096921, 151059, 736025
2096921,2096921, 150633, 735920
2096921,2096921, 151123, 736234
2096921,2096921, 151034, 736087
2096921,2096921, 151063, 735936
2096921,2096921, 151227, 735973
2096921,2096921, 151303, 736190
2096921,2096921, 151096, 736197
2096921,2096921, 151146, 736223
2096921,2096921, 151042, 736063
2096921,2096921, 151017, 735997
2096921,2096921, 151042, 735940
2096921,2096921, 151207, 735931
2096921,2096921, 151340, 736184
2096921,2096921, 151218, 736067
2096921,2096921, 151486, 736311
2096921,2096921, 151289, 736301
2096921,2096921, 151359, 736156
2096921,2096921, 151132, 736401
2096921,2096921, 151332, 736265
2096921,2096921, 151024, 735893
2096921,2096921, 151089, 735912
2096921,2096921, 151236, 735889
2096921,2096921, 151191, 736132
2096921,2096921, 151344, 736246
2096921,2096921, 151371, 736078
2096921,2096921, 151286, 736398
2096921,2096921, 151257, 736124
2096921,2096921, 151204, 736311
2096921,2096921, 151085, 736389
2096921,2096921, 151302, 736275
2096921,2096921, 151054, 736088
2096921,2096921, 151178, 736171
2096921,2096921, 150982, 736204
2096921,2096921, 151322, 736165
2096921,2096921, 151340, 736224
2096921,2096921, 151253, 736494
2096921,2096921, 151604, 736285
2096921,2096921, 151464, 736372
2096921,2096921, 151334, 736493
2096921,2096921, 151477, 736355
2096921,2096921, 151313, 736295
2096921,2096921, 151179, 736549
2096921,2096921, 151546, 736549
2096921,2096921, 151443, 736129
2096921,2096921, 151140, 736367
2096921,2096921, 151407, 736482
2096921,2096921, 151363, 736562
2096921,2096921, 151268, 736361
2096921,2096921, 151219, 736213
2096921,2096921, 151111, 736337
2096921,2096921, 151044, 736404
2096921,2096921, 151193, 736044
2096921,2096921, 151375, 736276
2096921,2096921, 151359, 736094
2096921,2096921, 151390, 736052
2096921,2096921, 151504, 736175
2096921,2096921, 151598, 736057
2096921,2096921, 151716, 736216
2096921,2096921, 151480, 735894
2096921,2096921, 151395, 736209
2096921,2096921, 151117, 736042
2096921,2096921, 151214, 736366
2096921,2096921, 151430, 736223
2096921,2096921, 151178, 736158
2096921,2096921, 151480, 736133
2096921,2096921, 151587, 735956
2096921,2096921, 151415, 736206
2096921,2096921, 151459, 736029
2096921,2096921, 151620, 736210
2096921,2096921, 151414, 736023
2096921,2096921, 151458, 735805
2096921,2096921, 151085, 735675
2096921,2096921, 151062, 735876
2096921,2096921, 151029, 736235
2096921,2096921, 151588, 736407
2096921,2096921, 151408, 736328
2096921,2096921, 151268, 735920
2096921,2096921, 151167, 736072
2096921,2096921, 151289, 735776
2096921,2096921, 151301, 735911
2096921,2096921, 151075, 736002
2096921,2096921, 151157, 735883
2096921,2096921, 151026, 735539
2096921,2096921, 151451, 735679
2096921,2096921, 151317, 735947
2096921,2096921, 151284, 735976
2096921,2096921, 151345, 735883
2096921,2096921, 151328, 735969
2096921,2096921, 151307, 735960
2096921,2096921, 151378, 735760
2096921,2096921, 151157, 735657
2096921,2096921, 151103, 735709
2096921,2096921, 151384, 735731
2096921,2096921, 151386, 736103
2096921,2096921, 151453, 735569
2096921,2096921, 151571, 735824
2096921,2096921, 151246, 735803
2096921,2096921, 151444, 736258
2096921,2096921, 151284, 735906
2096921,2096921, 151517, 736067
2096921,2096921, 151084, 735749
2096921,2096921, 150949, 735959
2096921,2096921, 151191, 735447
2096921,2096921, 151287, 735609
2096921,2096921, 151350, 735651
2096921,2096921, 151179, 735581
2096921,2096921, 151212, 735693
2096921,2096921, 151249, 735673
2096921,2096921, 151636, 735515
2096921,2096921, 151421, 735537
2096921,2096921, 151134, 735225
2096921,2096921, 151243, 735514
2096921,2096921, 150953, 735337
2096921,2096921, 151167, 735576
2096921,2096921, 151290, 735250
2096921,2096921, 151233, 735445
2096921,2096921, 151664, 735439
2096921,2096921, 151450, 735516
2096921,2096921, 150894, 735455
2096921,2096921, 151211, 735301
2096921,2096921, 150957, 735049
2096921,2096921, 151229, 735486
2096921,2096921, 151305, 735184
2096921,2096921, 151440, 735177
2096921,2096921, 151417, 735391
2096921,2096921, 151180, 735215
2096921,2096921, 151151, 735291
2096921,2096921, 151112, 735219
2096921,2096921, 150986, 735255
2096921,2096921, 151069, 735442
2096921,2096921, 151051, 734948
2096921,2096921, 151125, 735186
2096921,2096921, 151028, 735058
2096921,2096921, 151093, 734805
2096921,2096921, 151046, 734657
2096921,2096921, 151249, 735015
2096921,2096921, 151284, 734780
2096921,2096921, 151418, 734950
2096921,2096921, 151344, 734799
2096921,2096921, 151033, 734889
2096921,2096921, 150892, 734955
2096921,2096921, 151234, 734787
2096921,2096921, 151114, 734582
2096921,2096921, 151160, 734503
2096921,2096921, 151293, 734617
2096921,2096921, 151153, 734613
2096921,2096921, 151008, 734396
2096921,2096921, 150773, 734307
2096921,2096921, 150760, 734409
2096921,2096921, 150759, 734468
2096921,2096921, 150824, 734448
2096921,2096921, 150650, 734370
2096921,2096921, 151252, 734228
2096921,2096921, 151052, 734502
2096921,2096921, 151063, 734067
2096921,2096921, 151357, 733918
2096921,2096921, 151047, 734017
2096921,2096921, 150969, 734014
2096921,2096921, 150656, 733757
2096921,2096921, 151032, 733841
2096921,2096921, 150974, 733818
2096921,2096921, 150947, 733963
2096921,2096921, 151090, 733812
2096921,2096921, 151044, 733946
2096921,2096921, 151096, 733682
2096921,2096921, 151062, 733684
2096921,2096921, 150997, 733784
2096921,2096921, 150986, 733619
2096921,2096921, 151045, 733594
2096921,2096921, 151046, 733690
2096921,2096921, 150727, 733711
2096921,2096921, 150976, 733793
2096921,2096921, 150855, 733526
2096921,2096921, 151272, 733630
2096921,2096921, 150711, 733738
2096921,2096921, 150594, 733008
2096921,2096921, 150485, 732688
2096921,2096921, 150669, 732527
2096921,2096921, 150495, 732672
2096921,2096921, 150211, 732570
2096921,2096921, 150013, 731736
2096921,2096921, 150280, 731868
2096921,2096921, 150205, 731599
2096921,2096921, 150412, 731663
2096921,2096921, 150448, 731651
2096921,2096921, 149996, 730777
2096921,2096921, 149957, 730267
2096921,2096921, 150093, 730254
2096921,2096921, 150140, 729935
2096921,2096921, 150070, 730108
2096921,2096921, 149539, 728763
2096921,2096921, 149251, 728356
2096921,2096921, 149183, 728010
2096921,2096921, 149482, 727977
2096921,2096921, 149345, 728456
2096921,2096921, 149124, 726785
2096921,2096921, 149115, 726536
2096921,2096921, 148880, 726082
2096921,2096921, 148931, 726087
2096921,2096921, 148602, 726023
2096921,2096921, 147960, 722348
2096921,2096921, 147532, 722056
2096921,2096921, 147652, 722154
2096921,2096921, 147635, 721425
2096921,2096921, 147711, 721609
2096921,2096921, 146457, 717501
2096921,2096921, 146302, 716517
2096921,2096921, 146501, 716367
2096921,2096921, 146233, 716030
2096921,2096921, 145952, 716262
2096921,2096921, 145163, 713102
2096921,2096921, 145595, 712611
2096921,2096921, 144968, 712284
2096921,2096921, 145147, 712223
2096921,2096921, 145122, 712230
2096921,2096921, 144476, 709973
2096921,2096921, 144249, 709314
2096921,2096921, 144368, 709217
2096921,2096921, 144244, 709215
2096921,2096921, 144270, 709117
2096921,2096921, 143515, 707286
2096921,2096921, 143450, 706713
2096921,2096921, 143625, 706406
2096921,2096921, 143580, 706742
2096921,2096921, 143578, 706578
2096921,2096921, 143227, 705390
2096921,2096921, 143328, 705219
2096921,2096921, 143235, 705239
2096921,2096921, 143325, 705176
2096921,2096921, 143089, 704965
2096921,2096921, 142975, 704205
2096921,2096921, 142961, 704001
2096921,2096921, 142594, 704174
2096921,2096921, 142519, 703748
2096921,2096921, 142827, 703975
2096921,2096921, 142838, 703382
2096921,2096921, 142506, 703266
2096921,2096921, 142583, 702999
2096921,2096921, 142627, 702782
2096921,2096921, 142335, 703089
2096921,2096921, 142501, 702893
2096921,2096921, 142633, 702746
2096921,2096921, 142587, 702836
2096921,2096921, 142277, 702633
2096921,2096921, 142604, 702816
2096921,2096921, 142630, 703045
2096921,2096921, 142652, 702861
2096921,2096921, 142553, 702928
2096921,2096921, 142981, 702816
2096921,2096921, 142821, 702906
2096921,2096921, 142608, 703261
2096921,2096921, 142702, 703331
2096921,2096921, 142612, 703495
2096921,2096921, 142836, 702946
2096921,2096921, 142788, 703107
2096921,2096921, 142847, 703446
2096921,2096921, 143141, 703513
2096921,2096921, 142955, 703692
2096921,2096921, 142484, 703384
2096921,2096921, 142579, 703633
2096921,2096921, 142815, 703735
2096921,2096921, 142671, 703975
2096921,2096921, 142919, 703725
2096921,2096921, 142634, 703824
2096921,2096921, 142800, 703711
2096921,2096921, 143242, 704783
2096921,2096921, 143217, 704734
2096921,2096921, 143231, 704710
2096921,2096921, 143173, 704620
2096921,2096921, 143229, 704572
2096921,2096921, 143032, 705045
2096921,2096921, 143321, 705190
2096921,2096921, 143242, 705191
2096921,2096921, 143019, 705536
2096921,2096921, 143479, 705323
2096921,2096921, 143553, 706155
2096921,2096921, 143514, 706339
2096921,2096921, 143749, 706552
2096921,2096921, 143462, 706431
2096921,2096921, 143455, 706382
2096921,2096921, 143698, 706899
2096921,2096921, 143575, 707215
2096921,2096921, 143756, 707270
2096921,2096921, 144045, 707424
2096921,2096921, 144153, 707277
2096921,2096921, 144172, 708088
2096921,2096921, 143951, 708268
2096921,2096921, 144082, 708425
2096921,2096921, 143976, 708208
2096921,2096921, 144011, 707969
2096921,2096921, 144123, 708786
2096921,2096921, 144181, 708823
2096921,2096921, 144054, 708990
2096921,2096921, 144207, 708791
2096921,2096921, 144369, 708891
2096921,2096921, 144655, 709750
2096921,2096921, 144570, 710027
2096921,2096921, 144436, 710167
2096921,2096921, 144615, 710197
2096921,2096921, 144328, 710178
2096921,2096921, 144735, 710664
2096921,2096921, 144918, 711012
2096921,2096921, 144833, 711034
2096921,2096921, 144780, 710911
2096921,2096921, 144836, 710860
2096921,2096921, 145407, 712072
2096921,2096921, 144954, 711951
2096921,2096921, 144921, 712294
2096921,2096921, 145025, 712223
2096921,2096921, 145110, 711932
2096921,2096921, 145209, 712679
2096921,2096921, 145283, 712701
2096921,2096921, 145180, 712831
2096921,2096921, 145306, 712761
2096921,2096921, 145330, 712946
2096921,2096921, 145600, 713555
2096921,2096921, 145716, 713558
2096921,2096921, 145584, 713772
2096921,2096921, 145569, 714066
2096921,2096921, 145483, 713812
2096921,2096921, 145506, 714317
2096921,2096921, 145646, 714812
2096921,2096921, 145650, 715083
2096921,2096921, 145941, 715101
2096921,2096921, 145770, 714739
2096921,2096921, 146270, 715657
2096921,2096921, 145980, 715596
2096921,2096921, 146120, 715683
2096921,2096921, 146076, 715931
2096921,2096921, 145909, 715550
2096921,2096921, 146233, 715920
2096921,2096921, 146329, 716218
2096921,2096921, 146495, 715931
2096921,2096921, 146201, 716310
2096921,2096921, 146313, 716476
2096921,2096921, 146473, 716929
2096921,2096921, 146338, 717225
2096921,2096921, 146488, 717126
2096921,2096921, 146515, 716973
2096921,2096921, 146315, 716791
2096921,2096921, 146619, 716983
2096921,2096921, 146603, 716906
2096921,2096921, 146576, 717108
2096921,2096921, 146492, 717202
2096921,2096921, 146340, 717224
2096921,2096921, 146594, 717324
2096921,2096921, 146839, 717856
2096921,2096921, 146763, 717687
2096921,2096921, 146522, 717560
2096921,2096921, 146239, 717431
2096921,2096921, 146397, 717505
2096921,2096921, 146774, 717534
2096921,2096921, 146334, 717165
2096921,2096921, 146601, 717380
2096921,2096921, 146409, 717369
2096921,2096921, 146655, 717372
2096921,2096921, 146425, 717368
2096921,2096921, 146579, 717400
2096921,2096921, 146528, 717287
2096921,2096921, 146525, 717429
2096921,2096921, 146087, 717102
2096921,2096921, 146385, 717100
2096921,2096921, 146043, 716966
2096921,2096921, 146396, 716927
2096921,2096921, 146511, 717419
2096921,2096921, 146803, 717108
2096921,2096921, 146163, 717020
2096921,2096921, 146115, 716889
2096921,2096921, 146413, 717062
2096921,2096921, 146198, 716816
2096921,2096921, 146341, 716745
2096921,2096921, 146320, 716595
2096921,2096921, 146091, 716437
2096921,2096921, 146472, 716520
2096921,2096921, 146428, 716880
2096921,2096921, 146396, 716570
2096921,2096921, 146237, 716187
2096921,2096921, 146341, 716508
2096921,2096921, 146236, 716386
2096921,2096921, 146512, 716175
2096921,2096921, 146284, 715706
2096921,2096921, 146078, 715711
2096921,2096921, 145979, 716084
2096921,2096921, 146048, 715698
2096921,2096921, 146240, 716014
2096921,2096921, 146144, 715664
2096921,2096921, 145912, 715774
2096921,2096921, 145964, 715487
2096921,2096921, 146281, 715819
2096921,2096921, 145997, 715734
2096921,2096921, 146083, 715765
2096921,2096921, 145901, 716123
2096921,2096921, 145927, 715960
2096921,2096921, 145776, 715432
2096921,2096921, 146257, 715394
2096921,2096921, 146467, 716152
2096921,2096921, 146380, 716000
2096921,2096921, 146431, 716091
2096921,2096921, 146116, 716209
2096921,2096921, 146214, 716160
2096921,2096921, 146144, 716020
2096921,2096921, 145924, 716031
2096921,2096921, 146417, 716183
2096921,2096921, 146137, 716117
2096921,2096921, 146167, 716044
2096921,2096921, 146500, 716791
2096921,2096921, 146543, 716468
2096921,2096921, 146387, 716573
2096921,2096921, 146198, 716342
2096921,2096921, 146359, 716417
2096921,2096921, 146457, 716816
2096921,2096921, 146175, 717237
2096921,2096921, 146419, 717312
2096921,2096921, 146575, 717212
2096921,2096921, 146417, 717387
2096921,2096921, 146601, 717820
2096921,2096921, 146840, 717844
2096921,2096921, 147068, 717966
2096921,2096921, 146646, 717949
2096921,2096921, 146558, 717974
2096921,2096921, 146699, 718567
2096921,2096921, 146695, 718368
2096921,2096921, 146839, 718776
2096921,2096921, 147028, 718549
2096921,2096921, 146898, 718627
2096921,2096921, 147099, 719506
2096921,2096921, 147286, 719321
2096921,2096921, 147240, 719398
2096921,2096921, 147085, 719174
2096921,2096921, 147025, 719313
2096921,2096921, 147209, 719693
2096921,2096921, 147203, 719940
2096921,2096921, 147337, 720069
2096921,2096921, 147241, 719987
2096921,2096921, 147137, 719962
2096921,2096921, 147414, 720629
2096921,2096921, 147530, 720823
2096921,2096921, 147603, 720748
2096921,2096921, 147272, 720735
2096921,2096921, 147610, 720698
2096921,2096921, 147229, 721187
2096921,2096921, 147472, 721187
2096921,2096921, 147421, 721108
2096921,2096921, 147591, 721048
2096921,2096921, 147518, 721098
2096921,2096921, 147568, 721783
2096921,2096921, 147944, 721798
2096921,2096921, 147872, 722033
2096921,2096921, 147978, 721547
2096921,2096921, 147469, 721718
2096921,2096921, 147394, 722199
2096921,2096921, 147767, 722592
2096921,2096921, 147934, 722377
2096921,2096921, 147772, 721995
2096921,2096921, 147664, 722347
2096921,2096921, 147860, 722826
2096921,2096921, 147990, 723189
2096921,2096921, 148092, 723207
2096921,2096921, 148160, 723181
2096921,2096921, 148392, 722744
2096921,2096921, 148348, 723638
2096921,2096921, 148385, 723388
2096921,2096921, 148406, 723456
2096921,2096921, 148070, 723948
2096921,2096921, 148117, 723701
2096921,2096921, 148175, 723948
2096921,2096921, 148283, 724364
2096921,2096921, 148561, 724710
2096921,2096921, 148577, 723970
2096921,2096921, 148621, 724379
2096921,2096921, 148411, 724527
2096921,2096921, 148683, 724706
2096921,2096921, 148376, 724562
2096921,2096921, 148583, 724371
2096921,2096921, 148674, 724379
2096921,2096921, 148648, 725077
2096921,2096921, 148440, 725269
2096921,2096921, 148844, 725306
2096921,2096921, 148618, 725298
2096921,2096921, 148512, 724981
2096921,2096921, 148553, 725566
2096921,2096921, 148456, 725499
2096921,2096921, 148864, 725768
2096921,2096921, 148627, 725608
2096921,2096921, 148969, 725776
2096921,2096921, 148816, 726734
2096921,2096921, 149041, 726719
2096921,2096921, 148968, 726698
2096921,2096921, 148767, 726752
2096921,2096921, 148719, 726490
2096921,2096921, 149012, 726791
2096921,2096921, 149170, 726741
2096921,2096921, 149135, 726706
2096921,2096921, 149216, 726791
2096921,2096921, 149290, 727194
2096921,2096921, 149439, 727306
2096921,2096921, 149228, 727682
2096921,2096921, 149341, 727713
2096921,2096921, 149477, 727695
2096921,2096921, 149209, 727677
2096921,2096921, 149199, 727843
2096921,2096921, 149309, 728048
2096921,2096921, 149276, 728244
2096921,2096921, 149101, 727943
2096921,2096921, 149214, 727959
2096921,2096921, 149282, 728545
2096921,2096921, 149444, 728656
2096921,2096921, 149808, 728861
2096921,2096921, 149605, 728848
2096921,2096921, 149598, 728637
2096921,2096921, 149628, 729043
2096921,2096921, 149530, 728918
2096921,2096921, 149575, 728929
2096921,2096921, 149801, 729120
2096921,2096921, 149598, 729155
2096921,2096921, 149971, 729381
2096921,2096921, 149973, 729568
2096921,2096921, 149774, 729598
2096921,2096921, 149723, 729737
2096921,2096921, 149590, 729662
2096921,2096921, 149885, 729810
2096921,2096921, 149859, 729923
2096921,2096921, 149983, 729856
2096921,2096921, 149855, 730241
2096921,2096921, 149694, 730292
2096921,2096921, 150155, 730336
2096921,2096921, 149726, 730436
2096921,2096921, 149791, 730614
2096921,2096921, 150110, 730630
2096921,2096921, 150155, 730698
2096921,2096921, 150257, 730806
2096921,2096921, 150227, 730903
2096921,2096921, 150208, 731141
2096921,2096921, 150277, 730977
2096921,2096921, 150230, 731021
2096921,2096921, 150344, 731547
2096921,2096921, 150354, 731427
2096921,2096921, 149970, 731543
2096921,2096921, 150329, 731327
2096921,2096921, 150084, 731510
2096921,2096921, 150318, 732029
2096921,2096921, 150766, 731824
2096921,2096921, 150499, 731931
2096921,2096921, 150511, 731935
2096921,2096921, 150690, 731748
2096921,2096921, 150647, 732426
2096921,2096921, 150430, 732352
2096921,2096921, 150576, 732643
2096921,2096921, 150452, 732385
2096921,2096921, 150397, 732176
2096921,2096921, 150699, 732600
2096921,2096921, 150745, 732787
2096921,2096921, 150487, 732903
2096921,2096921, 150986, 732687
2096921,2096921, 150874, 732583
2096921,2096921, 151073, 733010
2096921,2096921, 150572, 733044
2096921,2096921, 150493, 733392
2096921,2096921, 150619, 733001
2096921,2096921, 150714, 733091
2096921,2096921, 150684, 733445
2096921,2096921, 150542, 733625
2096921,2096921, 150896, 733628
2096921,2096921, 150815, 733262
2096921,2096921, 150816, 733638
2096921,2096921, 150769, 733800
2096921,2096921, 150662, 734002
2096921,2096921, 150979, 734352
2096921,2096921, 150867, 734060
2096921,2096921, 150678, 733811
2096921,2096921, 150750, 734217
2096921,2096921, 150784, 733851
2096921,2096921, 150935, 734429
2096921,2096921, 150939, 734293
2096921,2096921, 151415, 734193
2096921,2096921, 151558, 734810
2096921,2096921, 151510, 735059
2096921,2096921, 151163, 735069
2096921,2096921, 151039, 734773
2096921,2096921, 150892, 735047
2096921,2096921, 150925, 734946
2096921,2096921, 150934, 734939
2096921,2096921, 151021, 734986
2096921,2096921, 151147, 735022
2096921,2096921, 151168, 735088
2096921,2096921, 151407, 735712
2096921,2096921, 151357, 735533
2096921,2096921, 151288, 735453
2096921,2096921, 151185, 735544
2096921,2096921, 151122, 735390
2096921,2096921, 151092, 735744
2096921,2096921, 151324, 736153
2096921,2096921, 151333, 736031
2096921,2096921, 151208, 735849
2096921,2096921, 151301, 736005
2096921,2096921, 151477, 736107
2096921,2096921, 151325, 736210
2096921,2096921, 151150, 736358
2096921,2096921, 151331, 736864
2096921,2096921, 151245, 736192
2096921,2096921, 151619, 736499
2096921,2096921, 151541, 736496
2096921,2096921, 151465, 736760
2096921,2096921, 151560, 736418
2096921,2096921, 151658, 736871
2096921,2096921, 151891, 737422
2096921,2096921, 151820, 737347
2096921,2096921, 151802, 737261
2096921,2096921, 151779, 737299
2096921,2096921, 151452, 737011
2096921,2096921, 151399, 737026
2096921,2096921, 151554, 737450
2096921,2096921, 151593, 737212
2096921,2096921, 151456, 737131
2096921,2096921, 151683, 737084
2096921,2096921, 151690, 737401
2096921,2096921, 151832, 737603
2096921,2096921, 151834, 737813
2096921,2096921, 151811, 737466
2096921,2096921, 151539, 737586
2096921,2096921, 151810, 737621
2096921,2096921, 151563, 737783
2096921,2096921, 151635, 737899
2096921,2096921, 151465, 737773
2096921,2096921, 151676, 738186
2096921,2096921, 152087, 738386
2096921,2096921, 152098, 738512
2096921,2096921, 151975, 738257
2096921,2096921, 151948, 738497
2096921,2096921, 152016, 738632
2096921,2096921, 152120, 738536
2096921,2096921, 151911, 738525
2096921,2096921, 152115, 738718
2096921,2096921, 152137, 738825
2096921,2096921, 152157, 738544
2096921,2096921, 151941, 738972
2096921,2096921, 152001, 738812
2096921,2096921, 151815, 738710
2096921,2096921, 151956, 738932
2096921,2096921, 152181, 738802
2096921,2096921, 151859, 739136
2096921,2096921, 152032, 739198
2096921,2096921, 151985, 739236
2096921,2096921, 152133, 739255
2096921,2096921, 151942, 739345
2096921,2096921, 152288, 739392
2096921,2096921, 152317, 739506
2096921,2096921, 151962, 739559
2096921,2096921, 152324, 739533
2096921,2096921, 152330, 739763
2096921,2096921, 152182, 739679
2096921,2096921, 152246, 739790
2096921,2096921, 152313, 739527
2096921,2096921, 151972, 739908
2096921,2096921, 152191, 739944
2096921,2096921, 152326, 740224
2096921,2096921, 152258, 740210
2096921,2096921, 152216, 740088
2096921,2096921, 152224, 740197
2096921,2096921, 152255, 740097
2096921,2096921, 152114, 740267
2096921,2096921, 152175, 740106
2096921,2096921, 152577, 740114
2096921,2096921, 152370, 739776
2096921,2096921, 152131, 740177
2096921,2096921, 152334, 740431
2096921,2096921, 152217, 740354
2096921,2096921, 152396, 740589
2096921,2096921, 152416, 740919
2096921,2096921, 152500, 740892
2096921,2096921, 152348, 740761
2096921,2096921, 152453, 740990
2096921,2096921, 152482, 740671
2096921,2096921, 152463, 740889
2096921,2096921, 152398, 740991
2096921,2096921, 152412, 740395
2096921,2096921, 152265, 740430
2096921,2096921, 152303, 740103
2096921,2096921, 152477, 740160
2096921,2096921, 152345, 740546
2096921,2096921, 152137, 740065
2096921,2096921, 152242, 739684
2096921,2096921, 152276, 739564
2096921,2096921, 152231, 739486
2096921,2096921, 152317, 739779
2096921,2096921, 152138, 738656
2096921,2096921, 151798, 738468
2096921,2096921, 151726, 738636
2096921,2096921, 151716, 738545
2096921,2096921, 151426, 738435
2096921,2096921, 151238, 736973
2096921,2096921, 151503, 736934
2096921,2096921, 151520, 737040
2096921,2096921, 151229, 736924
2096921,2096921, 151570, 736811
2096921,2096921, 150988, 735622
2096921,2096921, 151157, 735181
2096921,2096921, 150995, 735121
2096921,2096921, 150808, 735342
2096921,2096921, 150895, 735018
2096921,2096921, 149797, 732196
2096921,2096921, 149533, 731189
2096921,2096921, 149279, 731242
2096921,2096921, 149592, 730967
2096921,2096921, 150071, 730931
2096921,2096921, 148904, 727147
2096921,2096921, 148211, 726221
2096921,2096921, 148301, 726233
2096921,2096921, 148487, 725921
2096921,2096921, 148112, 726169
2096921,2096921, 147614, 722974
2096921,2096921, 147293, 722463
2096921,2096921, 146899, 722236
2096921,2096921, 147123, 722430
2096921,2096921, 147390, 722349
2096921,2096921, 146877, 720333
2096921,2096921, 146391, 719562
2096921,2096921, 146330, 719734
2096921,2096921, 146254, 719569
2096921,2096921, 146484, 719188
2096921,2096921, 146029, 717743
2096921,2096921, 146035, 717398
2096921,2096921, 146330, 717453
2096921,2096921, 146032, 717542
2096921,2096921, 145818, 717429
2096921,2096921, 145804, 716275
2096921,2096921, 145736, 716358
2096921,2096921, 145709, 716394
2096921,2096921, 145594, 716549
2096921,2096921, 145273, 716378
2096921,2096921, 144970, 715613
2096921,2096921, 145216, 715353
2096921,2096921, 144871, 715200
2096921,2096921, 145245, 715342
2096921,2096921, 145135, 715314
2096921,2096921, 145512, 715141
2096921,2096921, 145084, 714679
2096921,2096921, 145051, 714904
2096921,2096921, 145089, 714806
2096921,2096921, 145080, 714774
2096921,2096921, 145366, 714886
2096921,2096921, 145097, 714744
2096921,2096921, 144623, 714735
2096921,2096921, 144946, 714937
2096921,2096921, 145207, 715168
2096921,2096921, 145148, 715083
2096921,2096921, 145176, 715251
2096921,2096921, 145728, 715400
2096921,2096921, 145418, 715299
2096921,2096921, 145280, 714876
2096921,2096921, 145060, 715561
2096921,2096921, 145310, 715726
2096921,2096921, 145484, 715925
2096921,2096921, 145656, 715825
2096921,2096921, 145552, 715879
2096921,2096921, 145385, 716468
2096921,2096921, 145584, 716645
2096921,2096921, 145555, 716787
2096921,2096921, 145444, 716824
2096921,2096921, 145361, 716783
2096921,2096921, 145807, 716882
2096921,2096921, 145572, 716766
2096921,2096921, 145528, 716853
2096921,2096921, 145478, 716742
2096921,2096921, 145995, 716842
2096921,2096921, 146027, 718118
2096921,2096921, 145992, 718188
2096921,2096921, 146077, 718264
2096921,2096921, 145911, 718073
2096921,2096921, 145928, 718180
2096921,2096921, 146303, 718758
2096921,2096921, 145942, 718959
2096921,2096921, 145965, 719110
2096921,2096921, 146068, 719409
2096921,2096921, 146164, 719375
2096921,2096921, 146343, 720504
2096921,2096921, 146596, 720533
2096921,2096921, 146909, 720313
2096921,2096921, 146732, 720563
2096921,2096921, 146595, 720435
2096921,2096921, 146688, 721281
2096921,2096921, 146961, 721446
2096921,2096921, 146648, 721514
2096921,2096921, 146881, 721713
2096921,2096921, 146917, 721540
2096921,2096921, 147245, 722752
2096921,2096921, 147386, 722956
2096921,2096921, 147498, 722869
2096921,2096921, 147337, 722879
2096921,2096921, 146953, 722861
2096921,2096921, 147229, 723641
2096921,2096921, 147607, 723889
2096921,2096921, 147745, 723890
2096921,2096921, 147405, 724067
2096921,2096921, 147579, 724259
2096921,2096921, 147732, 724900
2096921,2096921, 148003, 725091
2096921,2096921, 148014, 725034
2096921,2096921, 147725, 725255
2096921,2096921, 147664, 725267
2096921,2096921, 147798, 725825
2096921,2096921, 148017, 726454
2096921,2096921, 147895, 726261
2096921,2096921, 147867, 726329
2096921,2096921, 148297, 726299
2096921,2096921, 148407, 727121
2096921,2096921, 148258, 727216
2096921,2096921, 148661, 727644
2096921,2096921, 148534, 727880
2096921,2096921, 148452, 727766
2096921,2096921, 148412, 728712
2096921,2096921, 148703, 728757
2096921,2096921, 148661, 728792
2096921,2096921, 148791, 728701
2096921,2096921, 148917, 728831
2096921,2096921, 149053, 729737
2096921,2096921, 149011, 729993
2096921,2096921, 149020, 730125
2096921,2096921, 149393, 730208
2096921,2096921, 149105, 730021
2096921,2096921, 149478, 730884
2096921,2096921, 149472, 731561
2096921,2096921, 149254, 731446
2096921,2096921, 149368, 731407
2096921,2096921, 149230, 731293
2096921,2096921, 149718, 732085
2096921,2096921, 149520, 732411
2096921,2096921, 149726, 732361
2096921,2096921, 149641, 732417
2096921,2096921, 149397, 732357
2096921,2096921, 149624, 732920
2096921,2096921, 149975, 733027
2096921,2096921, 150122, 733200
2096921,2096921, 149913, 733095
2096921,2096921, 149915, 732868
2096921,2096921, 150346, 733681
2096921,2096921, 150295, 733768
2096921,2096921, 150066, 734305
2096921,2096921, 150066, 734050
2096921,2096921, 149856, 734024
2096921,2096921, 150274, 734775
2096921,2096921, 150243, 734670
2096921,2096921, 150202, 734728
2096921,2096921, 150405, 734645
2096921,2096921, 150162, 734559
2096921,2096921, 150435, 735081
2096921,2096921, 150392, 735435
2096921,2096921, 150702, 735433
2096921,2096921, 150666, 735434
2096921,2096921, 150398, 735176
2096921,2096921, 150649, 735180
2096921,2096921, 150711, 735040
2096921,2096921, 150496, 735353
2096921,2096921, 150406, 735364
2096921,2096921, 150503, 735507
2096921,2096921, 150337, 735764
2096921,2096921, 150573, 735599
2096921,2096921, 150564, 735604
2096921,2096921, 150474, 735439
2096921,2096921, 150463, 735839
2096921,2096921, 150525, 735130
2096921,2096921, 150417, 735199
2096921,2096921, 150380, 735483
2096921,2096921, 150109, 735670
2096921,2096921, 150137, 735485
2096921,2096921, 150388, 735715
2096921,2096921, 150488, 735541
2096921,2096921, 150381, 735428
2096921,2096921, 150569, 735708
2096921,2096921, 150461, 735497
2096921,2096921, 150323, 735753
2096921,2096921, 150218, 735457
2096921,2096921, 150437, 735201
2096921,2096921, 150572, 735320
2096921,2096921, 150378, 735283
2096921,2096921, 150693, 735463
2096921,2096921, 150332, 735190
2096921,2096921, 150369, 735416
2096921,2096921, 150348, 735172
2096921,2096921, 150466, 735151
2096921,2096921, 150308, 735383
2096921,2096921, 150053, 735309
2096921,2096921, 149847, 735135
2096921,2096921, 150204, 735024
2096921,2096921, 150157, 735271
2096921,2096921, 150382, 735406
2096921,2096921, 150447, 735388
2096921,2096921, 150246, 735513
2096921,2096921, 150163, 735582
2096921,2096921, 150060, 735388
2096921,2096921, 150024, 735575
2096921,2096921, 150298, 735434
2096921,2096921, 150483, 735547
2096921,2096921, 150405, 735509
2096921,2096921, 150388, 735259
2096921,2096921, 150720, 735625
2096921,2096921, 150482, 735846
2096921,2096921, 150498, 735990
2096921,2096921, 150591, 735640
2096921,2096921, 150429, 735830
2096921,2096921, 150451, 736183
2096921,2096921, 150552, 736337
2096921,2096921, 150144, 736479
2096921,2096921, 150510, 736451
2096921,2096921, 150435, 736358
2096921,2096921, 150564, 736586
2096921,2096921, 150716, 736855
2096921,2096921, 150913, 736823
2096921,2096921, 150572, 736803
2096921,2096921, 150731, 736719
2096921,2096921, 150846, 737314
2096921,2096921, 150794, 737544
2096921,2096921, 150666, 737567
2096921,2096921, 150711, 737899
2096921,2096921, 150774, 737394
2096921,2096921, 150934, 738335
2096921,2096921, 151341, 738459
2096921,2096921, 151619, 738686
2096921,2096921, 151107, 738458
2096921,2096921, 150965, 738444
2096921,2096921, 150948, 738836
2096921,2096921, 151210, 739200
2096921,2096921, 151264, 739296
2096921,2096921, 151345, 739212
2096921,2096921, 151733, 738974
2096921,2096921, 151878, 739649
2096921,2096921, 151830, 740155
2096921,2096921, 151541, 740249
2096921,2096921, 151844, 740447
2096921,2096921, 151699, 740461
2096921,2096921, 151567, 740730
2096921,2096921, 151554, 740638
2096921,2096921, 151659, 740571
2096921,2096921, 151882, 740789
2096921,2096921, 151971, 740879
2096921,2096921, 152093, 741340
2096921,2096921, 151878, 741225
2096921,2096921, 151936, 741338
2096921,2096921, 151835, 741481
2096921,2096921, 151955, 741815
2096921,2096921, 151839, 742257
2096921,2096921, 151729, 742042
2096921,2096921, 151832, 742021
2096921,2096921, 151879, 741622
2096921,2096921, 151912, 741964
2096921,2096921, 152069, 742459
2096921,2096921, 152560, 742692
2096921,2096921, 152188, 742742
2096921,2096921, 152339, 742937
2096921,2096921, 152201, 742547
2096921,2096921, 152279, 743214
2096921,2096921, 152216, 743467
2096921,2096921, 152239, 743348
2096921,2096921, 152251, 743443
2096921,2096921, 152529, 743356
2096921,2096921, 152792, 744241
2096921,2096921, 152449, 744304
2096921,2096921, 152743, 744473
2096921,2096921, 152811, 744390
2096921,2096921, 152496, 743911
2096921,2096921, 152611, 744551
2096921,2096921, 152935, 744854
2096921,2096921, 152637, 744548
2096921,2096921, 152770, 744681
2096921,2096921, 152919, 744780
2096921,2096921, 153058, 745114
2096921,2096921, 152859, 745162
2096921,2096921, 152877, 745325
2096921,2096921, 153149, 745618
2096921,2096921, 152803, 745334
2096921,2096921, 153085, 745584
2096921,2096921, 153109, 745794
2096921,2096921, 152974, 745535
2096921,2096921, 153017, 745679
2096921,2096921, 153148, 745973
2096921,2096921, 153412, 746499
2096921,2096921, 153178, 746484
2096921,2096921, 153349, 746617
2096921,2096921, 153119, 746536
2096921,2096921, 153194, 746764
2096921,2096921, 153324, 746888
2096921,2096921, 153293, 746947
2096921,2096921, 153191, 746953
2096921,2096921, 153587, 747005
2096921,2096921, 153434, 746957
2096921,2096921, 153623, 747569
2096921,2096921, 153642, 748023
2096921,2096921, 153691, 747827
2096921,2096921, 153772, 747508
2096921,2096921, 153549, 747610
2096921,2096921, 153553, 748181
2096921,2096921, 154054, 748268
2096921,2096921, 153608, 748380
2096921,2096921, 153604, 748218
2096921,2096921, 153748, 748107
2096921,2096921, 154089, 748475
2096921,2096921, 153975, 748702
2096921,2096921, 153894, 749044
2096921,2096921, 153806, 748716
2096921,2096921, 153590, 748746
2096921,2096921, 153677, 749010
2096921,2096921, 153961, 749064
2096921,2096921, 153911, 748997
2096921,2096921, 153632, 748878
2096921,2096921, 154002, 749219
2096921,2096921, 154054, 749279
2096921,2096921, 153993, 749232
2096921,2096921, 154285, 749451
2096921,2096921, 154256, 749451
2096921,2096921, 154009, 749448
2096921,2096921, 154003, 749468
2096921,2096921, 153847, 749574
2096921,2096921, 153631, 749739
2096921,2096921, 154031, 749573
2096921,2096921, 154010, 749533
2096921,2096921, 154247, 750341
2096921,2096921, 154163, 750398
2096921,2096921, 154537, 750287
2096921,2096921, 154374, 750299
2096921,2096921, 154322, 750181
2096921,2096921, 154108, 750631
2096921,2096921, 154383, 750591
2096921,2096921, 154372, 750777
2096921,2096921, 154143, 751157
2096921,2096921, 154132, 750848
2096921,2096921, 154449, 750916
2096921,2096921, 154328, 750917
2096921,2096921, 154557, 750958
2096921,2096921, 154725, 751084
2096921,2096921, 154673, 751249
2096921,2096921, 154286, 751341
2096921,2096921, 154607, 751501
2096921,2096921, 154567, 751199
2096921,2096921, 154590, 751172
2096921,2096921, 154412, 751349
2096921,2096921, 154765, 751579
2096921,2096921, 154740, 751701
2096921,2096921, 154999, 751389
2096921,2096921, 154888, 751419
2096921,2096921, 154473, 751275
2096921,2096921, 154662, 751626
2096921,2096921, 154570, 751878
2096921,2096921, 154545, 751917
2096921,2096921, 154757, 751685
2096921,2096921, 154643, 751464
2096921,2096921, 154923, 751930
2096921,2096921, 154795, 751852
2096921,2096921, 154871, 752047
2096921,2096921, 154746, 752268
2096921,2096921, 154979, 751878
2096921,2096921, 154973, 752044
2096921,2096921, 155084, 752487
2096921,2096921, 154737, 752189
2096921,2096921, 154673, 752344
2096921,2096921, 155041, 752499
2096921,2096921, 155055, 752366
2096921,2096921, 155032, 752651
2096921,2096921, 154921, 752473
2096921,2096921, 154863, 752494
2096921,2096921, 154756, 752514
2096921,2096921, 154787, 752316
2096921,2096921, 154712, 752740
2096921,2096921, 154590, 752686
2096921,2096921, 154930, 752456
2096921,2096921, 154848, 752641
2096921,2096921, 155133, 752671
2096921,2096921, 155084, 752807
2096921,2096921, 155133, 752722
2096921,2096921, 155219, 753028
2096921,2096921, 155008, 752798
2096921,2096921, 154882, 752936
2096921,2096921, 154854, 752833
2096921,2096921, 154915, 753096
2096921,2096921, 155132, 753095
2096921,2096921, 155079, 753193
2096921,2096921, 155218, 752953
2096921,2096921, 155100, 753431
2096921,2096921, 155065, 753302
2096921,2096921, 155187, 753419
2096921,2096921, 154903, 753489
2096921,2096921, 155010, 753228
2096921,2096921, 155004, 753203
2096921,2096921, 155082, 753229
2096921,2096921, 155013, 753468
2096921,2096921, 154911, 753105
2096921,2096921, 155299, 753225
2096921,2096921, 155040, 753379
2096921,2096921, 155418, 753433
2096921,2096921, 155095, 753453
2096921,2096921, 155194, 753852
2096921,2096921, 155528, 753780
2096921,2096921, 154835, 753760
2096921,2096921, 155379, 753902
2096921,2096921, 155179, 753958
2096921,2096921, 155261, 753913
2096921,2096921, 155499, 753816
2096921,2096921, 155520, 754111
2096921,2096921, 155334, 753993
2096921,2096921, 155422, 753958
2096921,2096921, 155308, 753960
2096921,2096921, 155361, 754190
2096921,2096921, 155262, 754048
2096921,2096921, 155179, 754149
2096921,2096921, 155534, 753970
2096921,2096921, 155722, 754136
2096921,2096921, 155823, 754344
2096921,2096921, 155564, 754649
2096921,2096921, 155452, 754135
2096921,2096921, 155305, 754375
2096921,2096921, 155176, 754035
2096921,2096921, 155302, 754504
2096921,2096921, 155135, 754634
2096921,2096921, 155147, 754456
2096921,2096921, 155220, 754547
2096921,2096921, 155448, 754436
2096921,2096921, 155406, 754146
2096921,2096921, 155556, 754419
2096921,2096921, 155431, 754693
2096921,2096921, 155577, 754592
2096921,2096921, 155461, 754898
2096921,2096921, 155690, 754812
2096921,2096921, 155585, 754541
2096921,2096921, 155505, 754698
2096921,2096921, 155357, 754504
2096921,2096921, 155388, 754723
2096921,2096921, 155808, 754791
2096921,2096921, 155502, 754701
2096921,2096921, 155439, 754881
2096921,2096921, 155629, 754958
2096921,2096921, 155277, 754663
2096921,2096921, 155446, 754800
2096921,2096921, 155037, 754696
2096921,2096921, 155196, 754633
2096921,2096921, 155474, 754488
2096921,2096921, 155688, 754356
2096921,2096921, 155496, 754756
2096921,2096921, 155487, 754460
2096921,2096921, 155516, 754974
2096921,2096921, 155319, 754749
2096921,2096921, 155614, 754841
2096921,2096921, 155298, 754624
2096921,2096921, 155416, 754679
2096921,2096921, 155105, 754392
2096921,2096921, 155339, 754730
2096921,2096921, 155333, 754678
2096921,2096921, 155717, 754898
2096921,2096921, 155649, 754982
2096921,2096921, 155843, 754664
2096921,2096921, 155604, 754742
2096921,2096921, 155322, 754943
2096921,2096921, 155334, 755225
2096921,2096921, 155324, 754532
2096921,2096921, 155327, 754467
2096921,2096921, 155368, 754430
2096921,2096921, 155699, 754700
2096921,2096921, 155730, 754855
2096921,2096921, 155315, 754581
2096921,2096921, 155594, 755079
2096921,2096921, 155547, 754634
2096921,2096921, 155556, 754747
2096921,2096921, 155337, 754414
2096921,2096921, 155469, 754728
2096921,2096921, 155314, 754608
2096921,2096921, 155447, 754725
2096921,2096921, 155298, 754833
2096921,2096921, 155571, 754575
2096921,2096921, 155736, 754986
2096921,2096921, 155582, 754742
2096921,2096921, 155564, 754866
2096921,2096921, 155755, 754877
2096921,2096921, 155653, 754543
2096921,2096921, 155584, 754561
2096921,2096921, 155585, 754803
2096921,2096921, 155366, 754680
2096921,2096921, 155482, 754821
2096921,2096921, 155416, 754335
2096921,2096921, 155006, 754070
2096921,2096921, 155159, 753744
2096921,2096921, 155223, 753593
2096921,2096921, 155109, 753848
2096921,2096921, 154825, 753074
2096921,2096921, 154793, 752764
2096921,2096921, 155327, 753112
2096921,2096921, 155171, 752911
2096921,2096921, 154957, 753122
2096921,2096921, 154862, 751741
2096921,2096921, 154765, 751654
2096921,2096921, 154733, 751422
2096921,2096921, 154982, 751383
2096921,2096921, 154707, 751341
2096921,2096921, 154055, 750004
2096921,2096921, 153995, 749474
2096921,2096921, 153852, 749394
2096921,2096921, 154143, 749593
2096921,2096921, 153987, 749458
2096921,2096921, 153740, 747938
2096921,2096921, 153696, 747605
2096921,2096921, 153522, 747600
2096921,2096921, 153448, 747505
2096921,2096921, 153579, 747463
2096921,2096921, 152422, 743904
2096921,2096921, 152193, 743088
2096921,2096921, 152104, 742639
2096921,2096921, 152195, 742681
2096921,2096921, 152273, 743000
2096921,2096921, 151382, 738560
2096921,2096921, 150947, 737985
2096921,2096921, 151227, 737411
2096921,2096921, 151045, 737395
2096921,2096921, 150798, 737526
2096921,2096921, 149852, 734324
2096921,2096921, 149584, 733367
2096921,2096921, 149388, 733332
2096921,2096921, 149335, 733598
2096921,2096921, 149977, 733434
2096921,2096921, 148877, 731218
2096921,2096921, 148810, 730310
2096921,2096921, 148924, 730092
2096921,2096921, 148891, 730129
2096921,2096921, 148745, 730226
2096921,2096921, 148147, 728455
2096921,2096921, 148030, 727736
2096921,2096921, 148143, 727546
2096921,2096921, 147936, 727639
2096921,2096921, 148027, 727514
2096921,2096921, 147503, 726210
2096921,2096921, 147783, 725990
2096921,2096921, 147593, 726058
2096921,2096921, 147761, 725895
2096921,2096921, 147778, 725660
2096921,2096921, 147392, 725151
2096921,2096921, 147353, 724684
2096921,2096921, 147475, 724721
2096921,2096921, 147182, 724834
2096921,2096921, 147089, 724770
2096921,2096921, 147490, 724386
2096921,2096921, 147285, 724011
2096921,2096921, 147410, 723608
2096921,2096921, 147344, 723867
2096921,2096921, 147079, 723652
2096921,2096921, 147030, 723580
2096921,2096921, 146927, 723464
2096921,2096921, 147119, 723293
2096921,2096921, 147102, 723632
2096921,2096921, 147037, 723399
2096921,2096921, 147020, 723347
2096921,2096921, 147048, 723226
2096921,2096921, 147080, 723310
2096921,2096921, 147034, 723632
2096921,2096921, 146837, 723642
2096921,2096921, 146935, 723914
2096921,2096921, 147084, 723618
2096921,2096921, 147107, 723311
2096921,2096921, 147196, 723818
2096921,2096921, 146998, 724021
2096921,2096921, 146971, 723851
2096921,2096921, 147232, 723930
2096921,2096921, 147056, 724030
2096921,2096921, 146995, 724289
2096921,2096921, 147194, 723648
2096921,2096921, 147250, 724129
2096921,2096921, 147220, 723701
2096921,2096921, 147510, 724140
2096921,2096921, 147312, 724048
2096921,2096921, 147370, 724242
2096921,2096921, 147264, 724863
2096921,2096921, 147587, 724907
2096921,2096921, 147455, 724765
2096921,2096921, 147106, 725034
2096921,2096921, 147157, 725032
2096921,2096921, 147120, 725217
2096921,2096921, 147272, 725637
2096921,2096921, 147707, 725323
2096921,2096921, 147533, 725328
2096921,2096921, 147499, 725488
2096921,2096921, 147612, 726378
2096921,2096921, 147826, 726513
2096921,2096921, 147907, 726346
2096921,2096921, 147861, 726515
2096921,2096921, 147747, 726699
2096921,2096921, 148062, 727353
2096921,2096921, 148058, 727225
2096921,2096921, 148128, 726954
2096921,2096921, 147948, 727259
2096921,2096921, 148097, 727222
2096921,2096921, 148520, 727591
2096921,2096921, 148017, 727989
2096921,2096921, 148070, 728120
2096921,2096921, 148450, 727899
2096921,2096921, 148313, 728061
2096921,2096921, 148210, 728507
2096921,2096921, 148502, 728829
2096921,2096921, 148251, 728643
2096921,2096921, 148629, 728471
2096921,2096921, 148348, 728522
2096921,2096921, 148501, 729307
2096921,2096921, 148970, 729239
2096921,2096921, 148786, 729112
2096921,2096921, 148593, 729203
2096921,2096921, 148521, 729249
2096921,2096921, 148632, 729653
2096921,2096921, 148682, 730044
2096921,2096921, 148670, 729836
2096921,2096921, 148821, 729912
2096921,2096921, 148687, 729961
2096921,2096921, 149286, 730810
2096921,2096921, 149099, 730902
2096921,2096921, 149581, 731097
2096921,2096921, 149344, 731131
2096921,2096921, 149130, 731072
2096921,2096921, 149298, 731681
2096921,2096921, 149280, 731722
2096921,2096921, 149430, 731796
2096921,2096921, 149400, 731589
2096921,2096921, 149450, 731749
2096921,2096921, 149546, 732138
2096921,2096921, 149981, 732788
2096921,2096921, 149584, 732452
2096921,2096921, 149676, 732570
2096921,2096921, 149776, 732881
2096921,2096921, 149540, 733530
2096921,2096921, 149644, 733308
2096921,2096921, 149913, 733376
2096921,2096921, 149993, 733341
2096921,2096921, 149942, 733334
2096921,2096921, 150199, 733935
2096921,2096921, 150249, 733758
2096921,2096921, 150102, 733914
2096921,2096921, 149896, 733975
2096921,2096921, 149950, 733927
2096921,2096921, 150056, 734234
2096921,2096921, 150009, 733983
2096921,2096921, 149958, 734582
2096921,2096921, 149952, 734370
2096921,2096921, 150206, 734466
2096921,2096921, 150445, 734748
2096921,2096921, 150381, 734885
2096921,2096921, 150146, 734616
2096921,2096921, 150564, 734762
2096921,2096921, 150112, 734484
2096921,2096921, 150158, 734800
2096921,2096921, 150158, 734630
2096921,2096921, 149884, 735089
2096921,2096921, 150111, 734747
2096921,2096921, 150169, 734904
2096921,2096921, 150535, 735172
2096921,2096921, 150629, 735277
2096921,2096921, 150536, 734955
2096921,2096921, 150630, 735303
2096921,2096921, 150322, 735028
2096921,2096921, 150518, 734906
2096921,2096921, 150263, 734660
2096921,2096921, 150457, 734841
2096921,2096921, 150455, 734754
2096921,2096921, 150304, 734820
2096921,2096921, 150331, 734525
2096921,2096921, 150510, 734597
2096921,2096921, 150325, 734426
2096921,2096921, 150491, 734560
2096921,2096921, 150135, 734645
2096921,2096921, 150133, 734112
2096921,2096921, 149886, 734163
2096921,2096921, 149890, 733950
2096921,2096921, 150069, 733846
2096921,2096921, 149915, 733777
2096921,2096921, 150222, 733633
2096921,2096921, 149972, 733459
2096921,2096921, 150158, 733229
2096921,2096921, 149704, 733412
2096921,2096921, 149923, 733665
2096921,2096921, 149890, 733067
2096921,2096921, 149957, 733169
2096921,2096921, 150108, 733108
2096921,2096921, 149707, 733019
2096921,2096921, 149825, 732736
2096921,2096921, 149691, 732581
2096921,2096921, 149915, 732420
2096921,2096921, 150155, 732503
2096921,2096921, 150264, 732478
2096921,2096921, 149860, 732683
2096921,2096921, 149588, 731984
2096921,2096921, 149493, 731846
2096921,2096921, 149813, 731878
2096921,2096921, 149749, 731572
2096921,2096921, 149512, 731801
2096921,2096921, 149835, 731837
2096921,2096921, 149827, 731624
2096921,2096921, 149658, 731509
2096921,2096921, 149567, 731810
2096921,2096921, 149582, 731596
2096921,2096921, 149276, 731328
2096921,2096921, 149402, 731299
2096921,2096921, 149345, 731517
2096921,2096921, 149309, 731243
2096921,2096921, 149294, 731375
2096921,2096921, 149559, 731037
2096921,2096921, 149757, 731003
2096921,2096921, 149673, 730747
2096921,2096921, 149645, 731203
2096921,2096921, 149509, 731374
2096921,2096921, 149646, 730828
2096921,2096921, 149555, 731010
2096921,2096921, 149324, 730916
2096921,2096921, 149494, 730891
2096921,2096921, 149376, 730963
2096921,2096921, 149789, 730946
2096921,2096921, 149814, 731175
2096921,2096921, 149535, 731160
2096921,2096921, 149491, 731295
2096921,2096921, 149545, 731390
2096921,2096921, 149317, 731568
2096921,2096921, 149092, 731435
2096921,2096921, 149669, 731387
2096921,2096921, 149661, 731798
2096921,2096921, 149417, 731437
2096921,2096921, 149692, 731916
2096921,2096921, 149833, 731844
2096921,2096921, 149780, 732200
2096921,2096921, 149813, 732254
2096921,2096921, 149840, 732046
2096921,2096921, 149764, 732454
2096921,2096921, 149586, 732495
2096921,2096921, 149868, 732579
2096921,2096921, 149812, 732427
2096921,2096921, 149924, 732481
2096921,2096921, 150087, 732994
2096921,2096921, 150281, 733135
2096921,2096921, 149844, 732822
2096921,2096921, 149972, 732988
2096921,2096921, 149945, 732992
2096921,2096921, 150214, 733238
2096921,2096921, 150212, 733069
2096921,2096921, 149990, 733257
2096921,2096921, 149979, 732921
2096921,2096921, 150048, 733083
2096921,2096921, 150372, 733597
2096921,2096921, 150240, 733879
2096921,2096921, 150406, 733741
2096921,2096921, 150359, 733700
2096921,2096921, 150115, 733869
2096921,2096921, 150088, 733884
2096921,2096921, 150360, 733917
2096921,2096921, 150348, 733954
2096921,2096921, 150259, 733818
2096921,2096921, 150152, 733877
2096921,2096921, 150392, 734083
2096921,2096921, 150593, 734058
2096921,2096921, 150502, 734469
2096921,2096921, 150562, 733964
2096921,2096921, 150459, 734066
2096921,2096921, 150498, 734244
2096921,2096921, 150576, 734140
2096921,2096921, 150461, 734708
2096921,2096921, 150701, 734202
2096921,2096921, 150639, 733989
2096921,2096921, 150637, 734822
2096921,2096921, 150654, 734900
2096921,2096921, 150410, 734811
2096921,2096921, 150580, 735217
2096921,2096921, 150827, 734945
2096921,2096921, 150849, 734715
2096921,2096921, 150709, 735115
2096921,2096921, 150752, 735128
2096921,2096921, 150579, 735080
2096921,2096921, 150726, 734721
2096921,2096921, 150928, 734860
2096921,2096921, 150675, 735513
2096921,2096921, 150775, 735509
2096921,2096921, 151025, 735363
2096921,2096921, 150594, 735388
2096921,2096921, 151062, 735650
2096921,2096921, 150881, 735534
2096921,2096921, 150844, 735035
2096921,2096921, 150885, 735351
2096921,2096921, 150717, 735257
2096921,2096921, 151093, 735316
2096921,2096921, 151001, 735465
2096921,2096921, 150801, 735649
2096921,2096921, 150824, 735610
2096921,2096921, 150949, 735708
2096921,2096921, 151034, 735832
2096921,2096921, 151124, 735615
2096921,2096921, 151005, 735839
2096921,2096921, 151076, 735569
2096921,2096921, 150857, 735930
2096921,2096921, 151094, 735933
2096921,2096921, 151034, 735781
2096921,2096921, 150923, 735667
2096921,2096921, 150667, 736162
2096921,2096921, 150886, 736465
2096921,2096921, 151158, 735957
2096921,2096921, 151022, 736378
2096921,2096921, 151203, 736050
2096921,2096921, 150940, 736301
2096921,2096921, 150983, 736267
2096921,2096921, 151170, 736383
2096921,2096921, 151118, 736642
2096921,2096921, 151438, 736622
2096921,2096921, 151320, 736651
2096921,2096921, 151000, 736593
2096921,2096921, 150966, 736541
2096921,2096921, 151089, 736483
2096921,2096921, 151187, 736583
2096921,2096921, 151248, 736191
2096921,2096921, 151163, 736259
2096921,2096921, 151139, 736454
2096921,2096921, 151276, 736479
2096921,2096921, 151048, 736242
2096921,2096921, 151185, 736359
2096921,2096921, 151204, 736431
2096921,2096921, 151179, 736480
2096921,2096921, 151092, 736536
2096921,2096921, 150956, 736138
2096921,2096921, 151516, 736312
2096921,2096921, 151302, 736612
2096921,2096921, 151452, 736605
2096921,2096921, 151357, 736732
2096921,2096921, 151427, 736577
2096921,2096921, 151357, 736963
2096921,2096921, 151431, 736857
2096921,2096921, 151647, 736700
2096921,2096921, 151559, 736598
2096921,2096921, 151254, 736895
2096921,2096921, 151450, 736896
2096921,2096921, 151449, 736782
2096921,2096921, 151147, 736430
2096921,2096921, 151308, 736950
2096921,2096921, 151359, 737015
2096921,2096921, 151450, 736935
2096921,2096921, 151303, 736772
2096921,2096921, 151247, 736697
2096921,2096921, 151376, 736580
2096921,2096921, 151344, 736867
2096921,2096921, 151224, 736846
2096921,2096921, 151182, 736759
2096921,2096921, 151478, 737103
2096921,2096921, 151485, 737046
2096921,2096921, 151446, 736855
2096921,2096921, 151506, 736876
2096921,2096921, 151398, 736612
2096921,2096921, 151610, 736805
2096921,2096921, 151413, 736746
2096921,2096921, 151608, 736785
2096921,2096921, 151529, 736508
2096921,2096921, 151608, 736511
2096921,2096921, 151533, 736732
2096921,2096921, 151729, 736677
2096921,2096921, 151440, 736692
2096921,2096921, 151552, 737106
2096921,2096921, 151340, 736859
2096921,2096921, 151409, 736703
2096921,2096921, 151182, 736973
2096921,2096921, 151444, 736833
2096921,2096921, 151524, 736709
2096921,2096921, 151716, 737003
2096921,2096921, 151572, 736563
2096921,2096921, 151367, 736926
2096921,2096921, 151523, 736909
2096921,2096921, 151817, 737335
2096921,2096921, 151704, 737077
2096921,2096921, 151715, 736994
2096921,2096921, 151195, 736859
2096921,2096921, 151243, 736653
2096921,2096921, 151560, 736914
2096921,2096921, 151417, 736658
2096921,2096921, 151542, 736893
2096921,2096921, 151391, 736729
2096921,2096921, 151580, 736636
2096921,2096921, 151744, 736719
2096921,2096921, 151609, 737005
2096921,2096921, 151458, 736620
2096921,2096921, 151363, 736525
2096921,2096921, 151312, 736470
2096921,2096921, 151264, 736319
2096921,2096921, 151596, 736463
2096921,2096921, 151572, 736334
2096921,2096921, 151313, 736745
2096921,2096921, 151318, 736269
2096921,2096921, 151431, 736572
2096921,2096921, 151297, 736698
2096921,2096921, 151236, 736418
2096921,2096921, 151440, 736486
2096921,2096921, 151185, 736296
2096921,2096921, 151320, 736528
2096921,2096921, 151242, 736327
2096921,2096921, 151493, 736786
2096921,2096921, 151597, 736465
2096921,2096921, 151472, 736482
2096921,2096921, 151592, 736602
2096921,2096921, 151391, 736320
2096921,2096921, 151451, 736616
2096921,2096921, 151383, 736336
2096921,2096921, 151169, 736244
2096921,2096921, 151333, 736032
2096921,2096921, 151117, 736175
2096921,2096921, 151638, 735974
2096921,2096921, 151478, 736226
2096921,2096921, 151320, 736206
2096921,2096921, 151230, 735899
2096921,2096921, 151194, 736001
2096921,2096921, 151344, 736098
2096921,2096921, 151024, 736305
2096921,2096921, 151324, 736223
2096921,2096921, 151383, 736401
2096921,2096921, 151580, 736148
2096921,2096921, 151638, 736238
2096921,2096921, 151518, 736132
2096921,2096921, 151408, 735902
2096921,2096921, 151215, 736119
2096921,2096921, 151419, 735980
2096921,2096921, 151215, 735766
2096921,2096921, 151473, 735969
2096921,2096921, 151391, 735833
2096921,2096921, 151136, 735855
2096921,2096921, 151473, 735996
2096921,2096921, 151455, 736113
2096921,2096921, 151508, 736054
2096921,2096921, 151630, 735915
2096921,2096921, 151675, 736038
2096921,2096921, 151300, 735863
2096921,2096921, 151313, 735687
2096921,2096921, 151293, 735680
2096921,2096921, 151145, 735609
2096921,2096921, 151298, 735895
2096921,2096921, 151083, 735551
2096921,2096921, 151313, 735672
2096921,2096921, 151410, 735497
2096921,2096921, 151424, 735487
2096921,2096921, 151605, 735311
2096921,2096921, 151604, 735509
2096921,2096921, 151491, 735545
2096921,2096921, 151481, 735657
2096921,2096921, 151282, 735958
2096921,2096921, 151539, 735757
2096921,2096921, 151484, 735447
2096921,2096921, 151453, 735452
2096921,2096921, 151544, 735429
2096921,2096921, 151455, 735602
2096921,2096921, 151541, 735660
2096921,2096921, 151409, 735397
2096921,2096921, 150813, 735062
2096921,2096921, 151239, 735065
2096921,2096921, 150975, 734670
2096921,2096921, 151256, 734779
2096921,2096921, 150992, 734580
2096921,2096921, 151074, 734790
2096921,2096921, 151214, 734800
2096921,2096921, 151276, 734799
2096921,2096921, 151329, 734805
2096921,2096921, 151197, 735155
2096921,2096921, 151168, 735036
2096921,2096921, 150858, 734838
2096921,2096921, 151126, 734979
2096921,2096921, 151092, 734651
2096921,2096921, 151225, 734658
2096921,2096921, 151219, 734348
2096921,2096921, 151117, 734272
2096921,2096921, 151293, 734690
2096921,2096921, 151321, 734448
2096921,2096921, 151027, 734430
2096921,2096921, 150875, 734226
2096921,2096921, 151063, 734134
2096921,2096921, 151102, 734203
2096921,2096921, 151179, 734286
2096921,2096921, 151221, 734314
2096921,2096921, 151331, 734093
2096921,2096921, 150939, 734318
2096921,2096921, 150944, 734449
2096921,2096921, 151249, 734289
2096921,2096921, 151084, 734295
2096921,2096921, 151003, 734126
2096921,2096921, 150855, 733815
2096921,2096921, 150771, 734353
2096921,2096921, 150776, 733870
2096921,2096921, 150962, 734082
2096921,2096921, 150806, 733456
2096921,2096921, 150861, 733022
2096921,2096921, 150755, 732854
2096921,2096921, 150593, 732646
2096921,2096921, 150400, 733024
2096921,2096921, 150214, 732147
2096921,2096921, 150213, 731983
2096921,2096921, 150331, 732267
2096921,2096921, 150451, 732132
2096921,2096921, 150316, 731803
2096921,2096921, 150115, 730682
2096921,2096921, 150022, 730558
2096921,2096921, 150085, 730276
2096921,2096921, 150150, 730400
2096921,2096921, 149939, 730442
2096921,2096921, 149576, 728723
2096921,2096921, 149217, 728323
2096921,2096921, 149249, 728479
2096921,2096921, 149610, 728306
2096921,2096921, 149537, 728333
2096921,2096921, 149146, 726939
2096921,2096921, 149065, 726541
2096921,2096921, 148847, 726712
2096921,2096921, 149047, 726393
2096921,2096921, 149061, 726805
2096921,2096921, 148071, 723001
2096921,2096921, 147960, 722457
2096921,2096921, 147755, 722137
2096921,2096921, 147919, 722193
2096921,2096921, 147797, 722448
2096921,2096921, 146574, 717651
2096921,2096921, 146597, 716722
2096921,2096921, 146639, 716838
2096921,2096921, 146435, 716655
2096921,2096921, 146354, 716611
2096921,2096921, 145499, 713246
2096921,2096921, 145084, 712880
2096921,2096921, 145117, 712508
2096921,2096921, 145109, 712396
2096921,2096921, 145107, 712427
2096921,2096921, 144640, 710224
2096921,2096921, 144351, 709441
2096921,2096921, 144430, 709581
2096921,2096921, 144526, 709519
2096921,2096921, 144389, 709492
2096921,2096921, 143772, 707684
2096921,2096921, 143729, 707388
2096921,2096921, 143816, 707283
2096921,2096921, 143515, 706843
2096921,2096921, 143527, 706973
2096921,2096921, 143252, 705798
2096921,2096921, 143114, 705702
2096921,2096921, 142983, 705184
2096921,2096921, 143235, 705405
2096921,2096921, 143199, 705205
2096921,2096921, 143141, 704385
2096921,2096921, 143199, 704147
2096921,2096921, 142952, 704405
2096921,2096921, 142704, 704208
2096921,2096921, 142987, 704245
2096921,2096921, 142415, 703600
2096921,2096921, 142536, 703515
2096921,2096921, 142562, 703612
2096921,2096921, 142409, 703123
2096921,2096921, 142728, 703142
2096921,2096921, 142672, 702946
2096921,2096921, 142538, 703069
2096921,2096921, 142353, 703055
2096921,2096921, 142288, 702657
2096921,2096921, 142655, 702590
2096921,2096921, 142592, 702647
2096921,2096921, 142736, 702918
2096921,2096921, 142625, 703054
2096921,2096921, 142587, 702967
2096921,2096921, 142653, 703097
2096921,2096921, 142608, 703442
2096921,2096921, 142321, 703544
2096921,2096921, 142525, 703289
2096921,2096921, 142638, 703085
2096921,2096921, 142602, 703046
2096921,2096921, 142849, 703427
2096921,2096921, 142843, 703489
2096921,2096921, 142707, 703403
2096921,2096921, 142892, 703774
2096921,2096921, 142918, 703825
2096921,2096921, 142731, 703487
2096921,2096921, 142806, 703889
2096921,2096921, 142723, 704078
2096921,2096921, 142565, 703817
2096921,2096921, 142753, 703851
2096921,2096921, 143005, 704549
2096921,2096921, 143405, 704665
2096921,2096921, 143062, 704701
2096921,2096921, 143167, 704900
2096921,2096921, 143000, 704897
2096921,2096921, 143101, 705170
2096921,2096921, 143495, 705476
2096921,2096921, 143192, 705545
2096921,2096921, 143435, 705454
2096921,2096921, 143427, 705437
2096921,2096921, 143580, 706307
2096921,2096921, 143832, 706586
2096921,2096921, 143856, 706736
2096921,2096921, 143382, 706823
2096921,2096921, 143431, 706392
2096921,2096921, 143585, 707247
2096921,2096921, 143942, 707065
