2096921,2096921,309895,252171
2096921,2096921,309925,252197
2096921,2096921,309837,252129
2096921,2096921,309821,252065
2096921,2096921,309754,252313
2096921,2096921,309873,252055
2096921,2096921,309787,252380
2096921,2096921,309639,252207
2096921,2096921,309504,252202
2096921,2096921,309569,251855
2096921,2096921,309585,251821
2096921,2096921,309453,251929
2096921,2096921,309592,252161
2096921,2096921,309423,252127
2096921,2096921,309568,251932
2096921,2096921,309687,252081
2096921,2096921,309699,251955
2096921,2096921,309624,252065
2096921,2096921,309617,251971
2096921,2096921,309669,251759
2096921,2096921,309483,251907
2096921,2096921,309602,252136
2096921,2096921,309526,252062
2096921,2096921,309611,252076
2096921,2096921,309745,252021
2096921,2096921,309586,252141
2096921,2096921,309084,251717
2096921,2096921,309111,251435
2096921,2096921,308783,251292
2096921,2096921,308974,251492
2096921,2096921,308682,251556
2096921,2096921,308366,251290
2096921,2096921,308411,251249
2096921,2096921,308531,251508
2096921,2096921,308422,251411
2096921,2096921,308697,251455
2096921,2096921,308023,250950
2096921,2096921,307973,250659
2096921,2096921,307828,250987
2096921,2096921,307827,250997
2096921,2096921,307957,250758
2096921,2096921,306891,250480
2096921,2096921,306790,250472
2096921,2096921,306755,250075
2096921,2096921,306705,250539
2096921,2096921,306624,250284
2096921,2096921,305852,249643
2096921,2096921,305883,249570
2096921,2096921,305802,249697
2096921,2096921,305604,249557
2096921,2096921,305540,249653
2096921,2096921,303782,248846
2096921,2096921,303430,248643
2096921,2096921,303213,248214
2096921,2096921,303279,248372
2096921,2096921,302969,248467
2096921,2096921,300814,247184
2096921,2096921,300235,246868
2096921,2096921,300337,247061
2096921,2096921,300301,246867
2096921,2096921,300309,246979
2096921,2096921,298584,245951
2096921,2096921,298099,245854
2096921,2096921,297761,245761
2096921,2096921,297972,245697
2096921,2096921,298082,245775
2096921,2096921,296878,244954
2096921,2096921,296547,244691
2096921,2096921,296491,244813
2096921,2096921,296438,244841
2096921,2096921,296318,244370
2096921,2096921,295322,244348
2096921,2096921,295042,244230
2096921,2096921,295117,244342
2096921,2096921,295049,244301
2096921,2096921,295242,244104
2096921,2096921,294601,243835
2096921,2096921,294431,243855
2096921,2096921,294483,243575
2096921,2096921,294250,243628
2096921,2096921,294334,243518
2096921,2096921,293884,243452
2096921,2096921,293679,243413
2096921,2096921,293752,243312
2096921,2096921,293672,243449
2096921,2096921,293548,243393
2096921,2096921,293237,243083
2096921,2096921,293399,242987
2096921,2096921,293208,242846
2096921,2096921,293175,242899
2096921,2096921,293232,242851
2096921,2096921,292990,242754
2096921,2096921,293041,242922
2096921,2096921,293121,242962
2096921,2096921,293038,243109
2096921,2096921,292970,242977
2096921,2096921,292861,242893
2096921,2096921,293065,242919
2096921,2096921,292957,242976
2096921,2096921,292929,243050
2096921,2096921,293146,243159
2096921,2096921,293020,243307
2096921,2096921,293229,242938
2096921,2096921,293061,243165
2096921,2096921,293039,243318
2096921,2096921,293190,243028
2096921,2096921,293665,243213
2096921,2096921,293383,243340
2096921,2096921,293281,243109
2096921,2096921,293485,243239
2096921,2096921,293359,243008
2096921,2096921,293322,243081
2096921,2096921,293511,243097
2096921,2096921,293762,243273
2096921,2096921,293612,243021
2096921,2096921,293381,243138
2096921,2096921,293936,243381
2096921,2096921,294045,243376
2096921,2096921,293869,243577
2096921,2096921,293710,243235
2096921,2096921,293958,243211
2096921,2096921,293797,243341
2096921,2096921,294225,243622
2096921,2096921,294229,243582
2096921,2096921,294608,243847
2096921,2096921,294689,243582
2096921,2096921,294905,243831
2096921,2096921,294985,243828
2096921,2096921,294769,243896
2096921,2096921,294793,243830
2096921,2096921,294827,243775
2096921,2096921,295369,244247
2096921,2096921,295515,244038
2096921,2096921,295517,243997
2096921,2096921,295586,244234
2096921,2096921,295457,244370
2096921,2096921,295722,244395
2096921,2096921,295694,244407
2096921,2096921,295701,244391
2096921,2096921,295568,244226
2096921,2096921,295945,244530
2096921,2096921,296235,244695
2096921,2096921,296288,244774
2096921,2096921,296383,244936
2096921,2096921,296210,244793
2096921,2096921,296328,244810
2096921,2096921,296642,244886
2096921,2096921,296783,245029
2096921,2096921,296718,244893
2096921,2096921,296805,244770
2096921,2096921,296871,244983
2096921,2096921,297304,245284
2096921,2096921,297034,245319
2096921,2096921,297000,245208
2096921,2096921,297314,245102
2096921,2096921,297416,245232
2096921,2096921,297396,245343
2096921,2096921,297663,245646
2096921,2096921,298068,245576
2096921,2096921,297740,245390
2096921,2096921,297791,245523
2096921,2096921,298111,245727
2096921,2096921,298583,245736
2096921,2096921,298529,245697
2096921,2096921,298360,245891
2096921,2096921,298418,245737
2096921,2096921,298773,245871
2096921,2096921,298935,246018
2096921,2096921,299049,246131
2096921,2096921,298964,246000
2096921,2096921,298853,246124
2096921,2096921,299354,246521
2096921,2096921,299591,246554
2096921,2096921,299303,246479
2096921,2096921,299277,246324
2096921,2096921,299321,246286
2096921,2096921,299713,246242
2096921,2096921,299619,246318
2096921,2096921,299842,246457
2096921,2096921,299702,246431
2096921,2096921,299677,246583
2096921,2096921,299809,246745
2096921,2096921,300010,246766
2096921,2096921,300107,246677
2096921,2096921,300395,246685
2096921,2096921,300138,246761
2096921,2096921,300609,246776
2096921,2096921,300579,247024
2096921,2096921,300403,247041
2096921,2096921,300719,246929
2096921,2096921,300459,246957
2096921,2096921,300630,246973
2096921,2096921,300692,246881
2096921,2096921,300828,246720
2096921,2096921,300688,246881
2096921,2096921,300815,246767
2096921,2096921,300737,246989
2096921,2096921,300690,246993
2096921,2096921,300945,247270
2096921,2096921,300821,247155
2096921,2096921,300743,247160
2096921,2096921,300897,247172
2096921,2096921,300786,247169
2096921,2096921,300836,247350
2096921,2096921,300752,247137
2096921,2096921,300994,247172
2096921,2096921,301016,247085
2096921,2096921,300798,246908
2096921,2096921,300782,247007
2096921,2096921,300882,246675
2096921,2096921,300711,246986
2096921,2096921,300612,247058
2096921,2096921,300633,246745
2096921,2096921,300739,247009
2096921,2096921,300639,247049
2096921,2096921,300784,247150
2096921,2096921,300751,247103
2096921,2096921,300411,246649
2096921,2096921,300702,247090
2096921,2096921,300539,247118
2096921,2096921,300713,247042
2096921,2096921,300545,246730
2096921,2096921,300386,246648
2096921,2096921,300643,246914
2096921,2096921,300433,246844
2096921,2096921,300648,246956
2096921,2096921,300227,246720
2096921,2096921,299912,246712
2096921,2096921,300356,246648
2096921,2096921,300337,246809
2096921,2096921,300301,247042
2096921,2096921,300114,246912
2096921,2096921,300348,246465
2096921,2096921,300303,246601
2096921,2096921,300151,246590
2096921,2096921,300082,246857
2096921,2096921,300216,246563
2096921,2096921,300124,246628
2096921,2096921,299721,246453
2096921,2096921,299908,246732
2096921,2096921,299985,246530
2096921,2096921,300116,246919
2096921,2096921,299885,246685
2096921,2096921,299962,246622
2096921,2096921,299807,246697
2096921,2096921,300107,246632
2096921,2096921,300173,246394
2096921,2096921,300038,246581
2096921,2096921,300133,246707
2096921,2096921,299924,246626
2096921,2096921,299971,246619
2096921,2096921,300212,246826
2096921,2096921,300225,246956
2096921,2096921,300219,246831
2096921,2096921,300260,246672
2096921,2096921,300046,246533
2096921,2096921,300183,246609
2096921,2096921,300421,246609
2096921,2096921,300651,246589
2096921,2096921,300238,246870
2096921,2096921,300416,246850
2096921,2096921,300597,246973
2096921,2096921,300677,247036
2096921,2096921,300704,247094
2096921,2096921,301029,247031
2096921,2096921,300766,246924
2096921,2096921,301042,247275
2096921,2096921,301089,247164
2096921,2096921,301207,247416
2096921,2096921,301056,247288
2096921,2096921,301021,247156
2096921,2096921,301316,247306
2096921,2096921,301209,247353
2096921,2096921,301470,247487
2096921,2096921,301437,247458
2096921,2096921,301589,247426
2096921,2096921,301740,247516
2096921,2096921,301835,247536
2096921,2096921,301821,247449
2096921,2096921,301968,247530
2096921,2096921,301659,247772
2096921,2096921,301979,247689
2096921,2096921,302084,247840
2096921,2096921,302122,247782
2096921,2096921,302217,247802
2096921,2096921,302204,247891
2096921,2096921,302309,248041
2096921,2096921,302477,247902
2096921,2096921,302520,247852
2096921,2096921,302480,247834
2096921,2096921,302690,247884
2096921,2096921,302662,247855
2096921,2096921,302734,248048
2096921,2096921,303001,248160
2096921,2096921,302587,247912
2096921,2096921,302439,247982
2096921,2096921,302869,248289
2096921,2096921,302750,248226
2096921,2096921,303018,248150
2096921,2096921,302840,248244
2096921,2096921,302965,248161
2096921,2096921,303118,248308
2096921,2096921,303316,248475
2096921,2096921,303269,248078
2096921,2096921,303305,248289
2096921,2096921,303382,248332
2096921,2096921,303479,248477
2096921,2096921,303376,248424
2096921,2096921,303753,248671
2096921,2096921,303809,248408
2096921,2096921,303788,248430
2096921,2096921,304096,248580
2096921,2096921,303767,248756
2096921,2096921,303934,248875
2096921,2096921,303752,248758
2096921,2096921,303832,248615
2096921,2096921,303956,249144
2096921,2096921,304092,248880
2096921,2096921,304161,248990
2096921,2096921,304260,249039
2096921,2096921,304210,248627
2096921,2096921,304473,248886
2096921,2096921,304506,249345
2096921,2096921,304486,248972
2096921,2096921,304594,249038
2096921,2096921,304519,248827
2096921,2096921,304477,249127
2096921,2096921,304573,249157
2096921,2096921,304792,249102
2096921,2096921,304640,249289
2096921,2096921,304703,249348
2096921,2096921,304927,249257
2096921,2096921,304930,249381
2096921,2096921,304815,249078
2096921,2096921,304936,249108
2096921,2096921,304977,249309
2096921,2096921,305229,249561
2096921,2096921,305288,249449
2096921,2096921,305514,249359
2096921,2096921,305550,249272
2096921,2096921,305159,249466
2096921,2096921,305600,249633
2096921,2096921,305833,249722
2096921,2096921,305688,249810
2096921,2096921,305494,249719
2096921,2096921,305686,249757
2096921,2096921,305797,249651
2096921,2096921,305971,249790
2096921,2096921,305927,249523
2096921,2096921,305942,249644
2096921,2096921,305867,249783
2096921,2096921,306358,249786
2096921,2096921,306124,249786
2096921,2096921,306055,250097
2096921,2096921,305988,249802
2096921,2096921,305743,249633
2096921,2096921,306191,249946
2096921,2096921,305883,250156
2096921,2096921,306009,250250
2096921,2096921,306113,249969
2096921,2096921,306400,250062
2096921,2096921,306645,250021
2096921,2096921,306540,250296
2096921,2096921,306472,250260
2096921,2096921,306672,250056
2096921,2096921,306789,250100
2096921,2096921,306819,249942
2096921,2096921,306656,250038
2096921,2096921,306571,250370
2096921,2096921,306830,250261
2096921,2096921,306707,250198
2096921,2096921,306707,250294
2096921,2096921,306747,250507
2096921,2096921,306840,250201
2096921,2096921,306805,250064
2096921,2096921,306797,250264
2096921,2096921,307097,250399
2096921,2096921,307258,250405
2096921,2096921,307239,250515
2096921,2096921,307093,250541
2096921,2096921,306980,250282
2096921,2096921,307262,250142
2096921,2096921,307194,250363
2096921,2096921,307538,250598
2096921,2096921,307444,250545
2096921,2096921,307578,250531
2096921,2096921,307521,250475
2096921,2096921,307450,250591
2096921,2096921,307582,250687
2096921,2096921,307425,250828
2096921,2096921,307674,250827
2096921,2096921,307619,250620
2096921,2096921,307750,250880
2096921,2096921,307460,250998
2096921,2096921,307642,251036
2096921,2096921,307715,250998
2096921,2096921,307846,250814
2096921,2096921,307863,250887
2096921,2096921,307984,250894
2096921,2096921,307761,250802
2096921,2096921,307841,251183
2096921,2096921,307997,251018
2096921,2096921,307871,251131
2096921,2096921,308108,251008
2096921,2096921,308060,251152
2096921,2096921,307975,250775
2096921,2096921,308003,251059
2096921,2096921,307965,251102
2096921,2096921,308156,250907
2096921,2096921,308141,251062
2096921,2096921,308463,250707
2096921,2096921,308401,250981
2096921,2096921,308212,251145
2096921,2096921,308414,251051
2096921,2096921,308665,251036
2096921,2096921,308465,251299
2096921,2096921,308425,251448
2096921,2096921,308134,251435
2096921,2096921,308055,251325
2096921,2096921,308324,251202
2096921,2096921,308300,251123
2096921,2096921,308526,251325
2096921,2096921,308699,251369
2096921,2096921,308674,251173
2096921,2096921,308664,251201
2096921,2096921,308755,251427
2096921,2096921,308644,251358
2096921,2096921,308800,251552
2096921,2096921,308624,251507
2096921,2096921,308870,251402
2096921,2096921,308795,251402
2096921,2096921,308697,251495
2096921,2096921,308950,251559
2096921,2096921,309061,251336
2096921,2096921,308741,251689
2096921,2096921,308892,251595
2096921,2096921,308889,251731
2096921,2096921,309210,251630
2096921,2096921,309165,251839
2096921,2096921,309118,251910
2096921,2096921,308923,251818
2096921,2096921,309128,251779
2096921,2096921,309234,251714
2096921,2096921,309013,251869
2096921,2096921,309261,251883
2096921,2096921,309153,252070
2096921,2096921,309315,251854
2096921,2096921,309521,251717
2096921,2096921,309345,251871
2096921,2096921,309356,251596
2096921,2096921,309349,251761
2096921,2096921,309270,252023
2096921,2096921,309382,252086
2096921,2096921,309508,251933
2096921,2096921,309464,251787
2096921,2096921,309453,252062
2096921,2096921,309656,252192
2096921,2096921,309706,252082
2096921,2096921,309763,252265
2096921,2096921,309758,252167
2096921,2096921,309727,252107
2096921,2096921,309846,252150
2096921,2096921,309856,252164
2096921,2096921,309803,252383
2096921,2096921,309682,252227
2096921,2096921,309704,252181
2096921,2096921,309779,252166
2096921,2096921,309933,252042
2096921,2096921,309923,252246
2096921,2096921,309696,251937
2096921,2096921,310047,252183
2096921,2096921,310013,252326
2096921,2096921,310163,252305
2096921,2096921,310150,252294
2096921,2096921,310135,252368
2096921,2096921,309940,252220
2096921,2096921,310198,252354
2096921,2096921,310222,252613
2096921,2096921,310160,252335
2096921,2096921,310136,252461
2096921,2096921,310203,252600
2096921,2096921,310199,252496
2096921,2096921,310192,252594
2096921,2096921,310132,252504
2096921,2096921,310239,252487
2096921,2096921,310332,252315
2096921,2096921,310423,252511
2096921,2096921,310291,252426
2096921,2096921,310420,252493
2096921,2096921,309980,252478
2096921,2096921,310285,252333
2096921,2096921,310292,252459
2096921,2096921,310467,252637
2096921,2096921,310272,252708
2096921,2096921,310470,252354
2096921,2096921,310447,252573
2096921,2096921,310440,252363
2096921,2096921,310371,252698
2096921,2096921,310617,252499
2096921,2096921,310538,252578
2096921,2096921,310456,252461
2096921,2096921,310592,252538
2096921,2096921,310664,252772
2096921,2096921,310544,252794
2096921,2096921,310476,252690
2096921,2096921,310362,252764
2096921,2096921,310592,252597
2096921,2096921,310616,252849
2096921,2096921,310498,252737
2096921,2096921,310479,252599
2096921,2096921,310666,252520
2096921,2096921,310721,252748
2096921,2096921,310459,252870
2096921,2096921,310580,252725
2096921,2096921,310530,252901
2096921,2096921,310668,252678
2096921,2096921,310505,252881
2096921,2096921,310803,253046
2096921,2096921,310856,252993
2096921,2096921,310706,252835
2096921,2096921,310658,252759
2096921,2096921,310630,252820
2096921,2096921,310858,252816
2096921,2096921,310675,252785
2096921,2096921,310822,252615
2096921,2096921,310890,252827
2096921,2096921,310456,252768
2096921,2096921,310287,252448
2096921,2096921,310290,252692
2096921,2096921,310372,252586
2096921,2096921,310679,252610
2096921,2096921,309953,252271
2096921,2096921,310111,252598
2096921,2096921,310145,252604
2096921,2096921,310060,252856
2096921,2096921,310055,252651
2096921,2096921,309631,252110
2096921,2096921,309298,252082
2096921,2096921,309179,252188
2096921,2096921,308923,252170
2096921,2096921,309285,252143
2096921,2096921,308597,251913
2096921,2096921,308677,251844
2096921,2096921,308483,251815
2096921,2096921,308322,251642
2096921,2096921,308451,251947
2096921,2096921,307451,251262
2096921,2096921,307554,251274
2096921,2096921,307628,251425
2096921,2096921,307426,251369
2096921,2096921,307280,251270
2096921,2096921,305784,250304
2096921,2096921,305388,250191
2096921,2096921,305488,250124
2096921,2096921,305233,250124
2096921,2096921,305228,249872
2096921,2096921,302952,248758
2096921,2096921,302506,248415
2096921,2096921,302632,248766
2096921,2096921,302355,248714
2096921,2096921,302196,248658
2096921,2096921,301016,247663
2096921,2096921,300579,247643
2096921,2096921,300244,247555
2096921,2096921,300385,247520
2096921,2096921,300265,247321
2096921,2096921,298909,246907
2096921,2096921,298658,246820
2096921,2096921,298639,246799
2096921,2096921,298483,246721
2096921,2096921,298655,246728
2096921,2096921,297526,246266
2096921,2096921,297719,245872
2096921,2096921,297538,245846
2096921,2096921,297542,245844
2096921,2096921,297737,246252
2096921,2096921,296975,245692
2096921,2096921,296982,245734
2096921,2096921,296764,245706
2096921,2096921,296895,245715
2096921,2096921,296862,245927
2096921,2096921,296326,245710
2096921,2096921,296290,245280
2096921,2096921,296072,245751
2096921,2096921,296160,245628
2096921,2096921,296112,245560
2096921,2096921,295816,245299
2096921,2096921,295912,245211
2096921,2096921,295885,245123
2096921,2096921,295672,245334
2096921,2096921,296006,245178
2096921,2096921,295666,245080
2096921,2096921,295955,245277
2096921,2096921,295869,245305
2096921,2096921,295820,245360
2096921,2096921,295729,245256
2096921,2096921,295620,245344
2096921,2096921,295908,245250
2096921,2096921,295873,245325
2096921,2096921,295872,245161
2096921,2096921,295754,245398
2096921,2096921,295720,245568
2096921,2096921,296219,245436
2096921,2096921,296366,245785
2096921,2096921,296085,245599
2096921,2096921,296199,245394
2096921,2096921,296362,245451
2096921,2096921,296543,245604
2096921,2096921,296466,245709
2096921,2096921,296510,245451
2096921,2096921,296636,245601
2096921,2096921,296752,245725
2096921,2096921,296510,245906
2096921,2096921,296610,245760
2096921,2096921,296457,246046
2096921,2096921,296550,246251
2096921,2096921,297214,246084
2096921,2096921,297099,246088
2096921,2096921,297358,246272
2096921,2096921,297275,246012
2096921,2096921,297213,245868
2096921,2096921,297719,246392
2096921,2096921,297766,246428
2096921,2096921,297625,246424
2096921,2096921,297798,246373
2096921,2096921,297726,246408
2096921,2096921,298095,246738
2096921,2096921,298159,246844
2096921,2096921,298263,246844
2096921,2096921,298339,246974
2096921,2096921,298413,246580
2096921,2096921,298983,246662
2096921,2096921,298718,247037
2096921,2096921,298903,247022
2096921,2096921,298776,247105
2096921,2096921,298898,247041
2096921,2096921,299370,247362
2096921,2096921,299401,247581
2096921,2096921,299617,247713
2096921,2096921,299409,247515
2096921,2096921,299618,247522
2096921,2096921,299930,247783
2096921,2096921,299987,247980
2096921,2096921,300291,247795
2096921,2096921,300312,247807
2096921,2096921,300288,247807
2096921,2096921,300368,247928
2096921,2096921,300465,248052
2096921,2096921,300449,247933
2096921,2096921,300848,247944
2096921,2096921,300673,247983
2096921,2096921,301052,248441
2096921,2096921,301180,248162
2096921,2096921,301056,248189
2096921,2096921,301258,248322
2096921,2096921,301410,248420
2096921,2096921,301488,248697
2096921,2096921,301591,248806
2096921,2096921,301905,248786
2096921,2096921,301786,248851
2096921,2096921,301819,248755
2096921,2096921,302415,249245
2096921,2096921,302142,248985
2096921,2096921,302464,249109
2096921,2096921,302548,248961
2096921,2096921,302555,249109
2096921,2096921,302838,249034
2096921,2096921,303056,249624
2096921,2096921,303340,249412
2096921,2096921,303323,249328
2096921,2096921,303304,249459
2096921,2096921,303866,249600
2096921,2096921,303850,249781
2096921,2096921,303838,249726
2096921,2096921,303731,249918
2096921,2096921,303667,250109
2096921,2096921,304007,249928
2096921,2096921,304288,250011
2096921,2096921,304073,250164
2096921,2096921,304116,250001
2096921,2096921,304236,250261
2096921,2096921,304663,250273
2096921,2096921,304763,250405
2096921,2096921,304444,250516
2096921,2096921,304785,250399
2096921,2096921,304639,250432
2096921,2096921,305191,250392
2096921,2096921,305094,250551
2096921,2096921,304849,250753
2096921,2096921,304832,250689
2096921,2096921,305074,250610
2096921,2096921,305167,250710
2096921,2096921,305163,250678
2096921,2096921,305074,250742
2096921,2096921,305184,250729
2096921,2096921,305318,250858
2096921,2096921,305480,250876
2096921,2096921,305671,251036
2096921,2096921,305614,250957
2096921,2096921,305493,250866
2096921,2096921,305563,250996
2096921,2096921,305513,251026
2096921,2096921,305365,250747
2096921,2096921,305534,250994
2096921,2096921,305427,251030
2096921,2096921,305313,250979
2096921,2096921,305824,251002
2096921,2096921,305896,250987
2096921,2096921,305359,251155
2096921,2096921,305553,250973
2096921,2096921,305692,250763
2096921,2096921,305728,251205
2096921,2096921,305879,251203
2096921,2096921,305596,250964
2096921,2096921,305347,251098
2096921,2096921,305504,251186
2096921,2096921,305350,250734
2096921,2096921,305302,250838
2096921,2096921,305599,250790
2096921,2096921,305671,251014
2096921,2096921,305300,250712
2096921,2096921,305447,250700
2096921,2096921,305361,250795
2096921,2096921,305560,250963
2096921,2096921,305314,251194
2096921,2096921,305311,250743
2096921,2096921,305351,250802
2096921,2096921,305086,250976
2096921,2096921,305285,251174
2096921,2096921,305570,250841
2096921,2096921,305117,250853
2096921,2096921,305125,250452
2096921,2096921,304997,251009
2096921,2096921,305208,250928
2096921,2096921,305047,251030
2096921,2096921,305074,250955
2096921,2096921,305186,250980
2096921,2096921,305172,251010
2096921,2096921,305263,250818
2096921,2096921,304981,250747
2096921,2096921,305260,250738
2096921,2096921,305169,250934
2096921,2096921,304906,250909
2096921,2096921,304965,250815
2096921,2096921,305204,250814
2096921,2096921,305180,251099
2096921,2096921,305358,250740
2096921,2096921,305513,251097
2096921,2096921,305359,251133
2096921,2096921,305439,250984
2096921,2096921,305137,251114
2096921,2096921,305533,250999
2096921,2096921,305601,251281
2096921,2096921,305728,251246
2096921,2096921,305514,251294
2096921,2096921,305662,251364
2096921,2096921,305581,251155
2096921,2096921,305710,251377
2096921,2096921,305621,251067
2096921,2096921,305926,251149
2096921,2096921,305722,251347
2096921,2096921,306118,251519
2096921,2096921,306181,251617
2096921,2096921,306250,251462
2096921,2096921,306208,251857
2096921,2096921,306237,251481
2096921,2096921,306579,251937
2096921,2096921,306681,251774
2096921,2096921,306822,251800
2096921,2096921,306566,251968
2096921,2096921,306657,252120
2096921,2096921,306978,252130
2096921,2096921,307058,252311
2096921,2096921,307026,252310
2096921,2096921,307028,252060
2096921,2096921,306907,252146
2096921,2096921,307471,252143
2096921,2096921,307338,252274
2096921,2096921,307548,252246
2096921,2096921,307631,252100
2096921,2096921,307636,252287
2096921,2096921,307614,252457
2096921,2096921,307804,252624
2096921,2096921,307725,252546
2096921,2096921,307821,252338
2096921,2096921,307741,252273
2096921,2096921,307897,252471
2096921,2096921,308151,252725
2096921,2096921,308153,252723
2096921,2096921,308262,252752
2096921,2096921,308109,252647
2096921,2096921,308604,253071
2096921,2096921,308446,252874
2096921,2096921,308545,252782
2096921,2096921,308637,253038
2096921,2096921,308797,253026
2096921,2096921,308601,253174
2096921,2096921,308579,252886
2096921,2096921,308956,252845
2096921,2096921,308993,252972
2096921,2096921,308877,252860
2096921,2096921,309253,253262
2096921,2096921,309212,253159
2096921,2096921,308978,253354
2096921,2096921,309187,253466
2096921,2096921,308970,253302
2096921,2096921,309457,253618
2096921,2096921,309499,253523
2096921,2096921,309399,253645
2096921,2096921,309682,253132
2096921,2096921,309454,253464
2096921,2096921,309648,253663
2096921,2096921,309733,253644
2096921,2096921,309672,253675
2096921,2096921,309834,253483
2096921,2096921,309829,253482
2096921,2096921,309846,253599
2096921,2096921,309866,254027
2096921,2096921,310136,253865
2096921,2096921,310295,253894
2096921,2096921,310123,254023
2096921,2096921,310561,253915
2096921,2096921,310633,254046
2096921,2096921,310530,253954
2096921,2096921,310447,253963
2096921,2096921,310626,253823
2096921,2096921,310632,253774
2096921,2096921,310584,253936
2096921,2096921,310865,253801
2096921,2096921,310771,254026
2096921,2096921,310499,253821
2096921,2096921,310936,254227
2096921,2096921,311072,254402
2096921,2096921,310944,254241
2096921,2096921,310924,254199
2096921,2096921,311159,254312
2096921,2096921,311206,254194
2096921,2096921,311306,254387
2096921,2096921,311181,254577
2096921,2096921,311310,254390
2096921,2096921,311437,254285
2096921,2096921,311860,254691
2096921,2096921,311675,254886
2096921,2096921,311641,254747
2096921,2096921,311792,254665
2096921,2096921,311766,254661
2096921,2096921,311705,254849
2096921,2096921,311869,254660
2096921,2096921,311813,254909
2096921,2096921,311820,254655
2096921,2096921,311766,254756
2096921,2096921,312337,254677
2096921,2096921,312265,254908
2096921,2096921,312063,254947
2096921,2096921,312036,254834
2096921,2096921,312455,254901
2096921,2096921,312519,254816
2096921,2096921,312288,254865
2096921,2096921,312476,254884
2096921,2096921,312333,254851
2096921,2096921,312066,254920
2096921,2096921,312438,255077
2096921,2096921,312395,255129
2096921,2096921,312630,255284
2096921,2096921,312656,255077
2096921,2096921,312526,255064
2096921,2096921,312624,255349
2096921,2096921,312757,255244
2096921,2096921,312670,255238
2096921,2096921,312639,255385
2096921,2096921,312675,255489
2096921,2096921,313150,255510
2096921,2096921,312957,255368
2096921,2096921,313132,255402
2096921,2096921,312997,255438
2096921,2096921,313442,255522
2096921,2096921,313091,255556
2096921,2096921,313195,255511
2096921,2096921,313422,255546
2096921,2096921,313258,255654
2096921,2096921,313278,255603
2096921,2096921,313515,255815
2096921,2096921,313395,255460
2096921,2096921,313394,255528
2096921,2096921,313295,255791
2096921,2096921,313465,255571
2096921,2096921,313639,255602
2096921,2096921,313376,255278
2096921,2096921,313434,255669
2096921,2096921,313615,255513
2096921,2096921,313484,255562
2096921,2096921,313621,255445
2096921,2096921,313618,255557
2096921,2096921,313500,255611
2096921,2096921,313521,255859
2096921,2096921,313876,255803
2096921,2096921,314076,255802
2096921,2096921,313926,255661
2096921,2096921,313955,255805
2096921,2096921,313842,255852
2096921,2096921,314070,255790
2096921,2096921,313796,255793
2096921,2096921,313793,255543
2096921,2096921,314037,256040
2096921,2096921,313864,255824
2096921,2096921,313626,255707
2096921,2096921,313871,255756
2096921,2096921,314164,256067
2096921,2096921,313945,256027
2096921,2096921,313802,255746
2096921,2096921,314015,255904
2096921,2096921,313917,256136
2096921,2096921,314199,256022
2096921,2096921,314157,256180
2096921,2096921,314217,256166
2096921,2096921,314509,255955
2096921,2096921,314367,256058
2096921,2096921,314140,256184
2096921,2096921,314238,256067
2096921,2096921,314265,255932
2096921,2096921,314251,256012
2096921,2096921,314410,256186
2096921,2096921,314278,255871
2096921,2096921,314416,255960
2096921,2096921,314422,255777
2096921,2096921,314183,255878
2096921,2096921,314380,256204
2096921,2096921,314308,256106
2096921,2096921,314266,256113
2096921,2096921,314415,256068
2096921,2096921,314320,256132
2096921,2096921,314384,256364
2096921,2096921,314312,256210
2096921,2096921,314549,256228
2096921,2096921,314642,256154
2096921,2096921,314347,256253
2096921,2096921,314585,256330
2096921,2096921,314772,256335
2096921,2096921,314931,256113
2096921,2096921,314425,256012
2096921,2096921,314532,256156
2096921,2096921,314642,256434
2096921,2096921,314755,256264
2096921,2096921,314604,256116
2096921,2096921,314825,256356
2096921,2096921,314902,256269
2096921,2096921,314675,256190
2096921,2096921,314697,256246
2096921,2096921,314782,256193
2096921,2096921,314912,256264
2096921,2096921,314575,256185
2096921,2096921,314788,256299
2096921,2096921,314993,256526
2096921,2096921,315061,256379
2096921,2096921,314903,256436
2096921,2096921,314793,256655
2096921,2096921,315017,256519
2096921,2096921,315034,256484
2096921,2096921,314875,256405
2096921,2096921,314922,256338
2096921,2096921,314993,256434
2096921,2096921,315087,256539
2096921,2096921,314810,256503
2096921,2096921,314905,256505
2096921,2096921,314984,256523
2096921,2096921,315033,256463
2096921,2096921,314931,256563
2096921,2096921,315050,256559
2096921,2096921,315113,256625
2096921,2096921,315069,256805
2096921,2096921,315062,256769
2096921,2096921,315184,256717
2096921,2096921,315153,256803
2096921,2096921,315107,256484
2096921,2096921,315257,256541
2096921,2096921,315389,256667
2096921,2096921,315308,256791
2096921,2096921,315324,256781
2096921,2096921,315315,256723
2096921,2096921,315031,256672
2096921,2096921,315286,256656
2096921,2096921,315213,256668
2096921,2096921,315282,256358
2096921,2096921,315176,256433
2096921,2096921,315159,256641
2096921,2096921,315254,256566
2096921,2096921,315335,256632
2096921,2096921,315242,256769
2096921,2096921,315129,256750
2096921,2096921,315276,256690
2096921,2096921,315257,256645
2096921,2096921,315526,256797
2096921,2096921,315513,256586
2096921,2096921,315096,256682
2096921,2096921,315384,256629
2096921,2096921,315053,256598
2096921,2096921,314963,256417
2096921,2096921,315197,256319
2096921,2096921,315056,256605
2096921,2096921,315061,256663
2096921,2096921,315199,256594
2096921,2096921,315280,256529
2096921,2096921,315170,256590
2096921,2096921,315299,256488
2096921,2096921,315361,256594
2096921,2096921,315145,256480
2096921,2096921,315324,256538
2096921,2096921,315100,256816
2096921,2096921,315114,256751
2096921,2096921,315420,256485
2096921,2096921,315479,256678
2096921,2096921,315396,256453
2096921,2096921,315081,256719
2096921,2096921,315131,256628
2096921,2096921,315207,256754
2096921,2096921,314980,256690
2096921,2096921,315362,256678
2096921,2096921,315236,256790
2096921,2096921,315385,256684
2096921,2096921,315347,256679
2096921,2096921,315111,256720
2096921,2096921,315153,256764
2096921,2096921,315137,256507
2096921,2096921,315309,256579
2096921,2096921,315282,256291
2096921,2096921,315217,256498
2096921,2096921,314911,256241
2096921,2096921,314805,256394
2096921,2096921,314500,256256
2096921,2096921,314779,256420
2096921,2096921,314586,256360
2096921,2096921,314348,255824
2096921,2096921,314175,256048
2096921,2096921,314130,255955
2096921,2096921,314117,256114
2096921,2096921,314479,256217
2096921,2096921,313720,255855
2096921,2096921,313380,255541
2096921,2096921,313320,255484
2096921,2096921,313589,255775
2096921,2096921,313449,255548
2096921,2096921,312761,255408
2096921,2096921,312433,255163
2096921,2096921,312116,254952
2096921,2096921,312462,255053
2096921,2096921,312504,255145
2096921,2096921,311709,254583
2096921,2096921,311608,254629
2096921,2096921,311709,254592
2096921,2096921,311497,254526
2096921,2096921,311518,254769
2096921,2096921,309779,253717
2096921,2096921,309007,253262
2096921,2096921,309189,253226
2096921,2096921,308733,253310
2096921,2096921,308987,253349
2096921,2096921,306738,252192
2096921,2096921,306198,251694
2096921,2096921,305996,251417
2096921,2096921,306035,251658
2096921,2096921,306317,251685
2096921,2096921,304489,250874
2096921,2096921,303994,250867
2096921,2096921,303877,250878
2096921,2096921,303855,250605
2096921,2096921,304042,250589
2096921,2096921,302519,249710
2096921,2096921,302303,249785
2096921,2096921,302279,249754
2096921,2096921,302217,249682
2096921,2096921,302146,249612
2096921,2096921,301246,249246
2096921,2096921,300903,249021
2096921,2096921,301201,248848
2096921,2096921,300870,249000
2096921,2096921,300797,248973
2096921,2096921,299990,248530
2096921,2096921,300504,248660
2096921,2096921,300143,248491
2096921,2096921,300373,248475
2096921,2096921,300120,248467
2096921,2096921,299533,248452
2096921,2096921,299446,248282
2096921,2096921,299429,248365
2096921,2096921,299525,248297
2096921,2096921,299220,248431
2096921,2096921,298894,248165
2096921,2096921,298943,247918
2096921,2096921,299115,247924
2096921,2096921,299029,247757
2096921,2096921,299237,247966
2096921,2096921,299016,247931
2096921,2096921,299057,248015
2096921,2096921,299077,248006
2096921,2096921,299181,247907
2096921,2096921,299098,247901
2096921,2096921,299136,247901
2096921,2096921,299102,247866
2096921,2096921,299188,247884
2096921,2096921,298937,247942
2096921,2096921,298969,247730
2096921,2096921,299130,248026
2096921,2096921,299232,247860
2096921,2096921,299194,247813
2096921,2096921,298861,247939
2096921,2096921,299312,248084
2096921,2096921,299486,248133
2096921,2096921,299327,248090
2096921,2096921,299430,247912
2096921,2096921,299180,247969
2096921,2096921,299030,248044
2096921,2096921,299296,248137
2096921,2096921,299380,248296
2096921,2096921,299624,248179
2096921,2096921,299526,247941
2096921,2096921,299573,247948
2096921,2096921,299731,248034
2096921,2096921,299807,247974
2096921,2096921,299846,248213
2096921,2096921,299783,248427
2096921,2096921,299681,248274
2096921,2096921,300089,248556
2096921,2096921,300041,248763
2096921,2096921,300171,248447
2096921,2096921,300192,248637
2096921,2096921,300246,248536
2096921,2096921,300528,248930
2096921,2096921,300843,249084
2096921,2096921,300927,248825
2096921,2096921,300593,248697
2096921,2096921,300740,248718
2096921,2096921,301086,248652
2096921,2096921,301257,248917
2096921,2096921,301215,249057
2096921,2096921,301082,249012
2096921,2096921,301076,248900
2096921,2096921,301690,249275
2096921,2096921,301622,249292
2096921,2096921,301840,249352
2096921,2096921,301822,249419
2096921,2096921,301729,249448
2096921,2096921,301887,249552
2096921,2096921,302226,249546
2096921,2096921,302179,249289
2096921,2096921,302189,249445
2096921,2096921,302288,249584
2096921,2096921,302492,249523
2096921,2096921,302507,249805
2096921,2096921,302473,249939
2096921,2096921,302736,249611
2096921,2096921,302676,249613
2096921,2096921,303326,250091
2096921,2096921,303062,250176
2096921,2096921,303245,250219
2096921,2096921,303017,250004
2096921,2096921,302948,249923
2096921,2096921,303475,250247
2096921,2096921,303944,250187
2096921,2096921,303886,250386
2096921,2096921,303868,250286
2096921,2096921,303698,250147
2096921,2096921,304060,250499
2096921,2096921,304187,250497
2096921,2096921,303995,250450
2096921,2096921,303931,250429
2096921,2096921,304009,250511
2096921,2096921,304421,250687
2096921,2096921,304610,250670
2096921,2096921,304480,250825
2096921,2096921,304550,250844
2096921,2096921,304622,250799
2096921,2096921,304926,250775
2096921,2096921,305086,251061
2096921,2096921,305157,251033
2096921,2096921,304887,251092
2096921,2096921,304663,250982
2096921,2096921,305415,250910
2096921,2096921,305410,251027
2096921,2096921,305263,251003
2096921,2096921,305245,251081
2096921,2096921,305444,251180
2096921,2096921,305737,251248
2096921,2096921,306073,251322
2096921,2096921,305913,251410
2096921,2096921,305777,251451
2096921,2096921,305561,251445
2096921,2096921,305973,251254
2096921,2096921,306023,251211
2096921,2096921,305908,251522
2096921,2096921,305820,251416
2096921,2096921,305864,251097
2096921,2096921,306007,251422
2096921,2096921,305855,251277
2096921,2096921,305762,251675
2096921,2096921,305903,251509
2096921,2096921,306114,251629
2096921,2096921,306365,251427
2096921,2096921,306230,251511
2096921,2096921,306351,251388
2096921,2096921,306447,251489
2096921,2096921,306228,251574
2096921,2096921,306314,251469
2096921,2096921,306252,251369
2096921,2096921,306421,251637
2096921,2096921,306242,251794
2096921,2096921,305985,251578
2096921,2096921,306034,251664
2096921,2096921,306265,251533
2096921,2096921,306201,251370
2096921,2096921,305939,251332
2096921,2096921,305923,251642
2096921,2096921,306009,251468
2096921,2096921,306165,251546
2096921,2096921,305965,251410
2096921,2096921,305959,251427
2096921,2096921,305868,251257
2096921,2096921,305996,251253
2096921,2096921,305389,251237
2096921,2096921,305569,251171
2096921,2096921,305565,251331
2096921,2096921,305615,251133
2096921,2096921,305514,251017
2096921,2096921,305561,251038
2096921,2096921,305279,250964
2096921,2096921,305483,250847
2096921,2096921,305418,251177
2096921,2096921,305375,251049
2096921,2096921,305336,250913
2096921,2096921,305408,250883
2096921,2096921,305531,250939
2096921,2096921,305232,250731
2096921,2096921,305013,250887
2096921,2096921,305086,250869
2096921,2096921,305063,250669
2096921,2096921,305260,250780
2096921,2096921,304872,250673
2096921,2096921,305047,250719
2096921,2096921,304816,250703
2096921,2096921,305038,250548
2096921,2096921,305086,250589
2096921,2096921,304920,250542
2096921,2096921,304918,250744
2096921,2096921,304961,250427
2096921,2096921,304886,250902
2096921,2096921,304891,250718
2096921,2096921,304919,250707
2096921,2096921,304916,250603
2096921,2096921,305040,250695
2096921,2096921,305002,250579
2096921,2096921,304952,250586
2096921,2096921,304873,250591
2096921,2096921,305111,250650
2096921,2096921,305109,250701
2096921,2096921,304987,250637
2096921,2096921,304924,250632
2096921,2096921,304868,250463
2096921,2096921,305163,250752
2096921,2096921,305249,250610
2096921,2096921,304950,250600
2096921,2096921,304867,250327
2096921,2096921,305169,250662
2096921,2096921,305248,250683
2096921,2096921,305210,250957
2096921,2096921,305341,250926
2096921,2096921,305478,250865
2096921,2096921,305407,250553
2096921,2096921,305795,250996
2096921,2096921,305717,251050
2096921,2096921,305729,251003
2096921,2096921,305519,250974
2096921,2096921,305500,250835
2096921,2096921,305942,250962
2096921,2096921,306068,250967
2096921,2096921,306015,251153
2096921,2096921,305975,251154
2096921,2096921,305765,251260
2096921,2096921,306075,251152
2096921,2096921,306317,251042
2096921,2096921,306180,251252
2096921,2096921,306093,251321
2096921,2096921,306240,251109
2096921,2096921,306500,251291
2096921,2096921,306318,251429
2096921,2096921,306394,251383
2096921,2096921,306331,251364
2096921,2096921,306337,251411
2096921,2096921,306412,251345
2096921,2096921,306563,251392
2096921,2096921,306769,251345
2096921,2096921,306832,251590
2096921,2096921,306608,251440
2096921,2096921,306536,251320
2096921,2096921,306889,251519
2096921,2096921,306971,251498
2096921,2096921,307018,251374
2096921,2096921,306916,251647
2096921,2096921,306980,251530
2096921,2096921,307013,251492
2096921,2096921,307283,251519
2096921,2096921,307110,251543
2096921,2096921,307283,251644
2096921,2096921,307377,251706
2096921,2096921,307523,251530
2096921,2096921,307346,251700
2096921,2096921,307325,251713
2096921,2096921,307444,251740
2096921,2096921,307639,251609
2096921,2096921,307714,251831
2096921,2096921,307464,251823
2096921,2096921,307609,251955
2096921,2096921,307675,252002
2096921,2096921,307718,251869
2096921,2096921,307801,251874
2096921,2096921,307641,251852
2096921,2096921,307650,251755
2096921,2096921,307849,251788
2096921,2096921,307749,251829
2096921,2096921,307937,251770
2096921,2096921,307779,252048
2096921,2096921,307701,251984
2096921,2096921,308024,251798
2096921,2096921,308061,252288
2096921,2096921,308371,252031
2096921,2096921,308275,252000
2096921,2096921,308107,252187
2096921,2096921,308293,252232
2096921,2096921,308289,252071
2096921,2096921,308155,251935
2096921,2096921,308349,252002
2096921,2096921,308272,252207
2096921,2096921,308302,252092
2096921,2096921,308337,252124
2096921,2096921,308455,252058
2096921,2096921,308547,252288
2096921,2096921,308485,252291
2096921,2096921,308449,252253
2096921,2096921,308657,252361
2096921,2096921,308724,252563
2096921,2096921,308760,252134
2096921,2096921,308568,252303
2096921,2096921,308719,252226
2096921,2096921,308891,252238
2096921,2096921,308699,252270
2096921,2096921,308855,252253
2096921,2096921,308640,252444
2096921,2096921,308873,252230
2096921,2096921,309093,252431
2096921,2096921,308970,252426
2096921,2096921,309057,252212
2096921,2096921,309203,252194
2096921,2096921,308899,252386
2096921,2096921,308923,252576
2096921,2096921,308780,252469
2096921,2096921,309044,252410
2096921,2096921,308973,252519
2096921,2096921,309077,252397
2096921,2096921,309287,252333
2096921,2096921,309348,252426
2096921,2096921,309341,252531
2096921,2096921,309170,252655
2096921,2096921,309357,252511
2096921,2096921,309519,252509
2096921,2096921,309315,252177
2096921,2096921,309332,252530
2096921,2096921,309219,252798
2096921,2096921,309591,252386
2096921,2096921,309210,252283
2096921,2096921,309707,252397
2096921,2096921,309439,252516
2096921,2096921,309399,252531
2096921,2096921,309215,252537
2096921,2096921,309435,252622
2096921,2096921,309832,252632
2096921,2096921,309494,252384
2096921,2096921,309656,252511
2096921,2096921,309612,252793
2096921,2096921,309784,252565
2096921,2096921,309706,252539
2096921,2096921,309650,252621
2096921,2096921,309590,252580
2096921,2096921,309630,252582
2096921,2096921,309835,252452
2096921,2096921,309932,252739
2096921,2096921,309870,252668
2096921,2096921,309950,252595
2096921,2096921,309820,252599
2096921,2096921,309582,252384
2096921,2096921,309943,252553
2096921,2096921,309780,252516
2096921,2096921,309599,252732
2096921,2096921,309757,252835
2096921,2096921,309754,252925
2096921,2096921,309877,252642
2096921,2096921,309648,252823
2096921,2096921,309885,252840
2096921,2096921,310067,252644
2096921,2096921,309811,252490
2096921,2096921,309677,252742
2096921,2096921,309833,252863
2096921,2096921,309952,252780
2096921,2096921,309972,252777
2096921,2096921,309859,252657
2096921,2096921,310001,252552
2096921,2096921,309946,252735
2096921,2096921,309855,252616
2096921,2096921,309932,252670
2096921,2096921,309882,252564
2096921,2096921,310100,252332
2096921,2096921,310061,252549
2096921,2096921,310163,252471
2096921,2096921,310168,252664
2096921,2096921,309982,252480
2096921,2096921,309890,252693
2096921,2096921,310189,252507
2096921,2096921,310074,252749
2096921,2096921,310192,252496
2096921,2096921,309938,252970
2096921,2096921,309985,252670
2096921,2096921,310080,252931
2096921,2096921,310372,252620
2096921,2096921,310079,252600
2096921,2096921,309892,252492
2096921,2096921,309876,252581
2096921,2096921,309981,252652
2096921,2096921,310194,252714
2096921,2096921,310240,252555
2096921,2096921,310233,252714
2096921,2096921,310028,252548
2096921,2096921,309981,252505
2096921,2096921,310020,252612
2096921,2096921,309968,252648
2096921,2096921,310105,252530
2096921,2096921,310101,252501
2096921,2096921,310124,252649
2096921,2096921,310173,252595
2096921,2096921,310094,252544
2096921,2096921,310105,252693
2096921,2096921,309931,252664
2096921,2096921,310070,252715
2096921,2096921,310148,252845
2096921,2096921,310102,252514
2096921,2096921,310083,252464
2096921,2096921,309930,252503
2096921,2096921,310287,252611
2096921,2096921,310154,252639
2096921,2096921,310226,252655
2096921,2096921,310172,252658
2096921,2096921,310247,252798
2096921,2096921,310088,252788
2096921,2096921,310226,252380
2096921,2096921,310106,252652
2096921,2096921,310019,252430
2096921,2096921,310237,252447
2096921,2096921,310296,252579
2096921,2096921,309861,252562
2096921,2096921,310197,252691
2096921,2096921,310016,252679
2096921,2096921,310228,252554
2096921,2096921,310268,252453
2096921,2096921,310438,252650
2096921,2096921,310223,252509
2096921,2096921,310340,252568
2096921,2096921,310490,252557
2096921,2096921,310122,252672
2096921,2096921,310242,252487
2096921,2096921,309892,252574
2096921,2096921,310256,252525
2096921,2096921,310201,252725
2096921,2096921,310020,252397
2096921,2096921,310339,252832
2096921,2096921,310294,252642
2096921,2096921,310233,252440
2096921,2096921,310224,252511
2096921,2096921,310222,252638
2096921,2096921,310256,252625
2096921,2096921,310460,252545
2096921,2096921,310499,252384
2096921,2096921,310378,252572
2096921,2096921,310342,252300
2096921,2096921,310291,252329
2096921,2096921,310240,252556
2096921,2096921,310327,252279
2096921,2096921,310090,252568
2096921,2096921,310241,252282
2096921,2096921,310142,252403
2096921,2096921,310152,252551
2096921,2096921,310286,252332
2096921,2096921,310078,252435
2096921,2096921,310023,252508
2096921,2096921,310053,252498
2096921,2096921,310288,252583
2096921,2096921,309901,252246
2096921,2096921,309942,252176
2096921,2096921,309861,252175
2096921,2096921,310090,252487
2096921,2096921,310043,252212
2096921,2096921,310110,252111
2096921,2096921,309735,251789
2096921,2096921,309578,252033
2096921,2096921,309687,252414
2096921,2096921,309883,252134
2096921,2096921,309706,252173
2096921,2096921,309764,251893
2096921,2096921,310002,252219
2096921,2096921,310051,252004
2096921,2096921,309827,252036
2096921,2096921,309685,252232
2096921,2096921,309996,252195
2096921,2096921,309845,252146
2096921,2096921,309628,252025
2096921,2096921,309759,251963
2096921,2096921,309648,252171
2096921,2096921,309575,251925
2096921,2096921,309572,251964
2096921,2096921,309991,252057
2096921,2096921,309961,252021
2096921,2096921,309610,252099
2096921,2096921,309533,252157
2096921,2096921,309637,252119
2096921,2096921,309770,252085
2096921,2096921,309590,251999
2096921,2096921,309613,252121
2096921,2096921,309727,251999
2096921,2096921,309792,252072
2096921,2096921,309469,252105
2096921,2096921,309735,252146
2096921,2096921,309008,251606
2096921,2096921,309102,251595
2096921,2096921,309116,251699
2096921,2096921,309089,251566
2096921,2096921,309128,251802
2096921,2096921,308965,251406
2096921,2096921,308598,251548
2096921,2096921,308662,251355
2096921,2096921,308677,251515
2096921,2096921,308745,251252
2096921,2096921,307918,251040
2096921,2096921,307964,250956
2096921,2096921,307989,250609
2096921,2096921,307868,250539
2096921,2096921,307809,250950
2096921,2096921,307019,250484
2096921,2096921,306910,250479
2096921,2096921,306893,250622
2096921,2096921,306917,250688
2096921,2096921,306976,250583
2096921,2096921,306265,249880
2096921,2096921,305820,249899
2096921,2096921,305675,249853
2096921,2096921,305508,249847
2096921,2096921,305852,249912
2096921,2096921,303788,248997
2096921,2096921,303627,248498
2096921,2096921,303146,248783
2096921,2096921,303382,248625
2096921,2096921,303147,248440
2096921,2096921,300931,247426
2096921,2096921,300568,247222
2096921,2096921,300514,247002
2096921,2096921,300511,247021
2096921,2096921,300404,246938
2096921,2096921,298668,246188
2096921,2096921,298230,245919
2096921,2096921,298318,245766
2096921,2096921,298185,245729
2096921,2096921,298133,245925
2096921,2096921,296748,245123
2096921,2096921,296640,244807
2096921,2096921,296557,245027
2096921,2096921,296478,244593
2096921,2096921,296466,245010
2096921,2096921,295479,244300
2096921,2096921,295192,244297
2096921,2096921,295428,244044
2096921,2096921,295185,244195
2096921,2096921,295318,244106
2096921,2096921,294581,244033
2096921,2096921,294353,243678
2096921,2096921,294334,243931
2096921,2096921,294405,243841
2096921,2096921,294374,243695
2096921,2096921,293915,243325
2096921,2096921,293864,243422
2096921,2096921,293635,243196
2096921,2096921,293876,243268
2096921,2096921,293711,243397
2096921,2096921,293465,243291
2096921,2096921,293460,243041
2096921,2096921,293255,242958
2096921,2096921,293123,243082
2096921,2096921,293239,243018
2096921,2096921,293108,243101
2096921,2096921,292981,243034
2096921,2096921,293037,243159
2096921,2096921,293135,243073
2096921,2096921,293177,243030
2096921,2096921,293116,242979
2096921,2096921,293002,242939
2096921,2096921,293383,242892
2096921,2096921,293302,242996
2096921,2096921,292966,242897
2096921,2096921,292913,242873
2096921,2096921,292951,243114
2096921,2096921,293162,243107
2096921,2096921,293058,242946
2096921,2096921,293322,243013
2096921,2096921,293637,242994
2096921,2096921,293524,243336
2096921,2096921,293299,242940
2096921,2096921,293385,243084
2096921,2096921,293463,243392
2096921,2096921,293675,243300
2096921,2096921,293667,243352
2096921,2096921,293776,243215
2096921,2096921,293720,243581
2096921,2096921,293749,243418
2096921,2096921,294046,243533
2096921,2096921,294132,243286
2096921,2096921,294044,243454
2096921,2096921,294081,243548
2096921,2096921,294026,243614
2096921,2096921,294404,243855
2096921,2096921,294647,243744
2096921,2096921,294511,243908
2096921,2096921,294552,243700
2096921,2096921,294485,243684
2096921,2096921,294999,243942
2096921,2096921,295292,244185
2096921,2096921,295011,244175
2096921,2096921,295014,244051
2096921,2096921,294792,243825
2096921,2096921,295039,244151
2096921,2096921,295467,244262
2096921,2096921,295473,244430
2096921,2096921,295561,244082
2096921,2096921,295525,244156
2096921,2096921,296000,244648
2096921,2096921,296201,244550
2096921,2096921,295959,244575
2096921,2096921,296149,244325
2096921,2096921,296242,244542
2096921,2096921,296687,244550
2096921,2096921,296354,244517
2096921,2096921,296481,244690
2096921,2096921,296492,244776
2096921,2096921,296505,244713
2096921,2096921,296657,244809
2096921,2096921,296712,244882
2096921,2096921,296783,245083
2096921,2096921,296859,244838
2096921,2096921,296890,244984
2096921,2096921,297231,245395
2096921,2096921,297478,245317
2096921,2096921,297437,245169
2096921,2096921,297411,245223
2096921,2096921,297609,245385
2096921,2096921,298261,245582
2096921,2096921,298030,245481
2096921,2096921,297811,245574
2096921,2096921,297900,245645
2096921,2096921,297911,245378
2096921,2096921,298246,245848
2096921,2096921,298537,245932
2096921,2096921,298393,245887
2096921,2096921,298279,245790
2096921,2096921,298485,245746
2096921,2096921,298926,246045
2096921,2096921,299181,246146
2096921,2096921,299033,246320
2096921,2096921,299025,246392
2096921,2096921,299056,246144
2096921,2096921,299703,246118
2096921,2096921,299682,246413
2096921,2096921,299237,246584
2096921,2096921,299432,246457
2096921,2096921,299780,246291
2096921,2096921,300067,246353
2096921,2096921,299860,246515
2096921,2096921,299828,246460
2096921,2096921,299632,246416
2096921,2096921,299878,246384
2096921,2096921,300327,246332
2096921,2096921,300218,246542
2096921,2096921,300455,246703
2096921,2096921,300221,247019
2096921,2096921,300221,246758
2096921,2096921,300536,246839
2096921,2096921,300461,246898
2096921,2096921,300745,247016
2096921,2096921,300789,246836
2096921,2096921,300528,246854
2096921,2096921,300933,246726
2096921,2096921,300631,246970
2096921,2096921,300685,247065
2096921,2096921,300648,246943
2096921,2096921,300834,246937
2096921,2096921,300986,246834
2096921,2096921,300567,247144
2096921,2096921,300737,247024
2096921,2096921,300832,247110
2096921,2096921,300675,247093
2096921,2096921,301046,247036
2096921,2096921,301005,247084
2096921,2096921,300955,247018
2096921,2096921,300987,246966
2096921,2096921,300874,247052
2096921,2096921,300923,247269
2096921,2096921,301111,247129
2096921,2096921,300864,247297
2096921,2096921,300846,247155
2096921,2096921,300861,247104
2096921,2096921,300755,247318
2096921,2096921,300921,247035
2096921,2096921,300864,247204
2096921,2096921,300785,247214
2096921,2096921,300677,247304
2096921,2096921,300369,247008
2096921,2096921,300664,247059
2096921,2096921,300494,246833
2096921,2096921,300441,247104
2096921,2096921,300682,246844
2096921,2096921,300194,246714
2096921,2096921,300471,246602
2096921,2096921,300700,246583
2096921,2096921,300552,246589
2096921,2096921,300566,246827
2096921,2096921,300517,246891
2096921,2096921,300368,246838
2096921,2096921,300174,246767
2096921,2096921,300407,246682
2096921,2096921,300302,246867
2096921,2096921,300071,246690
2096921,2096921,300251,246543
2096921,2096921,300252,246802
2096921,2096921,300212,246639
2096921,2096921,300224,246473
2096921,2096921,300112,246541
2096921,2096921,299782,246736
2096921,2096921,300059,246682
2096921,2096921,300101,246315
2096921,2096921,300074,246455
2096921,2096921,300059,246862
2096921,2096921,300229,246472
2096921,2096921,300248,246767
2096921,2096921,300072,246618
2096921,2096921,300097,246696
2096921,2096921,300419,246832
2096921,2096921,300183,247119
2096921,2096921,300215,246745
2096921,2096921,300251,246918
2096921,2096921,300321,246662
2096921,2096921,300326,246624
2096921,2096921,300218,246660
2096921,2096921,300459,246854
2096921,2096921,300319,246685
2096921,2096921,300018,246706
2096921,2096921,300207,246879
2096921,2096921,300386,246943
2096921,2096921,300373,247036
2096921,2096921,300148,246618
2096921,2096921,300137,246833
2096921,2096921,300835,246993
2096921,2096921,300847,247062
2096921,2096921,300798,247168
2096921,2096921,300852,246953
2096921,2096921,300666,247070
2096921,2096921,301019,247398
2096921,2096921,301044,247311
2096921,2096921,301249,247131
2096921,2096921,301112,247255
2096921,2096921,301321,247289
2096921,2096921,301485,247297
2096921,2096921,301365,247586
2096921,2096921,301456,247441
2096921,2096921,301449,247413
2096921,2096921,301422,247615
2096921,2096921,301883,247708
2096921,2096921,301859,247663
2096921,2096921,302208,247685
2096921,2096921,301878,247855
2096921,2096921,301811,247463
2096921,2096921,302097,247641
2096921,2096921,302031,247869
2096921,2096921,302186,248129
2096921,2096921,302418,247834
2096921,2096921,302029,247752
2096921,2096921,302225,248175
2096921,2096921,302272,248233
2096921,2096921,302518,247809
2096921,2096921,302389,248049
2096921,2096921,302597,248005
2096921,2096921,302599,248163
2096921,2096921,302703,248007
2096921,2096921,302694,248263
2096921,2096921,302616,248114
2096921,2096921,302748,247938
2096921,2096921,302899,248101
2096921,2096921,303088,248261
2096921,2096921,303061,248436
2096921,2096921,303083,248246
2096921,2096921,303010,248272
2096921,2096921,303324,248592
2096921,2096921,303310,248274
2096921,2096921,303185,248568
2096921,2096921,303394,248615
2096921,2096921,303413,248764
2096921,2096921,303450,248692
2096921,2096921,303696,248644
2096921,2096921,303814,248694
2096921,2096921,303715,248632
2096921,2096921,303693,248766
2096921,2096921,303959,248812
2096921,2096921,304089,248851
2096921,2096921,303929,248934
2096921,2096921,303957,248673
2096921,2096921,303913,248679
2096921,2096921,304151,248897
2096921,2096921,304174,248760
2096921,2096921,304255,249186
2096921,2096921,304085,248913
2096921,2096921,304293,248638
2096921,2096921,304544,248931
2096921,2096921,304408,248904
2096921,2096921,304536,249146
2096921,2096921,304600,249108
2096921,2096921,304531,249015
2096921,2096921,304733,249481
2096921,2096921,304777,249281
2096921,2096921,304801,249150
2096921,2096921,304756,249274
2096921,2096921,304729,249286
2096921,2096921,305205,249455
2096921,2096921,305122,249399
2096921,2096921,304914,249573
2096921,2096921,305123,249411
2096921,2096921,305126,249276
2096921,2096921,305450,249251
2096921,2096921,305415,249504
2096921,2096921,305166,249631
2096921,2096921,305338,249628
2096921,2096921,305384,249584
2096921,2096921,305642,249613
2096921,2096921,305627,249502
2096921,2096921,305763,249453
2096921,2096921,305347,249542
2096921,2096921,305473,249566
2096921,2096921,305891,249531
2096921,2096921,305659,249750
2096921,2096921,305703,249974
2096921,2096921,305873,250018
2096921,2096921,305870,249741
2096921,2096921,305908,249824
2096921,2096921,306034,249784
2096921,2096921,305909,249959
2096921,2096921,305722,250093
2096921,2096921,305970,249844
2096921,2096921,306244,249873
2096921,2096921,306252,250089
2096921,2096921,306261,249754
2096921,2096921,306204,249925
2096921,2096921,306367,250038
2096921,2096921,306590,250181
2096921,2096921,306454,250134
2096921,2096921,306277,249889
2096921,2096921,306425,249868
2096921,2096921,306519,250243
2096921,2096921,306574,250179
2096921,2096921,306694,250330
2096921,2096921,306792,250137
2096921,2096921,306897,250498
2096921,2096921,306767,250301
2096921,2096921,306883,250422
2096921,2096921,306825,250185
2096921,2096921,306841,250446
2096921,2096921,306840,250419
2096921,2096921,306909,250551
2096921,2096921,307068,250468
2096921,2096921,307331,250446
2096921,2096921,307276,250460
2096921,2096921,307083,250693
2096921,2096921,307200,250564
2096921,2096921,307320,250632
2096921,2096921,307423,250790
2096921,2096921,307453,250709
2096921,2096921,307346,250871
2096921,2096921,307605,250724
2096921,2096921,307646,250600
2096921,2096921,307696,250590
2096921,2096921,307553,250935
2096921,2096921,307514,250803
2096921,2096921,307485,250529
2096921,2096921,307658,250798
2096921,2096921,307761,250793
2096921,2096921,307593,250627
2096921,2096921,307844,250589
2096921,2096921,307846,250816
2096921,2096921,308044,250884
2096921,2096921,307799,251036
2096921,2096921,307711,250992
2096921,2096921,307609,250992
2096921,2096921,307876,251121
2096921,2096921,308087,250969
2096921,2096921,308230,250894
2096921,2096921,308007,250893
2096921,2096921,308065,250846
2096921,2096921,308139,250955
2096921,2096921,308167,251108
2096921,2096921,308099,251252
2096921,2096921,308060,251075
2096921,2096921,308100,250744
2096921,2096921,308353,250791
2096921,2096921,308518,251225
2096921,2096921,308551,251428
2096921,2096921,308122,251058
2096921,2096921,308448,251213
2096921,2096921,308585,251404
2096921,2096921,308832,251242
2096921,2096921,308566,251186
2096921,2096921,308422,251157
2096921,2096921,308554,251020
2096921,2096921,308533,251237
2096921,2096921,308629,251069
2096921,2096921,308441,251254
2096921,2096921,308596,251298
2096921,2096921,308451,251523
2096921,2096921,308852,251341
2096921,2096921,308496,251665
2096921,2096921,308777,251470
2096921,2096921,308942,251477
2096921,2096921,308747,251688
2096921,2096921,308936,251514
2096921,2096921,308846,251407
2096921,2096921,308954,251560
2096921,2096921,308741,251469
2096921,2096921,308879,251618
2096921,2096921,308775,251407
2096921,2096921,309133,251596
2096921,2096921,308953,251650
2096921,2096921,309184,251771
2096921,2096921,308812,251764
2096921,2096921,309249,251846
2096921,2096921,309356,251839
2096921,2096921,309317,251832
2096921,2096921,309111,251863
2096921,2096921,309401,251890
2096921,2096921,309372,252053
2096921,2096921,309629,252035
2096921,2096921,309544,252203
2096921,2096921,309165,251958
2096921,2096921,309298,251797
2096921,2096921,309364,251822
2096921,2096921,309736,251681
2096921,2096921,309373,251833
2096921,2096921,309669,251874
2096921,2096921,309510,251878
2096921,2096921,309442,252091
2096921,2096921,309519,251897
2096921,2096921,309496,252025
2096921,2096921,309579,252048
2096921,2096921,309557,251898
2096921,2096921,309572,252022
2096921,2096921,309897,251826
2096921,2096921,310063,252098
2096921,2096921,309799,252253
2096921,2096921,310015,252137
2096921,2096921,309716,251942
2096921,2096921,309713,252049
2096921,2096921,309890,252043
2096921,2096921,309743,252348
2096921,2096921,309653,252381
2096921,2096921,309665,252436
2096921,2096921,309946,252193
2096921,2096921,309775,252446
2096921,2096921,309991,252588
2096921,2096921,309992,252280
2096921,2096921,309972,252398
2096921,2096921,309876,252247
2096921,2096921,309997,252266
2096921,2096921,310019,252361
2096921,2096921,310028,252403
2096921,2096921,309892,252328
2096921,2096921,310032,252416
2096921,2096921,310289,252293
2096921,2096921,310349,252443
2096921,2096921,310040,252606
2096921,2096921,310191,252384
2096921,2096921,310251,252466
2096921,2096921,310465,252777
2096921,2096921,310217,252445
2096921,2096921,310359,252572
2096921,2096921,310324,252263
2096921,2096921,310177,252361
2096921,2096921,310234,252418
2096921,2096921,310356,252617
2096921,2096921,310363,252491
2096921,2096921,310427,252576
2096921,2096921,310359,252486
2096921,2096921,310483,252591
2096921,2096921,310276,252552
2096921,2096921,310559,252527
2096921,2096921,310369,252408
2096921,2096921,310634,252834
2096921,2096921,310539,252667
2096921,2096921,310526,252753
2096921,2096921,310430,252794
2096921,2096921,310292,252637
2096921,2096921,310339,252697
2096921,2096921,310358,252712
2096921,2096921,310500,252827
2096921,2096921,310285,252539
2096921,2096921,310449,252534
2096921,2096921,310512,252666
2096921,2096921,310405,252863
2096921,2096921,310635,252668
2096921,2096921,310385,252789
2096921,2096921,310504,252825
2096921,2096921,310774,252981
2096921,2096921,310788,252802
2096921,2096921,310731,252577
2096921,2096921,310676,252824
2096921,2096921,310683,252707
2096921,2096921,310647,252768
2096921,2096921,310677,252859
2096921,2096921,310652,252852
2096921,2096921,310737,253076
2096921,2096921,310874,253032
2096921,2096921,310524,252807
2096921,2096921,310486,252644
2096921,2096921,310439,252647
2096921,2096921,310404,252623
2096921,2096921,310283,252655
2096921,2096921,310138,252708
2096921,2096921,310122,252607
2096921,2096921,310054,252610
2096921,2096921,310000,252481
2096921,2096921,310148,252474
2096921,2096921,309327,252119
2096921,2096921,309215,252361
2096921,2096921,309099,252259
2096921,2096921,309413,252275
2096921,2096921,309223,251980
2096921,2096921,308545,251831
2096921,2096921,308192,251655
2096921,2096921,308465,251649
2096921,2096921,308306,251972
2096921,2096921,308228,251791
2096921,2096921,307706,251473
2096921,2096921,307433,251325
2096921,2096921,307291,251225
2096921,2096921,307325,251186
2096921,2096921,307374,251497
2096921,2096921,305303,250174
2096921,2096921,305273,249946
2096921,2096921,304789,249946
2096921,2096921,304975,249928
2096921,2096921,305175,250154
2096921,2096921,302950,248902
2096921,2096921,302372,248723
2096921,2096921,302378,248440
2096921,2096921,302325,248477
2096921,2096921,302258,248303
2096921,2096921,300397,247830
2096921,2096921,300278,247573
2096921,2096921,300306,247674
2096921,2096921,300259,247328
2096921,2096921,300378,247597
2096921,2096921,299086,246778
2096921,2096921,298621,246799
2096921,2096921,298604,246625
2096921,2096921,298412,246527
2096921,2096921,298400,246611
2096921,2096921,297594,246178
2096921,2096921,297312,246032
2096921,2096921,297249,245941
2096921,2096921,297436,245854
2096921,2096921,297412,246063
2096921,2096921,296737,245800
2096921,2096921,296622,245592
2096921,2096921,296433,245795
2096921,2096921,296695,245829
2096921,2096921,296783,245605
2096921,2096921,296279,245617
2096921,2096921,295968,245396
2096921,2096921,296164,245486
2096921,2096921,296220,245458
2096921,2096921,296197,245319
2096921,2096921,295957,245167
2096921,2096921,295705,245206
2096921,2096921,295792,245126
2096921,2096921,295635,245291
2096921,2096921,295877,245172
2096921,2096921,295630,245120
2096921,2096921,295682,245380
2096921,2096921,295353,245139
2096921,2096921,295711,245117
2096921,2096921,295635,245090
2096921,2096921,295808,245043
2096921,2096921,295907,245367
2096921,2096921,295889,245020
2096921,2096921,295718,245363
2096921,2096921,295550,245312
2096921,2096921,296083,245492
2096921,2096921,296196,245331
2096921,2096921,296029,245430
2096921,2096921,296114,245646
2096921,2096921,296113,245583
2096921,2096921,296535,245453
2096921,2096921,296324,245635
2096921,2096921,296126,245500
2096921,2096921,296480,245486
2096921,2096921,296341,245782
2096921,2096921,296717,245670
2096921,2096921,296487,246047
2096921,2096921,296719,245914
2096921,2096921,296783,245743
2096921,2096921,296478,245866
2096921,2096921,297096,245683
2096921,2096921,297196,246093
2096921,2096921,296992,245973
2096921,2096921,297185,246217
2096921,2096921,297084,246229
2096921,2096921,297385,246098
2096921,2096921,297701,246286
2096921,2096921,297324,246484
2096921,2096921,297634,246470
2096921,2096921,297704,246491
2096921,2096921,298181,246814
2096921,2096921,298175,246513
2096921,2096921,298273,246669
2096921,2096921,298202,246718
2096921,2096921,298193,246749
2096921,2096921,298553,247059
2096921,2096921,298752,247017
2096921,2096921,298666,246913
2096921,2096921,298800,246948
2096921,2096921,298722,247179
2096921,2096921,299257,247293
2096921,2096921,299399,247483
2096921,2096921,299398,247328
2096921,2096921,299303,247539
2096921,2096921,299493,247736
2096921,2096921,299762,247955
2096921,2096921,299798,247651
2096921,2096921,300065,247830
2096921,2096921,299834,247451
2096921,2096921,299893,247567
2096921,2096921,300102,247904
2096921,2096921,300361,248195
2096921,2096921,300635,247949
2096921,2096921,300539,247954
2096921,2096921,300686,247955
2096921,2096921,301091,248295
2096921,2096921,301259,248381
2096921,2096921,301129,248562
2096921,2096921,301000,248681
2096921,2096921,301226,248495
2096921,2096921,301602,248699
2096921,2096921,301534,248812
2096921,2096921,301631,249037
2096921,2096921,301667,248788
2096921,2096921,301807,248795
2096921,2096921,302122,248918
2096921,2096921,302317,249132
2096921,2096921,302438,249089
2096921,2096921,302435,249107
2096921,2096921,302370,249228
2096921,2096921,303043,249311
2096921,2096921,302901,249244
2096921,2096921,303083,249293
2096921,2096921,303022,249154
2096921,2096921,302831,249317
2096921,2096921,303277,249567
2096921,2096921,303570,249785
2096921,2096921,303393,249567
2096921,2096921,303638,249719
2096921,2096921,303491,249772
2096921,2096921,304046,249815
2096921,2096921,304082,249989
2096921,2096921,303821,249738
2096921,2096921,303980,250053
2096921,2096921,303937,249970
2096921,2096921,304317,250040
2096921,2096921,304495,250111
2096921,2096921,304420,250278
2096921,2096921,304720,250147
2096921,2096921,304587,250321
2096921,2096921,304697,250384
2096921,2096921,304956,250495
2096921,2096921,304833,250593
2096921,2096921,305252,250350
2096921,2096921,304673,250301
2096921,2096921,305189,250506
2096921,2096921,305445,250431
2096921,2096921,305289,250738
2096921,2096921,305164,250504
2096921,2096921,305296,250683
2096921,2096921,305458,250799
2096921,2096921,305407,250876
2096921,2096921,305438,250584
2096921,2096921,305511,250751
2096921,2096921,305463,250796
2096921,2096921,305436,250839
2096921,2096921,305210,250841
2096921,2096921,305348,250964
2096921,2096921,305422,251080
2096921,2096921,305649,250896
2096921,2096921,305565,251076
2096921,2096921,305607,250883
2096921,2096921,305449,250946
2096921,2096921,305669,250859
2096921,2096921,305763,250740
2096921,2096921,305518,250663
2096921,2096921,305632,250883
2096921,2096921,305376,251008
2096921,2096921,305678,250916
2096921,2096921,305614,251052
2096921,2096921,305461,250777
2096921,2096921,305372,251105
2096921,2096921,305600,251016
2096921,2096921,305411,251146
2096921,2096921,305325,250940
2096921,2096921,305145,250898
2096921,2096921,305474,250862
2096921,2096921,305313,250682
2096921,2096921,305242,250713
2096921,2096921,305227,250823
2096921,2096921,305327,250802
2096921,2096921,305194,250927
2096921,2096921,305083,250955
2096921,2096921,305156,250995
2096921,2096921,305121,250956
2096921,2096921,305094,250797
2096921,2096921,304816,250891
2096921,2096921,305108,250813
2096921,2096921,304968,250870
2096921,2096921,305092,250695
2096921,2096921,305250,250865
2096921,2096921,305184,250926
2096921,2096921,304998,250663
2096921,2096921,305009,250773
2096921,2096921,305060,250908
2096921,2096921,305239,250840
2096921,2096921,305142,250860
2096921,2096921,305137,251038
2096921,2096921,305289,250753
2096921,2096921,305277,250716
2096921,2096921,305286,250965
2096921,2096921,305407,251016
2096921,2096921,305506,251123
2096921,2096921,305305,251008
2096921,2096921,305192,250843
2096921,2096921,305267,251205
2096921,2096921,305564,251299
2096921,2096921,305467,250908
2096921,2096921,305433,251171
2096921,2096921,305411,251191
2096921,2096921,305883,251052
2096921,2096921,305743,251129
2096921,2096921,305785,251139
2096921,2096921,305660,251235
2096921,2096921,305584,251479
2096921,2096921,305838,251437
2096921,2096921,306132,251532
2096921,2096921,306043,251549
2096921,2096921,306300,251460
2096921,2096921,306397,251538
2096921,2096921,306591,251752
2096921,2096921,306725,251788
2096921,2096921,306559,251553
2096921,2096921,306563,251592
2096921,2096921,306677,251797
2096921,2096921,306950,251870
2096921,2096921,307118,251953
2096921,2096921,307197,251890
2096921,2096921,307217,252084
2096921,2096921,307164,252023
2096921,2096921,307164,252074
2096921,2096921,307208,252444
2096921,2096921,307439,252551
2096921,2096921,307493,252246
2096921,2096921,307382,252217
2096921,2096921,307571,252065
2096921,2096921,307732,252123
2096921,2096921,307708,252241
2096921,2096921,307643,252338
2096921,2096921,307651,252291
2096921,2096921,308068,252396
2096921,2096921,308131,252361
2096921,2096921,308232,252757
2096921,2096921,308305,252742
2096921,2096921,307910,252620
2096921,2096921,308330,252898
2096921,2096921,308411,252739
2096921,2096921,308423,252686
2096921,2096921,308350,252890
2096921,2096921,308563,252547
2096921,2096921,308904,252818
2096921,2096921,308957,253051
2096921,2096921,308752,252761
2096921,2096921,308963,252947
2096921,2096921,308641,252893
2096921,2096921,308887,253252
2096921,2096921,309114,253358
2096921,2096921,309186,253216
2096921,2096921,309084,253053
2096921,2096921,309301,253208
2096921,2096921,309367,253405
2096921,2096921,309622,253371
2096921,2096921,309403,253494
2096921,2096921,309469,253429
2096921,2096921,309467,253333
2096921,2096921,309608,253470
2096921,2096921,309696,253639
2096921,2096921,309799,253899
2096921,2096921,309900,253819
2096921,2096921,309856,253717
2096921,2096921,310049,253822
2096921,2096921,310082,253525
2096921,2096921,310265,253461
2096921,2096921,310181,253624
2096921,2096921,310205,253524
2096921,2096921,310282,253668
2096921,2096921,310491,253855
2096921,2096921,310352,253742
2096921,2096921,310676,253776
2096921,2096921,310467,254034
2096921,2096921,310705,254128
2096921,2096921,310429,253956
2096921,2096921,310805,254102
2096921,2096921,310735,254094
2096921,2096921,310748,254003
2096921,2096921,310950,254006
2096921,2096921,311170,253907
2096921,2096921,311291,254194
2096921,2096921,311158,254619
2096921,2096921,311101,254446
2096921,2096921,311257,254545
2096921,2096921,311309,254360
2096921,2096921,311387,254372
2096921,2096921,311507,254575
2096921,2096921,311193,254300
2096921,2096921,311707,254515
2096921,2096921,311759,254306
2096921,2096921,311557,254397
2096921,2096921,311702,254527
2096921,2096921,311490,254581
2096921,2096921,311880,254576
2096921,2096921,311996,254508
2096921,2096921,311779,254553
2096921,2096921,311789,254735
2096921,2096921,311869,254728
2096921,2096921,311938,254845
2096921,2096921,312047,254970
2096921,2096921,312268,254609
2096921,2096921,311807,254567
2096921,2096921,312062,254786
2096921,2096921,312253,254850
2096921,2096921,312333,254948
2096921,2096921,312163,254859
2096921,2096921,312044,254841
2096921,2096921,312224,255334
2096921,2096921,312407,255043
2096921,2096921,312296,255213
2096921,2096921,312459,255102
2096921,2096921,312813,255019
2096921,2096921,312568,255193
2096921,2096921,312727,255414
2096921,2096921,312657,255326
2096921,2096921,312746,255432
2096921,2096921,312721,255289
2096921,2096921,312794,255360
2096921,2096921,312826,255370
2096921,2096921,312757,255361
2096921,2096921,313053,255442
2096921,2096921,313187,255250
2096921,2096921,313281,255473
2096921,2096921,313210,255590
2096921,2096921,313223,255494
2096921,2096921,313303,255243
2096921,2096921,313122,255508
2096921,2096921,313219,255534
2096921,2096921,313419,255651
2096921,2096921,313251,255806
2096921,2096921,313250,255685
2096921,2096921,313342,255603
2096921,2096921,313363,255691
2096921,2096921,313578,255625
2096921,2096921,313485,255688
2096921,2096921,313422,255644
2096921,2096921,313611,255707
2096921,2096921,313536,255694
2096921,2096921,313430,255804
2096921,2096921,313656,255696
2096921,2096921,313565,256049
2096921,2096921,313335,255853
2096921,2096921,313558,255702
2096921,2096921,313855,255973
2096921,2096921,313721,255750
2096921,2096921,313954,255881
2096921,2096921,313868,255857
2096921,2096921,313980,256071
2096921,2096921,313864,256003
2096921,2096921,313890,255881
2096921,2096921,314108,255786
2096921,2096921,313998,255977
2096921,2096921,313643,255747
2096921,2096921,313818,255941
2096921,2096921,313856,256007
2096921,2096921,314197,255981
2096921,2096921,314015,255685
2096921,2096921,314110,255739
2096921,2096921,314178,255824
2096921,2096921,314114,255812
2096921,2096921,314199,255988
2096921,2096921,314232,256239
2096921,2096921,314077,256205
2096921,2096921,313973,256189
2096921,2096921,314328,256208
2096921,2096921,314131,256076
2096921,2096921,314313,256028
2096921,2096921,314120,255891
2096921,2096921,314238,256285
2096921,2096921,314229,256097
2096921,2096921,314241,256211
2096921,2096921,314532,256103
2096921,2096921,314405,256164
2096921,2096921,314212,256353
2096921,2096921,314625,256407
2096921,2096921,314138,256196
2096921,2096921,314444,256486
2096921,2096921,314464,256272
2096921,2096921,314579,256059
2096921,2096921,314626,256323
2096921,2096921,314575,256468
2096921,2096921,314739,256174
2096921,2096921,314827,256318
2096921,2096921,314551,256659
2096921,2096921,314577,256352
2096921,2096921,314671,256241
2096921,2096921,314780,256052
2096921,2096921,314548,256381
2096921,2096921,314814,256085
2096921,2096921,314476,256284
2096921,2096921,314951,256270
2096921,2096921,314964,256114
2096921,2096921,314478,256360
2096921,2096921,314840,256424
2096921,2096921,314589,256434
2096921,2096921,314651,256394
2096921,2096921,314975,256580
2096921,2096921,314952,256503
2096921,2096921,315028,256554
2096921,2096921,315112,256575
2096921,2096921,314775,256492
2096921,2096921,314976,256398
2096921,2096921,315003,256485
2096921,2096921,315361,256525
2096921,2096921,315190,256518
2096921,2096921,314835,256248
2096921,2096921,314909,256594
2096921,2096921,314841,256275
2096921,2096921,315234,256300
2096921,2096921,314968,256476
2096921,2096921,315107,256637
2096921,2096921,315281,256585
2096921,2096921,315223,256439
2096921,2096921,315158,256485
2096921,2096921,314965,256600
2096921,2096921,315144,256498
2096921,2096921,315103,256379
2096921,2096921,315146,256455
2096921,2096921,315253,256665
2096921,2096921,315220,256680
2096921,2096921,315249,256604
2096921,2096921,315259,256628
2096921,2096921,315267,256737
2096921,2096921,315249,256557
2096921,2096921,315370,256769
2096921,2096921,315333,256649
2096921,2096921,315220,256470
2096921,2096921,315212,256504
2096921,2096921,315320,256507
2096921,2096921,315068,256418
2096921,2096921,315070,256661
2096921,2096921,315288,256680
2096921,2096921,315088,256817
2096921,2096921,315409,256456
2096921,2096921,315225,256489
2096921,2096921,315196,256571
2096921,2096921,315200,256553
2096921,2096921,315182,256336
2096921,2096921,315217,256371
2096921,2096921,315333,256451
2096921,2096921,315456,256749
2096921,2096921,315472,256684
2096921,2096921,315214,256808
2096921,2096921,315260,256572
2096921,2096921,315310,256562
2096921,2096921,315510,256663
2096921,2096921,315463,256769
2096921,2096921,315528,256560
2096921,2096921,315377,256562
2096921,2096921,315318,256285
2096921,2096921,315342,256566
2096921,2096921,315239,256769
2096921,2096921,315458,256610
2096921,2096921,315407,256614
2096921,2096921,315264,256403
2096921,2096921,315280,256318
2096921,2096921,315561,256475
2096921,2096921,315167,256571
2096921,2096921,315287,256647
2096921,2096921,315117,256532
2096921,2096921,315002,256712
2096921,2096921,315360,256723
2096921,2096921,315132,256488
2096921,2096921,315295,256743
2096921,2096921,315011,256685
2096921,2096921,315125,256693
2096921,2096921,315326,256459
2096921,2096921,315454,256628
2096921,2096921,315155,256625
2096921,2096921,315244,256728
2096921,2096921,315234,256624
2096921,2096921,315189,256347
2096921,2096921,315164,256616
2096921,2096921,314807,256485
2096921,2096921,314779,256218
2096921,2096921,314689,256173
2096921,2096921,314859,256343
2096921,2096921,314559,256308
2096921,2096921,314458,256163
2096921,2096921,314463,256315
2096921,2096921,314350,256067
2096921,2096921,314292,255871
2096921,2096921,314457,256250
2096921,2096921,313970,255790
2096921,2096921,313737,255589
2096921,2096921,313631,255447
2096921,2096921,313512,255790
2096921,2096921,313388,255571
2096921,2096921,312710,255184
2096921,2096921,312682,255048
2096921,2096921,312774,254915
2096921,2096921,312768,254885
2096921,2096921,312797,254947
2096921,2096921,311678,254634
2096921,2096921,311659,254613
2096921,2096921,311578,254644
2096921,2096921,311443,254477
2096921,2096921,311220,254713
2096921,2096921,309772,253822
2096921,2096921,309246,253270
2096921,2096921,309224,253174
2096921,2096921,309358,253500
2096921,2096921,309045,253266
2096921,2096921,306517,252124
2096921,2096921,305944,251979
2096921,2096921,306122,251621
2096921,2096921,306233,251797
2096921,2096921,306143,251746
2096921,2096921,304410,250674
2096921,2096921,304141,250704
2096921,2096921,304105,250635
2096921,2096921,304057,250596
2096921,2096921,304079,250590
2096921,2096921,302924,249658
2096921,2096921,302495,249667
2096921,2096921,302331,249807
2096921,2096921,302281,249813
2096921,2096921,302336,249765
2096921,2096921,301479,249201
2096921,2096921,301303,248964
2096921,2096921,301272,248935
2096921,2096921,301065,248901
2096921,2096921,301046,248864
2096921,2096921,300125,248610
2096921,2096921,300194,248911
2096921,2096921,300277,248842
2096921,2096921,300063,248340
2096921,2096921,300051,248502
2096921,2096921,299636,248254
2096921,2096921,299597,248236
2096921,2096921,299546,248276
2096921,2096921,299620,248227
2096921,2096921,299709,248094
2096921,2096921,299094,248086
2096921,2096921,299249,248039
2096921,2096921,299037,247998
2096921,2096921,299337,247813
2096921,2096921,299105,248132
2096921,2096921,299113,247756
2096921,2096921,299066,248085
2096921,2096921,299045,247982
2096921,2096921,298990,247955
2096921,2096921,299094,247916
2096921,2096921,299057,248118
2096921,2096921,298878,247842
2096921,2096921,298908,247908
2096921,2096921,298976,247873
2096921,2096921,298818,247794
2096921,2096921,299084,248016
2096921,2096921,299233,247954
2096921,2096921,299159,247938
2096921,2096921,299137,248211
2096921,2096921,299129,248066
2096921,2096921,299345,248252
2096921,2096921,299301,248204
2096921,2096921,299160,248277
2096921,2096921,299354,248144
2096921,2096921,299347,248012
2096921,2096921,299489,248188
2096921,2096921,299386,248221
2096921,2096921,299632,248185
2096921,2096921,299572,248227
2096921,2096921,299491,248317
2096921,2096921,299789,248268
2096921,2096921,299712,248498
2096921,2096921,300093,248128
2096921,2096921,299944,248535
2096921,2096921,299930,248527
2096921,2096921,300223,248853
2096921,2096921,300463,248572
2096921,2096921,300436,248636
2096921,2096921,300377,248511
2096921,2096921,300509,248695
2096921,2096921,300594,248763
2096921,2096921,300709,248849
2096921,2096921,300848,248676
2096921,2096921,300985,248876
2096921,2096921,300677,248815
2096921,2096921,301085,248919
2096921,2096921,301178,249070
2096921,2096921,301415,249087
2096921,2096921,301206,249088
2096921,2096921,300989,249003
2096921,2096921,301580,249246
2096921,2096921,301328,249251
2096921,2096921,301582,249462
2096921,2096921,301883,249509
2096921,2096921,301964,249313
2096921,2096921,302052,249543
2096921,2096921,302285,249770
2096921,2096921,302013,249471
2096921,2096921,302052,249491
2096921,2096921,302070,249512
2096921,2096921,302501,249743
2096921,2096921,302645,249699
2096921,2096921,302593,249730
2096921,2096921,302651,249801
2096921,2096921,302665,249667
2096921,2096921,303180,249933
2096921,2096921,303109,249837
2096921,2096921,303122,249914
2096921,2096921,303458,249880
2096921,2096921,303226,250174
2096921,2096921,303773,250107
2096921,2096921,303648,250320
2096921,2096921,303846,250384
2096921,2096921,303590,250539
2096921,2096921,303655,250231
2096921,2096921,303953,250301
2096921,2096921,304028,250582
2096921,2096921,304367,250636
2096921,2096921,304330,250485
2096921,2096921,304331,250428
2096921,2096921,304558,250798
2096921,2096921,304373,250599
2096921,2096921,304805,250730
2096921,2096921,304856,250852
2096921,2096921,304484,250829
2096921,2096921,304851,250882
2096921,2096921,305191,251188
2096921,2096921,305170,251125
2096921,2096921,305090,250956
2096921,2096921,304951,251117
2096921,2096921,305255,251127
2096921,2096921,305534,250904
2096921,2096921,305652,251013
2096921,2096921,305665,251496
2096921,2096921,305556,251575
2096921,2096921,305606,251423
2096921,2096921,305755,251419
2096921,2096921,305711,251515
2096921,2096921,305685,251366
2096921,2096921,305736,251292
2096921,2096921,305725,251442
2096921,2096921,306001,251620
2096921,2096921,306156,251497
2096921,2096921,306124,251469
2096921,2096921,305823,251524
2096921,2096921,305923,251787
2096921,2096921,305986,251759
2096921,2096921,306037,251624
2096921,2096921,306342,251702
2096921,2096921,305939,251716
2096921,2096921,305989,251712
2096921,2096921,306072,251691
2096921,2096921,306406,251463
2096921,2096921,306393,251682
2096921,2096921,306075,251543
2096921,2096921,306306,251455
2096921,2096921,306608,251596
2096921,2096921,306216,251399
2096921,2096921,306336,251715
2096921,2096921,306494,251562
2096921,2096921,306298,251567
2096921,2096921,306472,251573
2096921,2096921,306222,251581
2096921,2096921,306360,251344
2096921,2096921,306439,251282
2096921,2096921,306070,251509
2096921,2096921,306209,251545
2096921,2096921,306058,251430
2096921,2096921,306037,251502
2096921,2096921,306062,251376
2096921,2096921,305990,251098
2096921,2096921,305953,251281
2096921,2096921,305697,251239
2096921,2096921,305685,251243
2096921,2096921,305691,251228
2096921,2096921,305626,251178
2096921,2096921,305602,251132
2096921,2096921,305455,250998
2096921,2096921,305497,250831
2096921,2096921,305550,250980
2096921,2096921,305449,251113
2096921,2096921,305436,251116
2096921,2096921,305319,250978
2096921,2096921,305465,250968
2096921,2096921,305337,251164
2096921,2096921,305245,251037
2096921,2096921,305300,250808
2096921,2096921,305150,250865
2096921,2096921,305200,250887
2096921,2096921,305359,251162
2096921,2096921,305183,250995
2096921,2096921,305045,250877
2096921,2096921,305429,250859
2096921,2096921,305276,250755
2096921,2096921,305248,250874
2096921,2096921,305294,250611
2096921,2096921,304982,250667
2096921,2096921,304964,250770
2096921,2096921,305238,250703
2096921,2096921,304811,250728
2096921,2096921,305047,250929
2096921,2096921,305103,250999
2096921,2096921,305068,250655
2096921,2096921,304795,250714
2096921,2096921,305000,250782
2096921,2096921,305115,250659
2096921,2096921,305252,251123
2096921,2096921,305142,250859
2096921,2096921,305307,250628
2096921,2096921,305167,250550
2096921,2096921,305233,250908
2096921,2096921,305287,250889
2096921,2096921,305237,250947
2096921,2096921,305309,250857
2096921,2096921,305384,250744
2096921,2096921,305508,250979
2096921,2096921,305467,250811
2096921,2096921,305801,250793
2096921,2096921,305604,250873
2096921,2096921,305593,250889
2096921,2096921,305981,251000
2096921,2096921,305728,251260
2096921,2096921,305732,251389
2096921,2096921,305774,251375
2096921,2096921,305546,251016
2096921,2096921,305931,251174
2096921,2096921,306038,251411
2096921,2096921,306068,251152
2096921,2096921,305992,251183
2096921,2096921,306320,251434
2096921,2096921,306571,251221
2096921,2096921,306337,251342
2096921,2096921,306476,251425
2096921,2096921,306430,251271
2096921,2096921,306408,251211
2096921,2096921,306754,251438
2096921,2096921,306694,251543
2096921,2096921,306588,251459
2096921,2096921,306600,251311
2096921,2096921,306602,251404
2096921,2096921,306775,251526
2096921,2096921,306859,251644
2096921,2096921,306769,251927
2096921,2096921,306805,251810
2096921,2096921,306981,251573
2096921,2096921,307195,251491
2096921,2096921,307018,251641
2096921,2096921,307145,251749
2096921,2096921,307068,251800
2096921,2096921,307070,251632
2096921,2096921,307287,251659
2096921,2096921,307091,251556
2096921,2096921,307366,251671
2096921,2096921,307309,251580
2096921,2096921,307257,251671
2096921,2096921,307752,251677
2096921,2096921,307636,251964
2096921,2096921,307493,252072
2096921,2096921,307392,252083
2096921,2096921,307587,252043
2096921,2096921,307606,251862
2096921,2096921,307733,251766
2096921,2096921,307923,251864
2096921,2096921,307485,251924
2096921,2096921,307593,252059
2096921,2096921,308178,251854
2096921,2096921,307849,252072
2096921,2096921,308102,252020
2096921,2096921,307959,252075
2096921,2096921,308143,252323
2096921,2096921,308138,252369
2096921,2096921,308121,252173
2096921,2096921,308279,252050
2096921,2096921,308158,252224
2096921,2096921,308155,252062
2096921,2096921,308579,252082
2096921,2096921,308646,252202
2096921,2096921,308336,252326
2096921,2096921,308394,252338
2096921,2096921,308350,252512
2096921,2096921,308230,252413
2096921,2096921,308571,252450
2096921,2096921,308567,252020
2096921,2096921,308453,252117
2096921,2096921,308463,252427
2096921,2096921,308628,252510
2096921,2096921,308582,252503
2096921,2096921,308675,252550
2096921,2096921,308683,252530
2096921,2096921,308558,252443
2096921,2096921,308826,252608
2096921,2096921,308981,252512
2096921,2096921,308886,252382
2096921,2096921,308856,252423
2096921,2096921,308743,252238
2096921,2096921,308836,252417
2096921,2096921,309058,252632
2096921,2096921,309051,252555
2096921,2096921,309076,252561
2096921,2096921,309067,252492
2096921,2096921,308992,252620
2096921,2096921,309422,252631
2096921,2096921,309185,252418
2096921,2096921,309345,252552
2096921,2096921,309161,252473
2096921,2096921,309384,252810
2096921,2096921,309375,252839
2096921,2096921,309261,252676
2096921,2096921,309311,252828
2096921,2096921,309434,252817
2096921,2096921,309114,252562
2096921,2096921,309353,252567
2096921,2096921,309226,252348
2096921,2096921,309143,252355
2096921,2096921,309111,252638
2096921,2096921,309725,252803
2096921,2096921,309650,252801
2096921,2096921,309575,252818
2096921,2096921,309639,252942
2096921,2096921,309878,252768
2096921,2096921,309728,252938
2096921,2096921,309672,253024
2096921,2096921,309781,252722
2096921,2096921,309774,252868
2096921,2096921,309740,252961
2096921,2096921,309715,252815
2096921,2096921,309678,252849
2096921,2096921,309733,252730
2096921,2096921,309897,252853
2096921,2096921,309891,252649
2096921,2096921,310049,253049
2096921,2096921,309772,252784
2096921,2096921,309937,252897
2096921,2096921,309803,252844
2096921,2096921,309843,252742
2096921,2096921,310059,252652
2096921,2096921,310270,252936
2096921,2096921,310038,252861
2096921,2096921,310117,252658
2096921,2096921,309921,252770
2096921,2096921,310168,252930
2096921,2096921,310107,252902
2096921,2096921,310082,253008
2096921,2096921,310332,252636
2096921,2096921,309789,252683
2096921,2096921,309997,252964
2096921,2096921,310182,252909
2096921,2096921,310048,252783
2096921,2096921,310107,252966
2096921,2096921,310137,252886
2096921,2096921,310205,252689
2096921,2096921,310316,252849
2096921,2096921,310242,253016
2096921,2096921,310148,252722
2096921,2096921,310283,252901
2096921,2096921,310177,252813
2096921,2096921,310306,252875
2096921,2096921,310501,252906
2096921,2096921,310406,252747
2096921,2096921,310001,252896
2096921,2096921,310124,252943
2096921,2096921,310357,252905
2096921,2096921,310313,252983
2096921,2096921,310141,252722
2096921,2096921,310018,253006
2096921,2096921,310014,252708
2096921,2096921,310378,252885
2096921,2096921,310258,252931
2096921,2096921,310350,252922
2096921,2096921,310251,252977
2096921,2096921,310354,253153
2096921,2096921,310029,252937
2096921,2096921,310067,252875
2096921,2096921,310264,252621
2096921,2096921,310354,252914
2096921,2096921,310198,252507
2096921,2096921,310264,252751
2096921,2096921,310132,252869
2096921,2096921,310592,252873
2096921,2096921,310242,252695
2096921,2096921,310257,252778
2096921,2096921,310155,252902
2096921,2096921,310441,252812
2096921,2096921,310543,252849
2096921,2096921,310359,252724
2096921,2096921,310325,252725
2096921,2096921,310433,252766
2096921,2096921,310449,252810
2096921,2096921,310394,252644
2096921,2096921,310330,252795
2096921,2096921,310501,252755
2096921,2096921,310326,252930
2096921,2096921,310096,252785
2096921,2096921,309986,252838
2096921,2096921,310181,252663
2096921,2096921,310496,252536
2096921,2096921,310419,252699
2096921,2096921,310210,252780
2096921,2096921,310426,252650
2096921,2096921,310602,252905
2096921,2096921,310550,252738
2096921,2096921,310374,252743
2096921,2096921,310384,252884
2096921,2096921,310361,252552
2096921,2096921,310507,252671
2096921,2096921,310448,252737
2096921,2096921,310150,252747
2096921,2096921,310248,252807
2096921,2096921,310206,252716
2096921,2096921,310376,252601
2096921,2096921,310424,252726
2096921,2096921,310243,252699
2096921,2096921,310272,252804
2096921,2096921,310340,252742
2096921,2096921,310521,252861
2096921,2096921,310350,252776
2096921,2096921,310501,252900
2096921,2096921,310418,252763
2096921,2096921,310308,252454
2096921,2096921,310363,252622
2096921,2096921,310253,252887
2096921,2096921,310366,252563
2096921,2096921,310250,252560
2096921,2096921,310380,252628
2096921,2096921,310333,252612
2096921,2096921,310563,252546
2096921,2096921,310458,252736
2096921,2096921,310269,252675
2096921,2096921,310277,252613
2096921,2096921,310491,252628
2096921,2096921,310487,252239
2096921,2096921,310572,252276
2096921,2096921,310442,252507
2096921,2096921,310544,252611
2096921,2096921,310327,252553
2096921,2096921,310456,252374
2096921,2096921,310373,252330
2096921,2096921,310477,252587
2096921,2096921,310522,252709
2096921,2096921,310577,252546
2096921,2096921,310149,252552
2096921,2096921,310437,252656
2096921,2096921,310199,252753
2096921,2096921,310202,252458
2096921,2096921,310153,252678
2096921,2096921,310005,252380
2096921,2096921,310135,252236
2096921,2096921,310423,252433
2096921,2096921,310101,252525
2096921,2096921,309961,252449
2096921,2096921,310090,252587
2096921,2096921,310120,252407
2096921,2096921,309977,252200
2096921,2096921,309999,252281
2096921,2096921,309892,252320
2096921,2096921,309863,252287
2096921,2096921,310047,252196
2096921,2096921,310027,252531
2096921,2096921,310088,252208
2096921,2096921,309885,252296
2096921,2096921,310080,252221
2096921,2096921,310152,252217
2096921,2096921,310120,251845
2096921,2096921,310044,252027
2096921,2096921,309985,252183
2096921,2096921,309787,252255
2096921,2096921,310001,252162
2096921,2096921,309831,252227
2096921,2096921,309788,252252
2096921,2096921,309811,252202
2096921,2096921,309663,252098
2096921,2096921,309600,252217
2096921,2096921,309659,252293
2096921,2096921,309951,252249
2096921,2096921,309934,252144
2096921,2096921,309714,252088
2096921,2096921,309769,252049
2096921,2096921,309715,252352
2096921,2096921,309664,252070
2096921,2096921,309846,252066
2096921,2096921,309364,251751
2096921,2096921,309283,251715
2096921,2096921,309297,251797
2096921,2096921,309226,251634
2096921,2096921,309390,251752
2096921,2096921,308754,251571
2096921,2096921,308822,251648
2096921,2096921,308973,251689
2096921,2096921,308889,251647
2096921,2096921,308807,251632
2096921,2096921,307904,251218
2096921,2096921,307949,250999
2096921,2096921,307863,251105
2096921,2096921,307763,251347
2096921,2096921,307771,251066
2096921,2096921,306993,250530
2096921,2096921,306780,250548
2096921,2096921,306593,250418
2096921,2096921,306803,250363
2096921,2096921,307191,250581
2096921,2096921,306001,250039
2096921,2096921,305871,250122
2096921,2096921,305934,249714
2096921,2096921,305795,249936
2096921,2096921,305599,250009
2096921,2096921,303884,249071
2096921,2096921,303322,248794
2096921,2096921,303591,248637
2096921,2096921,303486,248477
2096921,2096921,303797,248646
2096921,2096921,301202,247466
2096921,2096921,300686,247103
2096921,2096921,300490,247121
2096921,2096921,300656,247180
2096921,2096921,300538,247128
2096921,2096921,298937,246250
2096921,2096921,298294,246067
2096921,2096921,298216,246096
2096921,2096921,298176,246130
2096921,2096921,298341,246037
2096921,2096921,297252,245155
2096921,2096921,296724,245177
2096921,2096921,296610,245242
2096921,2096921,296706,244923
2096921,2096921,296500,244835
2096921,2096921,295650,244296
2096921,2096921,295530,244331
2096921,2096921,295457,244433
2096921,2096921,295294,244427
2096921,2096921,295632,244327
2096921,2096921,294664,244059
2096921,2096921,294405,243972
2096921,2096921,294504,243913
2096921,2096921,294358,243913
2096921,2096921,294421,243852
2096921,2096921,294055,243542
2096921,2096921,294063,243414
2096921,2096921,293624,243486
2096921,2096921,293865,243373
2096921,2096921,293705,243385
2096921,2096921,293462,243172
2096921,2096921,293352,243067
2096921,2096921,293433,242971
2096921,2096921,293411,243120
2096921,2096921,293293,243147
2096921,2096921,293293,243159
2096921,2096921,293225,243151
2096921,2096921,293246,243200
2096921,2096921,293160,242966
2096921,2096921,293097,242809
2096921,2096921,293006,242904
2096921,2096921,292724,242996
2096921,2096921,292950,243027
2096921,2096921,293292,242818
2096921,2096921,293102,243140
2096921,2096921,293477,243363
2096921,2096921,293670,243409
2096921,2096921,293443,243315
2096921,2096921,293356,243424
2096921,2096921,293381,243424
2096921,2096921,293583,243308
2096921,2096921,293750,243403
2096921,2096921,293420,243592
2096921,2096921,293546,243406
2096921,2096921,293324,243171
2096921,2096921,293638,243266
2096921,2096921,293857,243287
2096921,2096921,293599,243143
2096921,2096921,293551,243189
2096921,2096921,293583,243212
2096921,2096921,294125,243656
2096921,2096921,294145,243862
2096921,2096921,294183,243591
2096921,2096921,293984,243562
2096921,2096921,294246,243640
2096921,2096921,294322,243811
2096921,2096921,294673,243783
2096921,2096921,294432,243723
2096921,2096921,294421,243535
2096921,2096921,294637,243629
2096921,2096921,294916,244063
2096921,2096921,294946,243931
2096921,2096921,295023,243910
2096921,2096921,295185,243964
2096921,2096921,295024,243913
2096921,2096921,295432,244305
2096921,2096921,295327,244054
2096921,2096921,295465,244408
2096921,2096921,295634,244490
2096921,2096921,295486,244302
2096921,2096921,296043,244718
2096921,2096921,296094,244755
2096921,2096921,295954,244536
2096921,2096921,296150,244722
2096921,2096921,295891,244599
2096921,2096921,296828,244769
2096921,2096921,296544,244762
2096921,2096921,296584,244816
2096921,2096921,296465,244750
2096921,2096921,296519,244892
2096921,2096921,296728,245192
2096921,2096921,296874,245097
2096921,2096921,296722,245313
2096921,2096921,296993,245171
2096921,2096921,296945,245124
2096921,2096921,297228,245339
2096921,2096921,297456,245156
2096921,2096921,297304,245189
2096921,2096921,297353,245364
2096921,2096921,297416,245256
2096921,2096921,297972,245544
2096921,2096921,297687,245565
2096921,2096921,297955,245484
2096921,2096921,297716,245478
2096921,2096921,297979,245281
2096921,2096921,298109,245457
2096921,2096921,298486,245752
2096921,2096921,298436,245900
2096921,2096921,298453,245996
2096921,2096921,298386,246224
2096921,2096921,298908,246219
2096921,2096921,298852,246265
2096921,2096921,298843,246184
2096921,2096921,298734,246100
2096921,2096921,298932,246075
2096921,2096921,299381,246470
2096921,2096921,299460,246334
2096921,2096921,299541,246367
2096921,2096921,299319,246427
2096921,2096921,299277,246433
2096921,2096921,299967,246302
2096921,2096921,299866,246595
2096921,2096921,299992,246543
2096921,2096921,299843,246408
2096921,2096921,299710,246490
2096921,2096921,300434,246687
2096921,2096921,300411,246651
2096921,2096921,300184,246700
2096921,2096921,300251,246803
2096921,2096921,300567,246839
2096921,2096921,300665,247097
2096921,2096921,300650,246974
2096921,2096921,300516,246782
2096921,2096921,300728,246814
2096921,2096921,300449,246945
2096921,2096921,300540,246940
2096921,2096921,300624,247003
2096921,2096921,300821,247025
2096921,2096921,300875,247138
2096921,2096921,300465,247165
2096921,2096921,300684,247289
2096921,2096921,300949,247219
2096921,2096921,300882,247144
2096921,2096921,300637,246976
2096921,2096921,301014,247256
2096921,2096921,301128,247108
2096921,2096921,300936,247130
2096921,2096921,300943,247055
2096921,2096921,301079,247153
2096921,2096921,300583,247090
2096921,2096921,300856,247287
2096921,2096921,300516,247008
2096921,2096921,300644,247018
2096921,2096921,300839,247198
2096921,2096921,300735,246913
2096921,2096921,300851,246819
2096921,2096921,300739,246882
2096921,2096921,300807,247156
2096921,2096921,300796,247299
2096921,2096921,300682,247238
2096921,2096921,300824,247011
2096921,2096921,300576,247214
2096921,2096921,300925,247096
2096921,2096921,300495,246803
2096921,2096921,300395,246816
2096921,2096921,300326,246803
2096921,2096921,300515,246966
2096921,2096921,300673,246863
2096921,2096921,300385,247023
2096921,2096921,300595,246759
2096921,2096921,300342,246950
2096921,2096921,300331,246979
2096921,2096921,300295,246721
2096921,2096921,300315,246715
2096921,2096921,300332,246614
2096921,2096921,300193,246638
2096921,2096921,300104,246834
2096921,2096921,300123,246972
2096921,2096921,300147,246735
2096921,2096921,300068,246760
2096921,2096921,299995,246858
2096921,2096921,300024,246812
2096921,2096921,300091,246489
2096921,2096921,300167,246631
2096921,2096921,299987,246532
2096921,2096921,300229,246706
2096921,2096921,300209,246602
2096921,2096921,300169,246811
2096921,2096921,300146,246621
2096921,2096921,300123,246757
2096921,2096921,300165,247004
2096921,2096921,300174,246919
2096921,2096921,299999,246558
2096921,2096921,300208,246814
2096921,2096921,300065,246757
2096921,2096921,299999,246861
2096921,2096921,300216,247103
2096921,2096921,300184,247040
2096921,2096921,300217,246801
2096921,2096921,300470,246746
2096921,2096921,300616,246990
2096921,2096921,300694,247045
2096921,2096921,300521,247025
2096921,2096921,300637,246959
2096921,2096921,300387,246917
2096921,2096921,300808,247223
2096921,2096921,300940,247368
2096921,2096921,300874,247184
2096921,2096921,300908,247143
2096921,2096921,300975,246969
2096921,2096921,301063,247059
2096921,2096921,301352,247340
2096921,2096921,301396,247506
2096921,2096921,301326,247303
2096921,2096921,301464,247449
2096921,2096921,301710,247449
2096921,2096921,301602,247721
2096921,2096921,301524,247493
2096921,2096921,301559,247374
2096921,2096921,301333,247453
2096921,2096921,301592,247703
2096921,2096921,301757,247560
2096921,2096921,302036,247663
2096921,2096921,301896,247649
2096921,2096921,302092,247600
2096921,2096921,302248,247811
2096921,2096921,302293,248040
2096921,2096921,302079,247718
2096921,2096921,302134,247853
2096921,2096921,301965,247798
2096921,2096921,302441,247915
2096921,2096921,302561,247805
2096921,2096921,302686,248021
2096921,2096921,302792,247888
2096921,2096921,302543,247804
2096921,2096921,302798,248157
2096921,2096921,302870,248260
2096921,2096921,302863,248345
2096921,2096921,302532,248232
2096921,2096921,302707,248314
2096921,2096921,303064,248285
2096921,2096921,303167,248338
2096921,2096921,302890,248393
2096921,2096921,302999,248308
2096921,2096921,303172,248323
2096921,2096921,303245,248330
2096921,2096921,303689,248598
2096921,2096921,303439,248842
2096921,2096921,303493,248571
2096921,2096921,303571,248449
2096921,2096921,303980,248404
2096921,2096921,303811,248272
2096921,2096921,303710,248683
2096921,2096921,303799,248515
2096921,2096921,303872,248449
2096921,2096921,304144,248715
2096921,2096921,304062,248828
2096921,2096921,304049,248772
2096921,2096921,303903,248883
2096921,2096921,303876,248745
2096921,2096921,304178,248723
2096921,2096921,304203,248663
2096921,2096921,303947,248876
2096921,2096921,304095,248930
2096921,2096921,304357,249080
2096921,2096921,304503,249135
2096921,2096921,304506,249188
2096921,2096921,304395,248924
2096921,2096921,304584,249070
2096921,2096921,304192,248888
2096921,2096921,304523,249187
2096921,2096921,304865,249219
2096921,2096921,304740,249305
2096921,2096921,304771,249220
2096921,2096921,304779,249129
2096921,2096921,304824,249314
2096921,2096921,305090,249431
2096921,2096921,305006,249523
2096921,2096921,304923,249150
2096921,2096921,305243,249320
2096921,2096921,305351,249450
2096921,2096921,305395,249508
2096921,2096921,305209,249410
2096921,2096921,305288,249501
2096921,2096921,305220,249620
2096921,2096921,305748,249512
2096921,2096921,305721,249484
2096921,2096921,305492,249536
2096921,2096921,305632,249661
2096921,2096921,305602,249493
2096921,2096921,305815,249646
2096921,2096921,305769,249701
2096921,2096921,306103,249618
2096921,2096921,305851,249636
2096921,2096921,305816,249683
2096921,2096921,305978,249601
2096921,2096921,306229,249843
2096921,2096921,305911,249785
2096921,2096921,306109,249858
2096921,2096921,306037,249800
2096921,2096921,305976,250026
2096921,2096921,306050,249958
2096921,2096921,306288,249997
2096921,2096921,306213,250005
2096921,2096921,306242,250003
2096921,2096921,306336,250057
2096921,2096921,306431,249754
2096921,2096921,306348,250159
2096921,2096921,306351,250097
2096921,2096921,306330,250257
2096921,2096921,306770,250190
2096921,2096921,306925,250323
2096921,2096921,306898,250348
2096921,2096921,306705,250247
2096921,2096921,306749,250034
2096921,2096921,307139,250286
2096921,2096921,306872,250341
2096921,2096921,306761,250309
2096921,2096921,307125,250474
2096921,2096921,307054,250537
2096921,2096921,306914,250433
2096921,2096921,307024,250474
2096921,2096921,307026,250405
2096921,2096921,306800,250640
2096921,2096921,306914,250351
2096921,2096921,307037,250584
2096921,2096921,307159,250617
2096921,2096921,307191,250490
2096921,2096921,307218,250496
2096921,2096921,307373,250594
2096921,2096921,307478,250772
2096921,2096921,307637,250963
2096921,2096921,307463,251047
2096921,2096921,307319,250795
2096921,2096921,307538,250759
2096921,2096921,307606,250880
2096921,2096921,307501,250812
2096921,2096921,307447,251063
2096921,2096921,307442,250935
2096921,2096921,307569,250843
2096921,2096921,307714,250849
2096921,2096921,307658,250792
2096921,2096921,307858,250781
2096921,2096921,307750,250963
2096921,2096921,307889,250826
2096921,2096921,308063,250967
2096921,2096921,308128,250915
2096921,2096921,308002,250991
2096921,2096921,307991,251065
2096921,2096921,307966,251180
2096921,2096921,308190,251177
2096921,2096921,307964,251093
2096921,2096921,308155,251069
2096921,2096921,308171,251080
2096921,2096921,308176,251032
2096921,2096921,308173,251064
2096921,2096921,308192,251167
2096921,2096921,308032,250970
2096921,2096921,308050,251030
2096921,2096921,308265,251197
2096921,2096921,308291,251253
2096921,2096921,308415,251258
2096921,2096921,308344,251308
2096921,2096921,308479,251050
2096921,2096921,308333,251283
2096921,2096921,308609,251143
2096921,2096921,308406,251234
2096921,2096921,308653,251322
2096921,2096921,308787,251248
2096921,2096921,308583,251494
2096921,2096921,308760,251282
2096921,2096921,308826,251310
2096921,2096921,308500,251215
2096921,2096921,308412,251313
2096921,2096921,308623,251264
2096921,2096921,308725,251541
2096921,2096921,308760,251601
2096921,2096921,308948,251698
2096921,2096921,309095,251723
2096921,2096921,308961,251577
2096921,2096921,309228,251727
2096921,2096921,309093,251512
2096921,2096921,308956,251458
2096921,2096921,308977,251565
2096921,2096921,308930,251668
2096921,2096921,309023,251600
2096921,2096921,309258,251532
2096921,2096921,309112,251813
2096921,2096921,309063,251659
2096921,2096921,309118,251617
2096921,2096921,309289,251498
2096921,2096921,308996,251918
2096921,2096921,308968,251856
2096921,2096921,309185,251681
2096921,2096921,309426,251785
2096921,2096921,309345,252054
2096921,2096921,309422,252006
2096921,2096921,309500,251953
2096921,2096921,309548,251720
2096921,2096921,309642,251955
2096921,2096921,309467,251944
2096921,2096921,309501,251935
2096921,2096921,309448,252020
2096921,2096921,309445,251965
2096921,2096921,309576,251986
2096921,2096921,309773,252161
2096921,2096921,309633,252055
2096921,2096921,309851,252163
2096921,2096921,309730,252126
2096921,2096921,310001,251936
2096921,2096921,309729,252154
2096921,2096921,309673,252125
2096921,2096921,309779,252237
2096921,2096921,309703,251966
2096921,2096921,309647,252247
2096921,2096921,309983,252117
2096921,2096921,310072,252224
2096921,2096921,310119,252481
2096921,2096921,309817,252266
2096921,2096921,309903,252006
2096921,2096921,309931,252289
2096921,2096921,309889,252130
2096921,2096921,310284,252344
2096921,2096921,309913,252411
2096921,2096921,310288,252289
2096921,2096921,309874,252419
2096921,2096921,309977,252428
2096921,2096921,310204,252446
2096921,2096921,310073,252399
2096921,2096921,310155,252286
2096921,2096921,310140,252494
2096921,2096921,310328,252494
2096921,2096921,310162,252275
2096921,2096921,309913,252349
2096921,2096921,309976,252155
2096921,2096921,310105,252346
2096921,2096921,310199,252490
2096921,2096921,310416,252388
2096921,2096921,310231,252434
2096921,2096921,310303,252561
2096921,2096921,310395,252447
2096921,2096921,310183,252415
2096921,2096921,310030,252453
2096921,2096921,310283,252607
2096921,2096921,310237,252696
2096921,2096921,310541,252631
2096921,2096921,310254,252570
2096921,2096921,310439,252388
2096921,2096921,310224,252544
2096921,2096921,310317,252454
2096921,2096921,310617,252343
2096921,2096921,310679,252634
2096921,2096921,310277,252534
2096921,2096921,310448,252468
2096921,2096921,310143,252613
2096921,2096921,310471,252385
2096921,2096921,310397,252653
2096921,2096921,310304,252587
2096921,2096921,310526,252683
2096921,2096921,310337,252785
2096921,2096921,310450,252891
2096921,2096921,310630,252755
2096921,2096921,310503,252667
2096921,2096921,310616,252769
2096921,2096921,310644,252859
2096921,2096921,310699,252535
2096921,2096921,310962,252579
2096921,2096921,310938,252857
2096921,2096921,310859,252674
2096921,2096921,310538,252894
2096921,2096921,310369,252789
2096921,2096921,309969,252763
2096921,2096921,310121,252570
2096921,2096921,310180,252620
2096921,2096921,310359,252648
2096921,2096921,310151,252517
2096921,2096921,309776,252488
2096921,2096921,310112,252764
2096921,2096921,309719,252272
2096921,2096921,309835,252579
2096921,2096921,309343,252170
2096921,2096921,309025,252170
2096921,2096921,309002,252121
2096921,2096921,308921,252014
2096921,2096921,309314,252096
2096921,2096921,308562,252023
2096921,2096921,308377,251764
2096921,2096921,308434,251741
2096921,2096921,308093,251732
2096921,2096921,308296,251576
2096921,2096921,307536,251299
2096921,2096921,307185,251292
2096921,2096921,307196,250990
2096921,2096921,307284,251061
2096921,2096921,307417,251267
2096921,2096921,305324,250211
2096921,2096921,305115,250130
2096921,2096921,305119,250039
2096921,2096921,304934,249985
2096921,2096921,305005,249938
2096921,2096921,303066,248747
2096921,2096921,302341,248584
2096921,2096921,302176,248559
2096921,2096921,302052,248490
2096921,2096921,302057,248583
2096921,2096921,300561,247749
2096921,2096921,300203,247468
2096921,2096921,300275,247500
2096921,2096921,300098,247246
2096921,2096921,300138,247546
2096921,2096921,298696,246850
2096921,2096921,298590,246487
2096921,2096921,298509,246299
2096921,2096921,298481,246392
2096921,2096921,298481,246217
2096921,2096921,297602,245953
2096921,2096921,297377,245779
2096921,2096921,297135,245806
2096921,2096921,297027,245695
2096921,2096921,297361,245911
2096921,2096921,296775,245563
2096921,2096921,296507,245467
2096921,2096921,296377,245643
2096921,2096921,296531,245628
2096921,2096921,296501,245397
2096921,2096921,296127,245092
2096921,2096921,295892,245300
2096921,2096921,296034,245462
2096921,2096921,296049,245227
2096921,2096921,296210,245250
2096921,2096921,295651,245279
2096921,2096921,295630,245266
2096921,2096921,295603,245267
2096921,2096921,295837,245189
2096921,2096921,295757,244966
2096921,2096921,295620,245194
2096921,2096921,295801,245278
2096921,2096921,295503,245138
2096921,2096921,295514,245127
2096921,2096921,295664,245013
2096921,2096921,295732,245081
2096921,2096921,295601,245091
2096921,2096921,295800,244903
2096921,2096921,295582,245124
2096921,2096921,295877,245076
2096921,2096921,296026,245281
2096921,2096921,295901,245393
2096921,2096921,295932,245280
2096921,2096921,296170,245417
2096921,2096921,295826,245427
2096921,2096921,296121,245440
2096921,2096921,296154,245484
2096921,2096921,296182,245373
2096921,2096921,296315,245714
2096921,2096921,296299,245392
2096921,2096921,296486,245654
2096921,2096921,296563,245543
2096921,2096921,296406,245678
2096921,2096921,296543,245724
2096921,2096921,296457,245515
2096921,2096921,296808,245665
2096921,2096921,296690,245930
2096921,2096921,296847,246007
2096921,2096921,297018,245928
2096921,2096921,296812,246065
2096921,2096921,297320,246196
2096921,2096921,297427,246226
2096921,2096921,297602,246291
2096921,2096921,297478,246248
2096921,2096921,297464,246299
2096921,2096921,297996,246669
2096921,2096921,298147,246375
2096921,2096921,298071,246653
2096921,2096921,297887,246408
2096921,2096921,297857,246655
2096921,2096921,298534,247057
2096921,2096921,298677,247165
2096921,2096921,298728,246980
2096921,2096921,298657,247144
2096921,2096921,298668,247053
2096921,2096921,299223,247352
2096921,2096921,299184,247198
2096921,2096921,299510,247561
2096921,2096921,299440,247504
2096921,2096921,299362,247505
2096921,2096921,299661,247430
2096921,2096921,299619,247361
2096921,2096921,299783,247701
2096921,2096921,299666,247773
2096921,2096921,300169,247550
2096921,2096921,300453,247927
2096921,2096921,300595,247969
2096921,2096921,300507,247677
2096921,2096921,300291,247908
2096921,2096921,300323,247871
2096921,2096921,301008,248294
2096921,2096921,301121,248012
2096921,2096921,301165,248120
2096921,2096921,301016,248110
2096921,2096921,300916,248288
2096921,2096921,301509,248523
2096921,2096921,301626,248365
2096921,2096921,301539,248757
2096921,2096921,301464,248334
2096921,2096921,301582,248696
2096921,2096921,302262,248827
2096921,2096921,302285,248632
2096921,2096921,302177,248958
2096921,2096921,302169,249069
2096921,2096921,302270,248777
2096921,2096921,302855,249115
2096921,2096921,302913,249450
2096921,2096921,302728,249243
2096921,2096921,302919,249318
2096921,2096921,302555,249210
2096921,2096921,303427,249512
2096921,2096921,303490,249738
2096921,2096921,303693,249653
2096921,2096921,303318,249641
2096921,2096921,303192,249745
2096921,2096921,303755,249788
2096921,2096921,303684,249752
2096921,2096921,303855,249936
2096921,2096921,303693,250037
2096921,2096921,304015,249997
2096921,2096921,304152,250042
2096921,2096921,304185,250108
2096921,2096921,304270,250046
2096921,2096921,304236,250074
2096921,2096921,304160,249923
2096921,2096921,304413,250377
2096921,2096921,304885,250416
2096921,2096921,304708,250327
2096921,2096921,304397,250409
2096921,2096921,304665,250175
2096921,2096921,304923,250545
2096921,2096921,305090,250614
2096921,2096921,305284,250692
2096921,2096921,304730,250367
2096921,2096921,304886,250482
2096921,2096921,305036,250692
2096921,2096921,305261,250557
2096921,2096921,305071,250734
2096921,2096921,304979,250540
2096921,2096921,305035,250737
2096921,2096921,305356,250661
2096921,2096921,305286,250756
2096921,2096921,305326,250559
2096921,2096921,305425,250781
2096921,2096921,305285,250751
2096921,2096921,305237,250914
2096921,2096921,305367,250590
2096921,2096921,305428,250974
2096921,2096921,305424,250751
2096921,2096921,305346,250948
2096921,2096921,305326,250888
2096921,2096921,305846,250862
2096921,2096921,305421,250502
2096921,2096921,305348,250789
2096921,2096921,305172,250925
2096921,2096921,305056,250738
2096921,2096921,305329,250831
2096921,2096921,305175,250799
2096921,2096921,305142,250799
2096921,2096921,305015,250640
2096921,2096921,305068,250747
2096921,2096921,304844,250816
2096921,2096921,305141,250763
2096921,2096921,305020,250608
2096921,2096921,305202,250491
2096921,2096921,305015,250396
2096921,2096921,304690,250818
2096921,2096921,305233,250549
2096921,2096921,304967,250484
2096921,2096921,305123,250579
2096921,2096921,304767,250717
2096921,2096921,304815,250565
2096921,2096921,304729,250604
2096921,2096921,304677,250656
2096921,2096921,305039,250641
2096921,2096921,304841,250815
2096921,2096921,305055,250848
2096921,2096921,304945,250912
2096921,2096921,304832,250721
2096921,2096921,305006,250745
2096921,2096921,305038,250693
2096921,2096921,304810,250787
2096921,2096921,305005,250909
2096921,2096921,305006,250791
2096921,2096921,305288,250701
2096921,2096921,305187,250942
2096921,2096921,305374,250887
2096921,2096921,305112,250852
2096921,2096921,305125,250842
2096921,2096921,305202,250786
2096921,2096921,305355,250840
2096921,2096921,305227,250941
2096921,2096921,305394,250996
2096921,2096921,305431,250863
2096921,2096921,305372,251134
2096921,2096921,305516,251094
2096921,2096921,305757,251160
2096921,2096921,305712,251190
2096921,2096921,305525,251242
2096921,2096921,305692,251040
2096921,2096921,306024,251256
2096921,2096921,306230,251565
2096921,2096921,306163,251282
2096921,2096921,305760,251452
2096921,2096921,305688,251498
2096921,2096921,306347,251644
2096921,2096921,306358,251720
2096921,2096921,306318,251720
2096921,2096921,306379,251573
2096921,2096921,306316,251694
2096921,2096921,306650,251882
2096921,2096921,306762,251554
2096921,2096921,306795,251869
2096921,2096921,306898,251778
2096921,2096921,307161,252010
2096921,2096921,307212,252130
2096921,2096921,306995,252125
2096921,2096921,307107,252082
2096921,2096921,307409,252068
2096921,2096921,307456,252245
2096921,2096921,307920,252074
2096921,2096921,307564,252356
2096921,2096921,307709,252449
2096921,2096921,307672,252579
2096921,2096921,307540,252529
2096921,2096921,307886,252736
2096921,2096921,307956,252470
2096921,2096921,307921,252637
2096921,2096921,307830,252213
2096921,2096921,307711,252546
2096921,2096921,308376,252553
2096921,2096921,308226,252458
2096921,2096921,308191,252532
2096921,2096921,308261,252750
2096921,2096921,308435,252721
2096921,2096921,308735,253014
2096921,2096921,308800,252987
2096921,2096921,308794,252966
2096921,2096921,308606,253066
2096921,2096921,308842,252900
2096921,2096921,308929,253227
2096921,2096921,309098,253134
2096921,2096921,309050,253142
2096921,2096921,308836,253284
2096921,2096921,308821,253279
2096921,2096921,309407,253425
2096921,2096921,309535,253302
2096921,2096921,309259,253282
2096921,2096921,309288,253354
2096921,2096921,309337,252961
2096921,2096921,309754,253160
2096921,2096921,309727,253397
2096921,2096921,309703,253488
2096921,2096921,309733,253503
2096921,2096921,309947,253531
2096921,2096921,310065,253674
2096921,2096921,310064,253905
2096921,2096921,310000,253583
2096921,2096921,309979,253560
2096921,2096921,309918,253626
2096921,2096921,310273,253826
2096921,2096921,310129,253699
2096921,2096921,310313,253846
2096921,2096921,310279,253922
2096921,2096921,310396,253710
2096921,2096921,310580,254218
2096921,2096921,310795,254271
2096921,2096921,310606,254106
2096921,2096921,310701,253873
2096921,2096921,310804,254002
2096921,2096921,311124,254194
2096921,2096921,311000,254095
2096921,2096921,310932,254189
2096921,2096921,310917,254346
2096921,2096921,310979,254280
2096921,2096921,310916,254453
2096921,2096921,311055,254361
2096921,2096921,311050,254205
2096921,2096921,311158,254117
2096921,2096921,311040,254441
2096921,2096921,311567,254616
2096921,2096921,311582,254560
2096921,2096921,311606,254687
2096921,2096921,311684,254500
2096921,2096921,311878,254647
2096921,2096921,311822,254756
2096921,2096921,311894,254682
2096921,2096921,311908,254490
2096921,2096921,311773,254547
2096921,2096921,311917,254626
2096921,2096921,312177,255020
2096921,2096921,312057,254933
2096921,2096921,311930,254881
2096921,2096921,312032,254940
2096921,2096921,311920,254750
2096921,2096921,312224,254971
2096921,2096921,312348,255070
2096921,2096921,312253,254994
2096921,2096921,312212,254865
2096921,2096921,312236,254885
2096921,2096921,312358,255002
2096921,2096921,312770,254948
2096921,2096921,312772,254743
2096921,2096921,312647,254867
2096921,2096921,312524,254842
2096921,2096921,312580,255398
2096921,2096921,312633,255206
2096921,2096921,312798,255306
2096921,2096921,312688,255190
2096921,2096921,312614,255226
2096921,2096921,313014,255278
2096921,2096921,313192,255374
2096921,2096921,313035,255230
2096921,2096921,313013,255152
2096921,2096921,312954,255216
2096921,2096921,313085,255435
2096921,2096921,313082,255590
2096921,2096921,313265,255562
2096921,2096921,313068,255590
2096921,2096921,312980,255370
2096921,2096921,313356,255671
2096921,2096921,313430,255460
2096921,2096921,313294,255487
2096921,2096921,313342,255357
2096921,2096921,313469,255638
2096921,2096921,313677,255677
2096921,2096921,313602,255939
2096921,2096921,313479,255494
2096921,2096921,313515,255353
2096921,2096921,313485,255518
2096921,2096921,313716,255805
2096921,2096921,313740,255838
2096921,2096921,313548,255895
2096921,2096921,313638,255826
2096921,2096921,313537,255948
2096921,2096921,313734,255758
2096921,2096921,313740,255733
2096921,2096921,313571,255716
2096921,2096921,313787,255650
2096921,2096921,313858,255845
2096921,2096921,313657,256083
2096921,2096921,313910,256317
2096921,2096921,313875,256127
2096921,2096921,313915,256327
2096921,2096921,313775,256071
2096921,2096921,313820,256042
2096921,2096921,313968,256026
2096921,2096921,313855,255926
2096921,2096921,313950,255894
2096921,2096921,314238,256232
2096921,2096921,314130,256065
2096921,2096921,314197,256081
2096921,2096921,313739,256167
2096921,2096921,314184,256023
2096921,2096921,314118,256093
2096921,2096921,314258,256287
2096921,2096921,314122,256053
2096921,2096921,314173,256274
2096921,2096921,314240,255976
2096921,2096921,314295,256256
2096921,2096921,314417,256127
2096921,2096921,314457,256145
2096921,2096921,314434,256150
2096921,2096921,314161,255956
2096921,2096921,314487,256392
2096921,2096921,314458,256325
2096921,2096921,314497,256200
2096921,2096921,314464,256039
2096921,2096921,314492,256240
2096921,2096921,314518,256052
2096921,2096921,314570,256246
2096921,2096921,314711,256246
2096921,2096921,314710,256083
2096921,2096921,314439,256205
2096921,2096921,314520,256405
2096921,2096921,314751,256299
2096921,2096921,314754,256404
2096921,2096921,314728,256440
2096921,2096921,314882,256459
2096921,2096921,314937,256681
2096921,2096921,314858,256627
2096921,2096921,314604,256497
2096921,2096921,314759,256438
2096921,2096921,314792,256669
2096921,2096921,314727,256501
2096921,2096921,314901,256446
2096921,2096921,314572,256241
2096921,2096921,314969,256408
2096921,2096921,314918,256304
2096921,2096921,314718,256245
2096921,2096921,314908,256331
2096921,2096921,315154,256403
2096921,2096921,314909,256502
2096921,2096921,314829,256411
2096921,2096921,314990,256559
2096921,2096921,315003,256455
2096921,2096921,315120,256256
2096921,2096921,314893,256272
2096921,2096921,314754,256314
2096921,2096921,315018,256459
2096921,2096921,315065,256367
2096921,2096921,315380,256349
2096921,2096921,315249,256523
2096921,2096921,315225,256654
2096921,2096921,315306,256421
2096921,2096921,315302,256547
2096921,2096921,315215,256647
2096921,2096921,315457,256458
2096921,2096921,315338,256598
2096921,2096921,315350,256546
2096921,2096921,315391,256555
2096921,2096921,315325,256517
2096921,2096921,315259,256577
2096921,2096921,315308,256301
2096921,2096921,315082,256598
2096921,2096921,315276,256706
2096921,2096921,315678,256628
2096921,2096921,315123,256679
2096921,2096921,315371,256646
2096921,2096921,315195,256575
2096921,2096921,315254,256491
2096921,2096921,315403,256736
2096921,2096921,315317,256568
2096921,2096921,315320,256662
2096921,2096921,315223,256531
2096921,2096921,315392,256604
2096921,2096921,315254,256714
2096921,2096921,315333,256496
2096921,2096921,315375,256327
2096921,2096921,315341,256797
2096921,2096921,315198,256646
2096921,2096921,315397,256853
2096921,2096921,315673,256559
2096921,2096921,315554,256778
2096921,2096921,315431,256849
2096921,2096921,315395,256946
2096921,2096921,315454,256629
2096921,2096921,315544,256643
2096921,2096921,315151,256592
