2096921,2096921,168404,572528,0
2096921,2096921,168292,572603,0
2096921,2096921,168386,572488,0
2096921,2096921,168375,572289,0
2096921,2096921,168541,572180,0
2096921,2096921,168392,572237,0
2096921,2096921,168346,572557,0
2096921,2096921,168284,572414,0
2096921,2096921,168373,572126,0
2096921,2096921,168169,572294,0
2096921,2096921,168095,572367,0
2096921,2096921,168496,572539,0
2096921,2096921,168655,572299,0
2096921,2096921,168505,572669,0
2096921,2096921,168611,572619,0
2096921,2096921,168359,572927,0
2096921,2096921,168368,573124,0
2096921,2096921,168577,573038,0
2096921,2096921,168516,573083,0
2096921,2096921,168285,573001,0
2096921,2096921,168463,573153,0
2096921,2096921,168471,572856,0
2096921,2096921,168599,572654,0
2096921,2096921,168589,573344,0
2096921,2096921,168694,573071,0
2096921,2096921,168396,573359,0
2096921,2096921,168505,573209,0
2096921,2096921,168698,573291,0
2096921,2096921,168729,573493,0
2096921,2096921,168499,573797,0
2096921,2096921,168548,573840,0
2096921,2096921,168492,573911,0
2096921,2096921,169038,573933,0
2096921,2096921,169294,574345,0
2096921,2096921,169263,574361,0
2096921,2096921,169210,574534,0
2096921,2096921,169137,574553,0
2096921,2096921,169384,574897,0
2096921,2096921,169450,575143,0
2096921,2096921,169358,575166,0
2096921,2096921,169477,575242,0
2096921,2096921,169494,575230,0
2096921,2096921,169584,575238,0
2096921,2096921,169538,575852,0
2096921,2096921,169708,575942,0
2096921,2096921,169518,575795,0
2096921,2096921,169995,576004,0
2096921,2096921,170014,576203,0
2096921,2096921,169900,576776,0
2096921,2096921,169993,576516,0
2096921,2096921,170035,576578,0
2096921,2096921,169994,576706,0
2096921,2096921,170331,576759,0
2096921,2096921,170118,577518,0
2096921,2096921,170270,577578,0
2096921,2096921,170471,577790,0
2096921,2096921,170446,577568,0
2096921,2096921,170659,577897,0
2096921,2096921,170597,578085,0
2096921,2096921,170688,578464,0
2096921,2096921,170599,578499,0
2096921,2096921,170765,578393,0
2096921,2096921,170746,578475,0
2096921,2096921,171057,578823,0
2096921,2096921,170843,579140,0
2096921,2096921,170835,579019,0
2096921,2096921,171017,579107,0
2096921,2096921,171065,578645,0
2096921,2096921,170961,579804,0
2096921,2096921,171001,579617,0
2096921,2096921,170915,579643,0
2096921,2096921,171106,579437,0
2096921,2096921,171184,579707,0
2096921,2096921,171344,580389,0
2096921,2096921,171298,580300,0
2096921,2096921,171656,580703,0
2096921,2096921,171557,580466,0
2096921,2096921,171474,580643,0
2096921,2096921,171814,581194,0
2096921,2096921,171975,581374,0
2096921,2096921,171952,581343,0
2096921,2096921,171684,581458,0
2096921,2096921,172029,581570,0
2096921,2096921,172246,582159,0
2096921,2096921,171973,582145,0
2096921,2096921,172145,582424,0
2096921,2096921,172078,582148,0
2096921,2096921,172495,582274,0
2096921,2096921,172272,583114,0
2096921,2096921,172342,582959,0
2096921,2096921,172384,582894,0
2096921,2096921,172122,582805,0
2096921,2096921,172282,582815,0
2096921,2096921,172746,583361,0
2096921,2096921,172628,583765,0
2096921,2096921,172618,583319,0
2096921,2096921,172450,583256,0
2096921,2096921,172760,583344,0
2096921,2096921,172576,583608,0
2096921,2096921,172287,583615,0
2096921,2096921,172597,583683,0
2096921,2096921,172667,583609,0
2096921,2096921,172879,583770,0
2096921,2096921,172664,584310,0
2096921,2096921,172890,584250,0
2096921,2096921,172940,584519,0
2096921,2096921,173004,584527,0
2096921,2096921,173072,584334,0
2096921,2096921,172837,584409,0
2096921,2096921,172826,584439,0
2096921,2096921,173128,584591,0
2096921,2096921,173077,584555,0
2096921,2096921,173143,584681,0
2096921,2096921,172929,584774,0
2096921,2096921,173041,584640,0
2096921,2096921,172982,584422,0
2096921,2096921,172981,584441,0
2096921,2096921,173128,584643,0
2096921,2096921,173220,584825,0
2096921,2096921,172990,584837,0
2096921,2096921,173075,584620,0
2096921,2096921,173135,584367,0
2096921,2096921,172588,584510,0
2096921,2096921,172821,584476,0
2096921,2096921,172879,584224,0
2096921,2096921,172812,584258,0
2096921,2096921,173058,584414,0
2096921,2096921,172854,584432,0
2096921,2096921,172725,584453,0
2096921,2096921,172686,584072,0
2096921,2096921,172792,584275,0
2096921,2096921,172784,584500,0
2096921,2096921,173003,584497,0
2096921,2096921,172937,584507,0
2096921,2096921,172998,584370,0
2096921,2096921,172852,584390,0
2096921,2096921,172900,584191,0
2096921,2096921,172768,584273,0
2096921,2096921,172784,584000,0
2096921,2096921,172835,584057,0
2096921,2096921,172721,583756,0
2096921,2096921,172667,584021,0
2096921,2096921,172645,584175,0
2096921,2096921,172636,584073,0
2096921,2096921,172834,583907,0
2096921,2096921,172730,584041,0
2096921,2096921,172889,583779,0
2096921,2096921,172616,583942,0
2096921,2096921,172570,583862,0
2096921,2096921,172612,583657,0
2096921,2096921,172656,583680,0
2096921,2096921,172717,583866,0
2096921,2096921,172645,584108,0
2096921,2096921,172709,584035,0
2096921,2096921,172733,584026,0
2096921,2096921,172761,583784,0
2096921,2096921,172828,583888,0
2096921,2096921,173085,583891,0
2096921,2096921,173017,584251,0
2096921,2096921,172908,584222,0
2096921,2096921,172786,584313,0
2096921,2096921,172899,584392,0
2096921,2096921,173058,584224,0
2096921,2096921,172959,584467,0
2096921,2096921,173161,584773,0
2096921,2096921,173215,585115,0
2096921,2096921,173085,584709,0
2096921,2096921,173015,584681,0
2096921,2096921,173209,584841,0
2096921,2096921,173197,584938,0
2096921,2096921,173057,585273,0
2096921,2096921,172904,585226,0
2096921,2096921,173345,585272,0
2096921,2096921,173506,585738,0
2096921,2096921,173500,585930,0
2096921,2096921,173555,585459,0
2096921,2096921,173424,585707,0
2096921,2096921,173628,585676,0
2096921,2096921,173719,586699,0
2096921,2096921,173437,586665,0
2096921,2096921,173549,586664,0
2096921,2096921,173738,586843,0
2096921,2096921,173703,586506,0
2096921,2096921,173992,586845,0
2096921,2096921,173881,587197,0
2096921,2096921,174058,587149,0
2096921,2096921,174054,587480,0
2096921,2096921,173974,587385,0
2096921,2096921,174170,587796,0
2096921,2096921,174129,587840,0
2096921,2096921,174246,588086,0
2096921,2096921,174083,588179,0
2096921,2096921,174424,588089,0
2096921,2096921,174596,588618,0
2096921,2096921,174632,588333,0
2096921,2096921,174464,588430,0
2096921,2096921,174389,588695,0
2096921,2096921,174818,588639,0
2096921,2096921,174505,589050,0
2096921,2096921,174373,589099,0
2096921,2096921,174573,589086,0
2096921,2096921,174564,589263,0
2096921,2096921,174813,589310,0
2096921,2096921,174839,589970,0
2096921,2096921,174798,590025,0
2096921,2096921,174803,590157,0
2096921,2096921,174964,589949,0
2096921,2096921,174852,589752,0
2096921,2096921,175156,590379,0
2096921,2096921,174876,590473,0
2096921,2096921,174975,590686,0
2096921,2096921,174984,590652,0
2096921,2096921,175048,590589,0
2096921,2096921,175526,591331,0
2096921,2096921,175449,591218,0
2096921,2096921,175733,591330,0
2096921,2096921,175473,591494,0
2096921,2096921,175779,591463,0
2096921,2096921,175849,591796,0
2096921,2096921,175924,591764,0
2096921,2096921,175660,592040,0
2096921,2096921,175586,591639,0
2096921,2096921,176068,592038,0
2096921,2096921,175770,592492,0
2096921,2096921,176025,592781,0
2096921,2096921,175825,592866,0
2096921,2096921,175806,592842,0
2096921,2096921,176129,592577,0
2096921,2096921,176218,593290,0
2096921,2096921,176173,593348,0
2096921,2096921,176156,593280,0
2096921,2096921,176198,593286,0
2096921,2096921,176282,593304,0
2096921,2096921,176402,593903,0
2096921,2096921,176562,594091,0
2096921,2096921,176413,594003,0
2096921,2096921,176437,593883,0
2096921,2096921,176584,593795,0
2096921,2096921,176661,594478,0
2096921,2096921,176582,594532,0
2096921,2096921,176302,594442,0
2096921,2096921,176411,594397,0
2096921,2096921,177051,594716,0
2096921,2096921,177065,595485,0
2096921,2096921,176709,595387,0
2096921,2096921,176876,595608,0
2096921,2096921,177031,595382,0
2096921,2096921,177144,595212,0
2096921,2096921,176951,595732,0
2096921,2096921,176910,596124,0
2096921,2096921,177082,595913,0
2096921,2096921,177055,596121,0
2096921,2096921,177455,596029,0
2096921,2096921,177504,596636,0
2096921,2096921,177402,596675,0
2096921,2096921,177451,596678,0
2096921,2096921,177238,596480,0
2096921,2096921,177367,596705,0
2096921,2096921,177439,596676,0
2096921,2096921,177315,596625,0
2096921,2096921,177356,596685,0
2096921,2096921,177637,596577,0
2096921,2096921,177496,596873,0
2096921,2096921,177540,597439,0
2096921,2096921,177711,597620,0
2096921,2096921,177578,597619,0
2096921,2096921,177365,597673,0
2096921,2096921,177749,597287,0
2096921,2096921,177748,598003,0
2096921,2096921,177888,597942,0
2096921,2096921,177939,598372,0
2096921,2096921,177975,598029,0
2096921,2096921,178240,598356,0
2096921,2096921,178500,598728,0
2096921,2096921,178138,598979,0
2096921,2096921,178113,599195,0
2096921,2096921,178262,599226,0
2096921,2096921,178428,598641,0
2096921,2096921,178286,599180,0
2096921,2096921,178022,599317,0
2096921,2096921,178128,599300,0
2096921,2096921,178153,599073,0
2096921,2096921,178290,599409,0
2096921,2096921,178431,599914,0
2096921,2096921,178662,599898,0
2096921,2096921,178551,600057,0
2096921,2096921,178466,600243,0
2096921,2096921,178739,600000,0
2096921,2096921,178634,600491,0
2096921,2096921,178936,600413,0
2096921,2096921,178756,600711,0
2096921,2096921,178874,600139,0
2096921,2096921,178433,600570,0
2096921,2096921,178874,601106,0
2096921,2096921,179133,601522,0
2096921,2096921,178842,601321,0
2096921,2096921,178969,601518,0
2096921,2096921,178997,601126,0
2096921,2096921,179130,601774,0
2096921,2096921,179235,601951,0
2096921,2096921,179400,602010,0
2096921,2096921,179187,601796,0
2096921,2096921,179194,601614,0
2096921,2096921,179060,602201,0
2096921,2096921,179552,602249,0
2096921,2096921,179407,602615,0
2096921,2096921,179370,602498,0
2096921,2096921,179357,602440,0
2096921,2096921,179357,602829,0
2096921,2096921,179301,603036,0
2096921,2096921,179637,602873,0
2096921,2096921,179661,603008,0
2096921,2096921,179640,602717,0
2096921,2096921,179567,603262,0
2096921,2096921,179602,603349,0
2096921,2096921,179597,603310,0
2096921,2096921,179612,603464,0
2096921,2096921,179835,603369,0
2096921,2096921,179911,603813,0
2096921,2096921,179595,603749,0
2096921,2096921,179606,603811,0
2096921,2096921,179412,603764,0
2096921,2096921,179833,603783,0
2096921,2096921,180015,604020,0
2096921,2096921,179842,604399,0
2096921,2096921,180099,604398,0
2096921,2096921,179995,604667,0
2096921,2096921,180036,604504,0
2096921,2096921,180111,604993,0
2096921,2096921,180067,604770,0
2096921,2096921,180043,604908,0
2096921,2096921,180309,605216,0
2096921,2096921,180479,605037,0
2096921,2096921,180342,605336,0
2096921,2096921,180290,605201,0
2096921,2096921,180422,605528,0
2096921,2096921,180532,605602,0
2096921,2096921,180339,605675,0
2096921,2096921,180587,605836,0
2096921,2096921,180586,605870,0
2096921,2096921,180504,606053,0
2096921,2096921,180427,606067,0
2096921,2096921,180649,605800,0
2096921,2096921,180635,606273,0
2096921,2096921,180860,606523,0
2096921,2096921,180811,606767,0
2096921,2096921,180549,606557,0
2096921,2096921,180733,606426,0
2096921,2096921,180808,606816,0
2096921,2096921,180847,606798,0
2096921,2096921,180928,606857,0
2096921,2096921,180981,607006,0
2096921,2096921,181022,606934,0
2096921,2096921,180906,607517,0
2096921,2096921,180875,607445,0
2096921,2096921,181035,607297,0
2096921,2096921,181124,607508,0
2096921,2096921,181573,607570,0
2096921,2096921,181223,607885,0
2096921,2096921,181315,607985,0
2096921,2096921,181414,608101,0
2096921,2096921,181439,608110,0
2096921,2096921,181357,607878,0
2096921,2096921,181439,608403,0
2096921,2096921,181363,608768,0
2096921,2096921,181489,608745,0
2096921,2096921,181350,608639,0
2096921,2096921,181170,608851,0
2096921,2096921,181554,609176,0
2096921,2096921,181616,609203,0
2096921,2096921,181488,609068,0
2096921,2096921,181773,609219,0
2096921,2096921,182020,608893,0
2096921,2096921,181624,609644,0
2096921,2096921,181703,609614,0
2096921,2096921,181677,609662,0
2096921,2096921,181658,609628,0
2096921,2096921,181946,609626,0
2096921,2096921,181792,610074,0
2096921,2096921,182018,610201,0
2096921,2096921,181971,610073,0
2096921,2096921,181950,609865,0
2096921,2096921,181990,610198,0
2096921,2096921,181961,610399,0
2096921,2096921,182010,610430,0
2096921,2096921,181801,610578,0
2096921,2096921,181980,610600,0
2096921,2096921,182086,610676,0
2096921,2096921,182382,610822,0
2096921,2096921,182034,610872,0
2096921,2096921,182077,610822,0
2096921,2096921,182348,610903,0
2096921,2096921,182346,611042,0
2096921,2096921,182061,611181,0
2096921,2096921,182206,611385,0
2096921,2096921,182182,611444,0
2096921,2096921,182457,611254,0
2096921,2096921,182428,611513,0
2096921,2096921,182235,611712,0
2096921,2096921,182475,611804,0
2096921,2096921,182599,612029,0
2096921,2096921,182232,611645,0
2096921,2096921,182228,611990,0
2096921,2096921,182643,612128,0
2096921,2096921,182739,612141,0
2096921,2096921,182630,612069,0
2096921,2096921,182559,612089,0
2096921,2096921,182714,611876,0
2096921,2096921,182741,612529,0
2096921,2096921,182577,612419,0
2096921,2096921,182460,612511,0
2096921,2096921,182668,612255,0
2096921,2096921,182843,612527,0
2096921,2096921,183108,612743,0
2096921,2096921,183111,612869,0
2096921,2096921,182963,613109,0
2096921,2096921,182775,612800,0
2096921,2096921,182954,613096,0
2096921,2096921,182961,613083,0
2096921,2096921,182938,613591,0
2096921,2096921,182724,613299,0
2096921,2096921,182890,613387,0
2096921,2096921,182781,613527,0
2096921,2096921,183050,613838,0
2096921,2096921,183055,613874,0
2096921,2096921,183128,613880,0
2096921,2096921,182852,613624,0
2096921,2096921,183172,613712,0
2096921,2096921,182887,614084,0
2096921,2096921,183230,614071,0
2096921,2096921,183328,614174,0
2096921,2096921,183275,613972,0
2096921,2096921,183053,613851,0
2096921,2096921,183328,614161,0
2096921,2096921,183223,614587,0
2096921,2096921,183082,614426,0
2096921,2096921,183321,614432,0
2096921,2096921,183227,614527,0
2096921,2096921,182992,614048,0
2096921,2096921,182676,614036,0
2096921,2096921,183059,613947,0
2096921,2096921,182954,613859,0
2096921,2096921,183145,614193,0
2096921,2096921,183108,613757,0
2096921,2096921,182995,613792,0
2096921,2096921,182983,614132,0
2096921,2096921,182883,613723,0
2096921,2096921,182805,613831,0
2096921,2096921,182505,613017,0
2096921,2096921,182476,613070,0
2096921,2096921,182614,613245,0
2096921,2096921,182771,612800,0
2096921,2096921,182253,612948,0
2096921,2096921,182194,612175,0
2096921,2096921,182412,611869,0
2096921,2096921,182019,611762,0
2096921,2096921,182269,612090,0
2096921,2096921,181827,611869,0
2096921,2096921,181943,611046,0
2096921,2096921,181693,610587,0
2096921,2096921,181677,610513,0
2096921,2096921,181577,610376,0
2096921,2096921,180568,610716,0
2096921,2096921,180224,608161,0
2096921,2096921,180355,607265,0
2096921,2096921,180698,607396,0
2096921,2096921,180411,607258,0
2096921,2096921,178959,607356,0
2096921,2096921,178613,604016,0
2096921,2096921,178528,603534,0
2096921,2096921,178857,603405,0
2096921,2096921,178432,603299,0
2096921,2096921,177766,603231,0
2096921,2096921,177515,600780,0
2096921,2096921,177592,600399,0
2096921,2096921,177283,600029,0
2096921,2096921,177584,599851,0
2096921,2096921,176607,599990,0
2096921,2096921,176547,598276,0
2096921,2096921,176412,598241,0
2096921,2096921,176631,597990,0
2096921,2096921,176501,597826,0
2096921,2096921,176264,598010,0
2096921,2096921,176061,596984,0
2096921,2096921,175914,596731,0
2096921,2096921,175839,596758,0
2096921,2096921,175970,596474,0
2096921,2096921,175617,596368,0
2096921,2096921,175724,595894,0
2096921,2096921,175281,595204,0
2096921,2096921,175319,595381,0
2096921,2096921,175322,595254,0
2096921,2096921,175272,595501,0
2096921,2096921,175267,594796,0
2096921,2096921,175340,594796,0
2096921,2096921,175304,594830,0
2096921,2096921,175509,595153,0
2096921,2096921,175377,595008,0
2096921,2096921,175042,594826,0
2096921,2096921,174901,594475,0
2096921,2096921,175091,594525,0
2096921,2096921,174900,594573,0
2096921,2096921,175139,594647,0
2096921,2096921,175057,594588,0
2096921,2096921,175093,594630,0
2096921,2096921,174982,594553,0
2096921,2096921,175150,594632,0
2096921,2096921,175447,594945,0
2096921,2096921,175373,594852,0
2096921,2096921,175431,595188,0
2096921,2096921,175096,595218,0
2096921,2096921,175177,595274,0
2096921,2096921,175279,595063,0
2096921,2096921,175386,595792,0
2096921,2096921,175369,595993,0
2096921,2096921,175728,595687,0
2096921,2096921,175544,595686,0
2096921,2096921,175472,595630,0
2096921,2096921,175368,595996,0
2096921,2096921,175208,596225,0
2096921,2096921,175427,596224,0
2096921,2096921,175656,596063,0
2096921,2096921,175571,596003,0
2096921,2096921,175769,596711,0
2096921,2096921,175996,596675,0
2096921,2096921,175735,596870,0
2096921,2096921,175715,596946,0
2096921,2096921,176341,596765,0
2096921,2096921,176290,597533,0
2096921,2096921,176299,597635,0
2096921,2096921,176048,597775,0
2096921,2096921,176171,597809,0
2096921,2096921,176317,597857,0
2096921,2096921,176361,598744,0
2096921,2096921,176733,598528,0
2096921,2096921,176568,599115,0
2096921,2096921,176543,598800,0
2096921,2096921,176910,598873,0
2096921,2096921,177059,599723,0
2096921,2096921,176762,600164,0
2096921,2096921,176921,600179,0
2096921,2096921,176960,600337,0
2096921,2096921,177232,599907,0
2096921,2096921,177598,600801,0
2096921,2096921,177465,600876,0
2096921,2096921,177510,601111,0
2096921,2096921,177338,601052,0
2096921,2096921,177889,601019,0
2096921,2096921,177715,602131,0
2096921,2096921,177928,602274,0
2096921,2096921,177754,602358,0
2096921,2096921,177811,601935,0
2096921,2096921,178345,601994,0
2096921,2096921,178205,603074,0
2096921,2096921,178405,603010,0
2096921,2096921,178296,603215,0
2096921,2096921,178380,603352,0
2096921,2096921,178293,603205,0
2096921,2096921,178464,603799,0
2096921,2096921,178505,603797,0
2096921,2096921,178695,603988,0
2096921,2096921,178502,604059,0
2096921,2096921,178876,604036,0
2096921,2096921,179002,605046,0
2096921,2096921,178870,605247,0
2096921,2096921,178859,605434,0
2096921,2096921,178920,605474,0
2096921,2096921,179171,605320,0
2096921,2096921,178923,606125,0
2096921,2096921,179241,606463,0
2096921,2096921,179227,606260,0
2096921,2096921,179497,606391,0
2096921,2096921,179846,606319,0
2096921,2096921,179953,607050,0
2096921,2096921,179930,607460,0
2096921,2096921,179800,607446,0
2096921,2096921,179568,607435,0
2096921,2096921,179992,607464,0
2096921,2096921,180150,608577,0
2096921,2096921,180189,608663,0
2096921,2096921,179899,608488,0
2096921,2096921,180007,608492,0
2096921,2096921,180448,608359,0
2096921,2096921,180477,609525,0
2096921,2096921,180424,609563,0
2096921,2096921,180526,609690,0
2096921,2096921,180632,609671,0
2096921,2096921,180755,609767,0
2096921,2096921,180653,610277,0
2096921,2096921,180563,610497,0
2096921,2096921,180608,610297,0
2096921,2096921,180660,610484,0
2096921,2096921,180805,610321,0
2096921,2096921,181177,611352,0
2096921,2096921,181365,611473,0
2096921,2096921,181262,611546,0
2096921,2096921,181311,611676,0
2096921,2096921,181674,611106,0
2096921,2096921,181260,612131,0
2096921,2096921,181231,611785,0
2096921,2096921,181434,612169,0
2096921,2096921,181261,611731,0
2096921,2096921,181493,611938,0
2096921,2096921,181530,612445,0
2096921,2096921,181660,612789,0
2096921,2096921,181730,612356,0
2096921,2096921,181742,612402,0
2096921,2096921,182014,612445,0
2096921,2096921,181911,612724,0
2096921,2096921,181711,612668,0
2096921,2096921,181944,612765,0
2096921,2096921,181746,612823,0
2096921,2096921,181764,612856,0
2096921,2096921,181804,613042,0
2096921,2096921,181418,613165,0
2096921,2096921,181602,613389,0
2096921,2096921,181743,612962,0
2096921,2096921,181880,613166,0
2096921,2096921,181865,613188,0
2096921,2096921,181756,613251,0
2096921,2096921,181519,613025,0
2096921,2096921,181779,613126,0
2096921,2096921,181701,613193,0
2096921,2096921,182114,613171,0
2096921,2096921,181887,613216,0
2096921,2096921,181941,613255,0
2096921,2096921,181704,613133,0
2096921,2096921,181821,612966,0
2096921,2096921,181857,613093,0
2096921,2096921,181806,613183,0
2096921,2096921,181985,612971,0
2096921,2096921,181539,612710,0
2096921,2096921,181755,612874,0
2096921,2096921,181638,613111,0
2096921,2096921,181754,613221,0
2096921,2096921,181793,613137,0
2096921,2096921,181806,613083,0
2096921,2096921,181878,613181,0
2096921,2096921,181853,612973,0
2096921,2096921,181533,612959,0
2096921,2096921,181770,613068,0
2096921,2096921,181609,613281,0
2096921,2096921,181867,612820,0
2096921,2096921,181467,613028,0
2096921,2096921,181638,612825,0
2096921,2096921,181549,612854,0
2096921,2096921,181500,612889,0
2096921,2096921,181624,612890,0
2096921,2096921,181745,612543,0
2096921,2096921,181437,612887,0
2096921,2096921,181525,612905,0
2096921,2096921,181464,613010,0
2096921,2096921,181858,613025,0
2096921,2096921,181729,613271,0
2096921,2096921,181721,613098,0
2096921,2096921,181439,613247,0
2096921,2096921,181703,613222,0
2096921,2096921,181660,612877,0
2096921,2096921,181582,612767,0
2096921,2096921,181771,612975,0
2096921,2096921,181621,613244,0
2096921,2096921,181720,612994,0
2096921,2096921,181891,613159,0
2096921,2096921,181716,613539,0
2096921,2096921,181601,613589,0
2096921,2096921,181687,613795,0
2096921,2096921,181927,613647,0
2096921,2096921,181808,613517,0
2096921,2096921,181974,613714,0
2096921,2096921,181715,613773,0
2096921,2096921,181989,613928,0
2096921,2096921,181829,614293,0
2096921,2096921,182145,613857,0
2096921,2096921,182206,614329,0
2096921,2096921,182200,614230,0
2096921,2096921,182589,614608,0
2096921,2096921,182451,614697,0
2096921,2096921,181968,614670,0
2096921,2096921,182185,614911,0
2096921,2096921,182523,615127,0
2096921,2096921,182453,614987,0
2096921,2096921,182275,615171,0
2096921,2096921,182914,615134,0
2096921,2096921,182869,615874,0
2096921,2096921,182905,615937,0
2096921,2096921,182879,615655,0
2096921,2096921,182542,615745,0
2096921,2096921,182990,615954,0
2096921,2096921,183004,616191,0
2096921,2096921,182720,616230,0
2096921,2096921,182983,616443,0
2096921,2096921,183107,616271,0
2096921,2096921,183317,616436,0
2096921,2096921,183531,616976,0
2096921,2096921,183412,616950,0
2096921,2096921,183388,617045,0
2096921,2096921,183353,616990,0
2096921,2096921,183495,617037,0
2096921,2096921,183220,617187,0
2096921,2096921,183158,617628,0
2096921,2096921,183292,617608,0
2096921,2096921,183487,617464,0
2096921,2096921,183565,617361,0
2096921,2096921,183570,618001,0
2096921,2096921,183580,617873,0
2096921,2096921,183605,617963,0
2096921,2096921,183716,617707,0
2096921,2096921,183750,618015,0
2096921,2096921,183810,618401,0
2096921,2096921,183462,618311,0
2096921,2096921,183613,618312,0
2096921,2096921,183563,618445,0
2096921,2096921,183815,618396,0
2096921,2096921,183945,618783,0
2096921,2096921,183905,618694,0
2096921,2096921,183912,618665,0
2096921,2096921,184073,618928,0
2096921,2096921,184208,618819,0
2096921,2096921,184168,619021,0
2096921,2096921,184396,619354,0
2096921,2096921,184121,619359,0
2096921,2096921,184160,619497,0
2096921,2096921,184382,619530,0
2096921,2096921,184234,619751,0
2096921,2096921,184234,619757,0
2096921,2096921,184467,619943,0
2096921,2096921,184304,619725,0
2096921,2096921,184536,619501,0
2096921,2096921,184562,620137,0
2096921,2096921,184323,620230,0
2096921,2096921,184262,620279,0
2096921,2096921,184249,620347,0
2096921,2096921,184448,620119,0
2096921,2096921,184676,620537,0
2096921,2096921,184630,620695,0
2096921,2096921,184825,620790,0
2096921,2096921,184818,620592,0
2096921,2096921,184998,620634,0
2096921,2096921,184769,621070,0
2096921,2096921,184656,621161,0
2096921,2096921,184610,621146,0
2096921,2096921,184773,621011,0
2096921,2096921,184559,621065,0
2096921,2096921,185204,621567,0
2096921,2096921,184814,621683,0
2096921,2096921,185037,621606,0
2096921,2096921,185120,621327,0
2096921,2096921,185137,621532,0
2096921,2096921,184845,621943,0
2096921,2096921,184867,621946,0
2096921,2096921,184964,621895,0
2096921,2096921,185002,621740,0
2096921,2096921,184906,621726,0
2096921,2096921,184974,621993,0
2096921,2096921,185264,622140,0
2096921,2096921,185050,622258,0
2096921,2096921,185242,622185,0
2096921,2096921,185248,622184,0
2096921,2096921,185222,622286,0
2096921,2096921,185111,622571,0
2096921,2096921,185139,622642,0
2096921,2096921,185490,622564,0
2096921,2096921,185608,622517,0
2096921,2096921,185623,623044,0
2096921,2096921,185384,623174,0
2096921,2096921,185659,623119,0
2096921,2096921,185635,623024,0
2096921,2096921,185780,623001,0
2096921,2096921,185695,623236,0
2096921,2096921,185557,623030,0
2096921,2096921,185526,623213,0
2096921,2096921,185560,623317,0
2096921,2096921,185870,623340,0
2096921,2096921,185797,623435,0
2096921,2096921,185909,623704,0
2096921,2096921,185856,623561,0
2096921,2096921,185954,623653,0
2096921,2096921,186090,623538,0
2096921,2096921,186021,623881,0
2096921,2096921,185880,623917,0
2096921,2096921,185719,623898,0
2096921,2096921,185714,623682,0
2096921,2096921,186057,623892,0
2096921,2096921,186091,624006,0
2096921,2096921,186059,623987,0
2096921,2096921,185958,624131,0
2096921,2096921,186235,624290,0
2096921,2096921,186435,624045,0
2096921,2096921,186151,624312,0
2096921,2096921,185974,624497,0
2096921,2096921,186206,624518,0
2096921,2096921,186170,624430,0
2096921,2096921,186047,624381,0
2096921,2096921,186113,624808,0
2096921,2096921,186153,624955,0
2096921,2096921,186368,624587,0
2096921,2096921,186353,624923,0
2096921,2096921,186165,624735,0
2096921,2096921,186386,624991,0
2096921,2096921,186212,624906,0
2096921,2096921,186299,624990,0
2096921,2096921,186413,624992,0
2096921,2096921,186312,625012,0
2096921,2096921,186442,625037,0
2096921,2096921,186561,625094,0
2096921,2096921,186453,625172,0
2096921,2096921,186552,625340,0
2096921,2096921,186529,625375,0
2096921,2096921,186280,625070,0
2096921,2096921,186580,625297,0
2096921,2096921,186408,625355,0
2096921,2096921,186349,625428,0
2096921,2096921,186888,625398,0
2096921,2096921,186550,625590,0
2096921,2096921,186337,625652,0
2096921,2096921,186507,625801,0
2096921,2096921,186575,625589,0
2096921,2096921,186651,625616,0
2096921,2096921,186738,625318,0
2096921,2096921,186691,625581,0
2096921,2096921,186723,625927,0
2096921,2096921,186415,625707,0
2096921,2096921,186531,625873,0
2096921,2096921,186521,625969,0
2096921,2096921,186651,626230,0
2096921,2096921,186603,625828,0
2096921,2096921,186678,625656,0
2096921,2096921,186651,625874,0
2096921,2096921,186872,626063,0
2096921,2096921,186673,626007,0
2096921,2096921,186692,626157,0
2096921,2096921,186840,626066,0
2096921,2096921,186789,625940,0
2096921,2096921,186767,626404,0
2096921,2096921,186975,626417,0
2096921,2096921,186803,626162,0
2096921,2096921,186738,626362,0
2096921,2096921,186747,626116,0
2096921,2096921,186757,626428,0
2096921,2096921,186740,626538,0
2096921,2096921,186873,626257,0
2096921,2096921,186763,626347,0
2096921,2096921,186962,626244,0
2096921,2096921,186817,626616,0
2096921,2096921,186911,626542,0
2096921,2096921,186991,626567,0
2096921,2096921,187158,626935,0
2096921,2096921,186953,626597,0
2096921,2096921,186893,626529,0
2096921,2096921,186781,626683,0
2096921,2096921,186707,626703,0
2096921,2096921,186937,626939,0
2096921,2096921,187117,626836,0
2096921,2096921,187171,626736,0
2096921,2096921,187024,626843,0
2096921,2096921,187132,626727,0
2096921,2096921,186906,626600,0
2096921,2096921,187332,626968,0
2096921,2096921,186954,626948,0
2096921,2096921,187078,626639,0
2096921,2096921,187460,626829,0
2096921,2096921,187320,626781,0
2096921,2096921,187483,626953,0
2096921,2096921,187282,627253,0
2096921,2096921,186970,627059,0
2096921,2096921,187042,627021,0
2096921,2096921,186831,627184,0
2096921,2096921,186964,627071,0
2096921,2096921,187141,627015,0
2096921,2096921,187267,627010,0
2096921,2096921,187108,626664,0
2096921,2096921,187137,626941,0
2096921,2096921,187204,626833,0
2096921,2096921,187195,627044,0
2096921,2096921,187317,626777,0
2096921,2096921,187245,627243,0
2096921,2096921,187145,627312,0
2096921,2096921,186905,627223,0
2096921,2096921,187074,627306,0
2096921,2096921,187252,627595,0
2096921,2096921,187219,627321,0
2096921,2096921,187411,627096,0
2096921,2096921,187446,627096,0
2096921,2096921,187121,627067,0
2096921,2096921,187245,627132,0
2096921,2096921,187285,627383,0
2096921,2096921,187224,627235,0
2096921,2096921,187152,627089,0
2096921,2096921,187189,627040,0
2096921,2096921,187358,627265,0
2096921,2096921,187262,627138,0
2096921,2096921,187135,627356,0
2096921,2096921,187137,627187,0
2096921,2096921,186868,627430,0
2096921,2096921,187041,627221,0
2096921,2096921,187148,627213,0
2096921,2096921,186959,626972,0
2096921,2096921,186939,627174,0
2096921,2096921,187288,627007,0
2096921,2096921,186988,626952,0
2096921,2096921,187016,626934,0
2096921,2096921,187116,626916,0
2096921,2096921,187148,626890,0
2096921,2096921,187495,626952,0
2096921,2096921,187239,626973,0
2096921,2096921,187493,626819,0
2096921,2096921,187223,626984,0
2096921,2096921,187231,627013,0
2096921,2096921,187075,626801,0
2096921,2096921,187105,626736,0
2096921,2096921,186787,626622,0
2096921,2096921,186928,626645,0
2096921,2096921,186923,626562,0
2096921,2096921,187147,626491,0
2096921,2096921,187160,626464,0
2096921,2096921,186979,626715,0
2096921,2096921,187212,626394,0
2096921,2096921,186789,626436,0
2096921,2096921,186791,626041,0
2096921,2096921,186643,626290,0
2096921,2096921,186823,626285,0
2096921,2096921,186814,626139,0
2096921,2096921,186812,626294,0
2096921,2096921,186975,626213,0
2096921,2096921,186768,626236,0
2096921,2096921,186656,626214,0
2096921,2096921,186882,626066,0
2096921,2096921,187063,626202,0
2096921,2096921,186766,626225,0
2096921,2096921,186819,626014,0
2096921,2096921,186683,626193,0
2096921,2096921,186888,625962,0
2096921,2096921,186860,626010,0
2096921,2096921,186810,625717,0
2096921,2096921,186583,625850,0
2096921,2096921,186768,625526,0
2096921,2096921,186868,625886,0
2096921,2096921,186505,625991,0
2096921,2096921,186240,625142,0
2096921,2096921,186512,624671,0
2096921,2096921,186309,624899,0
2096921,2096921,186284,625014,0
2096921,2096921,186352,624738,0
2096921,2096921,186344,624173,0
2096921,2096921,186395,624014,0
2096921,2096921,186290,624234,0
2096921,2096921,186089,624069,0
2096921,2096921,185837,624382,0
2096921,2096921,185510,622741,0
2096921,2096921,185474,622550,0
2096921,2096921,185248,622652,0
2096921,2096921,185436,622525,0
2096921,2096921,184701,622519,0
2096921,2096921,184947,621239,0
2096921,2096921,184760,620914,0
2096921,2096921,184728,621072,0
2096921,2096921,184810,621323,0
2096921,2096921,184306,620834,0
2096921,2096921,184347,619198,0
2096921,2096921,183959,619029,0
2096921,2096921,183909,618871,0
2096921,2096921,184169,618624,0
2096921,2096921,183059,618997,0
2096921,2096921,182422,615912,0
2096921,2096921,182620,615346,0
2096921,2096921,182729,615152,0
2096921,2096921,182778,615321,0
2096921,2096921,181281,615180,0
2096921,2096921,180884,611502,0
2096921,2096921,180755,610616,0
2096921,2096921,180828,610359,0
2096921,2096921,180692,610379,0
2096921,2096921,179860,610450,0
2096921,2096921,179484,607469,0
2096921,2096921,179618,606617,0
2096921,2096921,179654,606861,0
2096921,2096921,179874,606933,0
2096921,2096921,178649,606781,0
2096921,2096921,178427,604261,0
2096921,2096921,178344,603835,0
2096921,2096921,178367,603850,0
2096921,2096921,178365,603920,0
2096921,2096921,177714,603741,0
2096921,2096921,177657,602153,0
2096921,2096921,177816,601982,0
2096921,2096921,177680,601533,0
2096921,2096921,177735,601790,0
2096921,2096921,176964,601646,0
2096921,2096921,176914,600512,0
2096921,2096921,176980,600290,0
2096921,2096921,176850,599897,0
2096921,2096921,176812,600063,0
2096921,2096921,176685,600259,0
2096921,2096921,176536,599230,0
2096921,2096921,176474,599040,0
2096921,2096921,176291,598484,0
2096921,2096921,176560,598615,0
2096921,2096921,176113,598709,0
2096921,2096921,176387,598153,0
2096921,2096921,176272,598079,0
2096921,2096921,176326,597811,0
2096921,2096921,176338,597909,0
2096921,2096921,176244,597958,0
2096921,2096921,176052,597496,0
2096921,2096921,175753,597448,0
2096921,2096921,175901,597379,0
2096921,2096921,175736,597394,0
2096921,2096921,175525,597401,0
2096921,2096921,175939,597004,0
2096921,2096921,175738,597228,0
2096921,2096921,175437,597312,0
2096921,2096921,175740,597033,0
2096921,2096921,175636,597160,0
2096921,2096921,175865,597191,0
2096921,2096921,175777,597252,0
2096921,2096921,175814,597319,0
2096921,2096921,175861,597011,0
2096921,2096921,176144,597195,0
2096921,2096921,176024,597088,0
2096921,2096921,175891,597129,0
2096921,2096921,176126,597040,0
2096921,2096921,175858,596997,0
2096921,2096921,175910,597113,0
2096921,2096921,175756,597303,0
2096921,2096921,175852,596994,0
2096921,2096921,175942,597370,0
2096921,2096921,175860,597318,0
2096921,2096921,175802,597231,0
2096921,2096921,175955,597462,0
2096921,2096921,176419,597611,0
2096921,2096921,176046,597501,0
2096921,2096921,175761,597573,0
2096921,2096921,176021,597438,0
2096921,2096921,176103,597915,0
2096921,2096921,176226,597840,0
2096921,2096921,176002,597959,0
2096921,2096921,176060,598051,0
2096921,2096921,176568,598033,0
2096921,2096921,176781,598388,0
2096921,2096921,176482,598501,0
2096921,2096921,176318,598573,0
2096921,2096921,176617,598578,0
2096921,2096921,176639,598469,0
2096921,2096921,176701,599095,0
2096921,2096921,176883,598990,0
2096921,2096921,176924,599270,0
2096921,2096921,176777,599325,0
2096921,2096921,176684,599020,0
2096921,2096921,176840,599079,0
2096921,2096921,176767,599327,0
2096921,2096921,176959,599442,0
2096921,2096921,177147,599629,0
2096921,2096921,177191,599561,0
2096921,2096921,177410,599689,0
2096921,2096921,177178,599788,0
2096921,2096921,177117,599958,0
2096921,2096921,176998,599839,0
2096921,2096921,177270,599921,0
2096921,2096921,177218,600199,0
2096921,2096921,177237,600270,0
2096921,2096921,176998,600131,0
2096921,2096921,177253,600134,0
2096921,2096921,177421,600007,0
2096921,2096921,177703,600510,0
2096921,2096921,177547,600900,0
2096921,2096921,177645,600764,0
2096921,2096921,177315,600519,0
2096921,2096921,177600,600620,0
2096921,2096921,177524,601033,0
2096921,2096921,177701,600970,0
2096921,2096921,177694,600925,0
2096921,2096921,177815,601200,0
2096921,2096921,177761,601237,0
2096921,2096921,177797,601758,0
2096921,2096921,177923,601799,0
2096921,2096921,177990,601595,0
2096921,2096921,178073,601730,0
2096921,2096921,178113,601618,0
2096921,2096921,178217,601756,0
2096921,2096921,178318,601989,0
2096921,2096921,178113,602155,0
2096921,2096921,178158,601889,0
2096921,2096921,178593,602077,0
2096921,2096921,178464,602477,0
2096921,2096921,178651,602401,0
2096921,2096921,178478,602404,0
2096921,2096921,178312,602261,0
2096921,2096921,178680,602524,0
2096921,2096921,178673,602951,0
2096921,2096921,178623,603008,0
2096921,2096921,178635,602798,0
2096921,2096921,178870,602899,0
2096921,2096921,178594,602978,0
2096921,2096921,178712,603497,0
2096921,2096921,178734,603502,0
2096921,2096921,178590,603528,0
2096921,2096921,178627,603379,0
2096921,2096921,178550,603205,0
2096921,2096921,178533,603274,0
2096921,2096921,178608,603291,0
2096921,2096921,178695,603536,0
2096921,2096921,178725,603382,0
2096921,2096921,178754,603681,0
2096921,2096921,178723,603532,0
2096921,2096921,178518,603529,0
2096921,2096921,178747,603445,0
2096921,2096921,178905,603515,0
2096921,2096921,178823,603513,0
2096921,2096921,178826,603376,0
2096921,2096921,179005,603341,0
2096921,2096921,179020,603287,0
2096921,2096921,178910,603307,0
2096921,2096921,178778,603267,0
2096921,2096921,178687,602928,0
2096921,2096921,178738,602878,0
2096921,2096921,178821,602805,0
2096921,2096921,178765,602963,0
2096921,2096921,178778,602977,0
2096921,2096921,178566,602670,0
2096921,2096921,178527,602570,0
2096921,2096921,178521,602484,0
2096921,2096921,178437,602268,0
2096921,2096921,178373,602400,0
2096921,2096921,178211,602002,0
2096921,2096921,178519,602192,0
2096921,2096921,178390,602161,0
2096921,2096921,178401,602253,0
2096921,2096921,178355,601832,0
2096921,2096921,177999,601411,0
2096921,2096921,178375,601413,0
2096921,2096921,177920,601447,0
2096921,2096921,177950,601088,0
2096921,2096921,178113,600988,0
2096921,2096921,178190,600646,0
2096921,2096921,178036,600699,0
2096921,2096921,177847,600677,0
2096921,2096921,177923,600663,0
2096921,2096921,177731,600799,0
2096921,2096921,177731,600004,0
2096921,2096921,177426,600345,0
2096921,2096921,177507,600148,0
2096921,2096921,177542,600042,0
2096921,2096921,177458,599961,0
2096921,2096921,177779,599384,0
2096921,2096921,177438,599532,0
2096921,2096921,177594,599549,0
2096921,2096921,177485,599185,0
2096921,2096921,177221,599362,0
2096921,2096921,177344,599161,0
2096921,2096921,177375,598923,0
2096921,2096921,177183,598906,0
2096921,2096921,177231,598833,0
2096921,2096921,177647,598936,0
2096921,2096921,177463,598728,0
2096921,2096921,177543,598796,0
2096921,2096921,177460,598663,0
2096921,2096921,177076,598769,0
2096921,2096921,177046,598612,0
2096921,2096921,176916,598422,0
2096921,2096921,176780,598330,0
2096921,2096921,177206,598297,0
2096921,2096921,177117,598156,0
2096921,2096921,177268,598502,0
2096921,2096921,177461,598190,0
2096921,2096921,177322,598207,0
2096921,2096921,176983,598285,0
2096921,2096921,177223,598188,0
2096921,2096921,177148,598319,0
2096921,2096921,177088,598111,0
2096921,2096921,177148,597961,0
2096921,2096921,177313,597953,0
2096921,2096921,176900,597821,0
2096921,2096921,177082,597710,0
2096921,2096921,177218,598254,0
2096921,2096921,177332,598434,0
2096921,2096921,177225,598503,0
2096921,2096921,177300,598656,0
2096921,2096921,177408,598285,0
2096921,2096921,177341,598696,0
2096921,2096921,177212,598641,0
2096921,2096921,177580,598443,0
2096921,2096921,177454,598401,0
2096921,2096921,177277,598376,0
2096921,2096921,177482,598420,0
2096921,2096921,177458,598710,0
2096921,2096921,177334,598789,0
2096921,2096921,177388,598706,0
2096921,2096921,177319,598666,0
2096921,2096921,177588,598614,0
2096921,2096921,177229,598621,0
2096921,2096921,177402,598717,0
2096921,2096921,177336,598683,0
2096921,2096921,177691,598423,0
2096921,2096921,177907,598791,0
2096921,2096921,177730,598913,0
2096921,2096921,177456,599111,0
2096921,2096921,177554,598937,0
2096921,2096921,177475,599190,0
2096921,2096921,177878,599013,0
2096921,2096921,177920,598770,0
2096921,2096921,177895,598817,0
2096921,2096921,177543,598706,0
2096921,2096921,177828,598604,0
2096921,2096921,177696,598617,0
2096921,2096921,178098,598601,0
2096921,2096921,178027,598987,0
2096921,2096921,177450,599043,0
2096921,2096921,177755,599122,0
2096921,2096921,177766,598992,0
2096921,2096921,177760,599102,0
2096921,2096921,177502,598798,0
2096921,2096921,177716,598941,0
2096921,2096921,177752,598883,0
2096921,2096921,177671,599092,0
2096921,2096921,177931,599266,0
2096921,2096921,178116,599321,0
2096921,2096921,177933,599342,0
2096921,2096921,177905,599276,0
2096921,2096921,178175,599044,0
2096921,2096921,177846,599144,0
2096921,2096921,177989,598861,0
2096921,2096921,177700,599209,0
2096921,2096921,177866,598975,0
2096921,2096921,177862,599390,0
2096921,2096921,178010,599452,0
2096921,2096921,178428,599543,0
2096921,2096921,178194,599406,0
2096921,2096921,177729,599505,0
2096921,2096921,177889,599238,0
2096921,2096921,177913,599213,0
2096921,2096921,177854,599369,0
2096921,2096921,178043,599412,0
2096921,2096921,178213,599141,0
2096921,2096921,178090,599378,0
2096921,2096921,178118,599341,0
2096921,2096921,177946,599424,0
2096921,2096921,178152,599555,0
2096921,2096921,178147,599523,0
2096921,2096921,177876,599634,0
2096921,2096921,178062,599367,0
2096921,2096921,177850,599415,0
2096921,2096921,178352,599405,0
2096921,2096921,178304,599391,0
2096921,2096921,178056,599441,0
2096921,2096921,177991,599517,0
2096921,2096921,177949,599627,0
2096921,2096921,178458,599273,0
2096921,2096921,177997,599564,0
2096921,2096921,178284,599422,0
2096921,2096921,178262,599577,0
2096921,2096921,178091,599416,0
2096921,2096921,178181,599590,0
2096921,2096921,178082,599331,0
2096921,2096921,178350,599679,0
2096921,2096921,178486,599331,0
2096921,2096921,178527,599646,0
2096921,2096921,178373,599583,0
2096921,2096921,178309,599528,0
2096921,2096921,178209,599557,0
2096921,2096921,178158,599392,0
2096921,2096921,178126,599551,0
2096921,2096921,178231,599704,0
2096921,2096921,177872,599557,0
2096921,2096921,178327,599383,0
2096921,2096921,178187,599724,0
2096921,2096921,178092,599408,0
2096921,2096921,178103,599428,0
2096921,2096921,178130,599444,0
2096921,2096921,178305,599518,0
2096921,2096921,178287,599383,0
2096921,2096921,178161,599570,0
2096921,2096921,178059,599305,0
2096921,2096921,177967,599602,0
2096921,2096921,178171,599612,0
2096921,2096921,178070,599212,0
2096921,2096921,178105,599348,0
2096921,2096921,178245,599601,0
2096921,2096921,178443,599555,0
2096921,2096921,178345,599373,0
2096921,2096921,178231,599215,0
2096921,2096921,178195,599250,0
2096921,2096921,178221,599407,0
2096921,2096921,178321,599657,0
2096921,2096921,178305,599377,0
2096921,2096921,178396,599382,0
2096921,2096921,178430,599364,0
2096921,2096921,178214,599498,0
2096921,2096921,178548,599450,0
2096921,2096921,178188,599397,0
2096921,2096921,178247,599218,0
2096921,2096921,177953,599280,0
2096921,2096921,178328,599184,0
2096921,2096921,178405,599342,0
2096921,2096921,178217,599183,0
2096921,2096921,178158,599293,0
2096921,2096921,178308,599290,0
2096921,2096921,178348,599099,0
2096921,2096921,178301,599378,0
2096921,2096921,178109,599406,0
2096921,2096921,178442,599205,0
2096921,2096921,178310,599230,0
2096921,2096921,178203,599013,0
2096921,2096921,178001,598680,0
2096921,2096921,178045,598759,0
2096921,2096921,178343,599015,0
2096921,2096921,178195,598834,0
2096921,2096921,178343,599160,0
2096921,2096921,178201,599186,0
2096921,2096921,178191,599338,0
2096921,2096921,178236,599291,0
2096921,2096921,178254,599102,0
2096921,2096921,178511,598845,0
2096921,2096921,178480,599107,0
2096921,2096921,178251,598972,0
2096921,2096921,178258,598930,0
2096921,2096921,178215,598929,0
2096921,2096921,178225,598900,0
2096921,2096921,178345,598707,0
2096921,2096921,178125,598591,0
2096921,2096921,178194,598828,0
2096921,2096921,178286,598768,0
2096921,2096921,178295,598796,0
2096921,2096921,178241,598996,0
2096921,2096921,178163,598489,0
2096921,2096921,178255,598725,0
2096921,2096921,178244,598606,0
2096921,2096921,178480,598813,0
2096921,2096921,178583,598654,0
2096921,2096921,178477,598569,0
2096921,2096921,178200,598644,0
2096921,2096921,178144,598567,0
2096921,2096921,177946,598444,0
2096921,2096921,178074,598640,0
2096921,2096921,177799,598808,0
2096921,2096921,178383,598594,0
2096921,2096921,178152,598569,0
2096921,2096921,178090,598655,0
2096921,2096921,177967,598590,0
2096921,2096921,178288,598232,0
2096921,2096921,178050,598179,0
2096921,2096921,178287,598250,0
2096921,2096921,178030,598249,0
2096921,2096921,178006,598310,0
2096921,2096921,178153,598325,0
2096921,2096921,178049,598149,0
2096921,2096921,178059,598225,0
2096921,2096921,178435,598393,0
2096921,2096921,178321,598254,0
2096921,2096921,178326,598183,0
2096921,2096921,178321,598050,0
2096921,2096921,178324,598157,0
2096921,2096921,178341,598431,0
2096921,2096921,178219,598508,0
2096921,2096921,177962,598334,0
2096921,2096921,178213,598372,0
2096921,2096921,178219,598114,0
2096921,2096921,178300,598151,0
2096921,2096921,178197,598035,0
2096921,2096921,178006,598262,0
2096921,2096921,178122,598127,0
2096921,2096921,178051,597864,0
2096921,2096921,178073,597716,0
2096921,2096921,178213,597996,0
2096921,2096921,178009,598111,0
2096921,2096921,178266,597944,0
2096921,2096921,178480,598301,0
2096921,2096921,178184,597867,0
2096921,2096921,177903,597992,0
2096921,2096921,177989,598109,0
2096921,2096921,178331,597974,0
2096921,2096921,178205,598069,0
2096921,2096921,177932,597677,0
2096921,2096921,178155,597844,0
2096921,2096921,178232,597858,0
2096921,2096921,178140,598034,0
2096921,2096921,177958,597839,0
2096921,2096921,178133,598002,0
2096921,2096921,178205,598103,0
2096921,2096921,178309,597993,0
2096921,2096921,178208,597987,0
2096921,2096921,178273,598059,0
2096921,2096921,177908,597707,0
2096921,2096921,178209,597722,0
2096921,2096921,178005,597945,0
2096921,2096921,178271,598024,0
2096921,2096921,178059,597740,0
2096921,2096921,178092,597455,0
2096921,2096921,178040,597635,0
2096921,2096921,177842,597735,0
2096921,2096921,178104,597562,0
2096921,2096921,177990,597795,0
2096921,2096921,178022,597773,0
2096921,2096921,178235,597524,0
2096921,2096921,177903,597804,0
2096921,2096921,178085,597602,0
2096921,2096921,178195,597315,0
2096921,2096921,178124,597502,0
2096921,2096921,177916,597375,0
2096921,2096921,177735,597491,0
2096921,2096921,177516,597308,0
2096921,2096921,177751,597047,0
2096921,2096921,177893,597215,0
2096921,2096921,177879,597121,0
2096921,2096921,177615,597040,0
2096921,2096921,177870,597128,0
2096921,2096921,177705,597354,0
2096921,2096921,177753,597290,0
2096921,2096921,177707,597380,0
2096921,2096921,177922,597282,0
2096921,2096921,177881,597113,0
2096921,2096921,177902,596873,0
2096921,2096921,177820,597162,0
2096921,2096921,177774,596956,0
2096921,2096921,177787,597103,0
2096921,2096921,177798,597184,0
2096921,2096921,177799,596848,0
2096921,2096921,177667,596716,0
2096921,2096921,177961,597080,0
2096921,2096921,177986,597112,0
2096921,2096921,177891,596931,0
2096921,2096921,177855,596813,0
2096921,2096921,177922,596903,0
2096921,2096921,177886,596487,0
2096921,2096921,178027,596877,0
2096921,2096921,177911,596639,0
2096921,2096921,177969,596902,0
2096921,2096921,177795,596816,0
2096921,2096921,177910,596610,0
2096921,2096921,177999,596898,0
2096921,2096921,177700,596631,0
2096921,2096921,177894,596536,0
2096921,2096921,177927,596431,0
2096921,2096921,177667,596523,0
2096921,2096921,177799,596780,0
2096921,2096921,177507,596669,0
2096921,2096921,177567,596426,0
2096921,2096921,177575,596730,0
2096921,2096921,177579,596578,0
2096921,2096921,177646,595916,0
2096921,2096921,177355,595708,0
2096921,2096921,177061,595826,0
2096921,2096921,177287,595563,0
2096921,2096921,177351,595488,0
2096921,2096921,177310,595204,0
2096921,2096921,177387,595099,0
2096921,2096921,177455,594979,0
2096921,2096921,177587,594930,0
2096921,2096921,176881,595304,0
2096921,2096921,176478,594517,0
2096921,2096921,176634,594201,0
2096921,2096921,176611,594276,0
2096921,2096921,176399,594083,0
2096921,2096921,176156,594096,0
2096921,2096921,176313,593015,0
2096921,2096921,176126,592810,0
2096921,2096921,176171,592566,0
2096921,2096921,176044,592599,0
2096921,2096921,175817,592529,0
2096921,2096921,175645,591358,0
2096921,2096921,175796,590789,0
2096921,2096921,175630,590857,0
2096921,2096921,175474,590650,0
2096921,2096921,174600,590459,0
2096921,2096921,174298,587928,0
2096921,2096921,174147,587381,0
2096921,2096921,173962,587731,0
2096921,2096921,174365,587651,0
2096921,2096921,172795,587394,0
2096921,2096921,172253,583835,0
2096921,2096921,172319,583013,0
2096921,2096921,172404,582816,0
2096921,2096921,172411,582807,0
2096921,2096921,171119,582792,0
2096921,2096921,171412,580541,0
2096921,2096921,171182,579848,0
2096921,2096921,170933,579419,0
2096921,2096921,170859,579589,0
2096921,2096921,170489,579564,0
2096921,2096921,170298,577622,0
2096921,2096921,170096,577255,0
2096921,2096921,170123,577193,0
2096921,2096921,170096,577012,0
2096921,2096921,169447,577142,0
2096921,2096921,169330,575793,0
2096921,2096921,169214,575182,0
2096921,2096921,169257,575142,0
2096921,2096921,169325,575164,0
2096921,2096921,169051,575433,0
2096921,2096921,168925,574613,0
2096921,2096921,168902,574051,0
2096921,2096921,168925,574036,0
2096921,2096921,168868,573952,0
2096921,2096921,168415,574003,0
2096921,2096921,168890,573360,0
2096921,2096921,168424,573428,0
2096921,2096921,168721,573125,0
2096921,2096921,168837,573175,0
2096921,2096921,168375,573182,0
2096921,2096921,168539,572651,0
2096921,2096921,168450,572621,0
2096921,2096921,168232,572799,0
2096921,2096921,168176,572802,0
2096921,2096921,168182,572736,0
2096921,2096921,168129,572475,0
2096921,2096921,168220,572242,0
2096921,2096921,168243,572441,0
2096921,2096921,168262,572500,0
2096921,2096921,168461,572518,0
2096921,2096921,168183,572283,0
2096921,2096921,168247,572092,0
2096921,2096921,168083,572341,0
2096921,2096921,168334,572380,0
2096921,2096921,168637,572465,0
2096921,2096921,168634,572896,0
2096921,2096921,168397,572400,0
2096921,2096921,168537,572588,0
2096921,2096921,168347,572771,0
2096921,2096921,168829,572549,0
2096921,2096921,168477,572907,0
2096921,2096921,168497,572882,0
2096921,2096921,168443,572996,0
2096921,2096921,168381,572778,0
2096921,2096921,168445,572674,0
2096921,2096921,168674,573002,0
2096921,2096921,168829,573284,0
2096921,2096921,168326,573190,0
2096921,2096921,168836,573210,0
2096921,2096921,169090,573146,0
2096921,2096921,168630,573499,0
2096921,2096921,168824,573741,0
2096921,2096921,168907,573673,0
2096921,2096921,168998,573838,0
2096921,2096921,169192,573628,0
2096921,2096921,169273,574506,0
2096921,2096921,168976,574600,0
2096921,2096921,168911,574673,0
2096921,2096921,169169,574734,0
2096921,2096921,169316,574644,0
2096921,2096921,169415,575289,0
2096921,2096921,169279,575306,0
2096921,2096921,169214,575099,0
2096921,2096921,169398,575067,0
2096921,2096921,169741,575345,0
2096921,2096921,169675,575715,0
2096921,2096921,170145,576032,0
2096921,2096921,170065,575908,0
2096921,2096921,170120,576175,0
2096921,2096921,170006,576200,0
2096921,2096921,169965,576845,0
2096921,2096921,169986,576842,0
2096921,2096921,169973,576707,0
2096921,2096921,170153,576538,0
2096921,2096921,170358,576926,0
2096921,2096921,170296,577314,0
2096921,2096921,170355,577368,0
2096921,2096921,170200,577553,0
2096921,2096921,170360,577714,0
2096921,2096921,170605,577806,0
2096921,2096921,170868,578160,0
2096921,2096921,170492,578350,0
2096921,2096921,170615,578302,0
2096921,2096921,170354,578083,0
2096921,2096921,170949,578209,0
2096921,2096921,170986,578867,0
2096921,2096921,171057,578866,0
2096921,2096921,171048,578990,0
2096921,2096921,171155,578788,0
2096921,2096921,171124,578879,0
2096921,2096921,171136,579776,0
2096921,2096921,171149,579728,0
2096921,2096921,171190,579702,0
2096921,2096921,171113,579935,0
2096921,2096921,171519,579951,0
2096921,2096921,171519,580348,0
2096921,2096921,171700,580545,0
2096921,2096921,171605,580732,0
2096921,2096921,171276,580559,0
2096921,2096921,171471,580163,0
2096921,2096921,171925,581025,0
2096921,2096921,171856,581372,0
2096921,2096921,171646,581187,0
2096921,2096921,171771,581289,0
2096921,2096921,172179,581043,0
2096921,2096921,172112,582136,0
2096921,2096921,172428,582149,0
2096921,2096921,171964,582221,0
2096921,2096921,172092,582115,0
2096921,2096921,172372,582406,0
2096921,2096921,172245,582748,0
2096921,2096921,172342,582835,0
2096921,2096921,172564,582492,0
2096921,2096921,172197,582766,0
2096921,2096921,172439,582624,0
2096921,2096921,172891,583173,0
2096921,2096921,172737,583357,0
2096921,2096921,172775,583421,0
2096921,2096921,172781,583345,0
2096921,2096921,172821,583606,0
2096921,2096921,172779,583701,0
2096921,2096921,172655,583625,0
2096921,2096921,172713,583514,0
2096921,2096921,172735,583637,0
2096921,2096921,172837,583709,0
2096921,2096921,172583,584297,0
2096921,2096921,172704,584072,0
2096921,2096921,172975,584067,0
2096921,2096921,173153,584105,0
2096921,2096921,172900,584233,0
2096921,2096921,172638,584375,0
2096921,2096921,172877,584548,0
2096921,2096921,172862,584154,0
2096921,2096921,172903,584211,0
2096921,2096921,173134,584137,0
2096921,2096921,173027,584458,0
2096921,2096921,173095,584415,0
2096921,2096921,173065,584328,0
2096921,2096921,173194,584469,0
2096921,2096921,173048,584455,0
2096921,2096921,173095,584427,0
2096921,2096921,172877,584448,0
2096921,2096921,173150,584131,0
2096921,2096921,172949,584364,0
2096921,2096921,172923,584426,0
2096921,2096921,172950,584175,0
2096921,2096921,173146,584052,0
2096921,2096921,173161,584362,0
2096921,2096921,173076,584571,0
2096921,2096921,172972,584523,0
2096921,2096921,172821,584413,0
2096921,2096921,173210,584069,0
2096921,2096921,172950,584109,0
2096921,2096921,172812,584112,0
2096921,2096921,173011,584096,0
2096921,2096921,172782,583848,0
2096921,2096921,172674,584017,0
2096921,2096921,172882,584091,0
2096921,2096921,172711,584053,0
2096921,2096921,172504,583778,0
2096921,2096921,172738,583628,0
2096921,2096921,172598,583869,0
2096921,2096921,172489,583740,0
2096921,2096921,172678,583702,0
2096921,2096921,172443,583582,0
2096921,2096921,172400,583566,0
2096921,2096921,172612,583448,0
2096921,2096921,172883,583477,0
2096921,2096921,172870,583498,0
2096921,2096921,172806,583551,0
2096921,2096921,172677,583609,0
2096921,2096921,172707,583618,0
2096921,2096921,172616,583535,0
2096921,2096921,172545,583439,0
2096921,2096921,172571,583252,0
2096921,2096921,172816,583669,0
2096921,2096921,172547,583674,0
2096921,2096921,172724,583710,0
2096921,2096921,172495,583657,0
2096921,2096921,172810,584004,0
2096921,2096921,172575,583974,0
2096921,2096921,172768,584238,0
2096921,2096921,172522,583862,0
2096921,2096921,172536,584043,0
2096921,2096921,172642,583977,0
2096921,2096921,172452,584090,0
2096921,2096921,172622,584464,0
2096921,2096921,172990,584298,0
2096921,2096921,172911,584213,0
2096921,2096921,172707,584310,0
2096921,2096921,172787,584651,0
2096921,2096921,172827,584649,0
2096921,2096921,172828,584710,0
2096921,2096921,172801,584669,0
2096921,2096921,173315,584427,0
2096921,2096921,173215,585132,0
2096921,2096921,173220,585517,0
2096921,2096921,173474,585412,0
2096921,2096921,173362,585410,0
2096921,2096921,173612,585699,0
2096921,2096921,173509,586261,0
2096921,2096921,173638,586411,0
2096921,2096921,173536,586269,0
2096921,2096921,173337,586182,0
2096921,2096921,173637,586270,0
2096921,2096921,174034,586531,0
2096921,2096921,173927,586782,0
2096921,2096921,173649,586861,0
2096921,2096921,173614,586741,0
2096921,2096921,173618,586879,0
2096921,2096921,174010,587452,0
2096921,2096921,174078,587564,0
2096921,2096921,174130,587454,0
2096921,2096921,173890,587248,0
2096921,2096921,174191,587272,0
2096921,2096921,174149,587881,0
2096921,2096921,174142,588116,0
2096921,2096921,174356,588303,0
2096921,2096921,174374,588098,0
2096921,2096921,174617,587933,0
2096921,2096921,174537,588646,0
2096921,2096921,174455,588509,0
2096921,2096921,174518,588543,0
2096921,2096921,174308,588650,0
2096921,2096921,174464,588836,0
2096921,2096921,174746,589155,0
2096921,2096921,174722,589470,0
2096921,2096921,174506,589575,0
2096921,2096921,174833,589318,0
2096921,2096921,175022,589260,0
2096921,2096921,174934,589613,0
2096921,2096921,175191,589931,0
2096921,2096921,174894,589855,0
2096921,2096921,174610,590062,0
2096921,2096921,174859,590005,0
2096921,2096921,175193,590584,0
2096921,2096921,175112,590894,0
2096921,2096921,175224,590763,0
2096921,2096921,175383,590996,0
2096921,2096921,175279,590636,0
2096921,2096921,175459,591103,0
2096921,2096921,175258,591415,0
2096921,2096921,175289,591628,0
2096921,2096921,175416,591190,0
2096921,2096921,175465,591307,0
2096921,2096921,175622,591887,0
2096921,2096921,175853,591942,0
2096921,2096921,175892,591966,0
2096921,2096921,175830,592264,0
2096921,2096921,175730,592162,0
2096921,2096921,175829,592658,0
2096921,2096921,175946,592522,0
2096921,2096921,176110,592675,0
2096921,2096921,175842,592626,0
2096921,2096921,176260,592503,0
2096921,2096921,176020,593406,0
2096921,2096921,176401,593280,0
2096921,2096921,175983,593246,0
2096921,2096921,176349,593251,0
2096921,2096921,176539,593316,0
2096921,2096921,176499,593919,0
2096921,2096921,176262,593863,0
2096921,2096921,176298,593860,0
2096921,2096921,176386,594180,0
2096921,2096921,176285,593919,0
2096921,2096921,176471,594595,0
2096921,2096921,176721,594570,0
2096921,2096921,176602,594876,0
2096921,2096921,176581,594767,0
2096921,2096921,176840,594700,0
2096921,2096921,176855,595372,0
2096921,2096921,176744,595044,0
2096921,2096921,176792,595417,0
2096921,2096921,176597,595334,0
2096921,2096921,177063,595214,0
2096921,2096921,177151,595659,0
2096921,2096921,177171,595930,0
2096921,2096921,177458,596029,0
2096921,2096921,177287,596122,0
2096921,2096921,177488,595968,0
2096921,2096921,177296,596422,0
2096921,2096921,177189,596775,0
2096921,2096921,177314,596498,0
2096921,2096921,177145,596739,0
2096921,2096921,177399,596582,0
2096921,2096921,177487,597019,0
2096921,2096921,177685,596955,0
2096921,2096921,177324,597117,0
2096921,2096921,177710,597326,0
2096921,2096921,177667,597371,0
2096921,2096921,177826,597761,0
2096921,2096921,177682,597687,0
2096921,2096921,177767,597672,0
2096921,2096921,177698,597892,0
2096921,2096921,177753,597588,0
2096921,2096921,177934,598246,0
2096921,2096921,177755,598577,0
2096921,2096921,177855,598505,0
2096921,2096921,178122,598695,0
2096921,2096921,178221,598830,0
2096921,2096921,178087,599160,0
2096921,2096921,177929,599160,0
2096921,2096921,178004,599016,0
2096921,2096921,178081,599006,0
2096921,2096921,178209,598911,0
2096921,2096921,178006,599580,0
2096921,2096921,178380,599668,0
2096921,2096921,178251,599664,0
2096921,2096921,178595,599742,0
2096921,2096921,178534,599729,0
2096921,2096921,178688,600222,0
2096921,2096921,178608,600356,0
2096921,2096921,178568,600162,0
2096921,2096921,178817,600390,0
2096921,2096921,178859,599913,0
2096921,2096921,178922,600580,0
2096921,2096921,178926,600774,0
2096921,2096921,178989,600960,0
2096921,2096921,178884,600989,0
2096921,2096921,178999,601159,0
2096921,2096921,178854,601091,0
2096921,2096921,178998,601542,0
2096921,2096921,179137,601399,0
2096921,2096921,179038,601517,0
2096921,2096921,179144,601328,0
2096921,2096921,179281,601586,0
2096921,2096921,179109,601493,0
2096921,2096921,179262,601765,0
2096921,2096921,179221,601625,0
2096921,2096921,179494,601805,0
2096921,2096921,179446,602144,0
2096921,2096921,179344,602456,0
2096921,2096921,179439,602257,0
2096921,2096921,179599,602557,0
2096921,2096921,179711,602212,0
2096921,2096921,179675,602972,0
2096921,2096921,179322,603096,0
2096921,2096921,179726,602956,0
2096921,2096921,179663,603042,0
2096921,2096921,179788,602790,0
2096921,2096921,179438,603491,0
2096921,2096921,179516,603651,0
2096921,2096921,179497,603674,0
2096921,2096921,179914,603691,0
2096921,2096921,179766,603665,0
2096921,2096921,180001,604131,0
2096921,2096921,179869,603928,0
2096921,2096921,179965,604100,0
2096921,2096921,180068,604125,0
2096921,2096921,180159,604241,0
2096921,2096921,180153,604494,0
2096921,2096921,179998,604487,0
2096921,2096921,179831,604344,0
2096921,2096921,180210,604596,0
2096921,2096921,180118,604451,0
2096921,2096921,180160,605022,0
2096921,2096921,180109,604908,0
2096921,2096921,180567,605078,0
2096921,2096921,180234,605033,0
2096921,2096921,180295,605352,0
2096921,2096921,180319,605516,0
2096921,2096921,180176,605320,0
2096921,2096921,180135,605259,0
2096921,2096921,180005,605144,0
2096921,2096921,180203,605187,0
2096921,2096921,180756,605764,0
2096921,2096921,180732,606274,0
2096921,2096921,180535,606028,0
2096921,2096921,180368,606012,0
2096921,2096921,180462,606214,0
2096921,2096921,180694,606720,0
2096921,2096921,180824,606530,0
2096921,2096921,180702,606593,0
2096921,2096921,180847,606506,0
2096921,2096921,181052,606148,0
2096921,2096921,181304,607030,0
2096921,2096921,181169,607535,0
2096921,2096921,181118,607410,0
2096921,2096921,181017,607020,0
2096921,2096921,180825,606926,0
2096921,2096921,180904,607580,0
2096921,2096921,180899,607569,0
2096921,2096921,180950,607772,0
2096921,2096921,181053,607689,0
2096921,2096921,181278,607695,0
2096921,2096921,181347,607992,0
2096921,2096921,181410,608297,0
2096921,2096921,181328,608138,0
2096921,2096921,181406,608022,0
2096921,2096921,181451,608071,0
2096921,2096921,181384,608502,0
2096921,2096921,181497,608409,0
2096921,2096921,181412,608750,0
2096921,2096921,181265,608609,0
2096921,2096921,181498,608398,0
2096921,2096921,181553,608834,0
2096921,2096921,181705,609043,0
2096921,2096921,181567,609122,0
2096921,2096921,181436,609120,0
2096921,2096921,181864,608842,0
2096921,2096921,181572,609436,0
2096921,2096921,181468,609595,0
2096921,2096921,181480,609706,0
2096921,2096921,181591,609525,0
2096921,2096921,181650,609718,0
2096921,2096921,181706,610150,0
2096921,2096921,181904,610321,0
2096921,2096921,182037,610221,0
2096921,2096921,182171,609899,0
2096921,2096921,182150,610054,0
2096921,2096921,182098,610590,0
2096921,2096921,182134,610298,0
2096921,2096921,181968,610465,0
2096921,2096921,181737,610454,0
2096921,2096921,181840,610395,0
2096921,2096921,182202,610292,0
2096921,2096921,182045,610786,0
2096921,2096921,182409,610794,0
2096921,2096921,182062,610915,0
2096921,2096921,181972,610936,0
2096921,2096921,182331,611147,0
2096921,2096921,182408,611285,0
2096921,2096921,182472,611172,0
2096921,2096921,182369,611350,0
2096921,2096921,182486,611334,0
2096921,2096921,182577,611573,0
2096921,2096921,182284,611853,0
2096921,2096921,182435,611952,0
2096921,2096921,182592,611916,0
2096921,2096921,182628,611446,0
2096921,2096921,182511,611884,0
2096921,2096921,182373,612006,0
2096921,2096921,182672,612083,0
2096921,2096921,182506,611947,0
2096921,2096921,182579,611973,0
2096921,2096921,182732,612368,0
2096921,2096921,182709,612371,0
2096921,2096921,182940,612238,0
2096921,2096921,182887,612347,0
2096921,2096921,182627,612479,0
2096921,2096921,182788,612758,0
2096921,2096921,182688,612728,0
2096921,2096921,182510,612759,0
2096921,2096921,182622,612746,0
2096921,2096921,183070,612789,0
2096921,2096921,182868,612782,0
2096921,2096921,183058,612763,0
2096921,2096921,182613,612719,0
2096921,2096921,182677,612759,0
2096921,2096921,182692,612761,0
2096921,2096921,183195,613000,0
2096921,2096921,182958,612961,0
2096921,2096921,182918,613007,0
2096921,2096921,182763,612880,0
2096921,2096921,183029,613323,0
2096921,2096921,183236,613603,0
2096921,2096921,183205,613391,0
2096921,2096921,183040,613589,0
2096921,2096921,182827,613574,0
2096921,2096921,182795,613505,0
2096921,2096921,182833,613279,0
2096921,2096921,182860,613153,0
2096921,2096921,182757,613309,0
2096921,2096921,182852,613347,0
2096921,2096921,182633,613155,0
2096921,2096921,182848,612947,0
2096921,2096921,182924,613055,0
2096921,2096921,182642,613033,0
2096921,2096921,182609,612779,0
2096921,2096921,182364,613092,0
2096921,2096921,182568,612605,0
2096921,2096921,182273,612245,0
2096921,2096921,182385,612488,0
2096921,2096921,182404,612071,0
2096921,2096921,182143,612152,0
2096921,2096921,181905,611412,0
2096921,2096921,181794,611173,0
2096921,2096921,181689,611196,0
2096921,2096921,181812,610777,0
2096921,2096921,181507,611017,0
2096921,2096921,181278,610058,0
2096921,2096921,181229,609978,0
2096921,2096921,181436,609884,0
2096921,2096921,181180,609497,0
2096921,2096921,180323,609419,0
2096921,2096921,180245,607274,0
2096921,2096921,180041,606591,0
2096921,2096921,180054,606430,0
2096921,2096921,180151,606354,0
2096921,2096921,178747,606424,0
2096921,2096921,178530,603371,0
2096921,2096921,178172,602594,0
2096921,2096921,177889,602320,0
2096921,2096921,178287,602009,0
2096921,2096921,177134,601851,0
2096921,2096921,177112,599853,0
2096921,2096921,177433,599595,0
2096921,2096921,177563,599510,0
2096921,2096921,177144,599586,0
2096921,2096921,176620,599207,0
2096921,2096921,176387,597683,0
2096921,2096921,176472,597381,0
2096921,2096921,176487,597316,0
2096921,2096921,176584,597402,0
2096921,2096921,175987,597298,0
2096921,2096921,175781,596339,0
2096921,2096921,175604,595891,0
2096921,2096921,175771,595863,0
2096921,2096921,175494,595987,0
2096921,2096921,175187,596003,0
2096921,2096921,175122,595010,0
2096921,2096921,175255,594779,0
2096921,2096921,175041,594540,0
2096921,2096921,175506,594514,0
2096921,2096921,174700,594642,0
2096921,2096921,175134,594001,0
2096921,2096921,174965,594189,0
2096921,2096921,175343,594143,0
2096921,2096921,174960,594238,0
2096921,2096921,174891,594094,0
2096921,2096921,174892,593771,0
2096921,2096921,174963,593894,0
2096921,2096921,174658,593941,0
2096921,2096921,174941,593605,0
2096921,2096921,174850,593796,0
2096921,2096921,174772,594146,0
2096921,2096921,174965,594069,0
2096921,2096921,175113,594066,0
2096921,2096921,175024,594400,0
2096921,2096921,175204,593880,0
2096921,2096921,174993,594056,0
2096921,2096921,174901,594181,0
2096921,2096921,174783,594211,0
2096921,2096921,174699,594343,0
2096921,2096921,174669,594070,0
2096921,2096921,174963,594807,0
2096921,2096921,175143,595006,0
2096921,2096921,175087,594735,0
2096921,2096921,174860,594840,0
2096921,2096921,175324,595042,0
2096921,2096921,175270,595533,0
2096921,2096921,175450,595466,0
2096921,2096921,175442,595440,0
2096921,2096921,175380,595689,0
2096921,2096921,175340,595660,0
2096921,2096921,175687,595935,0
2096921,2096921,175586,596172,0
2096921,2096921,175775,596356,0
2096921,2096921,175843,596278,0
2096921,2096921,176011,596488,0
2096921,2096921,175972,597353,0
2096921,2096921,175990,597331,0
2096921,2096921,175996,597310,0
2096921,2096921,176095,596979,0
2096921,2096921,176311,597361,0
2096921,2096921,176574,597996,0
2096921,2096921,176522,598484,0
2096921,2096921,176276,598301,0
2096921,2096921,176398,598149,0
2096921,2096921,176699,598079,0
2096921,2096921,176910,599150,0
2096921,2096921,176932,599141,0
2096921,2096921,176836,599158,0
2096921,2096921,176778,599219,0
2096921,2096921,176997,599434,0
2096921,2096921,177027,600260,0
2096921,2096921,177430,600574,0
2096921,2096921,177198,600585,0
2096921,2096921,177504,600415,0
2096921,2096921,177402,600607,0
2096921,2096921,177335,601525,0
2096921,2096921,177512,601296,0
2096921,2096921,177360,601509,0
2096921,2096921,177533,601422,0
2096921,2096921,177635,601877,0
2096921,2096921,177990,602291,0
2096921,2096921,177964,602756,0
2096921,2096921,178059,602711,0
2096921,2096921,177856,602738,0
2096921,2096921,178405,602708,0
2096921,2096921,178274,603734,0
2096921,2096921,178253,603386,0
2096921,2096921,178365,603545,0
2096921,2096921,178051,603787,0
2096921,2096921,178861,603836,0
2096921,2096921,178964,604171,0
2096921,2096921,178939,604602,0
2096921,2096921,178712,604685,0
2096921,2096921,178907,604913,0
2096921,2096921,178922,604651,0
2096921,2096921,178851,605301,0
2096921,2096921,178825,605491,0
2096921,2096921,179287,605535,0
2096921,2096921,178965,605694,0
2096921,2096921,179373,605629,0
2096921,2096921,179480,606269,0
2096921,2096921,179459,606645,0
2096921,2096921,179509,606940,0
2096921,2096921,179484,606884,0
2096921,2096921,179911,607069,0
2096921,2096921,179737,607654,0
2096921,2096921,179874,607755,0
2096921,2096921,179793,607875,0
2096921,2096921,179880,607921,0
2096921,2096921,180075,608062,0
2096921,2096921,180259,608617,0
2096921,2096921,180290,608979,0
2096921,2096921,180286,609110,0
2096921,2096921,180346,608990,0
2096921,2096921,180783,609104,0
2096921,2096921,180913,609871,0
2096921,2096921,180758,609715,0
2096921,2096921,180694,610147,0
2096921,2096921,180420,610045,0
2096921,2096921,181119,610217,0
2096921,2096921,180990,610460,0
2096921,2096921,180970,610909,0
2096921,2096921,181131,610950,0
2096921,2096921,181158,610694,0
2096921,2096921,181212,610736,0
2096921,2096921,181186,611128,0
2096921,2096921,181078,611489,0
2096921,2096921,181105,611198,0
2096921,2096921,181383,611452,0
2096921,2096921,181273,611401,0
2096921,2096921,181295,611956,0
2096921,2096921,181667,612137,0
2096921,2096921,181670,612160,0
2096921,2096921,181682,612311,0
2096921,2096921,181653,611874,0
2096921,2096921,181291,612312,0
2096921,2096921,181347,612158,0
2096921,2096921,181517,612497,0
2096921,2096921,181549,612186,0
2096921,2096921,181640,612228,0
2096921,2096921,181575,612490,0
2096921,2096921,181732,612507,0
2096921,2096921,181453,612358,0
2096921,2096921,181460,612620,0
2096921,2096921,181647,612697,0
2096921,2096921,181690,612666,0
2096921,2096921,181485,612860,0
2096921,2096921,181755,612773,0
2096921,2096921,181850,612681,0
2096921,2096921,181962,612736,0
2096921,2096921,181871,612872,0
2096921,2096921,182056,612735,0
2096921,2096921,181732,612850,0
2096921,2096921,181976,612857,0
2096921,2096921,181539,612959,0
2096921,2096921,181550,612882,0
2096921,2096921,181410,612661,0
2096921,2096921,181569,612770,0
2096921,2096921,181699,612876,0
2096921,2096921,181763,612794,0
2096921,2096921,181797,612738,0
2096921,2096921,181869,612641,0
2096921,2096921,181394,612716,0
2096921,2096921,181513,612602,0
2096921,2096921,181699,612790,0
2096921,2096921,181865,612551,0
2096921,2096921,181670,612565,0
2096921,2096921,181229,612685,0
2096921,2096921,181581,612479,0
2096921,2096921,181391,612550,0
2096921,2096921,181331,612260,0
2096921,2096921,181677,612292,0
2096921,2096921,181778,612385,0
2096921,2096921,181429,612547,0
2096921,2096921,181317,612577,0
2096921,2096921,181713,612446,0
2096921,2096921,181377,612535,0
2096921,2096921,181690,612333,0
2096921,2096921,181354,612620,0
2096921,2096921,181600,612254,0
2096921,2096921,181838,612800,0
2096921,2096921,181507,612716,0
2096921,2096921,181615,612794,0
2096921,2096921,181524,612578,0
2096921,2096921,181785,612717,0
2096921,2096921,181729,612746,0
2096921,2096921,181736,613004,0
2096921,2096921,181736,612846,0
2096921,2096921,181671,613057,0
2096921,2096921,181826,612737,0
2096921,2096921,181767,613123,0
2096921,2096921,181787,613381,0
2096921,2096921,181807,613168,0
2096921,2096921,182160,613436,0
2096921,2096921,182074,613315,0
2096921,2096921,181608,613690,0
2096921,2096921,181962,613551,0
2096921,2096921,182007,613441,0
2096921,2096921,181917,613359,0
2096921,2096921,182109,613852,0
2096921,2096921,182602,614409,0
2096921,2096921,182295,614275,0
2096921,2096921,182252,614328,0
2096921,2096921,182113,614583,0
2096921,2096921,182534,614424,0
2096921,2096921,182658,614954,0
2096921,2096921,182444,615146,0
2096921,2096921,182349,615163,0
2096921,2096921,182323,615117,0
2096921,2096921,182543,614961,0
2096921,2096921,182800,615541,0
2096921,2096921,182698,615538,0
2096921,2096921,182415,615569,0
2096921,2096921,182657,615641,0
2096921,2096921,183116,615724,0
2096921,2096921,182883,616119,0
2096921,2096921,182923,616241,0
2096921,2096921,182803,616446,0
2096921,2096921,182847,616590,0
2096921,2096921,182858,616417,0
2096921,2096921,183034,616848,0
2096921,2096921,183211,616734,0
2096921,2096921,183258,616716,0
2096921,2096921,183146,617053,0
2096921,2096921,183511,617041,0
2096921,2096921,183287,617312,0
2096921,2096921,183658,617239,0
2096921,2096921,183262,617340,0
2096921,2096921,183246,617465,0
2096921,2096921,183495,617522,0
2096921,2096921,183684,617336,0
2096921,2096921,183682,617914,0
2096921,2096921,183526,617808,0
2096921,2096921,183612,618123,0
2096921,2096921,183639,617736,0
2096921,2096921,183566,618256,0
2096921,2096921,183666,618154,0
2096921,2096921,183614,618012,0
2096921,2096921,183691,618359,0
2096921,2096921,183744,618553,0
2096921,2096921,183840,618677,0
2096921,2096921,183903,618669,0
2096921,2096921,183904,618776,0
2096921,2096921,183780,618829,0
2096921,2096921,183990,618744,0
2096921,2096921,183994,619332,0
2096921,2096921,184271,619303,0
2096921,2096921,183887,619603,0
2096921,2096921,183935,619034,0
2096921,2096921,184185,619641,0
2096921,2096921,184302,619601,0
2096921,2096921,184194,619958,0
2096921,2096921,184238,619884,0
2096921,2096921,184297,619800,0
2096921,2096921,184509,620026,0
2096921,2096921,184650,620293,0
2096921,2096921,184502,620259,0
2096921,2096921,184549,620207,0
2096921,2096921,184284,620269,0
2096921,2096921,184475,620363,0
2096921,2096921,184562,620539,0
2096921,2096921,184726,620605,0
2096921,2096921,184766,620401,0
2096921,2096921,184482,620718,0
2096921,2096921,184742,620606,0
2096921,2096921,185077,620946,0
2096921,2096921,184847,621160,0
2096921,2096921,184729,620998,0
2096921,2096921,184707,620991,0
2096921,2096921,184945,621053,0
2096921,2096921,184899,621331,0
2096921,2096921,185029,621667,0
2096921,2096921,184832,621532,0
2096921,2096921,184867,621519,0
2096921,2096921,185043,621685,0
2096921,2096921,185279,621902,0
2096921,2096921,184852,621992,0
2096921,2096921,184824,621993,0
2096921,2096921,184794,621766,0
2096921,2096921,185006,621774,0
2096921,2096921,185167,622135,0
2096921,2096921,185206,622467,0
2096921,2096921,185259,622403,0
2096921,2096921,185273,622415,0
2096921,2096921,185453,622317,0
2096921,2096921,185310,622581,0
2096921,2096921,185231,622603,0
2096921,2096921,185391,622382,0
2096921,2096921,185245,622561,0
2096921,2096921,185418,622801,0
2096921,2096921,185471,622926,0
2096921,2096921,185715,622689,0
2096921,2096921,185561,622936,0
2096921,2096921,185564,622943,0
2096921,2096921,185567,622991,0
2096921,2096921,185584,623183,0
2096921,2096921,185747,623237,0
2096921,2096921,185728,623439,0
2096921,2096921,185773,623239,0
2096921,2096921,185603,623166,0
2096921,2096921,185624,623317,0
2096921,2096921,185515,623435,0
2096921,2096921,185819,623653,0
2096921,2096921,185945,623767,0
2096921,2096921,185947,623648,0
2096921,2096921,185933,623952,0
2096921,2096921,185703,623912,0
2096921,2096921,185815,623823,0
2096921,2096921,186032,623698,0
2096921,2096921,185866,624121,0
2096921,2096921,185786,624202,0
2096921,2096921,186040,624275,0
2096921,2096921,186111,624288,0
2096921,2096921,186021,624036,0
2096921,2096921,186035,624085,0
2096921,2096921,185947,624478,0
2096921,2096921,186139,624826,0
2096921,2096921,186229,624360,0
2096921,2096921,186366,624523,0
2096921,2096921,186078,624284,0
2096921,2096921,186164,624825,0
2096921,2096921,185852,624673,0
2096921,2096921,186311,624542,0
2096921,2096921,186006,624585,0
2096921,2096921,186352,624458,0
2096921,2096921,186398,624737,0
2096921,2096921,186354,624697,0
2096921,2096921,186147,624762,0
2096921,2096921,186238,624743,0
2096921,2096921,186266,624826,0
2096921,2096921,186417,625103,0
2096921,2096921,186579,625194,0
2096921,2096921,186307,625201,0
2096921,2096921,186215,625102,0
2096921,2096921,186365,625304,0
2096921,2096921,186399,625319,0
2096921,2096921,186523,625231,0
2096921,2096921,186515,625246,0
2096921,2096921,186580,625323,0
2096921,2096921,186707,625023,0
2096921,2096921,186436,625489,0
2096921,2096921,186873,625718,0
2096921,2096921,186598,626011,0
2096921,2096921,186865,625545,0
2096921,2096921,186831,625625,0
2096921,2096921,186797,625741,0
2096921,2096921,186682,625656,0
2096921,2096921,186841,625763,0
2096921,2096921,186548,625789,0
2096921,2096921,186495,625662,0
2096921,2096921,186784,625745,0
2096921,2096921,186793,625788,0
2096921,2096921,186608,625893,0
2096921,2096921,186855,625856,0
2096921,2096921,186796,626063,0
2096921,2096921,186610,625924,0
2096921,2096921,186688,625907,0
2096921,2096921,186771,625722,0
2096921,2096921,186641,625871,0
2096921,2096921,186855,626067,0
2096921,2096921,186926,626046,0
2096921,2096921,186648,626114,0
2096921,2096921,186714,625969,0
2096921,2096921,186480,626100,0
2096921,2096921,186981,625925,0
2096921,2096921,186992,626364,0
2096921,2096921,186771,626187,0
2096921,2096921,186791,626230,0
2096921,2096921,186906,626068,0
2096921,2096921,186697,626302,0
2096921,2096921,186763,626461,0
2096921,2096921,186716,626555,0
2096921,2096921,186906,626710,0
2096921,2096921,186787,626490,0
2096921,2096921,186888,626418,0
2096921,2096921,186870,626699,0
2096921,2096921,187197,626663,0
2096921,2096921,186940,626436,0
2096921,2096921,186967,626663,0
2096921,2096921,186953,626861,0
2096921,2096921,187117,626957,0
2096921,2096921,187092,627032,0
2096921,2096921,187111,626863,0
2096921,2096921,186755,626963,0
2096921,2096921,187147,626988,0
2096921,2096921,187241,626796,0
2096921,2096921,187335,626987,0
2096921,2096921,186922,627158,0
2096921,2096921,186974,627081,0
2096921,2096921,187028,627073,0
2096921,2096921,187370,627269,0
2096921,2096921,187378,627155,0
2096921,2096921,187280,627158,0
2096921,2096921,186909,627058,0
2096921,2096921,186917,626995,0
2096921,2096921,187152,626951,0
2096921,2096921,187119,627248,0
2096921,2096921,187368,627559,0
2096921,2096921,186965,627120,0
2096921,2096921,187139,627117,0
2096921,2096921,187304,627378,0
2096921,2096921,186991,627175,0
2096921,2096921,187025,627363,0
2096921,2096921,187326,627245,0
2096921,2096921,187118,627176,0
2096921,2096921,187045,627480,0
2096921,2096921,187195,627299,0
2096921,2096921,187197,626916,0
2096921,2096921,186947,626714,0
2096921,2096921,187238,626851,0
2096921,2096921,187265,627172,0
2096921,2096921,187185,627371,0
2096921,2096921,187275,627496,0
2096921,2096921,187289,627283,0
2096921,2096921,187193,627343,0
2096921,2096921,186708,627460,0
2096921,2096921,186791,627229,0
2096921,2096921,187105,627104,0
2096921,2096921,186818,627247,0
2096921,2096921,186916,627299,0
2096921,2096921,187338,626838,0
2096921,2096921,187420,627146,0
2096921,2096921,187279,626889,0
2096921,2096921,187013,627378,0
2096921,2096921,187063,627300,0
2096921,2096921,187218,626855,0
2096921,2096921,187125,626985,0
2096921,2096921,187181,626864,0
2096921,2096921,187237,626594,0
2096921,2096921,187310,626949,0
2096921,2096921,187020,626856,0
2096921,2096921,187015,627141,0
2096921,2096921,187028,626871,0
2096921,2096921,187007,627020,0
2096921,2096921,187331,626804,0
2096921,2096921,187531,626897,0
2096921,2096921,186990,626884,0
2096921,2096921,187028,626876,0
2096921,2096921,187148,626665,0
2096921,2096921,187263,626871,0
2096921,2096921,187394,626635,0
2096921,2096921,186997,626666,0
2096921,2096921,187043,626627,0
2096921,2096921,187101,626782,0
2096921,2096921,187144,626933,0
2096921,2096921,187030,626785,0
2096921,2096921,186726,626859,0
2096921,2096921,186971,626595,0
2096921,2096921,187062,626685,0
2096921,2096921,187185,626673,0
2096921,2096921,186940,626776,0
2096921,2096921,186896,626327,0
2096921,2096921,186934,626390,0
2096921,2096921,187340,626686,0
2096921,2096921,186866,626529,0
2096921,2096921,187297,626425,0
2096921,2096921,187060,626003,0
2096921,2096921,186914,626099,0
2096921,2096921,186842,626323,0
2096921,2096921,186896,626451,0
2096921,2096921,186842,626159,0
2096921,2096921,186912,625920,0
2096921,2096921,186810,625924,0
2096921,2096921,186817,626200,0
2096921,2096921,186541,626405,0
2096921,2096921,186617,625311,0
2096921,2096921,186352,625251,0
2096921,2096921,186392,625361,0
2096921,2096921,186286,625084,0
2096921,2096921,186094,625056,0
2096921,2096921,186164,624271,0
2096921,2096921,186271,624219,0
2096921,2096921,185945,624335,0
2096921,2096921,185952,624390,0
2096921,2096921,185531,624058,0
2096921,2096921,185651,623074,0
2096921,2096921,185942,623007,0
2096921,2096921,185674,622979,0
2096921,2096921,185701,623140,0
2096921,2096921,185250,622710,0
2096921,2096921,184986,621758,0
2096921,2096921,185209,621350,0
2096921,2096921,184969,621694,0
2096921,2096921,185228,621225,0
2096921,2096921,184445,621093,0
2096921,2096921,184544,619782,0
2096921,2096921,184289,619530,0
2096921,2096921,184186,619480,0
2096921,2096921,184166,619397,0
2096921,2096921,182970,618750,0
2096921,2096921,182639,616190,0
2096921,2096921,182731,615448,0
2096921,2096921,182540,615657,0
2096921,2096921,182764,615642,0
2096921,2096921,181278,614674,0
2096921,2096921,181091,611311,0
2096921,2096921,181091,610997,0
2096921,2096921,181063,610460,0
2096921,2096921,180870,610582,0
2096921,2096921,179925,609781,0
2096921,2096921,179500,608006,0
2096921,2096921,179529,607079,0
2096921,2096921,179739,607290,0
2096921,2096921,179500,607327,0
2096921,2096921,178744,606591,0
2096921,2096921,178618,604751,0
2096921,2096921,178451,604406,0
2096921,2096921,178642,604500,0
2096921,2096921,178444,604226,0
2096921,2096921,177915,604209,0
2096921,2096921,177820,602806,0
2096921,2096921,177699,602135,0
2096921,2096921,177559,602421,0
2096921,2096921,177357,602111,0
2096921,2096921,177184,601935,0
2096921,2096921,177280,600671,0
2096921,2096921,177004,600699,0
2096921,2096921,176855,600516,0
2096921,2096921,176895,600459,0
2096921,2096921,176890,600129,0
2096921,2096921,177113,599304,0
2096921,2096921,176696,599356,0
2096921,2096921,176587,599217,0
2096921,2096921,176592,599339,0
2096921,2096921,176611,599407,0
2096921,2096921,176402,598770,0
2096921,2096921,176492,598474,0
2096921,2096921,176437,598281,0
2096921,2096921,176206,598454,0
2096921,2096921,176257,598455,0
2096921,2096921,176141,598076,0
2096921,2096921,175856,598276,0
2096921,2096921,176161,598147,0
2096921,2096921,176300,597850,0
2096921,2096921,176136,597986,0
2096921,2096921,175813,597844,0
2096921,2096921,175837,597895,0
2096921,2096921,176078,597617,0
2096921,2096921,176008,597687,0
2096921,2096921,176009,597966,0
2096921,2096921,176277,597775,0
2096921,2096921,176264,597906,0
2096921,2096921,175784,597874,0
2096921,2096921,175976,597862,0
2096921,2096921,176225,597788,0
2096921,2096921,176028,597447,0
2096921,2096921,175887,597501,0
2096921,2096921,175887,597794,0
2096921,2096921,176103,597581,0
2096921,2096921,176056,598009,0
2096921,2096921,176156,598202,0
2096921,2096921,176149,597782,0
2096921,2096921,176292,597914,0
2096921,2096921,176097,597953,0
2096921,2096921,176268,597926,0
2096921,2096921,176316,598271,0
2096921,2096921,176383,598459,0
2096921,2096921,176227,598361,0
2096921,2096921,176077,598358,0
2096921,2096921,176324,598081,0
2096921,2096921,176538,598265,0
2096921,2096921,176401,598440,0
2096921,2096921,176279,598666,0
2096921,2096921,176293,598697,0
2096921,2096921,176543,598539,0
2096921,2096921,176723,599024,0
2096921,2096921,176483,599198,0
2096921,2096921,176489,598928,0
2096921,2096921,176557,599130,0
2096921,2096921,176719,599022,0
2096921,2096921,176765,599356,0
2096921,2096921,176814,599483,0
2096921,2096921,177075,599582,0
2096921,2096921,176841,599551,0
2096921,2096921,176987,599808,0
2096921,2096921,177265,600132,0
2096921,2096921,177254,600046,0
2096921,2096921,177013,600148,0
2096921,2096921,176956,600067,0
2096921,2096921,177192,600369,0
2096921,2096921,177688,600400,0
2096921,2096921,177392,600521,0
2096921,2096921,177518,600699,0
2096921,2096921,177350,600366,0
2096921,2096921,177326,600825,0
2096921,2096921,177555,600939,0
2096921,2096921,177616,600492,0
2096921,2096921,177411,600887,0
2096921,2096921,177388,600698,0
2096921,2096921,177801,600840,0
2096921,2096921,177538,601092,0
2096921,2096921,177630,601214,0
2096921,2096921,177582,601225,0
2096921,2096921,177652,601125,0
2096921,2096921,177980,601255,0
2096921,2096921,178068,601792,0
2096921,2096921,178030,601886,0
2096921,2096921,177820,601791,0
2096921,2096921,177940,601870,0
2096921,2096921,178041,601685,0
2096921,2096921,178002,601941,0
2096921,2096921,178028,602175,0
2096921,2096921,178018,602240,0
2096921,2096921,178346,602354,0
2096921,2096921,178436,602741,0
2096921,2096921,178499,602880,0
2096921,2096921,178330,602735,0
2096921,2096921,178449,602686,0
2096921,2096921,178305,602896,0
2096921,2096921,178704,603018,0
2096921,2096921,178462,603146,0
2096921,2096921,178667,603359,0
2096921,2096921,178881,603301,0
2096921,2096921,178785,603285,0
2096921,2096921,178861,603498,0
2096921,2096921,178785,603319,0
2096921,2096921,178363,603462,0
2096921,2096921,178344,603647,0
2096921,2096921,178686,603541,0
2096921,2096921,178727,603406,0
2096921,2096921,178767,603582,0
2096921,2096921,178924,603686,0
2096921,2096921,178896,603858,0
2096921,2096921,178898,603931,0
2096921,2096921,179088,603688,0
2096921,2096921,179133,603876,0
2096921,2096921,178808,603468,0
2096921,2096921,178842,603686,0
2096921,2096921,178804,603611,0
2096921,2096921,178605,603566,0
2096921,2096921,178672,603685,0
2096921,2096921,178871,603632,0
2096921,2096921,179135,603864,0
2096921,2096921,178973,604107,0
2096921,2096921,178657,603673,0
2096921,2096921,178870,603481,0
2096921,2096921,179022,603425,0
2096921,2096921,178965,603650,0
2096921,2096921,178617,603882,0
2096921,2096921,178534,603543,0
2096921,2096921,178593,603167,0
2096921,2096921,178940,602924,0
2096921,2096921,179037,603045,0
2096921,2096921,178658,603200,0
2096921,2096921,178644,603421,0
2096921,2096921,178738,603284,0
2096921,2096921,178693,603160,0
2096921,2096921,178428,603136,0
2096921,2096921,178764,602887,0
2096921,2096921,178877,602597,0
2096921,2096921,178730,602466,0
2096921,2096921,178429,602230,0
2096921,2096921,178401,602389,0
2096921,2096921,178470,602444,0
2096921,2096921,178068,602145,0
2096921,2096921,178117,601787,0
2096921,2096921,178399,601704,0
2096921,2096921,178102,601789,0
2096921,2096921,178203,601302,0
2096921,2096921,178085,601433,0
2096921,2096921,178121,601099,0
2096921,2096921,177887,600858,0
2096921,2096921,177986,601172,0
2096921,2096921,177955,601023,0
2096921,2096921,177998,601193,0
2096921,2096921,177700,600663,0
2096921,2096921,177513,600278,0
2096921,2096921,177689,600067,0
2096921,2096921,177712,600421,0
2096921,2096921,177590,600330,0
2096921,2096921,177578,599837,0
2096921,2096921,177675,599909,0
2096921,2096921,177515,599850,0
2096921,2096921,177778,599836,0
2096921,2096921,177764,599813,0
2096921,2096921,177482,599339,0
2096921,2096921,177288,599200,0
2096921,2096921,177367,599338,0
2096921,2096921,177415,599381,0
2096921,2096921,177271,599201,0
2096921,2096921,177359,599023,0
2096921,2096921,177521,598972,0
2096921,2096921,177352,598932,0
2096921,2096921,177279,598902,0
2096921,2096921,177277,599107,0
2096921,2096921,177081,598608,0
2096921,2096921,177235,598706,0
2096921,2096921,177011,598814,0
2096921,2096921,177030,598683,0
2096921,2096921,177224,598367,0
2096921,2096921,177310,598416,0
2096921,2096921,177037,598479,0
2096921,2096921,177102,598608,0
2096921,2096921,176976,598654,0
2096921,2096921,176967,598690,0
2096921,2096921,177240,598315,0
2096921,2096921,177007,598344,0
2096921,2096921,176938,598338,0
2096921,2096921,177037,598140,0
2096921,2096921,177067,598371,0
2096921,2096921,177186,598337,0
2096921,2096921,177122,598208,0
2096921,2096921,177255,598606,0
2096921,2096921,177453,598716,0
2096921,2096921,177791,598650,0
2096921,2096921,177308,598797,0
2096921,2096921,177540,598753,0
2096921,2096921,177438,599244,0
2096921,2096921,177477,598744,0
2096921,2096921,177387,598893,0
2096921,2096921,177732,599169,0
2096921,2096921,177338,598916,0
2096921,2096921,177478,599067,0
2096921,2096921,177354,598833,0
2096921,2096921,177688,599231,0
2096921,2096921,177506,599204,0
2096921,2096921,177834,599226,0
2096921,2096921,177581,599025,0
2096921,2096921,177657,599106,0
2096921,2096921,177676,599241,0
2096921,2096921,177930,599280,0
2096921,2096921,177455,599338,0
2096921,2096921,177677,599158,0
2096921,2096921,177626,599241,0
2096921,2096921,177710,599187,0
2096921,2096921,177705,599308,0
2096921,2096921,177616,599212,0
2096921,2096921,177445,599163,0
2096921,2096921,177675,599110,0
2096921,2096921,177717,599265,0
2096921,2096921,177915,599123,0
2096921,2096921,177699,599261,0
2096921,2096921,177714,598898,0
2096921,2096921,177999,599326,0
2096921,2096921,177820,599405,0
2096921,2096921,177740,599287,0
2096921,2096921,177765,599337,0
2096921,2096921,177917,599663,0
2096921,2096921,177718,599301,0
2096921,2096921,177693,599317,0
2096921,2096921,177729,599469,0
2096921,2096921,177844,599600,0
2096921,2096921,177899,599502,0
2096921,2096921,177959,599778,0
2096921,2096921,177856,599804,0
2096921,2096921,177684,599440,0
2096921,2096921,178014,599398,0
2096921,2096921,178048,599710,0
2096921,2096921,178139,599515,0
2096921,2096921,178039,599581,0
2096921,2096921,178017,599457,0
2096921,2096921,178073,599555,0
2096921,2096921,178110,599430,0
2096921,2096921,177810,599696,0
2096921,2096921,177968,599870,0
2096921,2096921,178013,599691,0
2096921,2096921,178086,599515,0
2096921,2096921,177971,599380,0
2096921,2096921,178036,599508,0
2096921,2096921,178002,599856,0
2096921,2096921,177857,599829,0
2096921,2096921,178241,599808,0
2096921,2096921,178055,599413,0
2096921,2096921,177825,599557,0
2096921,2096921,177968,599810,0
2096921,2096921,178367,600151,0
2096921,2096921,178255,600129,0
2096921,2096921,178327,600405,0
2096921,2096921,178552,600153,0
2096921,2096921,178377,600145,0
2096921,2096921,178611,600005,0
2096921,2096921,178635,600140,0
2096921,2096921,178488,600477,0
2096921,2096921,178604,600474,0
2096921,2096921,178638,600356,0
2096921,2096921,178577,600247,0
2096921,2096921,178389,600167,0
2096921,2096921,178681,600168,0
2096921,2096921,178491,600030,0
2096921,2096921,178572,599955,0
2096921,2096921,178531,600020,0
2096921,2096921,178227,600057,0
2096921,2096921,178503,600288,0
2096921,2096921,178515,600211,0
2096921,2096921,178341,600273,0
2096921,2096921,178754,600246,0
2096921,2096921,178493,600282,0
2096921,2096921,178398,600232,0
2096921,2096921,178255,600145,0
2096921,2096921,178365,600190,0
2096921,2096921,178794,599868,0
2096921,2096921,178615,600285,0
2096921,2096921,178419,600429,0
2096921,2096921,178795,600266,0
2096921,2096921,178246,600244,0
2096921,2096921,178591,600149,0
2096921,2096921,178293,599980,0
2096921,2096921,178394,600093,0
2096921,2096921,178316,600019,0
2096921,2096921,178416,600119,0
2096921,2096921,178743,599928,0
2096921,2096921,178773,600048,0
2096921,2096921,178562,600380,0
2096921,2096921,178690,600324,0
2096921,2096921,178443,599990,0
2096921,2096921,178786,600003,0
2096921,2096921,178320,599914,0
2096921,2096921,178502,600084,0
2096921,2096921,178355,600014,0
2096921,2096921,178625,599969,0
2096921,2096921,178510,599928,0
2096921,2096921,178795,600270,0
2096921,2096921,178527,600080,0
2096921,2096921,178338,599981,0
2096921,2096921,178557,600085,0
2096921,2096921,178676,599968,0
2096921,2096921,178635,599697,0
2096921,2096921,178320,599888,0
2096921,2096921,178519,599877,0
2096921,2096921,178628,599850,0
2096921,2096921,178543,599639,0
2096921,2096921,178686,599676,0
2096921,2096921,178620,599774,0
2096921,2096921,178550,599675,0
2096921,2096921,178598,599691,0
2096921,2096921,178416,599777,0
2096921,2096921,178616,599887,0
2096921,2096921,178470,599529,0
2096921,2096921,178242,599903,0
2096921,2096921,178361,599927,0
2096921,2096921,178343,600097,0
2096921,2096921,178459,599505,0
2096921,2096921,178591,599742,0
2096921,2096921,178526,599566,0
2096921,2096921,178528,599764,0
2096921,2096921,178231,599437,0
2096921,2096921,178283,599425,0
2096921,2096921,178255,599422,0
2096921,2096921,178363,599599,0
2096921,2096921,178412,599410,0
2096921,2096921,178481,599407,0
2096921,2096921,178300,599346,0
2096921,2096921,178451,599227,0
2096921,2096921,178547,599544,0
2096921,2096921,178516,599724,0
2096921,2096921,178628,599439,0
2096921,2096921,178428,599458,0
2096921,2096921,178496,599282,0
2096921,2096921,178483,599580,0
2096921,2096921,178559,599151,0
2096921,2096921,178479,599087,0
2096921,2096921,178445,599304,0
2096921,2096921,178462,599523,0
2096921,2096921,178457,599119,0
2096921,2096921,178271,599415,0
2096921,2096921,178298,599043,0
2096921,2096921,178492,599115,0
2096921,2096921,178501,598850,0
2096921,2096921,178345,599116,0
2096921,2096921,178236,598932,0
2096921,2096921,178344,598982,0
2096921,2096921,178352,599102,0
2096921,2096921,178583,599031,0
2096921,2096921,178431,599023,0
2096921,2096921,178269,598878,0
2096921,2096921,178133,598666,0
2096921,2096921,178420,598592,0
2096921,2096921,178376,598566,0
2096921,2096921,178175,598625,0
2096921,2096921,177889,598888,0
2096921,2096921,178181,598716,0
2096921,2096921,178295,598763,0
2096921,2096921,178411,598576,0
2096921,2096921,178206,598765,0
2096921,2096921,178255,598716,0
2096921,2096921,178173,598867,0
2096921,2096921,178547,598698,0
2096921,2096921,178287,598652,0
2096921,2096921,178292,598488,0
2096921,2096921,178095,598821,0
2096921,2096921,178309,598571,0
2096921,2096921,178495,598778,0
2096921,2096921,178280,598477,0
2096921,2096921,178242,598572,0
2096921,2096921,178156,598600,0
2096921,2096921,177967,598507,0
2096921,2096921,178304,598457,0
2096921,2096921,178116,598572,0
2096921,2096921,178270,598550,0
2096921,2096921,178180,598335,0
2096921,2096921,177965,598310,0
2096921,2096921,178224,598496,0
2096921,2096921,178107,598493,0
2096921,2096921,178059,598520,0
2096921,2096921,178244,598382,0
2096921,2096921,178065,597998,0
2096921,2096921,177981,598157,0
2096921,2096921,178169,598288,0
2096921,2096921,178180,598535,0
2096921,2096921,178077,598451,0
2096921,2096921,178242,598213,0
2096921,2096921,178227,598408,0
2096921,2096921,178365,598098,0
2096921,2096921,178430,598157,0
2096921,2096921,178144,598532,0
2096921,2096921,178136,598219,0
2096921,2096921,178343,598146,0
2096921,2096921,178206,598175,0
2096921,2096921,177969,598178,0
2096921,2096921,177908,598191,0
2096921,2096921,178151,598002,0
2096921,2096921,178459,598164,0
2096921,2096921,178189,598150,0
2096921,2096921,178112,598165,0
2096921,2096921,178364,598187,0
2096921,2096921,178380,597859,0
2096921,2096921,178339,598031,0
2096921,2096921,178210,597731,0
2096921,2096921,178163,597858,0
2096921,2096921,178034,598027,0
2096921,2096921,178003,597616,0
2096921,2096921,178003,597917,0
2096921,2096921,178391,597909,0
2096921,2096921,178168,597784,0
2096921,2096921,178124,597880,0
2096921,2096921,177908,597484,0
2096921,2096921,178189,597509,0
2096921,2096921,178234,597519,0
2096921,2096921,178110,597403,0
2096921,2096921,177895,597582,0
2096921,2096921,177983,597538,0
2096921,2096921,177766,597575,0
2096921,2096921,178177,597475,0
2096921,2096921,177697,597479,0
2096921,2096921,177744,597376,0
2096921,2096921,177930,597404,0
2096921,2096921,177816,596977,0
2096921,2096921,177823,597143,0
2096921,2096921,178042,597004,0
2096921,2096921,177881,597296,0
2096921,2096921,177981,597172,0
2096921,2096921,177965,597213,0
2096921,2096921,177941,597290,0
2096921,2096921,177733,597289,0
2096921,2096921,177770,597064,0
2096921,2096921,178075,596858,0
2096921,2096921,177697,597001,0
2096921,2096921,177663,596909,0
2096921,2096921,177714,597175,0
2096921,2096921,177812,596898,0
2096921,2096921,177674,597125,0
2096921,2096921,177774,596765,0
2096921,2096921,177698,596906,0
2096921,2096921,177924,596953,0
2096921,2096921,177885,597034,0
2096921,2096921,178024,596973,0
2096921,2096921,177901,596918,0
2096921,2096921,177655,596745,0
2096921,2096921,177536,597117,0
2096921,2096921,177626,596942,0
2096921,2096921,177510,596731,0
2096921,2096921,177425,596933,0
2096921,2096921,177532,596810,0
2096921,2096921,177712,596649,0
2096921,2096921,177421,596460,0
2096921,2096921,177364,595909,0
2096921,2096921,177267,595873,0
2096921,2096921,177420,595518,0
2096921,2096921,177272,595861,0
2096921,2096921,177231,595730,0
2096921,2096921,177262,595311,0
2096921,2096921,177161,595318,0
2096921,2096921,177298,595425,0
2096921,2096921,177279,595338,0
2096921,2096921,176863,595006,0
2096921,2096921,176553,594204,0
2096921,2096921,176450,593867,0
2096921,2096921,176607,593802,0
2096921,2096921,176591,594103,0
2096921,2096921,176217,593675,0
2096921,2096921,176113,592567,0
2096921,2096921,175883,592469,0
2096921,2096921,176279,592735,0
2096921,2096921,176350,592396,0
2096921,2096921,175655,592160,0
2096921,2096921,175298,591108,0
2096921,2096921,175427,591079,0
2096921,2096921,175397,590735,0
2096921,2096921,175257,591016,0
2096921,2096921,174247,590216,0
2096921,2096921,173969,587698,0
2096921,2096921,174215,587195,0
2096921,2096921,174108,587109,0
2096921,2096921,174146,587200,0
2096921,2096921,172809,586295,0
2096921,2096921,172148,583284,0
2096921,2096921,172207,582902,0
2096921,2096921,172327,582680,0
2096921,2096921,172059,582608,0
2096921,2096921,171258,582075,0
2096921,2096921,171119,580164,0
2096921,2096921,171137,579717,0
2096921,2096921,170835,579583,0
2096921,2096921,171130,579656,0
2096921,2096921,170099,579374,0
2096921,2096921,170363,577734,0
2096921,2096921,170336,576892,0
2096921,2096921,170495,577238,0
2096921,2096921,170170,577117,0
2096921,2096921,169620,576593,0
2096921,2096921,169261,575547,0
2096921,2096921,169284,575440,0
2096921,2096921,169516,575481,0
2096921,2096921,169384,575458,0
2096921,2096921,168976,575070,0
2096921,2096921,168907,574128,0
2096921,2096921,168857,573943,0
2096921,2096921,168668,573980,0
2096921,2096921,168929,573809,0
2096921,2096921,168651,573610,0
2096921,2096921,168564,572983,0
2096921,2096921,168577,573031,0
2096921,2096921,168623,573203,0
2096921,2096921,168829,573231,0
2096921,2096921,168313,572937,0
2096921,2096921,168394,572939,0
2096921,2096921,168403,572542,0
2096921,2096921,168342,572356,0
2096921,2096921,168302,572090,0
2096921,2096921,168280,572244,0
2096921,2096921,168284,572299,0
2096921,2096921,168238,572058,0
2096921,2096921,168227,572451,0
2096921,2096921,168289,572217,0
2096921,2096921,168350,572406,0
2096921,2096921,168316,572556,0
2096921,2096921,168426,572331,0
2096921,2096921,168157,572130,0
2096921,2096921,168313,572278,0
2096921,2096921,168401,572429,0
2096921,2096921,168620,572649,0
2096921,2096921,168331,572785,0
2096921,2096921,168373,572809,0
2096921,2096921,168120,572711,0
2096921,2096921,168251,572835,0
2096921,2096921,168293,572789,0
2096921,2096921,168567,572751,0
2096921,2096921,168257,572716,0
2096921,2096921,168488,572815,0
2096921,2096921,168423,572948,0
2096921,2096921,168566,572545,0
2096921,2096921,168433,572936,0
2096921,2096921,168612,573124,0
2096921,2096921,168552,573186,0
2096921,2096921,168754,573582,0
2096921,2096921,168876,573836,0
2096921,2096921,168719,573762,0
2096921,2096921,168625,573791,0
2096921,2096921,168693,573638,0
2096921,2096921,169029,574050,0
2096921,2096921,169064,574173,0
2096921,2096921,169036,574563,0
2096921,2096921,168989,574546,0
2096921,2096921,168928,574581,0
2096921,2096921,169330,574816,0
2096921,2096921,169396,575012,0
2096921,2096921,169298,575216,0
2096921,2096921,169138,575288,0
2096921,2096921,169070,575251,0
2096921,2096921,169499,575425,0
2096921,2096921,169525,576163,0
2096921,2096921,169704,576066,0
2096921,2096921,169552,576013,0
2096921,2096921,169785,576076,0
2096921,2096921,170049,576262,0
2096921,2096921,170206,576673,0
2096921,2096921,169870,576668,0
2096921,2096921,169681,577328,0
2096921,2096921,170055,577140,0
2096921,2096921,170151,577321,0
2096921,2096921,170098,577410,0
2096921,2096921,170245,577730,0
2096921,2096921,170183,577478,0
2096921,2096921,170331,577641,0
2096921,2096921,170637,577784,0
2096921,2096921,170522,578425,0
2096921,2096921,170428,578193,0
2096921,2096921,170272,578124,0
2096921,2096921,170314,578189,0
2096921,2096921,170615,578356,0
2096921,2096921,170773,578932,0
2096921,2096921,170733,578984,0
2096921,2096921,170734,578854,0
2096921,2096921,170825,579025,0
2096921,2096921,171056,579145,0
2096921,2096921,171037,579793,0
2096921,2096921,171015,579687,0
2096921,2096921,171178,579610,0
2096921,2096921,171497,579841,0
2096921,2096921,171395,580086,0
2096921,2096921,171506,580549,0
2096921,2096921,171592,580553,0
2096921,2096921,171356,580733,0
2096921,2096921,171466,580631,0
2096921,2096921,171666,580867,0
2096921,2096921,171724,581221,0
2096921,2096921,171882,581541,0
2096921,2096921,171622,581451,0
2096921,2096921,171694,581359,0
2096921,2096921,172017,581529,0
2096921,2096921,171914,582019,0
2096921,2096921,172293,582215,0
2096921,2096921,171999,582235,0
2096921,2096921,172334,582530,0
2096921,2096921,172258,582673,0
2096921,2096921,172321,583254,0
2096921,2096921,171931,582885,0
2096921,2096921,172443,582806,0
2096921,2096921,172011,582869,0
2096921,2096921,172344,582932,0
2096921,2096921,172146,583108,0
2096921,2096921,172666,583544,0
2096921,2096921,172565,583447,0
2096921,2096921,172489,583282,0
2096921,2096921,172861,583437,0
2096921,2096921,172747,583516,0
2096921,2096921,172743,583671,0
2096921,2096921,172646,583550,0
2096921,2096921,172516,583574,0
2096921,2096921,172711,583881,0
2096921,2096921,172618,583868,0
2096921,2096921,172631,584070,0
2096921,2096921,172673,584034,0
2096921,2096921,172935,583988,0
2096921,2096921,172992,584345,0
2096921,2096921,173067,584536,0
2096921,2096921,172726,584511,0
2096921,2096921,172785,584559,0
2096921,2096921,172818,584425,0
2096921,2096921,173134,584451,0
2096921,2096921,173143,584169,0
2096921,2096921,173093,584206,0
2096921,2096921,172528,584409,0
2096921,2096921,172599,584120,0
2096921,2096921,172745,584283,0
2096921,2096921,172987,584166,0
2096921,2096921,172822,584213,0
2096921,2096921,173089,584034,0
2096921,2096921,172950,584149,0
2096921,2096921,172761,584169,0
2096921,2096921,172783,584231,0
2096921,2096921,172951,584215,0
2096921,2096921,173017,584433,0
2096921,2096921,172987,584012,0
2096921,2096921,172862,584033,0
2096921,2096921,172950,584023,0
2096921,2096921,172812,584193,0
2096921,2096921,172706,583969,0
2096921,2096921,172478,584016,0
2096921,2096921,172489,583947,0
2096921,2096921,172660,583716,0
2096921,2096921,172852,583799,0
2096921,2096921,172615,583837,0
2096921,2096921,172674,583971,0
2096921,2096921,172784,584051,0
2096921,2096921,172745,583783,0
2096921,2096921,172920,583482,0
2096921,2096921,172704,583535,0
2096921,2096921,172786,583572,0
2096921,2096921,172811,583551,0
2096921,2096921,172697,583489,0
2096921,2096921,172539,583373,0
2096921,2096921,172324,583344,0
2096921,2096921,172556,583376,0
2096921,2096921,172575,583447,0
2096921,2096921,172411,583546,0
2096921,2096921,172443,583513,0
2096921,2096921,172634,583523,0
2096921,2096921,172733,583486,0
2096921,2096921,172511,583420,0
2096921,2096921,172779,583698,0
2096921,2096921,172624,583794,0
2096921,2096921,172601,583630,0
2096921,2096921,172403,583753,0
2096921,2096921,172683,583685,0
2096921,2096921,172472,584121,0
2096921,2096921,172643,584063,0
2096921,2096921,172769,583675,0
2096921,2096921,172590,583598,0
2096921,2096921,172737,583595,0
2096921,2096921,172879,583913,0
2096921,2096921,172809,584102,0
2096921,2096921,172809,583993,0
2096921,2096921,172857,584189,0
2096921,2096921,172994,584237,0
2096921,2096921,173075,584523,0
2096921,2096921,173087,584381,0
2096921,2096921,172886,584552,0
2096921,2096921,172955,584668,0
2096921,2096921,172873,584726,0
2096921,2096921,172914,584997,0
2096921,2096921,173135,585224,0
2096921,2096921,173292,585082,0
2096921,2096921,173086,585324,0
2096921,2096921,173398,585361,0
2096921,2096921,173510,586004,0
2096921,2096921,173361,585841,0
2096921,2096921,173231,585746,0
2096921,2096921,173451,586109,0
2096921,2096921,173656,585793,0
2096921,2096921,173939,586384,0
2096921,2096921,173804,586689,0
2096921,2096921,173821,586344,0
2096921,2096921,173665,586331,0
2096921,2096921,173589,586484,0
2096921,2096921,173914,586893,0
2096921,2096921,173890,587163,0
2096921,2096921,173562,587028,0
2096921,2096921,173756,586877,0
2096921,2096921,174151,587233,0
2096921,2096921,174069,587656,0
2096921,2096921,174228,587773,0
2096921,2096921,174212,587518,0
2096921,2096921,174188,587632,0
2096921,2096921,174495,587940,0
2096921,2096921,174395,588118,0
2096921,2096921,174423,588378,0
2096921,2096921,174375,588248,0
2096921,2096921,174578,588404,0
2096921,2096921,174387,588380,0
2096921,2096921,174771,588676,0
2096921,2096921,174341,588988,0
2096921,2096921,174511,589182,0
2096921,2096921,174635,588849,0
2096921,2096921,174756,589091,0
2096921,2096921,174733,589463,0
2096921,2096921,174622,589557,0
2096921,2096921,175088,589537,0
2096921,2096921,175073,589711,0
2096921,2096921,175453,589923,0
2096921,2096921,175215,590336,0
2096921,2096921,174960,590354,0
2096921,2096921,175127,590394,0
2096921,2096921,175205,590553,0
2096921,2096921,175647,590652,0
2096921,2096921,175434,590929,0
2096921,2096921,175491,591027,0
2096921,2096921,175437,591103,0
2096921,2096921,175206,590964,0
2096921,2096921,175647,591052,0
2096921,2096921,175749,591356,0
2096921,2096921,175575,591657,0
2096921,2096921,175566,591921,0
2096921,2096921,175743,591550,0
2096921,2096921,175505,591695,0
2096921,2096921,175751,592100,0
2096921,2096921,175436,591973,0
2096921,2096921,175778,592197,0
2096921,2096921,175617,592190,0
2096921,2096921,175951,592440,0
2096921,2096921,175979,592752,0
2096921,2096921,176088,592623,0
2096921,2096921,176297,592684,0
2096921,2096921,176023,592863,0
2096921,2096921,176193,592836,0
2096921,2096921,176240,593102,0
2096921,2096921,176420,593506,0
2096921,2096921,176667,593310,0
2096921,2096921,176324,593362,0
2096921,2096921,176381,593338,0
2096921,2096921,176249,594198,0
2096921,2096921,176506,594389,0
2096921,2096921,176488,594172,0
2096921,2096921,176830,594131,0
2096921,2096921,176818,594546,0
2096921,2096921,176628,594774,0
2096921,2096921,176943,594976,0
2096921,2096921,176793,594935,0
2096921,2096921,176643,594890,0
2096921,2096921,176905,594717,0
2096921,2096921,176975,595435,0
2096921,2096921,176974,595761,0
2096921,2096921,177182,595573,0
2096921,2096921,177177,595466,0
2096921,2096921,177058,595887,0
2096921,2096921,177125,595931,0
2096921,2096921,176870,596102,0
2096921,2096921,176796,595916,0
2096921,2096921,177072,596117,0
2096921,2096921,177262,596263,0
2096921,2096921,177555,596605,0
2096921,2096921,177821,596456,0
2096921,2096921,177393,596441,0
2096921,2096921,177375,596473,0
2096921,2096921,177868,597103,0
2096921,2096921,177336,597222,0
2096921,2096921,177503,597477,0
2096921,2096921,177626,597108,0
2096921,2096921,177783,597402,0
2096921,2096921,177859,597141,0
2096921,2096921,177784,597676,0
2096921,2096921,177834,597935,0
2096921,2096921,177832,598070,0
2096921,2096921,177806,598131,0
2096921,2096921,177796,597806,0
2096921,2096921,177862,598153,0
2096921,2096921,178025,598460,0
2096921,2096921,177956,598606,0
2096921,2096921,178328,598104,0
2096921,2096921,178201,598516,0
2096921,2096921,178314,598894,0
2096921,2096921,178231,598816,0
2096921,2096921,178416,598927,0
2096921,2096921,178126,598908,0
2096921,2096921,178522,599008,0
2096921,2096921,178500,599702,0
2096921,2096921,178629,599532,0
2096921,2096921,178409,599546,0
2096921,2096921,178278,599987,0
2096921,2096921,178690,599800,0
2096921,2096921,178484,600153,0
2096921,2096921,178612,600092,0
2096921,2096921,178651,600432,0
2096921,2096921,178615,600036,0
2096921,2096921,178962,600277,0
2096921,2096921,178845,600610,0
2096921,2096921,178715,600728,0
2096921,2096921,178616,600714,0
2096921,2096921,178777,600593,0
2096921,2096921,178894,600717,0
2096921,2096921,179000,601356,0
2096921,2096921,178707,601380,0
2096921,2096921,179065,601344,0
2096921,2096921,178947,601396,0
2096921,2096921,179247,601475,0
2096921,2096921,179070,601935,0
2096921,2096921,179412,601809,0
2096921,2096921,179204,601968,0
2096921,2096921,179267,601925,0
2096921,2096921,179330,601687,0
2096921,2096921,179361,602295,0
2096921,2096921,179243,602230,0
2096921,2096921,179156,602601,0
2096921,2096921,179248,602213,0
2096921,2096921,179548,602264,0
2096921,2096921,179489,603037,0
2096921,2096921,179312,602673,0
2096921,2096921,179587,603062,0
2096921,2096921,179388,602937,0
2096921,2096921,179536,602695,0
2096921,2096921,179859,603377,0
2096921,2096921,179534,603205,0
2096921,2096921,179731,603314,0
2096921,2096921,179726,603409,0
2096921,2096921,179882,603219,0
2096921,2096921,179955,603615,0
2096921,2096921,179785,603776,0
2096921,2096921,179466,603835,0
2096921,2096921,179767,603718,0
2096921,2096921,180085,603949,0
2096921,2096921,180359,604328,0
2096921,2096921,180239,604655,0
2096921,2096921,180171,604409,0
2096921,2096921,180312,604496,0
2096921,2096921,180145,604518,0
2096921,2096921,180101,604920,0
2096921,2096921,180108,604923,0
2096921,2096921,180087,604891,0
2096921,2096921,180189,604773,0
2096921,2096921,180560,605041,0
2096921,2096921,180224,605152,0
2096921,2096921,180335,605405,0
2096921,2096921,180436,605297,0
2096921,2096921,180414,605577,0
2096921,2096921,180582,605402,0
2096921,2096921,180389,605756,0
2096921,2096921,180669,605944,0
2096921,2096921,180458,606057,0
2096921,2096921,180528,605916,0
2096921,2096921,180641,605807,0
2096921,2096921,180734,606221,0
2096921,2096921,180713,606300,0
2096921,2096921,180653,606430,0
2096921,2096921,180713,606407,0
2096921,2096921,180897,606371,0
2096921,2096921,180743,606653,0
2096921,2096921,180865,607089,0
2096921,2096921,181087,607055,0
2096921,2096921,181030,606951,0
2096921,2096921,181115,606934,0
2096921,2096921,181104,607280,0
2096921,2096921,181209,607335,0
2096921,2096921,181028,607439,0
2096921,2096921,181364,607892,0
2096921,2096921,181259,607694,0
2096921,2096921,181420,607824,0
2096921,2096921,181020,607723,0
2096921,2096921,181342,607497,0
2096921,2096921,181246,607676,0
2096921,2096921,181417,607941,0
2096921,2096921,181375,608291,0
2096921,2096921,181405,608381,0
2096921,2096921,181277,608437,0
2096921,2096921,181293,608423,0
2096921,2096921,181447,608423,0
2096921,2096921,181580,608860,0
2096921,2096921,181359,608809,0
2096921,2096921,181580,608799,0
2096921,2096921,181418,608944,0
2096921,2096921,181551,608760,0
2096921,2096921,181735,609070,0
2096921,2096921,181840,609150,0
2096921,2096921,181730,609374,0
2096921,2096921,181941,609453,0
2096921,2096921,181520,609416,0
2096921,2096921,181768,609601,0
2096921,2096921,181717,609735,0
2096921,2096921,181761,609790,0
2096921,2096921,181657,609759,0
2096921,2096921,181655,609813,0
2096921,2096921,181911,609783,0
2096921,2096921,181932,609964,0
2096921,2096921,182153,610201,0
2096921,2096921,181912,610340,0
2096921,2096921,181963,610323,0
2096921,2096921,181926,610458,0
2096921,2096921,182015,610515,0
2096921,2096921,182061,610396,0
2096921,2096921,182081,610410,0
2096921,2096921,181986,610709,0
2096921,2096921,182085,610965,0
2096921,2096921,181958,610881,0
2096921,2096921,182233,611011,0
2096921,2096921,182231,611204,0
2096921,2096921,182340,611125,0
2096921,2096921,182455,611524,0
2096921,2096921,182444,611543,0
2096921,2096921,182402,611266,0
2096921,2096921,182573,611498,0
2096921,2096921,182374,611306,0
2096921,2096921,182466,611661,0
2096921,2096921,182435,611717,0
2096921,2096921,182592,612044,0
2096921,2096921,182206,611868,0
2096921,2096921,182578,612002,0
2096921,2096921,182771,612106,0
2096921,2096921,182429,612322,0
2096921,2096921,182463,612446,0
2096921,2096921,182351,612006,0
2096921,2096921,182293,611891,0
2096921,2096921,182824,612506,0
2096921,2096921,182821,612418,0
2096921,2096921,182749,612799,0
2096921,2096921,182798,612550,0
2096921,2096921,182863,612684,0
2096921,2096921,182850,612949,0
2096921,2096921,182513,612711,0
2096921,2096921,182531,612819,0
2096921,2096921,182527,612955,0
2096921,2096921,182722,612669,0
2096921,2096921,182803,613078,0
2096921,2096921,182883,613149,0
2096921,2096921,182853,613178,0
2096921,2096921,182826,613231,0
2096921,2096921,182719,613091,0
2096921,2096921,182587,613123,0
2096921,2096921,182581,612651,0
2096921,2096921,182515,612845,0
2096921,2096921,182542,612944,0
2096921,2096921,182268,612568,0
2096921,2096921,182675,612635,0
2096921,2096921,182539,612642,0
2096921,2096921,182751,612700,0
2096921,2096921,182652,612840,0
2096921,2096921,182552,612702,0
2096921,2096921,182149,612228,0
2096921,2096921,182177,611947,0
2096921,2096921,181742,611846,0
2096921,2096921,182223,611746,0
2096921,2096921,181999,611461,0
2096921,2096921,182018,610901,0
2096921,2096921,181767,610831,0
2096921,2096921,182040,610983,0
2096921,2096921,181968,610677,0
2096921,2096921,181275,610157,0
2096921,2096921,181415,609698,0
2096921,2096921,181421,609695,0
2096921,2096921,181214,609633,0
2096921,2096921,181146,609562,0
2096921,2096921,180263,608275,0
2096921,2096921,180038,606898,0
2096921,2096921,179928,606052,0
2096921,2096921,179856,606103,0
2096921,2096921,179967,606335,0
2096921,2096921,178874,604943,0
2096921,2096921,178411,603151,0
2096921,2096921,178169,602265,0
2096921,2096921,178128,601958,0
2096921,2096921,178065,601961,0
2096921,2096921,177381,600812,0
2096921,2096921,177207,599664,0
2096921,2096921,177283,599115,0
2096921,2096921,177410,599334,0
2096921,2096921,177391,599580,0
2096921,2096921,176769,598520,0
2096921,2096921,176419,597362,0
2096921,2096921,176051,596813,0
2096921,2096921,176136,596798,0
2096921,2096921,176059,597079,0
2096921,2096921,175569,596576,0
2096921,2096921,175653,595624,0
2096921,2096921,175491,595451,0
2096921,2096921,175678,595329,0
2096921,2096921,175549,595566,0
2096921,2096921,175013,595020,0
2096921,2096921,175022,594562,0
2096921,2096921,174981,594476,0
2096921,2096921,174863,594444,0
2096921,2096921,174636,594365,0
2096921,2096921,174764,594608,0
2096921,2096921,174756,593724,0
2096921,2096921,174988,593804,0
2096921,2096921,175096,593841,0
2096921,2096921,174885,593855,0
2096921,2096921,174845,593618,0
2096921,2096921,174727,593913,0
2096921,2096921,174894,593762,0
2096921,2096921,174895,593802,0
2096921,2096921,174645,593702,0
2096921,2096921,175056,593612,0
2096921,2096921,174865,593342,0
2096921,2096921,174817,593827,0
2096921,2096921,174656,593761,0
2096921,2096921,174673,593759,0
2096921,2096921,174775,593805,0
2096921,2096921,174734,593974,0
2096921,2096921,174783,593892,0
2096921,2096921,174711,594152,0
2096921,2096921,174876,594194,0
2096921,2096921,175035,594090,0
2096921,2096921,175099,594636,0
2096921,2096921,175106,594628,0
2096921,2096921,175217,594776,0
2096921,2096921,175290,594667,0
2096921,2096921,175181,594958,0
2096921,2096921,175336,595303,0
2096921,2096921,175076,595443,0
2096921,2096921,175206,595443,0
2096921,2096921,175235,595286,0
2096921,2096921,175372,595276,0
2096921,2096921,175627,595900,0
2096921,2096921,175565,596102,0
2096921,2096921,175340,595896,0
2096921,2096921,175584,595874,0
2096921,2096921,175917,596296,0
2096921,2096921,175886,596554,0
2096921,2096921,176200,596586,0
2096921,2096921,176078,596772,0
2096921,2096921,176206,596977,0
2096921,2096921,176215,597206,0
2096921,2096921,176195,597443,0
2096921,2096921,176199,597858,0
2096921,2096921,176286,597828,0
2096921,2096921,176228,597896,0
2096921,2096921,176639,598043,0
2096921,2096921,176661,598833,0
2096921,2096921,176618,598634,0
2096921,2096921,176691,599153,0
2096921,2096921,176670,599163,0
2096921,2096921,177108,599278,0
2096921,2096921,177006,599801,0
2096921,2096921,177123,599912,0
2096921,2096921,177055,600415,0
2096921,2096921,177127,600393,0
2096921,2096921,177555,600754,0
2096921,2096921,177765,601245,0
2096921,2096921,177688,601360,0
2096921,2096921,177597,601228,0
2096921,2096921,177400,601254,0
2096921,2096921,177662,601491,0
2096921,2096921,177828,602166,0
2096921,2096921,177814,602469,0
2096921,2096921,177957,602327,0
2096921,2096921,177992,602394,0
2096921,2096921,178056,602627,0
2096921,2096921,177983,603083,0
2096921,2096921,178176,603257,0
2096921,2096921,178169,603109,0
2096921,2096921,178231,603453,0
2096921,2096921,178317,603390,0
2096921,2096921,179038,604288,0
2096921,2096921,178956,604169,0
2096921,2096921,178997,604309,0
2096921,2096921,178852,604293,0
2096921,2096921,179142,604717,0
2096921,2096921,179097,605413,0
2096921,2096921,179011,605345,0
2096921,2096921,179072,605606,0
2096921,2096921,178946,605730,0
2096921,2096921,179416,605894,0
2096921,2096921,179603,606486,0
2096921,2096921,179663,606575,0
2096921,2096921,179440,606712,0
2096921,2096921,179563,606873,0
2096921,2096921,179800,607120,0
2096921,2096921,179961,607537,0
2096921,2096921,179903,607606,0
2096921,2096921,179966,607393,0
2096921,2096921,180000,607528,0
2096921,2096921,180117,607607,0
2096921,2096921,180241,608400,0
2096921,2096921,180284,608422,0
2096921,2096921,180308,608696,0
2096921,2096921,180284,608625,0
2096921,2096921,180740,608926,0
2096921,2096921,180575,609290,0
2096921,2096921,180546,609320,0
2096921,2096921,180620,609281,0
2096921,2096921,180538,609111,0
2096921,2096921,180723,609678,0
2096921,2096921,180885,610295,0
2096921,2096921,180940,610255,0
2096921,2096921,180787,610278,0
2096921,2096921,180917,610296,0
2096921,2096921,180918,610453,0
2096921,2096921,180863,610935,0
2096921,2096921,181121,610968,0
2096921,2096921,181067,611243,0
2096921,2096921,181235,611038,0
2096921,2096921,181283,611048,0
2096921,2096921,181362,611461,0
2096921,2096921,181221,611709,0
2096921,2096921,181384,611373,0
2096921,2096921,181401,611586,0
2096921,2096921,181413,611642,0
2096921,2096921,181413,612144,0
2096921,2096921,181350,612088,0
2096921,2096921,181437,612141,0
2096921,2096921,181329,612229,0
2096921,2096921,181587,611969,0
2096921,2096921,181810,612285,0
2096921,2096921,181722,612485,0
2096921,2096921,181725,612342,0
2096921,2096921,181893,612516,0
2096921,2096921,181746,612271,0
2096921,2096921,181732,612705,0
2096921,2096921,181724,612603,0
2096921,2096921,181653,612391,0
2096921,2096921,181499,612219,0
2096921,2096921,181720,612163,0
2096921,2096921,181584,612405,0
2096921,2096921,181549,612641,0
2096921,2096921,181523,612689,0
2096921,2096921,181511,612300,0
2096921,2096921,181547,612383,0
2096921,2096921,181414,612495,0
2096921,2096921,181622,612393,0
2096921,2096921,181661,612367,0
2096921,2096921,181586,612432,0
2096921,2096921,181479,612456,0
2096921,2096921,181527,612409,0
2096921,2096921,181643,612464,0
2096921,2096921,181497,612512,0
2096921,2096921,181604,612452,0
2096921,2096921,181700,612238,0
2096921,2096921,181840,612326,0
2096921,2096921,181577,612308,0
2096921,2096921,181437,612314,0
2096921,2096921,181361,612251,0
2096921,2096921,181381,612075,0
2096921,2096921,181547,612141,0
2096921,2096921,181740,612280,0
2096921,2096921,181562,612074,0
2096921,2096921,181618,612394,0
2096921,2096921,181553,612263,0
2096921,2096921,181427,612495,0
2096921,2096921,181309,612195,0
2096921,2096921,181567,612046,0
2096921,2096921,181388,612282,0
2096921,2096921,181500,612341,0
2096921,2096921,181428,612314,0
2096921,2096921,181642,612685,0
2096921,2096921,181707,612551,0
2096921,2096921,181363,612332,0
2096921,2096921,181668,612394,0
2096921,2096921,181643,612672,0
2096921,2096921,181476,612839,0
2096921,2096921,181456,612755,0
2096921,2096921,181451,612972,0
2096921,2096921,181671,612965,0
2096921,2096921,181479,612912,0
2096921,2096921,181781,612924,0
2096921,2096921,181750,613172,0
2096921,2096921,181713,613115,0
2096921,2096921,181776,613491,0
2096921,2096921,181760,613280,0
2096921,2096921,181792,613279,0
2096921,2096921,181913,613533,0
2096921,2096921,181681,613561,0
2096921,2096921,182156,613579,0
2096921,2096921,182347,614211,0
2096921,2096921,182365,614477,0
2096921,2096921,182000,614350,0
2096921,2096921,182274,614313,0
2096921,2096921,182323,614417,0
2096921,2096921,182557,614656,0
2096921,2096921,182227,614946,0
2096921,2096921,182471,614756,0
2096921,2096921,182280,614833,0
2096921,2096921,182200,614707,0
2096921,2096921,182396,615158,0
2096921,2096921,182591,615712,0
2096921,2096921,182787,615696,0
2096921,2096921,182925,615605,0
2096921,2096921,182838,616084,0
2096921,2096921,183082,616181,0
2096921,2096921,182817,616315,0
2096921,2096921,182836,615933,0
2096921,2096921,183025,615992,0
2096921,2096921,182905,615906,0
2096921,2096921,182893,616426,0
2096921,2096921,182950,616577,0
2096921,2096921,183214,616522,0
2096921,2096921,183038,616524,0
2096921,2096921,183685,616867,0
2096921,2096921,183354,617205,0
2096921,2096921,183300,617327,0
2096921,2096921,183347,617349,0
2096921,2096921,183215,617491,0
2096921,2096921,183373,617420,0
2096921,2096921,183439,617902,0
2096921,2096921,183643,617629,0
2096921,2096921,183768,617826,0
2096921,2096921,183549,617631,0
2096921,2096921,183781,617903,0
2096921,2096921,183673,618238,0
2096921,2096921,183629,618286,0
2096921,2096921,183281,618085,0
2096921,2096921,183766,618260,0
2096921,2096921,183664,618453,0
2096921,2096921,183848,618789,0
2096921,2096921,184066,618791,0
2096921,2096921,184213,618925,0
2096921,2096921,183859,618822,0
2096921,2096921,184169,619192,0
2096921,2096921,184006,619419,0
2096921,2096921,184122,619507,0
2096921,2096921,184232,619250,0
2096921,2096921,184138,619346,0
2096921,2096921,184087,619554,0
2096921,2096921,184559,619719,0
2096921,2096921,184061,619754,0
2096921,2096921,184281,619807,0
2096921,2096921,184158,619599,0
2096921,2096921,184249,619970,0
2096921,2096921,184284,619658,0
2096921,2096921,184499,620195,0
2096921,2096921,184372,620296,0
2096921,2096921,184543,620140,0
2096921,2096921,184350,620171,0
2096921,2096921,184680,620384,0
2096921,2096921,184389,620501,0
2096921,2096921,184758,620588,0
2096921,2096921,184630,620802,0
2096921,2096921,184759,621069,0
2096921,2096921,184448,621182,0
2096921,2096921,184657,621170,0
2096921,2096921,184607,621078,0
2096921,2096921,184697,621115,0
2096921,2096921,185086,621155,0
2096921,2096921,184860,621717,0
2096921,2096921,185059,621401,0
2096921,2096921,184754,621701,0
2096921,2096921,185065,621626,0
2096921,2096921,185244,621701,0
2096921,2096921,185059,621977,0
2096921,2096921,185079,621923,0
