2096921,2096921,161167,675468,0
2096921,2096921,161264,675536,0
2096921,2096921,161163,675551,0
2096921,2096921,160809,675570,0
2096921,2096921,160812,675379,0
2096921,2096921,160713,675160,0
2096921,2096921,160689,674864,0
2096921,2096921,160774,674979,0
2096921,2096921,160658,674572,0
2096921,2096921,160696,674517,0
2096921,2096921,160500,674707,0
2096921,2096921,160846,674443,0
2096921,2096921,160600,674153,0
2096921,2096921,160382,673873,0
2096921,2096921,160340,673666,0
2096921,2096921,160374,673842,0
2096921,2096921,160397,673483,0
2096921,2096921,160134,673935,0
2096921,2096921,160039,672779,0
2096921,2096921,160059,672425,0
2096921,2096921,159907,672581,0
2096921,2096921,160066,672704,0
2096921,2096921,160058,672492,0
2096921,2096921,159871,671643,0
2096921,2096921,159457,671795,0
2096921,2096921,159708,671499,0
2096921,2096921,159531,671538,0
2096921,2096921,159751,671336,0
2096921,2096921,158943,669388,0
2096921,2096921,158819,669165,0
2096921,2096921,158882,669220,0
2096921,2096921,158675,668623,0
2096921,2096921,158857,668941,0
2096921,2096921,158188,666551,0
2096921,2096921,158072,665804,0
2096921,2096921,158228,665947,0
2096921,2096921,157978,665523,0
2096921,2096921,158280,665918,0
2096921,2096921,157401,663919,0
2096921,2096921,157414,663664,0
2096921,2096921,157150,663478,0
2096921,2096921,157428,663243,0
2096921,2096921,157227,663496,0
2096921,2096921,156987,662199,0
2096921,2096921,156941,661926,0
2096921,2096921,156925,661678,0
2096921,2096921,156702,661798,0
2096921,2096921,156804,661833,0
2096921,2096921,156572,661018,0
2096921,2096921,156583,660586,0
2096921,2096921,156316,660409,0
2096921,2096921,156301,660374,0
2096921,2096921,156561,660390,0
2096921,2096921,156179,659870,0
2096921,2096921,156212,659373,0
2096921,2096921,156140,659258,0
2096921,2096921,156002,659415,0
2096921,2096921,156339,659289,0
2096921,2096921,155988,658769,0
2096921,2096921,155979,658439,0
2096921,2096921,155702,658613,0
2096921,2096921,155810,659050,0
2096921,2096921,155802,658830,0
2096921,2096921,155693,658469,0
2096921,2096921,155758,658419,0
2096921,2096921,155614,658294,0
2096921,2096921,155869,658228,0
2096921,2096921,155727,658375,0
2096921,2096921,155923,658036,0
2096921,2096921,156100,657977,0
2096921,2096921,155970,658094,0
2096921,2096921,155735,657828,0
2096921,2096921,155653,658129,0
2096921,2096921,155841,658417,0
2096921,2096921,155561,658041,0
2096921,2096921,155910,658034,0
2096921,2096921,155802,658260,0
2096921,2096921,155873,658119,0
2096921,2096921,155837,658069,0
2096921,2096921,155883,658332,0
2096921,2096921,155937,658199,0
2096921,2096921,155759,658343,0
2096921,2096921,155628,658243,0
2096921,2096921,155981,658678,0
2096921,2096921,155778,658532,0
2096921,2096921,156012,658535,0
2096921,2096921,155773,658622,0
2096921,2096921,155783,658551,0
2096921,2096921,155986,658671,0
2096921,2096921,155787,658317,0
2096921,2096921,155744,658629,0
2096921,2096921,155875,658513,0
2096921,2096921,155875,658590,0
2096921,2096921,155904,659154,0
2096921,2096921,156125,659132,0
2096921,2096921,156084,659204,0
2096921,2096921,156210,659047,0
2096921,2096921,156298,659260,0
2096921,2096921,156003,659344,0
2096921,2096921,156205,659527,0
2096921,2096921,155963,659460,0
2096921,2096921,156353,659380,0
2096921,2096921,156153,659685,0
2096921,2096921,156314,660117,0
2096921,2096921,156177,660221,0
2096921,2096921,156256,659868,0
2096921,2096921,156164,660138,0
2096921,2096921,155951,660173,0
2096921,2096921,156171,660665,0
2096921,2096921,156399,660422,0
2096921,2096921,156472,660605,0
2096921,2096921,156316,660696,0
2096921,2096921,156268,660391,0
2096921,2096921,156582,661309,0
2096921,2096921,156909,661079,0
2096921,2096921,156899,661225,0
2096921,2096921,156977,660827,0
2096921,2096921,157040,661258,0
2096921,2096921,156677,661526,0
2096921,2096921,156793,661638,0
2096921,2096921,156380,661686,0
2096921,2096921,156591,661588,0
2096921,2096921,156369,661742,0
2096921,2096921,156791,662128,0
2096921,2096921,156567,662229,0
2096921,2096921,156920,662336,0
2096921,2096921,156749,662232,0
2096921,2096921,156938,662008,0
2096921,2096921,157188,662429,0
2096921,2096921,157251,662492,0
2096921,2096921,157222,662555,0
2096921,2096921,156886,662718,0
2096921,2096921,157392,662765,0
2096921,2096921,157390,663082,0
2096921,2096921,157120,663340,0
2096921,2096921,157303,663143,0
2096921,2096921,157121,663100,0
2096921,2096921,157342,663043,0
2096921,2096921,157397,663537,0
2096921,2096921,157389,663671,0
2096921,2096921,157386,663554,0
2096921,2096921,157354,663801,0
2096921,2096921,157670,663522,0
2096921,2096921,157759,664084,0
2096921,2096921,157683,664244,0
2096921,2096921,157503,663947,0
2096921,2096921,157670,664174,0
2096921,2096921,157853,664098,0
2096921,2096921,157462,664474,0
2096921,2096921,157479,664626,0
2096921,2096921,157735,664738,0
2096921,2096921,157896,664625,0
2096921,2096921,157708,664422,0
2096921,2096921,157742,664964,0
2096921,2096921,157937,665034,0
2096921,2096921,158107,664880,0
2096921,2096921,157712,664918,0
2096921,2096921,157961,665053,0
2096921,2096921,158213,665464,0
2096921,2096921,158007,665266,0
2096921,2096921,158263,665418,0
2096921,2096921,158174,665684,0
2096921,2096921,158054,665466,0
2096921,2096921,158087,665742,0
2096921,2096921,157972,665646,0
2096921,2096921,158241,665939,0
2096921,2096921,157894,665913,0
2096921,2096921,158000,665868,0
2096921,2096921,158043,666114,0
2096921,2096921,158005,666100,0
2096921,2096921,158307,665716,0
2096921,2096921,158306,665916,0
2096921,2096921,158367,665912,0
2096921,2096921,158254,666085,0
2096921,2096921,158352,666367,0
2096921,2096921,158110,666318,0
2096921,2096921,157976,666196,0
2096921,2096921,158111,665907,0
2096921,2096921,158188,665977,0
2096921,2096921,158137,665898,0
2096921,2096921,158005,665759,0
2096921,2096921,157959,665731,0
2096921,2096921,157859,665870,0
2096921,2096921,157833,665944,0
2096921,2096921,157828,665819,0
2096921,2096921,158294,666018,0
2096921,2096921,158089,666102,0
2096921,2096921,158157,665967,0
2096921,2096921,158281,665909,0
2096921,2096921,157943,665698,0
2096921,2096921,157802,665780,0
2096921,2096921,157665,665776,0
2096921,2096921,157914,665534,0
2096921,2096921,157787,665569,0
2096921,2096921,157941,665616,0
2096921,2096921,157969,665763,0
2096921,2096921,157787,665554,0
2096921,2096921,158092,665275,0
2096921,2096921,157856,664977,0
2096921,2096921,157836,665177,0
2096921,2096921,157756,665339,0
2096921,2096921,157750,664986,0
2096921,2096921,157742,665071,0
2096921,2096921,157711,664921,0
2096921,2096921,157647,665051,0
2096921,2096921,157658,665021,0
2096921,2096921,157984,664960,0
2096921,2096921,157786,664978,0
2096921,2096921,157581,664793,0
2096921,2096921,157750,664616,0
2096921,2096921,157708,664793,0
2096921,2096921,157846,664757,0
2096921,2096921,157832,664466,0
2096921,2096921,157970,665011,0
2096921,2096921,157854,664714,0
2096921,2096921,158024,664364,0
2096921,2096921,157589,664632,0
2096921,2096921,157619,664704,0
2096921,2096921,157619,664471,0
2096921,2096921,158039,664212,0
2096921,2096921,157847,664256,0
2096921,2096921,157467,664357,0
2096921,2096921,157712,664644,0
2096921,2096921,157866,664555,0
2096921,2096921,157620,664673,0
2096921,2096921,157824,664704,0
2096921,2096921,157645,664897,0
2096921,2096921,157956,664432,0
2096921,2096921,157975,664572,0
2096921,2096921,157667,664693,0
2096921,2096921,157529,664390,0
2096921,2096921,157499,664500,0
2096921,2096921,157899,664673,0
2096921,2096921,157953,664875,0
2096921,2096921,157473,664973,0
2096921,2096921,157579,664660,0
2096921,2096921,157786,664779,0
2096921,2096921,157867,664806,0
2096921,2096921,157972,664921,0
2096921,2096921,157979,665083,0
2096921,2096921,158124,664894,0
2096921,2096921,158082,664966,0
2096921,2096921,157954,664896,0
2096921,2096921,158109,665597,0
2096921,2096921,158068,665473,0
2096921,2096921,157935,665559,0
2096921,2096921,158010,665448,0
2096921,2096921,157864,665450,0
2096921,2096921,158004,665696,0
2096921,2096921,158034,665626,0
2096921,2096921,158098,665757,0
2096921,2096921,158098,665947,0
2096921,2096921,157983,665672,0
2096921,2096921,158349,665795,0
2096921,2096921,158397,665996,0
2096921,2096921,158087,666202,0
2096921,2096921,158137,666085,0
2096921,2096921,158436,666034,0
2096921,2096921,158384,666192,0
2096921,2096921,158262,665905,0
2096921,2096921,158167,665936,0
2096921,2096921,158257,666138,0
2096921,2096921,158166,666083,0
2096921,2096921,158267,666478,0
2096921,2096921,158455,666501,0
2096921,2096921,158537,666587,0
2096921,2096921,158502,666789,0
2096921,2096921,158448,666402,0
2096921,2096921,158249,666739,0
2096921,2096921,158608,666732,0
2096921,2096921,158486,666794,0
2096921,2096921,158290,666719,0
2096921,2096921,158630,666635,0
2096921,2096921,158447,666912,0
2096921,2096921,158592,666837,0
2096921,2096921,158563,666902,0
2096921,2096921,158601,666876,0
2096921,2096921,158570,667029,0
2096921,2096921,158470,667100,0
2096921,2096921,158328,667212,0
2096921,2096921,158474,667318,0
2096921,2096921,158540,667046,0
2096921,2096921,158471,667252,0
2096921,2096921,158595,667426,0
2096921,2096921,158607,667479,0
2096921,2096921,158583,667349,0
2096921,2096921,158353,667517,0
2096921,2096921,158506,667399,0
2096921,2096921,158837,667194,0
2096921,2096921,158479,667622,0
2096921,2096921,158571,667663,0
2096921,2096921,158679,668019,0
2096921,2096921,158401,667622,0
2096921,2096921,158631,667937,0
2096921,2096921,158626,668086,0
2096921,2096921,158815,667953,0
2096921,2096921,158740,667953,0
2096921,2096921,158733,667860,0
2096921,2096921,158604,667798,0
2096921,2096921,158716,667981,0
2096921,2096921,158815,667667,0
2096921,2096921,158632,667856,0
2096921,2096921,158752,668025,0
2096921,2096921,158724,668277,0
2096921,2096921,158806,668400,0
2096921,2096921,158735,668237,0
2096921,2096921,159028,668173,0
2096921,2096921,158872,668250,0
2096921,2096921,159327,668206,0
2096921,2096921,159369,668163,0
2096921,2096921,159042,668257,0
2096921,2096921,159152,668145,0
2096921,2096921,159045,668171,0
2096921,2096921,159201,668512,0
2096921,2096921,159144,669041,0
2096921,2096921,159268,668903,0
2096921,2096921,158836,668926,0
2096921,2096921,159051,668457,0
2096921,2096921,158842,668478,0
2096921,2096921,159043,668566,0
2096921,2096921,158992,668817,0
2096921,2096921,158817,668880,0
2096921,2096921,159263,668885,0
2096921,2096921,159041,669041,0
2096921,2096921,158926,669071,0
2096921,2096921,159199,669042,0
2096921,2096921,159322,668905,0
2096921,2096921,159159,668884,0
2096921,2096921,159330,669283,0
2096921,2096921,159262,669290,0
2096921,2096921,158861,669133,0
2096921,2096921,158894,668851,0
2096921,2096921,159032,669101,0
2096921,2096921,158989,669384,0
2096921,2096921,159287,669365,0
2096921,2096921,159480,669194,0
2096921,2096921,159521,669232,0
2096921,2096921,159380,669134,0
2096921,2096921,159312,669050,0
2096921,2096921,159095,669159,0
2096921,2096921,159114,669249,0
2096921,2096921,159265,669306,0
2096921,2096921,159388,669110,0
2096921,2096921,159181,669303,0
2096921,2096921,159310,669538,0
2096921,2096921,159565,669407,0
2096921,2096921,159225,669571,0
2096921,2096921,159225,669217,0
2096921,2096921,159441,669720,0
2096921,2096921,159028,669613,0
2096921,2096921,158991,669556,0
2096921,2096921,159053,669421,0
2096921,2096921,159520,669657,0
2096921,2096921,159340,669895,0
2096921,2096921,159444,670015,0
2096921,2096921,159020,669733,0
2096921,2096921,159340,669854,0
2096921,2096921,159426,669526,0
2096921,2096921,159366,669950,0
2096921,2096921,159598,669892,0
2096921,2096921,159602,669852,0
2096921,2096921,159780,669644,0
2096921,2096921,159420,670028,0
2096921,2096921,159410,670061,0
2096921,2096921,159526,670010,0
2096921,2096921,159471,669993,0
2096921,2096921,159684,670044,0
2096921,2096921,159689,670011,0
2096921,2096921,159488,669717,0
2096921,2096921,159492,669771,0
2096921,2096921,159589,669942,0
2096921,2096921,159445,669995,0
2096921,2096921,159343,669924,0
2096921,2096921,159476,670017,0
2096921,2096921,159725,669824,0
2096921,2096921,159836,669890,0
2096921,2096921,159542,669818,0
2096921,2096921,159610,669766,0
2096921,2096921,159236,669917,0
2096921,2096921,159450,669910,0
2096921,2096921,159334,669989,0
2096921,2096921,159391,670287,0
2096921,2096921,159423,669944,0
2096921,2096921,159493,670142,0
2096921,2096921,159462,670040,0
2096921,2096921,159349,669952,0
2096921,2096921,159636,670113,0
2096921,2096921,159646,669969,0
2096921,2096921,159467,669788,0
2096921,2096921,159464,670010,0
2096921,2096921,159319,669860,0
2096921,2096921,159503,669966,0
2096921,2096921,159555,670005,0
2096921,2096921,159322,670112,0
2096921,2096921,159124,670153,0
2096921,2096921,159586,670163,0
2096921,2096921,159351,670229,0
2096921,2096921,159552,670362,0
2096921,2096921,159621,670048,0
2096921,2096921,159506,670375,0
2096921,2096921,159360,669967,0
2096921,2096921,159437,670099,0
2096921,2096921,159524,670266,0
2096921,2096921,159302,670287,0
2096921,2096921,159500,670501,0
2096921,2096921,159675,670390,0
2096921,2096921,159450,670389,0
2096921,2096921,159290,670263,0
2096921,2096921,159536,670170,0
2096921,2096921,159453,670178,0
2096921,2096921,159579,670218,0
2096921,2096921,159415,670426,0
2096921,2096921,159497,670428,0
2096921,2096921,159481,670203,0
2096921,2096921,159542,670386,0
2096921,2096921,159514,670285,0
2096921,2096921,159869,670392,0
2096921,2096921,159609,670172,0
2096921,2096921,159593,670300,0
2096921,2096921,159478,670080,0
2096921,2096921,159597,670322,0
2096921,2096921,159670,670258,0
2096921,2096921,159411,670373,0
2096921,2096921,159478,670397,0
2096921,2096921,159361,670240,0
2096921,2096921,159718,670595,0
2096921,2096921,159353,670524,0
2096921,2096921,159505,670394,0
2096921,2096921,159585,670261,0
2096921,2096921,159864,670177,0
2096921,2096921,159780,670120,0
2096921,2096921,159593,670531,0
2096921,2096921,159883,670351,0
2096921,2096921,159643,670205,0
2096921,2096921,159763,670337,0
2096921,2096921,159700,670024,0
2096921,2096921,159511,670311,0
2096921,2096921,159722,670359,0
2096921,2096921,159504,670306,0
2096921,2096921,159667,670290,0
2096921,2096921,159443,670383,0
2096921,2096921,159476,670107,0
2096921,2096921,159274,670270,0
2096921,2096921,159785,670533,0
2096921,2096921,159506,670641,0
2096921,2096921,159894,670338,0
2096921,2096921,159887,670360,0
2096921,2096921,159607,670200,0
2096921,2096921,159549,670049,0
2096921,2096921,159882,670113,0
2096921,2096921,159749,670156,0
2096921,2096921,159631,670186,0
2096921,2096921,159610,670199,0
2096921,2096921,159528,670615,0
2096921,2096921,159576,670374,0
2096921,2096921,159762,670582,0
2096921,2096921,159611,670083,0
2096921,2096921,159761,670267,0
2096921,2096921,159711,670307,0
2096921,2096921,159454,670271,0
2096921,2096921,159530,670122,0
2096921,2096921,159470,669977,0
2096921,2096921,159369,670181,0
2096921,2096921,159446,669884,0
2096921,2096921,159640,670042,0
2096921,2096921,159592,670035,0
2096921,2096921,159390,669924,0
2096921,2096921,159502,670335,0
2096921,2096921,159699,670187,0
2096921,2096921,159546,669817,0
2096921,2096921,159393,669714,0
2096921,2096921,159653,670104,0
2096921,2096921,159623,670102,0
2096921,2096921,159879,670105,0
2096921,2096921,159590,670160,0
2096921,2096921,159393,669922,0
2096921,2096921,159528,669907,0
2096921,2096921,159531,669895,0
2096921,2096921,159473,669980,0
2096921,2096921,159792,669937,0
2096921,2096921,159384,669899,0
2096921,2096921,159557,670002,0
2096921,2096921,159259,669884,0
2096921,2096921,159405,670007,0
2096921,2096921,159587,669659,0
2096921,2096921,159522,669743,0
2096921,2096921,159751,669646,0
2096921,2096921,159437,669867,0
2096921,2096921,159537,669758,0
2096921,2096921,159352,669540,0
2096921,2096921,159546,669985,0
2096921,2096921,159402,669729,0
2096921,2096921,159590,669755,0
2096921,2096921,159460,669893,0
2096921,2096921,159190,669696,0
2096921,2096921,159715,669740,0
2096921,2096921,159463,669803,0
2096921,2096921,159204,669663,0
2096921,2096921,159646,669611,0
2096921,2096921,159456,669653,0
2096921,2096921,159640,669695,0
2096921,2096921,159486,669673,0
2096921,2096921,159326,669628,0
2096921,2096921,159201,669093,0
2096921,2096921,159173,669089,0
2096921,2096921,159471,669101,0
2096921,2096921,159205,669237,0
2096921,2096921,159148,668821,0
2096921,2096921,158976,668890,0
2096921,2096921,158875,668561,0
2096921,2096921,159003,668774,0
2096921,2096921,159060,668455,0
2096921,2096921,159112,668677,0
2096921,2096921,158961,668106,0
2096921,2096921,159022,667607,0
2096921,2096921,158736,667635,0
2096921,2096921,158934,667360,0
2096921,2096921,159229,667519,0
2096921,2096921,158780,666748,0
2096921,2096921,158414,666368,0
2096921,2096921,158597,666606,0
2096921,2096921,158430,666638,0
2096921,2096921,158284,666684,0
2096921,2096921,158036,665788,0
2096921,2096921,158041,665835,0
2096921,2096921,158148,665674,0
2096921,2096921,158268,665601,0
2096921,2096921,158334,665340,0
2096921,2096921,157615,663211,0
2096921,2096921,157499,662858,0
2096921,2096921,157646,663117,0
2096921,2096921,157663,662632,0
2096921,2096921,157512,662935,0
2096921,2096921,156761,660451,0
2096921,2096921,156500,660031,0
2096921,2096921,156591,659770,0
2096921,2096921,156699,659858,0
2096921,2096921,156807,659768,0
2096921,2096921,156028,657875,0
2096921,2096921,155641,657614,0
2096921,2096921,155571,657352,0
2096921,2096921,155661,657351,0
2096921,2096921,155750,657589,0
2096921,2096921,155297,656008,0
2096921,2096921,155465,655490,0
2096921,2096921,155244,655715,0
2096921,2096921,155306,655548,0
2096921,2096921,155247,655453,0
2096921,2096921,155215,654288,0
2096921,2096921,155004,653693,0
2096921,2096921,154769,653992,0
2096921,2096921,154570,654266,0
2096921,2096921,154860,654029,0
2096921,2096921,154635,653622,0
2096921,2096921,154642,653073,0
2096921,2096921,154645,653093,0
2096921,2096921,154506,653206,0
2096921,2096921,154386,653408,0
2096921,2096921,154416,652757,0
2096921,2096921,154357,652346,0
2096921,2096921,154473,652388,0
2096921,2096921,154441,652528,0
2096921,2096921,154549,652902,0
2096921,2096921,154434,652041,0
2096921,2096921,154423,652135,0
2096921,2096921,154325,652184,0
2096921,2096921,154128,651830,0
2096921,2096921,154166,652029,0
2096921,2096921,154156,651893,0
2096921,2096921,154240,651780,0
2096921,2096921,154094,651947,0
2096921,2096921,154265,651534,0
2096921,2096921,154277,651868,0
2096921,2096921,154277,651690,0
2096921,2096921,154050,651675,0
2096921,2096921,153910,652020,0
2096921,2096921,153878,651942,0
2096921,2096921,154334,651992,0
2096921,2096921,154298,651838,0
2096921,2096921,154126,652005,0
2096921,2096921,154082,652174,0
2096921,2096921,154304,652326,0
2096921,2096921,154444,652064,0
2096921,2096921,154340,652214,0
2096921,2096921,154325,652186,0
2096921,2096921,154512,652323,0
2096921,2096921,154186,652086,0
2096921,2096921,154210,652228,0
2096921,2096921,154379,652239,0
2096921,2096921,154635,652184,0
2096921,2096921,154373,652255,0
2096921,2096921,154105,652412,0
2096921,2096921,154153,652354,0
2096921,2096921,154332,652829,0
2096921,2096921,154667,653033,0
2096921,2096921,154571,652846,0
2096921,2096921,154476,653005,0
2096921,2096921,154722,652803,0
2096921,2096921,154750,652887,0
2096921,2096921,154544,653148,0
2096921,2096921,154564,653178,0
2096921,2096921,154624,653331,0
2096921,2096921,154821,653307,0
2096921,2096921,154784,653618,0
2096921,2096921,154825,653732,0
2096921,2096921,154983,653935,0
2096921,2096921,154955,653769,0
2096921,2096921,154665,653760,0
2096921,2096921,154794,654271,0
2096921,2096921,154589,654341,0
2096921,2096921,154810,654383,0
2096921,2096921,154955,654342,0
2096921,2096921,154871,654526,0
2096921,2096921,154840,654642,0
2096921,2096921,154998,654909,0
2096921,2096921,155287,654915,0
2096921,2096921,155260,655161,0
2096921,2096921,155279,654890,0
2096921,2096921,155234,655134,0
2096921,2096921,155299,655097,0
2096921,2096921,154995,655157,0
2096921,2096921,155149,655536,0
2096921,2096921,155289,655419,0
2096921,2096921,155534,655760,0
2096921,2096921,155394,655791,0
2096921,2096921,155386,655607,0
2096921,2096921,155459,655729,0
2096921,2096921,155394,655690,0
2096921,2096921,155656,656451,0
2096921,2096921,155571,656378,0
2096921,2096921,155513,656264,0
2096921,2096921,155417,656669,0
2096921,2096921,155219,656456,0
2096921,2096921,155414,657103,0
2096921,2096921,155718,657146,0
2096921,2096921,155767,656809,0
2096921,2096921,155695,656719,0
2096921,2096921,155897,656988,0
2096921,2096921,155833,657223,0
2096921,2096921,156163,657401,0
2096921,2096921,156288,657435,0
2096921,2096921,155787,657819,0
2096921,2096921,156057,657496,0
2096921,2096921,155982,658134,0
2096921,2096921,156015,657944,0
2096921,2096921,155698,658166,0
2096921,2096921,156113,658083,0
2096921,2096921,156194,658309,0
2096921,2096921,156190,658646,0
2096921,2096921,156267,658726,0
2096921,2096921,156075,658858,0
2096921,2096921,156071,658789,0
2096921,2096921,155985,658913,0
2096921,2096921,155945,659155,0
2096921,2096921,156134,658996,0
2096921,2096921,156404,659001,0
2096921,2096921,156169,658964,0
2096921,2096921,156063,658910,0
2096921,2096921,156539,659185,0
2096921,2096921,156185,659395,0
2096921,2096921,156290,659468,0
2096921,2096921,156384,659773,0
2096921,2096921,156430,659738,0
2096921,2096921,156212,659853,0
2096921,2096921,156292,659887,0
2096921,2096921,156180,659872,0
2096921,2096921,156360,659954,0
2096921,2096921,156679,659946,0
2096921,2096921,156751,659936,0
2096921,2096921,156836,660096,0
2096921,2096921,156636,660121,0
2096921,2096921,156662,659953,0
2096921,2096921,156586,659894,0
2096921,2096921,156609,660051,0
2096921,2096921,156890,659831,0
2096921,2096921,156659,660595,0
2096921,2096921,156624,660499,0
2096921,2096921,156577,660282,0
2096921,2096921,156577,660203,0
2096921,2096921,156754,660074,0
2096921,2096921,156590,660246,0
2096921,2096921,156906,660206,0
2096921,2096921,156489,660230,0
2096921,2096921,156588,660324,0
2096921,2096921,156727,660101,0
2096921,2096921,156515,660450,0
2096921,2096921,156866,660279,0
2096921,2096921,156758,659848,0
2096921,2096921,156714,659855,0
2096921,2096921,156776,659926,0
2096921,2096921,156800,659692,0
2096921,2096921,156331,660094,0
2096921,2096921,156481,659984,0
2096921,2096921,156498,660013,0
2096921,2096921,156455,660012,0
2096921,2096921,156609,659932,0
2096921,2096921,156478,659910,0
2096921,2096921,156506,660128,0
2096921,2096921,156463,659896,0
2096921,2096921,156567,659616,0
2096921,2096921,156388,659694,0
2096921,2096921,156429,659760,0
2096921,2096921,156624,659814,0
2096921,2096921,156461,659741,0
2096921,2096921,156629,659752,0
2096921,2096921,156642,659570,0
2096921,2096921,156559,659604,0
2096921,2096921,156334,659638,0
2096921,2096921,156234,659552,0
2096921,2096921,156254,659530,0
2096921,2096921,156391,659506,0
2096921,2096921,156636,659590,0
2096921,2096921,156491,659211,0
2096921,2096921,156506,659507,0
2096921,2096921,156171,659418,0
2096921,2096921,156511,659461,0
2096921,2096921,156636,659285,0
2096921,2096921,156417,659101,0
2096921,2096921,156397,659291,0
2096921,2096921,156307,659217,0
2096921,2096921,156277,659057,0
2096921,2096921,156046,659172,0
2096921,2096921,156319,659324,0
2096921,2096921,156186,659190,0
2096921,2096921,156523,659474,0
2096921,2096921,156344,659338,0
2096921,2096921,156381,659511,0
2096921,2096921,156434,659573,0
2096921,2096921,156558,659585,0
2096921,2096921,156650,659602,0
2096921,2096921,156422,659551,0
2096921,2096921,156466,659605,0
2096921,2096921,156720,659580,0
2096921,2096921,156589,659641,0
2096921,2096921,156589,659872,0
2096921,2096921,156896,659796,0
2096921,2096921,156631,659825,0
2096921,2096921,156635,659641,0
2096921,2096921,156785,660091,0
2096921,2096921,156487,660176,0
2096921,2096921,156492,660272,0
2096921,2096921,156311,660088,0
2096921,2096921,156779,660160,0
2096921,2096921,157001,660417,0
2096921,2096921,156909,660501,0
2096921,2096921,156784,660538,0
2096921,2096921,156693,660541,0
2096921,2096921,156809,660461,0
2096921,2096921,156967,660460,0
2096921,2096921,156985,660838,0
2096921,2096921,156889,660850,0
2096921,2096921,156868,661050,0
2096921,2096921,156891,661057,0
2096921,2096921,156723,661110,0
2096921,2096921,157221,661406,0
2096921,2096921,156958,661383,0
2096921,2096921,157031,661146,0
2096921,2096921,156774,661265,0
2096921,2096921,156868,661470,0
2096921,2096921,157058,661566,0
2096921,2096921,157182,661534,0
2096921,2096921,157193,661393,0
2096921,2096921,156935,661723,0
2096921,2096921,157087,661749,0
2096921,2096921,157168,661798,0
2096921,2096921,157232,661956,0
2096921,2096921,156906,662005,0
2096921,2096921,157133,662178,0
2096921,2096921,157166,662436,0
2096921,2096921,157254,662140,0
2096921,2096921,157499,662317,0
2096921,2096921,157185,662290,0
2096921,2096921,157397,662282,0
2096921,2096921,157291,662549,0
2096921,2096921,157284,662298,0
2096921,2096921,157453,662480,0
2096921,2096921,157424,662423,0
2096921,2096921,157271,662383,0
2096921,2096921,157446,662697,0
2096921,2096921,157509,662393,0
2096921,2096921,157540,662670,0
2096921,2096921,157341,662984,0
2096921,2096921,157524,663074,0
2096921,2096921,157540,663126,0
2096921,2096921,157795,663164,0
2096921,2096921,157410,663238,0
2096921,2096921,157403,663317,0
2096921,2096921,157344,663394,0
2096921,2096921,157565,663796,0
2096921,2096921,157621,663536,0
2096921,2096921,157719,663199,0
2096921,2096921,157597,663369,0
2096921,2096921,157345,663488,0
2096921,2096921,157739,663614,0
2096921,2096921,157927,663419,0
2096921,2096921,157812,663733,0
2096921,2096921,157739,663594,0
2096921,2096921,157661,663918,0
2096921,2096921,157634,664507,0
2096921,2096921,158045,663783,0
2096921,2096921,157666,664219,0
2096921,2096921,157609,664138,0
2096921,2096921,157675,664001,0
2096921,2096921,157909,664195,0
2096921,2096921,157961,664351,0
2096921,2096921,157795,664428,0
2096921,2096921,158097,664320,0
2096921,2096921,157773,664204,0
2096921,2096921,157948,664426,0
2096921,2096921,157789,664725,0
2096921,2096921,157668,664762,0
2096921,2096921,157956,664422,0
2096921,2096921,158041,664442,0
2096921,2096921,157932,664997,0
2096921,2096921,157961,665137,0
2096921,2096921,157993,665051,0
2096921,2096921,158205,664872,0
2096921,2096921,157875,665099,0
2096921,2096921,158037,665188,0
2096921,2096921,158046,665201,0
2096921,2096921,158053,665283,0
2096921,2096921,158045,665207,0
2096921,2096921,158152,665255,0
2096921,2096921,158349,665328,0
2096921,2096921,158400,665493,0
2096921,2096921,158210,665196,0
2096921,2096921,157998,665451,0
2096921,2096921,158023,665432,0
2096921,2096921,158179,665565,0
2096921,2096921,158426,665565,0
2096921,2096921,158217,665790,0
2096921,2096921,157937,665556,0
2096921,2096921,158276,665862,0
2096921,2096921,158336,665886,0
2096921,2096921,158592,665542,0
2096921,2096921,158459,665847,0
2096921,2096921,158418,665936,0
2096921,2096921,158242,666428,0
2096921,2096921,158410,666178,0
2096921,2096921,158574,666245,0
2096921,2096921,158466,666168,0
2096921,2096921,158400,666085,0
2096921,2096921,158227,666317,0
2096921,2096921,158517,666541,0
2096921,2096921,158446,666703,0
2096921,2096921,158512,666435,0
2096921,2096921,158417,666502,0
2096921,2096921,158330,666244,0
2096921,2096921,158568,666821,0
2096921,2096921,158503,666747,0
2096921,2096921,158759,667012,0
2096921,2096921,158581,666956,0
2096921,2096921,158450,666897,0
2096921,2096921,158762,667043,0
2096921,2096921,158655,666573,0
2096921,2096921,159131,666799,0
2096921,2096921,158644,666890,0
2096921,2096921,158434,666696,0
2096921,2096921,158513,667060,0
2096921,2096921,158675,667042,0
2096921,2096921,158438,666816,0
2096921,2096921,158409,667172,0
2096921,2096921,159031,667255,0
2096921,2096921,158994,667324,0
2096921,2096921,158808,667119,0
2096921,2096921,158625,667276,0
2096921,2096921,158874,667298,0
2096921,2096921,158691,667031,0
2096921,2096921,158776,667017,0
2096921,2096921,158733,667009,0
2096921,2096921,159102,667131,0
2096921,2096921,158870,667454,0
2096921,2096921,158743,667560,0
2096921,2096921,158969,667575,0
2096921,2096921,158643,667793,0
2096921,2096921,159051,667735,0
2096921,2096921,159008,667509,0
2096921,2096921,158781,667259,0
2096921,2096921,158763,667849,0
2096921,2096921,158824,667700,0
2096921,2096921,158803,667890,0
2096921,2096921,158900,667762,0
2096921,2096921,158555,667811,0
2096921,2096921,158947,667681,0
2096921,2096921,159251,667523,0
2096921,2096921,159088,667678,0
2096921,2096921,158888,667764,0
2096921,2096921,158726,667941,0
2096921,2096921,158874,668137,0
2096921,2096921,158925,667932,0
2096921,2096921,158860,668086,0
2096921,2096921,158821,668247,0
2096921,2096921,158843,667948,0
2096921,2096921,159093,668191,0
2096921,2096921,159100,668307,0
2096921,2096921,159194,668144,0
2096921,2096921,159173,668274,0
2096921,2096921,159224,668028,0
2096921,2096921,159178,668393,0
2096921,2096921,159054,668494,0
2096921,2096921,159247,668445,0
2096921,2096921,158935,668574,0
2096921,2096921,158857,668481,0
2096921,2096921,158993,668666,0
2096921,2096921,159233,668821,0
2096921,2096921,159214,668923,0
2096921,2096921,158806,668687,0
2096921,2096921,159105,668716,0
2096921,2096921,158952,668890,0
2096921,2096921,159090,668911,0
2096921,2096921,159199,668958,0
2096921,2096921,159223,668757,0
2096921,2096921,159367,668868,0
2096921,2096921,159146,668722,0
2096921,2096921,159388,668762,0
2096921,2096921,159124,668778,0
2096921,2096921,159061,668587,0
2096921,2096921,159083,668711,0
2096921,2096921,159149,668753,0
2096921,2096921,159141,669129,0
2096921,2096921,159189,669017,0
2096921,2096921,158857,669089,0
2096921,2096921,159017,668845,0
2096921,2096921,159215,669049,0
2096921,2096921,159342,669037,0
2096921,2096921,159292,668799,0
2096921,2096921,159395,669284,0
2096921,2096921,159454,668998,0
2096921,2096921,159312,669361,0
2096921,2096921,159524,669193,0
2096921,2096921,159425,669137,0
2096921,2096921,159221,669174,0
2096921,2096921,159297,669206,0
2096921,2096921,159446,669879,0
2096921,2096921,159249,669573,0
2096921,2096921,159134,669664,0
2096921,2096921,159387,669303,0
2096921,2096921,159292,669691,0
2096921,2096921,159212,669387,0
2096921,2096921,159685,669448,0
2096921,2096921,159493,669733,0
2096921,2096921,159531,669773,0
2096921,2096921,159546,669550,0
2096921,2096921,159333,669513,0
2096921,2096921,159492,669586,0
2096921,2096921,159441,669441,0
2096921,2096921,159472,669654,0
2096921,2096921,159179,670038,0
2096921,2096921,159130,669634,0
2096921,2096921,159337,670036,0
2096921,2096921,159434,669946,0
2096921,2096921,159380,670134,0
2096921,2096921,159390,669747,0
2096921,2096921,159627,670143,0
2096921,2096921,159508,669887,0
2096921,2096921,159697,670074,0
2096921,2096921,159763,670137,0
2096921,2096921,159265,669957,0
2096921,2096921,159154,670426,0
2096921,2096921,159384,670103,0
2096921,2096921,159266,670173,0
2096921,2096921,159434,670028,0
2096921,2096921,159746,670040,0
2096921,2096921,159586,670024,0
2096921,2096921,160016,670413,0
2096921,2096921,159622,670321,0
2096921,2096921,159543,670185,0
2096921,2096921,159568,670232,0
2096921,2096921,159309,670063,0
2096921,2096921,159418,670137,0
2096921,2096921,159483,670428,0
2096921,2096921,159300,670181,0
2096921,2096921,159359,670273,0
2096921,2096921,159754,670392,0
2096921,2096921,159617,670365,0
2096921,2096921,159547,670425,0
2096921,2096921,160007,670119,0
2096921,2096921,159822,670222,0
2096921,2096921,160023,670389,0
2096921,2096921,159546,670539,0
2096921,2096921,159785,670074,0
2096921,2096921,159663,670159,0
2096921,2096921,159707,670394,0
2096921,2096921,159930,670543,0
2096921,2096921,159636,670250,0
2096921,2096921,159878,670310,0
2096921,2096921,159858,670715,0
2096921,2096921,159748,670444,0
2096921,2096921,159760,670581,0
2096921,2096921,159369,670818,0
2096921,2096921,159484,670714,0
2096921,2096921,159720,670937,0
2096921,2096921,159633,670609,0
2096921,2096921,159748,670773,0
2096921,2096921,159760,670810,0
2096921,2096921,160050,670580,0
2096921,2096921,159794,670364,0
2096921,2096921,159620,670376,0
2096921,2096921,159641,670562,0
2096921,2096921,159771,670686,0
2096921,2096921,159761,670680,0
2096921,2096921,159331,670690,0
2096921,2096921,159487,670636,0
2096921,2096921,159681,670620,0
2096921,2096921,159581,670314,0
2096921,2096921,159350,670161,0
2096921,2096921,159504,670185,0
2096921,2096921,159571,669978,0
2096921,2096921,159741,670218,0
2096921,2096921,159646,669816,0
2096921,2096921,159391,669786,0
2096921,2096921,159418,669935,0
2096921,2096921,159511,669806,0
2096921,2096921,159205,669441,0
2096921,2096921,159504,668803,0
2096921,2096921,159472,669094,0
2096921,2096921,159341,669107,0
2096921,2096921,159245,668975,0
2096921,2096921,158713,668468,0
2096921,2096921,159014,668442,0
2096921,2096921,158794,668363,0
2096921,2096921,159255,668362,0
2096921,2096921,158709,668177,0
2096921,2096921,158520,667179,0
2096921,2096921,158703,667232,0
2096921,2096921,158463,667218,0
2096921,2096921,158832,667293,0
2096921,2096921,158461,667147,0
2096921,2096921,157953,665236,0
2096921,2096921,157698,664817,0
2096921,2096921,157922,664487,0
2096921,2096921,158008,664680,0
2096921,2096921,157544,664590,0
2096921,2096921,157141,662146,0
2096921,2096921,156706,661428,0
2096921,2096921,157118,661231,0
2096921,2096921,156989,661492,0
2096921,2096921,156671,661381,0
2096921,2096921,156493,659848,0
2096921,2096921,156557,659575,0
2096921,2096921,156407,659291,0
2096921,2096921,156147,659257,0
2096921,2096921,156090,659484,0
2096921,2096921,155952,658157,0
2096921,2096921,155781,657734,0
2096921,2096921,155716,657699,0
2096921,2096921,155774,657636,0
2096921,2096921,155653,657551,0
2096921,2096921,155753,656516,0
2096921,2096921,155411,656367,0
2096921,2096921,155630,656340,0
2096921,2096921,155372,656483,0
2096921,2096921,155322,656608,0
2096921,2096921,155269,655580,0
2096921,2096921,155194,655522,0
2096921,2096921,155357,655333,0
2096921,2096921,154956,655415,0
2096921,2096921,155032,655507,0
2096921,2096921,155176,655073,0
2096921,2096921,155111,655217,0
2096921,2096921,154915,655287,0
2096921,2096921,154849,654907,0
2096921,2096921,154774,654801,0
2096921,2096921,155124,654762,0
2096921,2096921,154961,654914,0
2096921,2096921,155081,654636,0
2096921,2096921,154936,654491,0
2096921,2096921,154775,654634,0
2096921,2096921,154920,654475,0
2096921,2096921,154859,654508,0
2096921,2096921,154716,654783,0
2096921,2096921,154827,654423,0
2096921,2096921,154500,654680,0
2096921,2096921,154694,654467,0
2096921,2096921,154778,654364,0
2096921,2096921,154601,654658,0
2096921,2096921,154589,654853,0
2096921,2096921,155024,654642,0
2096921,2096921,154995,654958,0
2096921,2096921,155041,655143,0
2096921,2096921,155081,655044,0
2096921,2096921,154882,654931,0
2096921,2096921,154981,655068,0
2096921,2096921,154944,655270,0
2096921,2096921,155048,655190,0
2096921,2096921,155144,654973,0
2096921,2096921,155026,655149,0
2096921,2096921,154979,655175,0
2096921,2096921,155378,655254,0
2096921,2096921,155077,655491,0
2096921,2096921,155120,655428,0
2096921,2096921,155212,655510,0
2096921,2096921,155115,655380,0
2096921,2096921,155248,655858,0
2096921,2096921,154995,655968,0
2096921,2096921,155314,656113,0
2096921,2096921,155304,655944,0
2096921,2096921,155388,656156,0
2096921,2096921,155384,656362,0
2096921,2096921,155613,656645,0
2096921,2096921,155508,656578,0
2096921,2096921,155515,656619,0
2096921,2096921,155200,656740,0
2096921,2096921,155435,656978,0
2096921,2096921,155905,657185,0
2096921,2096921,155925,657379,0
2096921,2096921,155685,657272,0
2096921,2096921,155544,657273,0
2096921,2096921,155675,657589,0
2096921,2096921,155644,658068,0
2096921,2096921,155684,657892,0
2096921,2096921,155674,658215,0
2096921,2096921,155641,657728,0
2096921,2096921,156083,658220,0
2096921,2096921,155948,658479,0
2096921,2096921,156202,658505,0
2096921,2096921,156107,658418,0
2096921,2096921,156033,658276,0
2096921,2096921,156187,658913,0
2096921,2096921,156369,658894,0
2096921,2096921,156313,659011,0
2096921,2096921,156085,658832,0
2096921,2096921,156231,659134,0
2096921,2096921,156066,659570,0
2096921,2096921,156290,660013,0
2096921,2096921,156351,659970,0
2096921,2096921,156485,659731,0
2096921,2096921,156575,659755,0
2096921,2096921,156619,660346,0
2096921,2096921,156687,660195,0
2096921,2096921,156611,660224,0
2096921,2096921,156622,660226,0
2096921,2096921,156358,660000,0
2096921,2096921,156607,660718,0
2096921,2096921,156682,661275,0
2096921,2096921,156497,661264,0
2096921,2096921,156696,661189,0
2096921,2096921,156540,661126,0
2096921,2096921,157053,661482,0
2096921,2096921,156969,661457,0
2096921,2096921,156663,661608,0
2096921,2096921,156805,661741,0
2096921,2096921,156864,661493,0
2096921,2096921,157109,662036,0
2096921,2096921,157033,662596,0
2096921,2096921,157117,662426,0
2096921,2096921,157028,662394,0
2096921,2096921,157088,662383,0
2096921,2096921,157122,662747,0
2096921,2096921,157053,663012,0
2096921,2096921,157314,663375,0
2096921,2096921,157347,663447,0
2096921,2096921,157445,663048,0
2096921,2096921,157327,663314,0
2096921,2096921,157341,663264,0
2096921,2096921,157544,663366,0
2096921,2096921,157744,663105,0
2096921,2096921,157516,663572,0
2096921,2096921,157626,663854,0
2096921,2096921,157481,664120,0
2096921,2096921,157672,664083,0
2096921,2096921,157634,663998,0
2096921,2096921,157550,664012,0
2096921,2096921,157461,664281,0
2096921,2096921,157628,664434,0
2096921,2096921,157627,664184,0
2096921,2096921,157705,664722,0
2096921,2096921,157803,664221,0
2096921,2096921,158017,664592,0
2096921,2096921,157817,664613,0
2096921,2096921,157542,664716,0
2096921,2096921,157483,664793,0
2096921,2096921,157363,664466,0
2096921,2096921,157512,664698,0
2096921,2096921,157609,664564,0
2096921,2096921,158114,664936,0
2096921,2096921,157601,665012,0
2096921,2096921,158057,664844,0
2096921,2096921,157726,665147,0
2096921,2096921,157517,664921,0
2096921,2096921,157756,664995,0
2096921,2096921,157787,665147,0
2096921,2096921,157906,665134,0
2096921,2096921,157964,665002,0
2096921,2096921,158051,665016,0
2096921,2096921,158054,664888,0
2096921,2096921,158086,665160,0
2096921,2096921,157944,664957,0
2096921,2096921,157945,665136,0
2096921,2096921,157757,664965,0
2096921,2096921,157984,664888,0
2096921,2096921,157799,665366,0
2096921,2096921,157812,665003,0
2096921,2096921,157940,665103,0
2096921,2096921,157830,665237,0
2096921,2096921,157922,665222,0
2096921,2096921,157865,665127,0
2096921,2096921,158046,664885,0
2096921,2096921,158069,664544,0
2096921,2096921,157717,664547,0
2096921,2096921,157719,664733,0
2096921,2096921,157851,664758,0
2096921,2096921,157596,664859,0
2096921,2096921,157466,664531,0
2096921,2096921,157634,664611,0
2096921,2096921,157544,664911,0
2096921,2096921,157512,664796,0
2096921,2096921,157475,664621,0
2096921,2096921,157522,664793,0
2096921,2096921,157814,664556,0
2096921,2096921,157903,664557,0
2096921,2096921,158075,664743,0
2096921,2096921,157922,664413,0
2096921,2096921,157952,664708,0
2096921,2096921,157784,664679,0
2096921,2096921,157939,664387,0
2096921,2096921,157845,664406,0
2096921,2096921,157737,664671,0
2096921,2096921,157896,664545,0
2096921,2096921,157713,664439,0
2096921,2096921,157740,664772,0
2096921,2096921,157803,664785,0
2096921,2096921,157964,664714,0
2096921,2096921,157550,664538,0
2096921,2096921,157762,664871,0
2096921,2096921,157700,664692,0
2096921,2096921,157789,664602,0
2096921,2096921,157843,664434,0
2096921,2096921,157659,664715,0
2096921,2096921,157658,665131,0
2096921,2096921,157987,664860,0
2096921,2096921,158053,664897,0
2096921,2096921,157899,664979,0
2096921,2096921,157944,665312,0
2096921,2096921,157922,665475,0
2096921,2096921,158098,665435,0
2096921,2096921,157995,665110,0
2096921,2096921,157824,665228,0
2096921,2096921,158075,665377,0
2096921,2096921,158082,665728,0
2096921,2096921,158045,665467,0
2096921,2096921,157780,665445,0
2096921,2096921,157941,665613,0
2096921,2096921,158125,666066,0
2096921,2096921,158447,666317,0
2096921,2096921,158153,666535,0
2096921,2096921,158291,666287,0
2096921,2096921,158249,666149,0
2096921,2096921,158431,666781,0
2096921,2096921,158471,666569,0
2096921,2096921,158171,666486,0
2096921,2096921,158104,666548,0
2096921,2096921,158042,666804,0
2096921,2096921,158476,667165,0
2096921,2096921,158310,666842,0
2096921,2096921,158540,667141,0
2096921,2096921,158622,667022,0
2096921,2096921,158505,667056,0
2096921,2096921,158208,667600,0
2096921,2096921,158587,667418,0
2096921,2096921,158189,667390,0
2096921,2096921,158500,667429,0
2096921,2096921,158656,667507,0
2096921,2096921,158857,667804,0
2096921,2096921,158653,667742,0
2096921,2096921,158439,667892,0
2096921,2096921,158658,668126,0
2096921,2096921,158821,667761,0
2096921,2096921,158610,667937,0
2096921,2096921,158559,668093,0
2096921,2096921,158449,668068,0
2096921,2096921,158847,668359,0
2096921,2096921,159011,668174,0
2096921,2096921,158886,668390,0
2096921,2096921,158683,668858,0
2096921,2096921,158709,668574,0
2096921,2096921,158747,668534,0
2096921,2096921,158777,668582,0
2096921,2096921,158982,669018,0
2096921,2096921,159204,668787,0
2096921,2096921,159074,668586,0
2096921,2096921,159100,668662,0
2096921,2096921,159034,668793,0
2096921,2096921,158905,669055,0
2096921,2096921,159057,669384,0
2096921,2096921,158962,669413,0
2096921,2096921,158914,669456,0
2096921,2096921,158897,669186,0
2096921,2096921,158769,669327,0
2096921,2096921,159130,669758,0
2096921,2096921,158840,669508,0
2096921,2096921,158965,669388,0
2096921,2096921,159129,669555,0
2096921,2096921,159216,669959,0
2096921,2096921,159208,669901,0
2096921,2096921,159118,669715,0
2096921,2096921,159460,669968,0
2096921,2096921,159410,670021,0
2096921,2096921,159502,670046,0
2096921,2096921,159208,670269,0
2096921,2096921,159230,670513,0
2096921,2096921,159335,670485,0
2096921,2096921,159287,670554,0
2096921,2096921,159381,671029,0
2096921,2096921,159261,670626,0
2096921,2096921,159653,670723,0
2096921,2096921,159551,670352,0
2096921,2096921,159660,670464,0
2096921,2096921,159528,670625,0
2096921,2096921,159387,670693,0
2096921,2096921,159343,670440,0
2096921,2096921,159346,670605,0
2096921,2096921,159354,671066,0
2096921,2096921,159578,671137,0
2096921,2096921,159373,671179,0
2096921,2096921,159381,671253,0
2096921,2096921,159743,671372,0
2096921,2096921,159627,671400,0
2096921,2096921,159455,671667,0
2096921,2096921,159569,671515,0
2096921,2096921,159593,671611,0
2096921,2096921,159771,671793,0
2096921,2096921,159510,671538,0
2096921,2096921,159995,671905,0
2096921,2096921,159841,671668,0
2096921,2096921,159975,671498,0
2096921,2096921,159998,671772,0
2096921,2096921,159658,671816,0
2096921,2096921,159897,672115,0
2096921,2096921,159879,672209,0
2096921,2096921,159914,672141,0
2096921,2096921,159690,672283,0
2096921,2096921,159791,672064,0
2096921,2096921,159824,672317,0
2096921,2096921,159934,672264,0
2096921,2096921,160142,672361,0
2096921,2096921,159822,672038,0
2096921,2096921,160007,671967,0
2096921,2096921,160075,672292,0
2096921,2096921,159926,672247,0
2096921,2096921,160039,672644,0
2096921,2096921,159956,672505,0
2096921,2096921,159779,672395,0
2096921,2096921,159952,672345,0
2096921,2096921,160391,672758,0
2096921,2096921,160014,672751,0
2096921,2096921,160001,672903,0
2096921,2096921,159846,672711,0
2096921,2096921,159979,672847,0
2096921,2096921,160359,673047,0
2096921,2096921,160127,672965,0
2096921,2096921,159938,673105,0
2096921,2096921,159920,672799,0
2096921,2096921,160021,673158,0
2096921,2096921,160296,673221,0
2096921,2096921,160370,673298,0
2096921,2096921,160214,673337,0
2096921,2096921,160315,673140,0
2096921,2096921,160428,673230,0
2096921,2096921,160432,673538,0
2096921,2096921,160033,673405,0
2096921,2096921,159935,673481,0
2096921,2096921,160048,673604,0
2096921,2096921,160342,673721,0
2096921,2096921,160473,673549,0
2096921,2096921,160467,673371,0
2096921,2096921,160456,673579,0
2096921,2096921,160320,673777,0
2096921,2096921,160258,673535,0
2096921,2096921,160350,673838,0
2096921,2096921,160048,673930,0
2096921,2096921,160323,674041,0
2096921,2096921,160175,673790,0
2096921,2096921,160211,674224,0
2096921,2096921,160581,674103,0
2096921,2096921,160563,674038,0
2096921,2096921,160908,673968,0
2096921,2096921,160458,673988,0
2096921,2096921,160441,674167,0
2096921,2096921,160424,674202,0
2096921,2096921,160655,673955,0
2096921,2096921,160675,674268,0
2096921,2096921,160458,674120,0
2096921,2096921,160479,674435,0
2096921,2096921,160724,674151,0
2096921,2096921,160435,674265,0
2096921,2096921,160383,674408,0
2096921,2096921,160515,674622,0
2096921,2096921,160329,674402,0
2096921,2096921,160701,674088,0
2096921,2096921,160563,674233,0
2096921,2096921,160152,674323,0
2096921,2096921,160508,674512,0
2096921,2096921,160680,674117,0
2096921,2096921,160655,674335,0
2096921,2096921,160533,674438,0
2096921,2096921,160396,674552,0
2096921,2096921,160457,674470,0
2096921,2096921,160446,674556,0
2096921,2096921,160490,674824,0
2096921,2096921,160624,674444,0
2096921,2096921,160321,674763,0
2096921,2096921,160563,674611,0
2096921,2096921,160835,674690,0
2096921,2096921,161016,674792,0
2096921,2096921,160914,674414,0
2096921,2096921,160651,674886,0
2096921,2096921,160794,674727,0
2096921,2096921,160662,674662,0
2096921,2096921,160389,674553,0
2096921,2096921,160654,674884,0
2096921,2096921,160436,674780,0
2096921,2096921,160616,675072,0
2096921,2096921,160385,675072,0
2096921,2096921,160577,674873,0
2096921,2096921,160730,675122,0
2096921,2096921,160789,674536,0
2096921,2096921,160665,674694,0
2096921,2096921,160685,675105,0
2096921,2096921,160678,674951,0
2096921,2096921,160497,675009,0
2096921,2096921,160553,674625,0
2096921,2096921,160635,674822,0
2096921,2096921,160992,675051,0
2096921,2096921,160904,674981,0
2096921,2096921,160846,674996,0
2096921,2096921,160715,675000,0
2096921,2096921,160768,674981,0
2096921,2096921,160962,674942,0
2096921,2096921,160887,675068,0
2096921,2096921,160969,675159,0
2096921,2096921,160984,675326,0
2096921,2096921,160878,675101,0
2096921,2096921,161010,675219,0
2096921,2096921,160964,675159,0
2096921,2096921,160763,675404,0
2096921,2096921,160908,675109,0
2096921,2096921,160704,675131,0
2096921,2096921,160934,675415,0
2096921,2096921,160838,675426,0
2096921,2096921,160987,675328,0
2096921,2096921,160894,674955,0
2096921,2096921,160880,675317,0
2096921,2096921,160946,675515,0
2096921,2096921,160888,675446,0
2096921,2096921,161029,675425,0
2096921,2096921,160952,675379,0
2096921,2096921,160684,675541,0
2096921,2096921,160818,675396,0
2096921,2096921,160860,675442,0
2096921,2096921,160837,675555,0
2096921,2096921,160620,675333,0
2096921,2096921,160800,675357,0
2096921,2096921,160809,675564,0
2096921,2096921,160852,675290,0
2096921,2096921,160959,675572,0
2096921,2096921,160855,675795,0
2096921,2096921,161064,675336,0
2096921,2096921,160875,675732,0
2096921,2096921,160776,675344,0
2096921,2096921,160950,675337,0
2096921,2096921,161014,675627,0
2096921,2096921,161021,675647,0
2096921,2096921,160821,675768,0
2096921,2096921,160809,675519,0
2096921,2096921,161115,675540,0
2096921,2096921,161048,675384,0
2096921,2096921,160780,675504,0
2096921,2096921,160939,675855,0
2096921,2096921,160781,675504,0
2096921,2096921,160747,675606,0
2096921,2096921,160844,675590,0
2096921,2096921,160747,675690,0
2096921,2096921,160897,675374,0
2096921,2096921,160695,675509,0
2096921,2096921,160991,675506,0
2096921,2096921,160993,675405,0
2096921,2096921,160828,675344,0
2096921,2096921,160993,675237,0
2096921,2096921,160874,675439,0
2096921,2096921,160543,675419,0
2096921,2096921,160871,675577,0
2096921,2096921,160929,675541,0
2096921,2096921,160926,675232,0
2096921,2096921,160787,675568,0
2096921,2096921,160957,675221,0
2096921,2096921,160726,675519,0
2096921,2096921,161092,675551,0
2096921,2096921,161189,675425,0
2096921,2096921,160955,675224,0
2096921,2096921,160979,675278,0
2096921,2096921,161020,675458,0
2096921,2096921,160997,675533,0
2096921,2096921,160905,675532,0
2096921,2096921,161187,675769,0
2096921,2096921,161075,675785,0
2096921,2096921,161116,675843,0
2096921,2096921,161020,675471,0
2096921,2096921,160985,675417,0
2096921,2096921,161024,675531,0
2096921,2096921,160709,675574,0
2096921,2096921,160689,675351,0
2096921,2096921,160701,675422,0
2096921,2096921,160686,675335,0
2096921,2096921,160867,675300,0
2096921,2096921,160582,675087,0
2096921,2096921,160587,674770,0
2096921,2096921,160458,674998,0
2096921,2096921,160501,674802,0
2096921,2096921,160332,674680,0
2096921,2096921,160611,674603,0
2096921,2096921,160689,674475,0
2096921,2096921,160238,674592,0
2096921,2096921,160406,673909,0
2096921,2096921,160317,673757,0
2096921,2096921,160123,673781,0
2096921,2096921,160123,673807,0
2096921,2096921,160173,673924,0
2096921,2096921,159902,673111,0
2096921,2096921,159833,672676,0
2096921,2096921,159998,672695,0
2096921,2096921,159915,672543,0
2096921,2096921,159858,672593,0
2096921,2096921,159454,671737,0
2096921,2096921,159740,671725,0
2096921,2096921,159957,671648,0
2096921,2096921,160006,671895,0
2096921,2096921,159915,671571,0
2096921,2096921,159234,669655,0
2096921,2096921,159010,668904,0
2096921,2096921,158910,668908,0
2096921,2096921,158758,668867,0
2096921,2096921,158758,668907,0
2096921,2096921,157967,666377,0
2096921,2096921,158256,665770,0
2096921,2096921,157759,665768,0
2096921,2096921,157731,665700,0
2096921,2096921,157941,665700,0
2096921,2096921,157258,664118,0
2096921,2096921,157377,663907,0
2096921,2096921,157096,663322,0
2096921,2096921,157316,663528,0
2096921,2096921,157342,663408,0
2096921,2096921,157164,662423,0
2096921,2096921,157120,661799,0
2096921,2096921,156935,661717,0
2096921,2096921,156929,661594,0
2096921,2096921,156757,661407,0
2096921,2096921,156487,660563,0
2096921,2096921,156531,660252,0
2096921,2096921,156129,660532,0
2096921,2096921,156377,660547,0
2096921,2096921,156501,660582,0
2096921,2096921,156167,659940,0
2096921,2096921,156140,659529,0
2096921,2096921,155937,659756,0
2096921,2096921,156092,659348,0
2096921,2096921,156092,659604,0
2096921,2096921,155922,658532,0
2096921,2096921,155930,658627,0
2096921,2096921,155925,658761,0
2096921,2096921,155834,658647,0
2096921,2096921,155782,658851,0
2096921,2096921,155831,658319,0
2096921,2096921,156081,658322,0
2096921,2096921,155919,658429,0
2096921,2096921,156036,658530,0
2096921,2096921,155827,658268,0
2096921,2096921,156002,658249,0
2096921,2096921,155386,658211,0
2096921,2096921,155840,657907,0
2096921,2096921,155955,658117,0
2096921,2096921,155837,658077,0
2096921,2096921,155817,658226,0
2096921,2096921,155661,658181,0
2096921,2096921,155834,658336,0
2096921,2096921,155698,658113,0
2096921,2096921,155929,658257,0
2096921,2096921,155707,658182,0
2096921,2096921,155707,658464,0
2096921,2096921,155785,658323,0
2096921,2096921,155856,658377,0
2096921,2096921,155691,658605,0
2096921,2096921,155850,658411,0
2096921,2096921,155880,658665,0
2096921,2096921,155718,658614,0
2096921,2096921,155918,658736,0
2096921,2096921,155650,658032,0
2096921,2096921,155641,658402,0
2096921,2096921,155885,658590,0
2096921,2096921,155758,658664,0
2096921,2096921,155978,658922,0
2096921,2096921,155925,658583,0
2096921,2096921,155962,659096,0
2096921,2096921,155929,659031,0
2096921,2096921,156341,659226,0
2096921,2096921,155935,659288,0
2096921,2096921,155923,659332,0
2096921,2096921,156178,659668,0
2096921,2096921,156193,659537,0
2096921,2096921,156126,659630,0
2096921,2096921,155918,659520,0
2096921,2096921,156318,659865,0
2096921,2096921,156314,659871,0
2096921,2096921,156396,660121,0
2096921,2096921,156450,659913,0
2096921,2096921,156340,659851,0
2096921,2096921,156383,660233,0
2096921,2096921,156310,660307,0
2096921,2096921,156477,660745,0
2096921,2096921,156414,660769,0
2096921,2096921,156508,660489,0
2096921,2096921,156642,660705,0
2096921,2096921,156790,660954,0
2096921,2096921,156491,661236,0
2096921,2096921,156499,661288,0
2096921,2096921,156439,661445,0
2096921,2096921,156420,661201,0
2096921,2096921,156591,661583,0
2096921,2096921,156571,661522,0
2096921,2096921,156600,661530,0
2096921,2096921,156800,661644,0
2096921,2096921,156821,661427,0
2096921,2096921,157015,661676,0
2096921,2096921,156799,662216,0
2096921,2096921,156896,662016,0
2096921,2096921,156689,662202,0
2096921,2096921,156911,661898,0
2096921,2096921,156777,662719,0
2096921,2096921,157040,662592,0
2096921,2096921,156938,662624,0
2096921,2096921,156966,662633,0
2096921,2096921,157373,662487,0
2096921,2096921,157422,662891,0
2096921,2096921,157531,663206,0
2096921,2096921,157232,663255,0
2096921,2096921,157354,663085,0
2096921,2096921,157545,662986,0
2096921,2096921,157585,663669,0
2096921,2096921,157618,663318,0
2096921,2096921,157436,663535,0
2096921,2096921,157528,663465,0
2096921,2096921,157342,663656,0
2096921,2096921,157444,664028,0
2096921,2096921,157336,664370,0
2096921,2096921,157626,664353,0
2096921,2096921,157455,664337,0
2096921,2096921,157684,664195,0
2096921,2096921,157928,664712,0
2096921,2096921,157514,664813,0
2096921,2096921,157424,664750,0
2096921,2096921,157658,664691,0
2096921,2096921,157562,664450,0
2096921,2096921,157757,665039,0
2096921,2096921,157976,664947,0
2096921,2096921,158257,664851,0
2096921,2096921,157984,665173,0
2096921,2096921,157996,665099,0
2096921,2096921,157634,665389,0
2096921,2096921,157819,665469,0
2096921,2096921,157961,665390,0
2096921,2096921,158064,665398,0
2096921,2096921,158060,665519,0
2096921,2096921,158070,665706,0
2096921,2096921,158285,665861,0
2096921,2096921,158418,666062,0
2096921,2096921,158150,665800,0
2096921,2096921,157935,665867,0
2096921,2096921,157859,665796,0
2096921,2096921,158230,666028,0
2096921,2096921,157923,666046,0
2096921,2096921,157938,665912,0
2096921,2096921,157785,665881,0
2096921,2096921,157986,666030,0
2096921,2096921,158222,665858,0
2096921,2096921,158335,665795,0
2096921,2096921,158353,666000,0
2096921,2096921,158266,665858,0
2096921,2096921,158079,665939,0
2096921,2096921,157736,665814,0
2096921,2096921,157847,666173,0
2096921,2096921,157763,666250,0
2096921,2096921,157969,665973,0
2096921,2096921,158256,665884,0
2096921,2096921,158003,666023,0
2096921,2096921,157883,665990,0
2096921,2096921,158007,666020,0
2096921,2096921,158085,665841,0
2096921,2096921,157879,665821,0
2096921,2096921,158025,665927,0
2096921,2096921,157949,665516,0
2096921,2096921,158122,665522,0
2096921,2096921,158291,665553,0
2096921,2096921,158205,665872,0
2096921,2096921,158148,665793,0
2096921,2096921,158037,665634,0
2096921,2096921,158112,665490,0
2096921,2096921,158081,665348,0
2096921,2096921,158197,665008,0
2096921,2096921,157915,665084,0
2096921,2096921,157817,665094,0
2096921,2096921,157461,665090,0
2096921,2096921,157885,665019,0
2096921,2096921,157667,664622,0
2096921,2096921,157664,664799,0
2096921,2096921,157538,664591,0
2096921,2096921,157720,665001,0
2096921,2096921,157559,665039,0
2096921,2096921,157674,664729,0
2096921,2096921,157525,664712,0
2096921,2096921,157555,664841,0
2096921,2096921,157497,664474,0
2096921,2096921,157812,664906,0
2096921,2096921,157729,664783,0
2096921,2096921,157901,664921,0
2096921,2096921,158001,664711,0
2096921,2096921,157684,664703,0
2096921,2096921,157665,664596,0
2096921,2096921,157787,664382,0
2096921,2096921,157499,664642,0
2096921,2096921,157595,664661,0
2096921,2096921,157646,664677,0
2096921,2096921,157641,664420,0
2096921,2096921,157641,665070,0
2096921,2096921,157552,664633,0
2096921,2096921,157573,664564,0
2096921,2096921,157700,664653,0
2096921,2096921,157415,664727,0
2096921,2096921,157567,664756,0
2096921,2096921,157593,664697,0
2096921,2096921,157825,664467,0
2096921,2096921,157821,664914,0
2096921,2096921,157750,664476,0
2096921,2096921,157700,664587,0
2096921,2096921,157754,664653,0
2096921,2096921,157944,664843,0
2096921,2096921,157795,664900,0
2096921,2096921,157674,664703,0
2096921,2096921,157521,665207,0
2096921,2096921,157565,665071,0
2096921,2096921,157944,665343,0
2096921,2096921,157967,665569,0
2096921,2096921,157871,665139,0
2096921,2096921,157951,665221,0
2096921,2096921,157944,665822,0
2096921,2096921,157729,665464,0
2096921,2096921,157852,665369,0
2096921,2096921,158053,665388,0
2096921,2096921,158030,665844,0
2096921,2096921,157853,665682,0
2096921,2096921,157934,665742,0
2096921,2096921,158145,665923,0
2096921,2096921,157955,665997,0
2096921,2096921,157870,666261,0
2096921,2096921,158022,666148,0
2096921,2096921,158411,665978,0
2096921,2096921,158211,666102,0
2096921,2096921,158453,666163,0
2096921,2096921,158217,666156,0
2096921,2096921,158256,666133,0
2096921,2096921,158053,666434,0
2096921,2096921,158102,666226,0
2096921,2096921,158272,666526,0
2096921,2096921,158343,666723,0
2096921,2096921,158051,666655,0
2096921,2096921,158125,666631,0
2096921,2096921,158013,666379,0
2096921,2096921,158050,666449,0
2096921,2096921,158461,666793,0
2096921,2096921,158395,666661,0
2096921,2096921,158534,666551,0
2096921,2096921,158411,666376,0
2096921,2096921,158180,666811,0
2096921,2096921,158214,666928,0
2096921,2096921,158464,666894,0
2096921,2096921,158634,667071,0
2096921,2096921,158327,666843,0
2096921,2096921,158348,666913,0
2096921,2096921,158421,667433,0
2096921,2096921,158476,667088,0
2096921,2096921,158571,667132,0
2096921,2096921,158659,667236,0
2096921,2096921,158623,667516,0
2096921,2096921,158810,667531,0
2096921,2096921,158578,667355,0
2096921,2096921,158741,667345,0
2096921,2096921,158599,667750,0
2096921,2096921,158425,667580,0
2096921,2096921,158582,667862,0
2096921,2096921,158810,667847,0
2096921,2096921,158721,667641,0
2096921,2096921,158718,667773,0
2096921,2096921,158569,667778,0
2096921,2096921,158522,667959,0
2096921,2096921,158568,668116,0
2096921,2096921,158825,667983,0
2096921,2096921,158791,667872,0
2096921,2096921,159073,667900,0
2096921,2096921,159219,667974,0
2096921,2096921,158756,667981,0
2096921,2096921,158778,668077,0
2096921,2096921,158746,667919,0
2096921,2096921,158669,668239,0
2096921,2096921,159007,668341,0
2096921,2096921,158830,668444,0
2096921,2096921,159113,668438,0
2096921,2096921,159115,668159,0
2096921,2096921,159075,668348,0
2096921,2096921,159276,668107,0
2096921,2096921,158871,668243,0
2096921,2096921,158983,668707,0
2096921,2096921,158938,668506,0
2096921,2096921,158723,668748,0
2096921,2096921,158963,668680,0
2096921,2096921,158951,668595,0
2096921,2096921,159083,668962,0
2096921,2096921,158880,668803,0
2096921,2096921,158944,669042,0
2096921,2096921,158982,668733,0
2096921,2096921,159132,669093,0
2096921,2096921,159222,669065,0
2096921,2096921,158724,669014,0
2096921,2096921,158835,669496,0
2096921,2096921,158975,668947,0
2096921,2096921,159207,668889,0
2096921,2096921,159193,669051,0
2096921,2096921,159263,669037,0
2096921,2096921,159314,669367,0
2096921,2096921,159059,669495,0
2096921,2096921,159076,669276,0
2096921,2096921,159191,669132,0
2096921,2096921,159179,669321,0
2096921,2096921,159309,669165,0
2096921,2096921,159350,669567,0
2096921,2096921,159193,669535,0
2096921,2096921,159180,669754,0
2096921,2096921,159222,669427,0
2096921,2096921,159129,669379,0
2096921,2096921,159032,669450,0
2096921,2096921,159293,669494,0
2096921,2096921,159531,669290,0
2096921,2096921,159222,669688,0
2096921,2096921,159496,669383,0
2096921,2096921,159496,669637,0
2096921,2096921,159030,669217,0
2096921,2096921,159187,669403,0
2096921,2096921,159204,669662,0
2096921,2096921,159119,669567,0
2096921,2096921,159090,669542,0
2096921,2096921,159198,669997,0
2096921,2096921,159435,669852,0
2096921,2096921,159403,669933,0
2096921,2096921,159256,670035,0
2096921,2096921,159428,669791,0
2096921,2096921,159424,669850,0
2096921,2096921,159297,669834,0
2096921,2096921,159512,669748,0
2096921,2096921,159370,669933,0
2096921,2096921,159336,669927,0
2096921,2096921,159386,669815,0
2096921,2096921,159485,669865,0
2096921,2096921,159392,670098,0
2096921,2096921,159191,669846,0
2096921,2096921,159517,669993,0
2096921,2096921,159351,670353,0
2096921,2096921,159344,670177,0
2096921,2096921,159344,670260,0
2096921,2096921,159494,670228,0
2096921,2096921,159553,670019,0
2096921,2096921,159534,669913,0
2096921,2096921,159541,670122,0
2096921,2096921,159593,670007,0
2096921,2096921,159270,669856,0
2096921,2096921,159531,669904,0
2096921,2096921,159570,670001,0
2096921,2096921,159524,670045,0
2096921,2096921,159331,670135,0
2096921,2096921,159542,670434,0
2096921,2096921,159627,670249,0
2096921,2096921,159600,670048,0
2096921,2096921,159515,670185,0
2096921,2096921,159463,670406,0
2096921,2096921,159364,670190,0
2096921,2096921,159619,670244,0
2096921,2096921,159706,670262,0
2096921,2096921,159425,670244,0
2096921,2096921,159565,670349,0
2096921,2096921,159718,670271,0
2096921,2096921,159684,670120,0
2096921,2096921,159659,670297,0
2096921,2096921,159412,670253,0
2096921,2096921,159472,670241,0
2096921,2096921,159724,670264,0
2096921,2096921,159591,670480,0
2096921,2096921,159422,670377,0
2096921,2096921,159351,670672,0
2096921,2096921,159667,670581,0
2096921,2096921,159540,670271,0
2096921,2096921,159344,670267,0
2096921,2096921,159674,670364,0
2096921,2096921,159455,670232,0
2096921,2096921,159505,670491,0
2096921,2096921,159536,670402,0
2096921,2096921,159108,670109,0
2096921,2096921,159510,670416,0
2096921,2096921,159520,670463,0
2096921,2096921,159613,670433,0
2096921,2096921,159485,670132,0
2096921,2096921,159416,670314,0
2096921,2096921,159616,670512,0
2096921,2096921,159754,670022,0
2096921,2096921,159451,670332,0
2096921,2096921,159283,670584,0
2096921,2096921,159663,670342,0
2096921,2096921,159775,670412,0
2096921,2096921,159624,670206,0
2096921,2096921,159688,670656,0
2096921,2096921,159641,670481,0
2096921,2096921,159792,670439,0
2096921,2096921,159570,670370,0
2096921,2096921,159808,670590,0
2096921,2096921,159304,670324,0
2096921,2096921,159395,670395,0
2096921,2096921,159421,670344,0
2096921,2096921,159471,670873,0
2096921,2096921,159500,670237,0
2096921,2096921,159213,670294,0
2096921,2096921,159575,670461,0
2096921,2096921,159708,670091,0
2096921,2096921,159598,670493,0
2096921,2096921,159592,670517,0
2096921,2096921,159614,670434,0
2096921,2096921,159401,670557,0
2096921,2096921,159556,670407,0
2096921,2096921,159459,670472,0
2096921,2096921,159308,670851,0
2096921,2096921,159633,670669,0
2096921,2096921,159689,670323,0
2096921,2096921,159530,670472,0
2096921,2096921,159818,670373,0
2096921,2096921,159960,670321,0
2096921,2096921,159665,670392,0
2096921,2096921,159681,670236,0
2096921,2096921,159843,670609,0
2096921,2096921,159858,670698,0
2096921,2096921,159666,670631,0
2096921,2096921,159610,670453,0
2096921,2096921,159364,670327,0
2096921,2096921,159474,670463,0
2096921,2096921,159608,670438,0
2096921,2096921,159462,670437,0
2096921,2096921,159559,670411,0
2096921,2096921,159360,669950,0
2096921,2096921,159424,670293,0
2096921,2096921,159610,670547,0
2096921,2096921,159731,670426,0
2096921,2096921,159951,670220,0
2096921,2096921,159666,670510,0
2096921,2096921,159672,670276,0
2096921,2096921,159544,670197,0
2096921,2096921,159412,670482,0
2096921,2096921,159375,670432,0
2096921,2096921,159457,670366,0
2096921,2096921,159464,670177,0
2096921,2096921,159636,670113,0
2096921,2096921,159349,670160,0
2096921,2096921,159610,670279,0
2096921,2096921,159588,669905,0
2096921,2096921,159562,670512,0
2096921,2096921,159346,669909,0
2096921,2096921,159414,669913,0
2096921,2096921,159434,670107,0
2096921,2096921,159557,670294,0
2096921,2096921,159496,670251,0
2096921,2096921,159395,670086,0
2096921,2096921,159471,670015,0
2096921,2096921,159735,670169,0
2096921,2096921,159784,670008,0
2096921,2096921,159497,670069,0
2096921,2096921,159944,670114,0
2096921,2096921,159637,670256,0
2096921,2096921,159540,669963,0
2096921,2096921,159712,669903,0
2096921,2096921,159462,669974,0
2096921,2096921,159452,670143,0
2096921,2096921,159585,669807,0
2096921,2096921,159487,670020,0
2096921,2096921,159433,669998,0
2096921,2096921,159680,669891,0
2096921,2096921,159713,669937,0
2096921,2096921,159298,670005,0
2096921,2096921,159557,669866,0
2096921,2096921,159326,669717,0
2096921,2096921,159731,669623,0
2096921,2096921,159589,669399,0
2096921,2096921,159889,669931,0
2096921,2096921,159612,669903,0
2096921,2096921,159580,669812,0
2096921,2096921,159249,670216,0
2096921,2096921,159468,669919,0
2096921,2096921,159336,669505,0
2096921,2096921,159650,669751,0
2096921,2096921,159462,669759,0
2096921,2096921,159165,669476,0
2096921,2096921,159251,669119,0
2096921,2096921,159485,669081,0
2096921,2096921,159783,669031,0
2096921,2096921,159270,669143,0
2096921,2096921,159249,668598,0
2096921,2096921,159182,668390,0
2096921,2096921,159108,668318,0
2096921,2096921,159216,668820,0
2096921,2096921,159111,668416,0
2096921,2096921,158778,668043,0
2096921,2096921,158935,668218,0
2096921,2096921,158982,668135,0
2096921,2096921,158547,667819,0
2096921,2096921,158583,667590,0
2096921,2096921,158346,666833,0
2096921,2096921,158563,666874,0
2096921,2096921,158771,666457,0
2096921,2096921,158315,666435,0
2096921,2096921,158528,666606,0
2096921,2096921,158150,665649,0
2096921,2096921,158276,665291,0
2096921,2096921,157956,665200,0
2096921,2096921,158025,665503,0
2096921,2096921,158291,665636,0
2096921,2096921,157513,663552,0
2096921,2096921,157399,663022,0
2096921,2096921,157235,662771,0
2096921,2096921,157028,662838,0
2096921,2096921,157371,663087,0
2096921,2096921,156672,660630,0
2096921,2096921,156525,659871,0
2096921,2096921,156573,659639,0
2096921,2096921,156487,660009,0
2096921,2096921,156212,659846,0
2096921,2096921,155862,658190,0
2096921,2096921,155934,657414,0
2096921,2096921,155901,657463,0
2096921,2096921,155911,657096,0
2096921,2096921,155775,657344,0
2096921,2096921,155176,655860,0
2096921,2096921,155154,655423,0
2096921,2096921,155292,655585,0
2096921,2096921,155329,655394,0
2096921,2096921,155418,655561,0
2096921,2096921,154985,654815,0
2096921,2096921,154753,654391,0
2096921,2096921,155169,654153,0
2096921,2096921,154792,654081,0
2096921,2096921,154962,654130,0
2096921,2096921,154812,653301,0
2096921,2096921,154742,653520,0
2096921,2096921,154692,653191,0
2096921,2096921,154793,653113,0
2096921,2096921,154447,653072,0
2096921,2096921,154308,652557,0
2096921,2096921,154599,652425,0
2096921,2096921,154567,652515,0
2096921,2096921,154507,652600,0
2096921,2096921,154365,652198,0
2096921,2096921,154288,651860,0
2096921,2096921,154112,652062,0
2096921,2096921,154171,652132,0
2096921,2096921,154164,651980,0
2096921,2096921,154004,652003,0
2096921,2096921,154089,651660,0
2096921,2096921,153898,651697,0
2096921,2096921,154025,651742,0
2096921,2096921,154041,651646,0
2096921,2096921,154406,651664,0
2096921,2096921,154301,651724,0
2096921,2096921,154223,651502,0
2096921,2096921,154195,651830,0
2096921,2096921,154494,651456,0
2096921,2096921,154301,651558,0
2096921,2096921,154472,651963,0
2096921,2096921,154108,651949,0
2096921,2096921,154320,652102,0
2096921,2096921,154293,652044,0
2096921,2096921,154156,652112,0
2096921,2096921,154134,652095,0
2096921,2096921,154421,652348,0
2096921,2096921,154326,652358,0
2096921,2096921,154233,652309,0
2096921,2096921,154195,652490,0
2096921,2096921,154221,652156,0
2096921,2096921,154333,652258,0
2096921,2096921,154216,652549,0
2096921,2096921,154292,652380,0
2096921,2096921,154026,652305,0
2096921,2096921,154299,652881,0
2096921,2096921,154258,652710,0
2096921,2096921,154391,652770,0
2096921,2096921,154537,652965,0
2096921,2096921,154508,652958,0
2096921,2096921,154709,653035,0
2096921,2096921,154697,653392,0
2096921,2096921,154595,653188,0
2096921,2096921,154590,653035,0
2096921,2096921,154492,653120,0
2096921,2096921,154768,653700,0
2096921,2096921,154967,653706,0
2096921,2096921,154612,654025,0
2096921,2096921,154768,653609,0
2096921,2096921,155036,653587,0
2096921,2096921,154950,654230,0
2096921,2096921,155228,654252,0
2096921,2096921,154854,654627,0
2096921,2096921,154613,654115,0
2096921,2096921,154663,654056,0
2096921,2096921,154876,654554,0
2096921,2096921,154973,654901,0
2096921,2096921,155107,654983,0
2096921,2096921,154968,654811,0
2096921,2096921,155113,654593,0
2096921,2096921,155177,655104,0
2096921,2096921,155298,655438,0
2096921,2096921,155263,655189,0
2096921,2096921,155116,655230,0
2096921,2096921,154832,655325,0
2096921,2096921,155212,655466,0
2096921,2096921,155255,655755,0
2096921,2096921,155200,655558,0
2096921,2096921,155196,656051,0
2096921,2096921,155187,655776,0
2096921,2096921,155205,656200,0
2096921,2096921,155274,656078,0
2096921,2096921,155191,656285,0
2096921,2096921,155447,656206,0
2096921,2096921,155683,656311,0
2096921,2096921,155627,656736,0
2096921,2096921,155928,657148,0
2096921,2096921,155885,656741,0
2096921,2096921,155730,656826,0
2096921,2096921,155638,657036,0
2096921,2096921,155712,657225,0
2096921,2096921,155810,657182,0
2096921,2096921,155679,657286,0
2096921,2096921,155798,657422,0
2096921,2096921,155763,657736,0
2096921,2096921,155868,658035,0
2096921,2096921,156313,658069,0
2096921,2096921,156031,658022,0
2096921,2096921,156527,658213,0
2096921,2096921,156356,658211,0
2096921,2096921,156033,658422,0
2096921,2096921,155958,658435,0
2096921,2096921,156420,658525,0
2096921,2096921,156222,658643,0
2096921,2096921,156153,658180,0
2096921,2096921,156266,658638,0
2096921,2096921,156372,658700,0
2096921,2096921,156363,658983,0
2096921,2096921,156293,659002,0
2096921,2096921,156466,658949,0
2096921,2096921,156060,659291,0
2096921,2096921,156168,659376,0
2096921,2096921,156293,659420,0
2096921,2096921,156314,659353,0
2096921,2096921,156412,659282,0
2096921,2096921,156546,659441,0
2096921,2096921,156255,659585,0
2096921,2096921,156580,659692,0
2096921,2096921,156534,659867,0
2096921,2096921,156636,659670,0
2096921,2096921,156483,659691,0
2096921,2096921,156708,659565,0
2096921,2096921,156647,659730,0
2096921,2096921,156471,659815,0
2096921,2096921,156470,659936,0
2096921,2096921,156747,660038,0
2096921,2096921,156532,660203,0
2096921,2096921,156619,659956,0
2096921,2096921,156669,659904,0
2096921,2096921,156449,660282,0
2096921,2096921,156596,660305,0
2096921,2096921,156646,659776,0
2096921,2096921,156693,659876,0
2096921,2096921,156656,660086,0
2096921,2096921,156710,660017,0
2096921,2096921,156437,660110,0
2096921,2096921,156684,660085,0
2096921,2096921,156824,660013,0
2096921,2096921,156676,659937,0
2096921,2096921,156672,660203,0
2096921,2096921,156574,659783,0
2096921,2096921,156535,659681,0
2096921,2096921,156166,659951,0
2096921,2096921,156525,660043,0
2096921,2096921,156596,660132,0
2096921,2096921,156687,659770,0
2096921,2096921,156680,659758,0
2096921,2096921,156677,659739,0
2096921,2096921,156869,659540,0
2096921,2096921,156643,659760,0
2096921,2096921,156396,659458,0
2096921,2096921,156478,659664,0
2096921,2096921,156318,659496,0
2096921,2096921,156360,659924,0
2096921,2096921,156327,659926,0
2096921,2096921,156105,659610,0
2096921,2096921,156453,659575,0
2096921,2096921,156687,659421,0
2096921,2096921,156435,659630,0
2096921,2096921,156813,659556,0
2096921,2096921,156507,659205,0
2096921,2096921,156466,659179,0
2096921,2096921,156440,659164,0
2096921,2096921,155912,659254,0
2096921,2096921,156072,659352,0
2096921,2096921,156250,659446,0
2096921,2096921,156438,659182,0
2096921,2096921,156331,659205,0
2096921,2096921,156600,659238,0
2096921,2096921,156597,659364,0
2096921,2096921,156706,659178,0
2096921,2096921,156448,659127,0
2096921,2096921,156304,659099,0
2096921,2096921,156314,659428,0
2096921,2096921,156191,659559,0
2096921,2096921,156358,659446,0
2096921,2096921,156745,659403,0
2096921,2096921,156417,659198,0
2096921,2096921,156537,659222,0
2096921,2096921,156266,659030,0
2096921,2096921,156346,659365,0
2096921,2096921,156421,659394,0
2096921,2096921,156527,659216,0
2096921,2096921,156425,659416,0
2096921,2096921,156352,659352,0
2096921,2096921,156478,659612,0
2096921,2096921,156802,659759,0
2096921,2096921,156753,659997,0
2096921,2096921,156491,659826,0
2096921,2096921,156712,659611,0
2096921,2096921,156416,660013,0
2096921,2096921,156210,660049,0
2096921,2096921,156386,660106,0
2096921,2096921,156502,659797,0
2096921,2096921,156841,660201,0
2096921,2096921,156810,660452,0
2096921,2096921,156680,660562,0
2096921,2096921,156653,660382,0
2096921,2096921,156763,660644,0
2096921,2096921,156799,660530,0
2096921,2096921,156877,660876,0
2096921,2096921,156684,661084,0
2096921,2096921,156748,661074,0
2096921,2096921,156763,660958,0
2096921,2096921,157014,660830,0
2096921,2096921,156844,660973,0
2096921,2096921,157055,661105,0
2096921,2096921,157164,661081,0
2096921,2096921,157251,660904,0
2096921,2096921,156998,661221,0
2096921,2096921,157271,661686,0
2096921,2096921,157170,661508,0
2096921,2096921,156968,661710,0
2096921,2096921,156853,661669,0
2096921,2096921,157063,661657,0
2096921,2096921,156970,661811,0
2096921,2096921,157136,661932,0
2096921,2096921,157077,662096,0
2096921,2096921,157184,661727,0
2096921,2096921,157240,661730,0
2096921,2096921,157348,661864,0
2096921,2096921,156987,661829,0
2096921,2096921,157284,662061,0
2096921,2096921,157183,662071,0
2096921,2096921,157067,662220,0
2096921,2096921,157188,662609,0
2096921,2096921,157289,662522,0
2096921,2096921,157535,662263,0
2096921,2096921,157237,662645,0
2096921,2096921,157375,662549,0
2096921,2096921,157208,662789,0
2096921,2096921,157404,662766,0
2096921,2096921,157263,662485,0
2096921,2096921,157309,662811,0
2096921,2096921,157455,662809,0
2096921,2096921,157410,663070,0
2096921,2096921,157563,662865,0
2096921,2096921,157441,662994,0
2096921,2096921,157694,663070,0
2096921,2096921,157425,663309,0
2096921,2096921,157713,663467,0
2096921,2096921,157641,663521,0
2096921,2096921,157934,663619,0
2096921,2096921,157882,663180,0
2096921,2096921,157325,663436,0
2096921,2096921,157459,663527,0
2096921,2096921,157705,663454,0
2096921,2096921,157752,663806,0
2096921,2096921,157474,663897,0
2096921,2096921,157458,663744,0
2096921,2096921,157584,664136,0
2096921,2096921,157602,664089,0
2096921,2096921,157735,663979,0
2096921,2096921,157756,663959,0
2096921,2096921,157706,663830,0
2096921,2096921,157847,664283,0
2096921,2096921,158112,664409,0
2096921,2096921,157864,663966,0
2096921,2096921,158114,664467,0
2096921,2096921,157999,664149,0
2096921,2096921,158133,664388,0
2096921,2096921,157913,664557,0
2096921,2096921,157987,664467,0
2096921,2096921,157982,664466,0
2096921,2096921,157824,664455,0
2096921,2096921,157924,664866,0
2096921,2096921,157811,664494,0
2096921,2096921,158153,664721,0
2096921,2096921,158275,664656,0
2096921,2096921,158279,664796,0
2096921,2096921,158205,665087,0
2096921,2096921,158152,664853,0
2096921,2096921,157889,665031,0
2096921,2096921,157924,665066,0
2096921,2096921,157969,665210,0
2096921,2096921,157989,665092,0
2096921,2096921,158090,665476,0
2096921,2096921,158152,665219,0
2096921,2096921,158038,665410,0
2096921,2096921,158142,665315,0
2096921,2096921,158147,665666,0
2096921,2096921,158137,665588,0
2096921,2096921,157966,665444,0
2096921,2096921,158145,665723,0
2096921,2096921,158012,665763,0
2096921,2096921,158015,665873,0
2096921,2096921,158198,665646,0
2096921,2096921,158349,665748,0
2096921,2096921,158642,665517,0
2096921,2096921,158301,665867,0
2096921,2096921,158471,666181,0
2096921,2096921,158431,665966,0
2096921,2096921,158200,666001,0
2096921,2096921,158243,666167,0
2096921,2096921,158347,666205,0
2096921,2096921,158252,666247,0
2096921,2096921,158444,666263,0
2096921,2096921,158469,666100,0
2096921,2096921,158260,666182,0
2096921,2096921,158455,666215,0
2096921,2096921,158518,666423,0
2096921,2096921,158511,666584,0
2096921,2096921,158444,666342,0
2096921,2096921,158642,666628,0
2096921,2096921,158258,666338,0
2096921,2096921,158467,666654,0
2096921,2096921,158535,666642,0
2096921,2096921,158418,666740,0
2096921,2096921,158456,666785,0
2096921,2096921,158549,666923,0
2096921,2096921,158534,666744,0
2096921,2096921,158379,666715,0
2096921,2096921,158567,666981,0
2096921,2096921,158701,667388,0
2096921,2096921,158713,667345,0
2096921,2096921,158645,667433,0
2096921,2096921,158593,667316,0
2096921,2096921,158688,667356,0
2096921,2096921,158601,667165,0
2096921,2096921,158922,667033,0
2096921,2096921,158904,667068,0
2096921,2096921,158934,667131,0
2096921,2096921,159087,667216,0
2096921,2096921,158638,666956,0
2096921,2096921,158610,667316,0
2096921,2096921,158590,667704,0
2096921,2096921,158847,667263,0
2096921,2096921,158729,667417,0
2096921,2096921,158685,667509,0
2096921,2096921,158645,667594,0
2096921,2096921,158807,667460,0
2096921,2096921,158723,667776,0
2096921,2096921,158787,667706,0
2096921,2096921,158946,667529,0
2096921,2096921,158928,667656,0
2096921,2096921,159063,667657,0
2096921,2096921,158828,667720,0
2096921,2096921,158951,667459,0
2096921,2096921,158999,667913,0
2096921,2096921,158745,667783,0
2096921,2096921,158889,667903,0
2096921,2096921,159112,668050,0
2096921,2096921,159191,668013,0
2096921,2096921,158878,667972,0
2096921,2096921,159058,667948,0
2096921,2096921,158939,668038,0
2096921,2096921,158924,667929,0
2096921,2096921,159047,668296,0
2096921,2096921,159027,667877,0
2096921,2096921,159017,667820,0
2096921,2096921,159110,668082,0
2096921,2096921,159102,668316,0
2096921,2096921,158991,668287,0
2096921,2096921,158996,668212,0
2096921,2096921,159150,668504,0
2096921,2096921,159032,668046,0
2096921,2096921,159255,668352,0
2096921,2096921,159235,668543,0
2096921,2096921,159007,668452,0
2096921,2096921,158957,668348,0
2096921,2096921,159067,668523,0
2096921,2096921,159163,668552,0
2096921,2096921,159204,668717,0
2096921,2096921,159153,668428,0
2096921,2096921,159196,668730,0
2096921,2096921,159171,668818,0
2096921,2096921,159372,668803,0
2096921,2096921,159116,668909,0
2096921,2096921,159086,668759,0
2096921,2096921,159229,669043,0
2096921,2096921,159137,669130,0
2096921,2096921,159182,668946,0
2096921,2096921,159404,668982,0
2096921,2096921,159335,668894,0
2096921,2096921,159187,669145,0
2096921,2096921,159360,668939,0
2096921,2096921,159301,668836,0
2096921,2096921,159232,668681,0
2096921,2096921,159440,668973,0
2096921,2096921,159151,669040,0
2096921,2096921,159313,668887,0
2096921,2096921,159215,669315,0
2096921,2096921,159349,669555,0
2096921,2096921,159406,668994,0
2096921,2096921,158957,669114,0
2096921,2096921,159270,669461,0
2096921,2096921,159182,669322,0
2096921,2096921,159164,669250,0
2096921,2096921,159545,669758,0
2096921,2096921,159338,669419,0
2096921,2096921,159326,669456,0
2096921,2096921,159303,669214,0
2096921,2096921,159367,669682,0
2096921,2096921,158951,669520,0
2096921,2096921,159117,669696,0
2096921,2096921,159263,669718,0
2096921,2096921,159264,669645,0
2096921,2096921,159405,669537,0
2096921,2096921,159278,669471,0
2096921,2096921,159310,669761,0
2096921,2096921,159441,669746,0
2096921,2096921,159227,669745,0
2096921,2096921,159491,669743,0
2096921,2096921,159523,669576,0
2096921,2096921,159511,669785,0
2096921,2096921,159526,669532,0
2096921,2096921,159632,669659,0
2096921,2096921,159436,669766,0
2096921,2096921,159395,670014,0
2096921,2096921,159479,670051,0
2096921,2096921,159573,669918,0
2096921,2096921,159623,669912,0
2096921,2096921,159810,669935,0
2096921,2096921,159775,669881,0
2096921,2096921,159293,670134,0
2096921,2096921,159803,670013,0
2096921,2096921,159523,670200,0
2096921,2096921,159676,669979,0
2096921,2096921,159639,669703,0
2096921,2096921,159595,669765,0
2096921,2096921,159798,670175,0
2096921,2096921,159458,670123,0
2096921,2096921,159450,670269,0
2096921,2096921,159298,670136,0
2096921,2096921,159606,670089,0
2096921,2096921,159556,670130,0
2096921,2096921,159697,670063,0
2096921,2096921,159616,670413,0
2096921,2096921,159663,669942,0
2096921,2096921,159631,670011,0
2096921,2096921,159626,670035,0
2096921,2096921,159665,669896,0
2096921,2096921,159556,670052,0
2096921,2096921,159452,669725,0
2096921,2096921,159538,670025,0
2096921,2096921,159520,670065,0
2096921,2096921,159476,670112,0
2096921,2096921,159729,670064,0
2096921,2096921,159428,670168,0
2096921,2096921,159610,670512,0
2096921,2096921,159590,670461,0
2096921,2096921,159479,670427,0
2096921,2096921,159692,670285,0
2096921,2096921,159771,670351,0
2096921,2096921,159607,670192,0
2096921,2096921,159803,670346,0
2096921,2096921,159842,670264,0
2096921,2096921,159821,670527,0
2096921,2096921,159611,670480,0
2096921,2096921,159729,670390,0
2096921,2096921,159383,670389,0
2096921,2096921,159340,670497,0
2096921,2096921,159290,670522,0
2096921,2096921,159582,670445,0
2096921,2096921,159528,670527,0
2096921,2096921,159227,670227,0
2096921,2096921,159781,669970,0
2096921,2096921,159374,670236,0
2096921,2096921,159689,670065,0
2096921,2096921,159399,669989,0
2096921,2096921,159329,669795,0
2096921,2096921,159443,669587,0
2096921,2096921,159235,669579,0
2096921,2096921,159691,669581,0
2096921,2096921,159504,669900,0
2096921,2096921,159181,669182,0
2096921,2096921,159213,669162,0
2096921,2096921,159058,669205,0
2096921,2096921,159201,669106,0
2096921,2096921,159078,669026,0
2096921,2096921,158764,668069,0
2096921,2096921,158491,667716,0
2096921,2096921,158610,667778,0
2096921,2096921,158834,668092,0
2096921,2096921,158939,667810,0
2096921,2096921,158598,667181,0
2096921,2096921,158574,666810,0
2096921,2096921,158261,666965,0
2096921,2096921,158241,666926,0
2096921,2096921,158404,666813,0
2096921,2096921,157766,664730,0
2096921,2096921,157633,664147,0
2096921,2096921,157944,664433,0
2096921,2096921,157817,664142,0
2096921,2096921,157820,664545,0
2096921,2096921,157004,662465,0
2096921,2096921,157083,661902,0
2096921,2096921,157021,661304,0
2096921,2096921,157242,661370,0
2096921,2096921,157094,661357,0
2096921,2096921,156483,659649,0
2096921,2096921,156307,659265,0
2096921,2096921,156323,658970,0
2096921,2096921,156361,659033,0
2096921,2096921,156237,659031,0
2096921,2096921,155826,657909,0
2096921,2096921,155468,657641,0
2096921,2096921,155242,657660,0
2096921,2096921,155496,657710,0
2096921,2096921,155431,657514,0
2096921,2096921,155497,656601,0
2096921,2096921,155144,656362,0
2096921,2096921,155349,656416,0
2096921,2096921,155376,656225,0
2096921,2096921,155481,656281,0
2096921,2096921,155105,655532,0
2096921,2096921,155220,655347,0
2096921,2096921,155142,655275,0
2096921,2096921,155112,654999,0
2096921,2096921,155043,654936,0
2096921,2096921,155103,654602,0
2096921,2096921,155212,654856,0
2096921,2096921,155040,654890,0
2096921,2096921,154968,654847,0
2096921,2096921,154749,655056,0
2096921,2096921,154884,654450,0
2096921,2096921,155021,654529,0
2096921,2096921,154828,654329,0
2096921,2096921,154830,654460,0
2096921,2096921,154894,654583,0
2096921,2096921,154865,654604,0
2096921,2096921,154741,654408,0
2096921,2096921,154763,654438,0
2096921,2096921,154784,654406,0
2096921,2096921,155065,654263,0
2096921,2096921,154838,654312,0
2096921,2096921,154885,654473,0
2096921,2096921,154850,654343,0
2096921,2096921,154808,654352,0
2096921,2096921,154736,654537,0
2096921,2096921,154642,654815,0
2096921,2096921,154865,654812,0
2096921,2096921,154697,654815,0
2096921,2096921,154714,654787,0
2096921,2096921,154979,654875,0
2096921,2096921,154820,654933,0
2096921,2096921,155239,655252,0
2096921,2096921,154993,654939,0
2096921,2096921,155218,654976,0
2096921,2096921,155241,655224,0
2096921,2096921,155212,655289,0
2096921,2096921,155121,655292,0
2096921,2096921,154825,655129,0
2096921,2096921,155266,655149,0
2096921,2096921,154953,655128,0
2096921,2096921,155064,655516,0
2096921,2096921,154968,655494,0
2096921,2096921,155310,655730,0
2096921,2096921,155168,655972,0
2096921,2096921,155324,655934,0
2096921,2096921,155226,656603,0
2096921,2096921,155405,656541,0
2096921,2096921,155031,656520,0
2096921,2096921,155328,656315,0
2096921,2096921,155533,656363,0
2096921,2096921,155845,656706,0
2096921,2096921,155704,656994,0
2096921,2096921,155493,656651,0
2096921,2096921,155698,656466,0
2096921,2096921,155654,656988,0
2096921,2096921,155596,657261,0
2096921,2096921,155634,657431,0
2096921,2096921,155641,657717,0
2096921,2096921,155926,657821,0
2096921,2096921,155715,657754,0
2096921,2096921,155795,658172,0
2096921,2096921,156070,658334,0
2096921,2096921,155908,658002,0
2096921,2096921,155872,658282,0
2096921,2096921,155851,657920,0
2096921,2096921,156098,658573,0
2096921,2096921,156255,659008,0
2096921,2096921,156411,658842,0
2096921,2096921,156190,658841,0
2096921,2096921,156215,658681,0
2096921,2096921,156319,659327,0
2096921,2096921,156059,659033,0
2096921,2096921,155965,659587,0
2096921,2096921,156040,659332,0
2096921,2096921,156197,659235,0
2096921,2096921,156083,660035,0
2096921,2096921,156436,660299,0
2096921,2096921,156185,660176,0
2096921,2096921,156388,659814,0
2096921,2096921,156664,659673,0
2096921,2096921,156543,660449,0
2096921,2096921,156788,660511,0
2096921,2096921,156715,660691,0
2096921,2096921,156719,660579,0
2096921,2096921,156708,660379,0
2096921,2096921,156636,661060,0
2096921,2096921,156673,661208,0
2096921,2096921,156795,661014,0
2096921,2096921,156988,661162,0
2096921,2096921,157167,661314,0
2096921,2096921,157214,661851,0
2096921,2096921,156971,662154,0
2096921,2096921,157213,661891,0
2096921,2096921,157103,661951,0
2096921,2096921,157133,661755,0
2096921,2096921,157316,662378,0
2096921,2096921,157071,662617,0
2096921,2096921,156970,662456,0
2096921,2096921,157289,662616,0
2096921,2096921,157149,662605,0
2096921,2096921,157077,663404,0
2096921,2096921,157088,663343,0
2096921,2096921,157528,663403,0
2096921,2096921,157390,663033,0
2096921,2096921,157248,663154,0
2096921,2096921,157538,663566,0
2096921,2096921,157675,663604,0
2096921,2096921,157562,663683,0
2096921,2096921,157652,663599,0
2096921,2096921,157511,663736,0
2096921,2096921,157909,664059,0
2096921,2096921,157448,663918,0
2096921,2096921,157663,663906,0
2096921,2096921,157580,663999,0
2096921,2096921,157299,663923,0
2096921,2096921,157413,664082,0
2096921,2096921,157776,664118,0
2096921,2096921,157725,664324,0
2096921,2096921,157808,664556,0
2096921,2096921,157621,664379,0
2096921,2096921,157761,664397,0
2096921,2096921,157786,664589,0
2096921,2096921,158067,664623,0
2096921,2096921,157848,664747,0
2096921,2096921,157735,664633,0
2096921,2096921,157932,664870,0
2096921,2096921,157853,664742,0
2096921,2096921,157762,664711,0
2096921,2096921,157262,664603,0
2096921,2096921,157765,664409,0
2096921,2096921,157838,664823,0
2096921,2096921,157805,664614,0
2096921,2096921,157472,664843,0
2096921,2096921,157700,664893,0
2096921,2096921,157797,665051,0
2096921,2096921,157819,664547,0
2096921,2096921,157853,664832,0
2096921,2096921,157907,664824,0
2096921,2096921,157942,664553,0
2096921,2096921,157749,664454,0
2096921,2096921,157699,664305,0
2096921,2096921,157553,664522,0
2096921,2096921,157625,664715,0
2096921,2096921,157586,664588,0
2096921,2096921,157551,664496,0
2096921,2096921,157640,664556,0
2096921,2096921,157770,664632,0
2096921,2096921,157858,664610,0
2096921,2096921,157624,664536,0
2096921,2096921,157637,664413,0
2096921,2096921,157648,664587,0
2096921,2096921,157857,664445,0
2096921,2096921,157835,664522,0
2096921,2096921,157892,664640,0
2096921,2096921,157703,664752,0
2096921,2096921,157667,664360,0
2096921,2096921,157764,664288,0
2096921,2096921,157387,664339,0
2096921,2096921,157579,664426,0
2096921,2096921,157681,664106,0
2096921,2096921,157782,664284,0
2096921,2096921,157760,664306,0
2096921,2096921,157420,664192,0
2096921,2096921,157629,664184,0
2096921,2096921,157637,664438,0
2096921,2096921,157791,664573,0
2096921,2096921,157535,664523,0
2096921,2096921,157445,664561,0
2096921,2096921,157408,664295,0
2096921,2096921,157603,664400,0
2096921,2096921,157543,664501,0
2096921,2096921,157452,664458,0
2096921,2096921,157799,664520,0
2096921,2096921,157720,664598,0
2096921,2096921,157728,664514,0
2096921,2096921,157699,664926,0
2096921,2096921,158136,664529,0
2096921,2096921,157657,664672,0
2096921,2096921,157662,664619,0
2096921,2096921,157646,664431,0
2096921,2096921,157757,664793,0
2096921,2096921,157985,664735,0
2096921,2096921,158076,664979,0
2096921,2096921,157920,665076,0
2096921,2096921,158016,665341,0
2096921,2096921,157869,665473,0
2096921,2096921,157842,665613,0
2096921,2096921,157819,665420,0
2096921,2096921,157480,665476,0
2096921,2096921,157961,665832,0
2096921,2096921,158096,665679,0
2096921,2096921,158061,665817,0
2096921,2096921,157943,665954,0
2096921,2096921,158406,665781,0
2096921,2096921,157853,665660,0
2096921,2096921,158172,666418,0
2096921,2096921,158145,666419,0
2096921,2096921,158113,666428,0
2096921,2096921,158308,666506,0
2096921,2096921,158132,666552,0
2096921,2096921,158194,666448,0
2096921,2096921,158026,666722,0
2096921,2096921,158396,666971,0
2096921,2096921,158487,666681,0
2096921,2096921,158296,667100,0
2096921,2096921,158342,667093,0
2096921,2096921,158635,667252,0
2096921,2096921,158592,667283,0
2096921,2096921,158271,667027,0
2096921,2096921,158679,667365,0
2096921,2096921,158534,667566,0
2096921,2096921,158365,667563,0
2096921,2096921,158308,667604,0
2096921,2096921,158494,667644,0
2096921,2096921,158385,667622,0
2096921,2096921,158830,667928,0
2096921,2096921,158858,668252,0
2096921,2096921,158518,667991,0
2096921,2096921,158869,667981,0
2096921,2096921,158732,668259,0
2096921,2096921,158778,668270,0
2096921,2096921,158515,668205,0
2096921,2096921,158640,668075,0
2096921,2096921,158859,668324,0
2096921,2096921,158675,668267,0
2096921,2096921,158941,668703,0
2096921,2096921,158758,668536,0
2096921,2096921,158779,668673,0
2096921,2096921,158576,668362,0
2096921,2096921,158528,668697,0
2096921,2096921,158846,669250,0
2096921,2096921,159086,669040,0
2096921,2096921,159134,668773,0
2096921,2096921,159338,669314,0
2096921,2096921,159167,669168,0
2096921,2096921,158947,669213,0
2096921,2096921,159295,669352,0
2096921,2096921,159195,669511,0
2096921,2096921,159239,669445,0
2096921,2096921,159204,669432,0
2096921,2096921,159300,669737,0
2096921,2096921,158988,669737,0
2096921,2096921,159451,669897,0
2096921,2096921,159279,669868,0
2096921,2096921,159076,669800,0
2096921,2096921,159394,670212,0
2096921,2096921,159130,670451,0
2096921,2096921,159111,670131,0
2096921,2096921,159247,670071,0
2096921,2096921,159331,670100,0
2096921,2096921,159530,670039,0
2096921,2096921,159608,670329,0
2096921,2096921,159351,670503,0
2096921,2096921,159300,670553,0
2096921,2096921,159481,670527,0
2096921,2096921,159422,670869,0
2096921,2096921,159346,670668,0
2096921,2096921,159388,670866,0
2096921,2096921,159268,670883,0
2096921,2096921,159433,670885,0
2096921,2096921,159429,671150,0
2096921,2096921,159505,671102,0
2096921,2096921,159559,671117,0
2096921,2096921,159488,671119,0
2096921,2096921,159722,671202,0
2096921,2096921,159865,671413,0
2096921,2096921,159661,671591,0
2096921,2096921,159440,671700,0
2096921,2096921,159577,671627,0
2096921,2096921,159474,671521,0
2096921,2096921,159449,671535,0
2096921,2096921,159842,671620,0
2096921,2096921,159889,671546,0
2096921,2096921,159890,671633,0
2096921,2096921,159719,671581,0
2096921,2096921,160160,671861,0
2096921,2096921,159850,671951,0
2096921,2096921,159991,672150,0
2096921,2096921,160121,672051,0
2096921,2096921,159974,671908,0
2096921,2096921,160025,671775,0
2096921,2096921,159637,671995,0
2096921,2096921,159770,672139,0
2096921,2096921,159517,672121,0
2096921,2096921,159570,672081,0
2096921,2096921,159817,672345,0
2096921,2096921,159960,672457,0
2096921,2096921,160105,672576,0
2096921,2096921,160080,672487,0
2096921,2096921,159924,672344,0
2096921,2096921,159858,672694,0
2096921,2096921,160202,672721,0
2096921,2096921,160100,672681,0
2096921,2096921,160410,672814,0
2096921,2096921,160135,672804,0
2096921,2096921,160256,672867,0
2096921,2096921,160156,672868,0
2096921,2096921,160192,672887,0
2096921,2096921,160216,673068,0
2096921,2096921,160415,672912,0
2096921,2096921,160269,673248,0
2096921,2096921,160035,673118,0
2096921,2096921,159885,673073,0
2096921,2096921,160145,673570,0
2096921,2096921,159936,673451,0
2096921,2096921,160344,673452,0
2096921,2096921,160231,673535,0
2096921,2096921,160259,673473,0
2096921,2096921,160370,673202,0
2096921,2096921,160438,673426,0
2096921,2096921,160197,673567,0
2096921,2096921,160435,673523,0
2096921,2096921,160426,673644,0
2096921,2096921,160262,673630,0
2096921,2096921,160248,673840,0
2096921,2096921,160112,673815,0
2096921,2096921,160377,673887,0
2096921,2096921,160368,673686,0
2096921,2096921,160788,673606,0
2096921,2096921,160313,673663,0
2096921,2096921,160208,673821,0
2096921,2096921,160228,673854,0
2096921,2096921,160117,673654,0
2096921,2096921,160533,674084,0
2096921,2096921,159986,674159,0
2096921,2096921,160397,674076,0
2096921,2096921,160418,673915,0
2096921,2096921,160376,674050,0
2096921,2096921,160475,674062,0
2096921,2096921,160144,674032,0
2096921,2096921,160472,674224,0
2096921,2096921,160307,674163,0
2096921,2096921,160792,674208,0
2096921,2096921,160560,674075,0
2096921,2096921,160589,674570,0
2096921,2096921,160718,674386,0
2096921,2096921,160579,674229,0
2096921,2096921,160401,674417,0
2096921,2096921,160569,674595,0
2096921,2096921,160798,674474,0
2096921,2096921,160532,674539,0
2096921,2096921,160677,674384,0
2096921,2096921,160708,674273,0
2096921,2096921,160563,674325,0
2096921,2096921,160702,674369,0
2096921,2096921,160636,674620,0
2096921,2096921,160662,674512,0
2096921,2096921,160644,674329,0
2096921,2096921,160630,674437,0
2096921,2096921,160698,674398,0
2096921,2096921,160661,674505,0
2096921,2096921,160571,674405,0
2096921,2096921,160460,674505,0
2096921,2096921,160487,674658,0
2096921,2096921,160433,674460,0
2096921,2096921,160753,674679,0
2096921,2096921,160494,674576,0
2096921,2096921,160903,674972,0
2096921,2096921,160763,674637,0
2096921,2096921,160483,674576,0
2096921,2096921,160483,674651,0
2096921,2096921,160490,674666,0
2096921,2096921,160775,674722,0
2096921,2096921,160991,674798,0
2096921,2096921,160723,675070,0
2096921,2096921,160728,675148,0
2096921,2096921,160530,675075,0
2096921,2096921,160654,674992,0
2096921,2096921,160837,674809,0
2096921,2096921,160649,674859,0
2096921,2096921,160781,675240,0
2096921,2096921,160900,675006,0
2096921,2096921,160665,675188,0
2096921,2096921,160776,675019,0
2096921,2096921,160708,675404,0
2096921,2096921,160873,675347,0
2096921,2096921,160731,675262,0
2096921,2096921,160498,675444,0
2096921,2096921,160978,675149,0
2096921,2096921,160959,675211,0
2096921,2096921,160922,675234,0
2096921,2096921,160786,675314,0
2096921,2096921,160866,675326,0
2096921,2096921,160905,675342,0
2096921,2096921,160956,675490,0
2096921,2096921,160975,675597,0
2096921,2096921,160937,675235,0
2096921,2096921,160918,675022,0
2096921,2096921,160859,675210,0
2096921,2096921,160582,675096,0
2096921,2096921,160660,675309,0
2096921,2096921,160810,675489,0
2096921,2096921,160638,675403,0
2096921,2096921,160786,675371,0
2096921,2096921,160584,675412,0
2096921,2096921,160854,675490,0
2096921,2096921,160884,675479,0
2096921,2096921,160819,675246,0
2096921,2096921,160785,675235,0
2096921,2096921,160849,675224,0
2096921,2096921,160856,675447,0
2096921,2096921,160910,675686,0
2096921,2096921,160892,675619,0
2096921,2096921,160690,675654,0
2096921,2096921,160673,675407,0
2096921,2096921,160900,675722,0
2096921,2096921,160716,675515,0
2096921,2096921,160890,675531,0
2096921,2096921,160566,675809,0
2096921,2096921,160696,675675,0
2096921,2096921,160883,675286,0
2096921,2096921,160725,675525,0
2096921,2096921,160857,675784,0
2096921,2096921,160986,675703,0
2096921,2096921,160483,675310,0
2096921,2096921,160916,675567,0
2096921,2096921,160996,675713,0
2096921,2096921,160885,675573,0
2096921,2096921,161027,675563,0
2096921,2096921,160867,675297,0
2096921,2096921,160974,675606,0
2096921,2096921,161095,675677,0
2096921,2096921,160736,675311,0
2096921,2096921,160908,675432,0
2096921,2096921,160909,675506,0
2096921,2096921,160828,675578,0
2096921,2096921,161012,675380,0
2096921,2096921,160769,675453,0
2096921,2096921,160854,675612,0
2096921,2096921,160626,675640,0
2096921,2096921,160789,675462,0
2096921,2096921,160871,675425,0
2096921,2096921,160762,675360,0
2096921,2096921,161059,675801,0
2096921,2096921,160925,675438,0
2096921,2096921,160921,675450,0
2096921,2096921,160920,675497,0
2096921,2096921,160894,675578,0
2096921,2096921,160872,675319,0
2096921,2096921,160673,675226,0
2096921,2096921,160837,675466,0
2096921,2096921,160741,675420,0
2096921,2096921,160739,675476,0
2096921,2096921,160752,675635,0
2096921,2096921,161221,675245,0
2096921,2096921,160832,675360,0
2096921,2096921,160763,675468,0
2096921,2096921,160856,675609,0
2096921,2096921,160972,675341,0
2096921,2096921,160802,675191,0
2096921,2096921,161008,674642,0
2096921,2096921,160931,674853,0
2096921,2096921,160619,674884,0
2096921,2096921,160792,674897,0
2096921,2096921,160643,674833,0
2096921,2096921,160469,674222,0
2096921,2096921,160401,674396,0
2096921,2096921,160726,674431,0
2096921,2096921,160788,674378,0
2096921,2096921,160565,673983,0
2096921,2096921,160564,673784,0
2096921,2096921,160085,673556,0
2096921,2096921,160370,673276,0
2096921,2096921,160290,673679,0
2096921,2096921,160131,673689,0
2096921,2096921,159973,672779,0
2096921,2096921,159938,672361,0
2096921,2096921,160105,672444,0
2096921,2096921,159875,672299,0
2096921,2096921,160003,672708,0
2096921,2096921,159792,671769,0
2096921,2096921,159768,671341,0
2096921,2096921,159722,671262,0
2096921,2096921,159628,671299,0
2096921,2096921,159665,671257,0
2096921,2096921,158948,669225,0
2096921,2096921,159265,668859,0
2096921,2096921,158616,668965,0
2096921,2096921,159084,668799,0
2096921,2096921,158840,668993,0
2096921,2096921,158126,666423,0
2096921,2096921,158023,665855,0
2096921,2096921,157716,665741,0
2096921,2096921,158095,665803,0
2096921,2096921,157698,665489,0
2096921,2096921,157399,663968,0
2096921,2096921,157284,663599,0
2096921,2096921,157323,663588,0
2096921,2096921,157358,663395,0
2096921,2096921,157321,663261,0
2096921,2096921,157013,662082,0
2096921,2096921,156822,661528,0
2096921,2096921,156886,661611,0
2096921,2096921,156750,661595,0
2096921,2096921,156587,661892,0
2096921,2096921,156278,660712,0
2096921,2096921,156322,660119,0
2096921,2096921,156366,660294,0
2096921,2096921,156366,660189,0
2096921,2096921,156181,660344,0
2096921,2096921,156320,659331,0
2096921,2096921,156219,659426,0
2096921,2096921,156004,659122,0
2096921,2096921,156217,658982,0
2096921,2096921,156233,659323,0
2096921,2096921,156041,658800,0
2096921,2096921,156196,658780,0
2096921,2096921,156005,658844,0
2096921,2096921,155857,658634,0
2096921,2096921,155888,658570,0
2096921,2096921,156091,658432,0
2096921,2096921,155729,658243,0
2096921,2096921,155795,658075,0
2096921,2096921,155663,658362,0
2096921,2096921,155600,658473,0
2096921,2096921,155675,658289,0
2096921,2096921,155714,658525,0
2096921,2096921,155698,658075,0
2096921,2096921,155754,658206,0
2096921,2096921,155581,658091,0
2096921,2096921,155759,658114,0
2096921,2096921,155731,657890,0
2096921,2096921,155866,658032,0
2096921,2096921,155664,658086,0
2096921,2096921,155661,658290,0
2096921,2096921,155908,658229,0
2096921,2096921,155930,658345,0
2096921,2096921,156014,658163,0
2096921,2096921,156015,658125,0
2096921,2096921,155588,658455,0
2096921,2096921,155783,658473,0
2096921,2096921,156029,658293,0
2096921,2096921,155857,658582,0
2096921,2096921,155700,658460,0
2096921,2096921,155656,658690,0
2096921,2096921,155879,658934,0
2096921,2096921,155662,658563,0
2096921,2096921,155700,658552,0
2096921,2096921,155749,658412,0
2096921,2096921,155708,658363,0
2096921,2096921,155922,658906,0
2096921,2096921,156016,659099,0
2096921,2096921,156303,659163,0
2096921,2096921,155907,659032,0
2096921,2096921,156088,659201,0
2096921,2096921,156111,659827,0
2096921,2096921,156143,659569,0
2096921,2096921,156116,659438,0
2096921,2096921,156304,659483,0
2096921,2096921,156407,659591,0
2096921,2096921,156531,659803,0
2096921,2096921,156679,659606,0
2096921,2096921,156174,659880,0
2096921,2096921,156296,660259,0
2096921,2096921,156458,660369,0
2096921,2096921,156201,660701,0
2096921,2096921,156591,660512,0
2096921,2096921,156351,660405,0
2096921,2096921,156549,660637,0
2096921,2096921,156417,660819,0
2096921,2096921,156755,661089,0
2096921,2096921,156521,661028,0
2096921,2096921,156621,661174,0
2096921,2096921,156799,661379,0
2096921,2096921,156775,661498,0
2096921,2096921,156800,661794,0
2096921,2096921,157047,661556,0
2096921,2096921,156923,661442,0
2096921,2096921,156730,661713,0
2096921,2096921,157014,661211,0
2096921,2096921,156787,661720,0
2096921,2096921,157071,662027,0
2096921,2096921,157122,662562,0
2096921,2096921,156961,662356,0
2096921,2096921,156916,662459,0
2096921,2096921,157133,662704,0
2096921,2096921,157105,662616,0
2096921,2096921,157065,662739,0
2096921,2096921,157046,662504,0
2096921,2096921,157148,662952,0
2096921,2096921,157373,662733,0
2096921,2096921,157547,663207,0
2096921,2096921,157312,663335,0
2096921,2096921,157272,663045,0
2096921,2096921,157453,663242,0
2096921,2096921,157437,663681,0
2096921,2096921,157384,663843,0
2096921,2096921,157361,663630,0
2096921,2096921,157405,663437,0
2096921,2096921,157371,663433,0
2096921,2096921,157534,663830,0
2096921,2096921,157640,664331,0
2096921,2096921,157447,664339,0
2096921,2096921,157699,664447,0
2096921,2096921,157491,664318,0
2096921,2096921,157886,664453,0
2096921,2096921,157470,664744,0
2096921,2096921,157623,664512,0
2096921,2096921,157766,664849,0
2096921,2096921,157531,664865,0
2096921,2096921,157674,664914,0
2096921,2096921,157608,664947,0
2096921,2096921,157576,665162,0
2096921,2096921,157875,665268,0
2096921,2096921,158006,665283,0
2096921,2096921,157987,665429,0
2096921,2096921,158260,665416,0
2096921,2096921,158135,665464,0
2096921,2096921,158047,665330,0
2096921,2096921,158187,665217,0
2096921,2096921,158128,665657,0
2096921,2096921,158000,665767,0
2096921,2096921,157976,665838,0
2096921,2096921,157983,665784,0
2096921,2096921,158010,665809,0
2096921,2096921,158084,665903,0
2096921,2096921,158064,665768,0
2096921,2096921,157782,665616,0
2096921,2096921,157918,665943,0
2096921,2096921,157956,665696,0
2096921,2096921,158447,666063,0
2096921,2096921,158011,666380,0
2096921,2096921,158353,666079,0
2096921,2096921,158178,666107,0
2096921,2096921,158183,666138,0
2096921,2096921,158118,666179,0
2096921,2096921,158299,665985,0
2096921,2096921,158272,666169,0
2096921,2096921,158164,665913,0
2096921,2096921,158320,666079,0
2096921,2096921,157923,666062,0
2096921,2096921,157915,666169,0
2096921,2096921,158092,665957,0
2096921,2096921,158172,666113,0
2096921,2096921,158250,666023,0
2096921,2096921,157960,665532,0
2096921,2096921,158043,665881,0
2096921,2096921,157907,665524,0
2096921,2096921,158063,665421,0
2096921,2096921,157840,665575,0
2096921,2096921,157862,665567,0
2096921,2096921,158197,665773,0
2096921,2096921,158007,665585,0
2096921,2096921,157798,665648,0
2096921,2096921,157883,665384,0
2096921,2096921,158088,665645,0
2096921,2096921,157891,665384,0
2096921,2096921,158196,665332,0
2096921,2096921,157853,665456,0
2096921,2096921,157797,665309,0
2096921,2096921,157803,664989,0
2096921,2096921,157745,665183,0
2096921,2096921,157693,665158,0
2096921,2096921,157812,665122,0
2096921,2096921,158010,665060,0
2096921,2096921,157942,664623,0
2096921,2096921,157736,664541,0
2096921,2096921,157574,664641,0
2096921,2096921,157326,664669,0
2096921,2096921,157572,664995,0
2096921,2096921,157492,664765,0
2096921,2096921,157466,664525,0
2096921,2096921,157549,664712,0
2096921,2096921,157987,665011,0
2096921,2096921,157855,664964,0
2096921,2096921,158163,664660,0
2096921,2096921,157787,664300,0
2096921,2096921,157685,664318,0
2096921,2096921,158009,664357,0
2096921,2096921,157899,664569,0
2096921,2096921,157795,664642,0
2096921,2096921,157888,664752,0
2096921,2096921,157802,664582,0
2096921,2096921,157623,664670,0
2096921,2096921,157615,664860,0
2096921,2096921,157600,664732,0
2096921,2096921,157733,664851,0
2096921,2096921,157734,664662,0
2096921,2096921,157692,664496,0
2096921,2096921,157822,664436,0
2096921,2096921,157691,664742,0
2096921,2096921,158024,664710,0
2096921,2096921,157727,664596,0
2096921,2096921,157935,664859,0
2096921,2096921,157942,664652,0
2096921,2096921,157664,665083,0
2096921,2096921,157868,664790,0
2096921,2096921,157777,664882,0
2096921,2096921,157769,665000,0
2096921,2096921,157994,664935,0
2096921,2096921,158161,665338,0
2096921,2096921,158239,665437,0
2096921,2096921,158341,665345,0
2096921,2096921,158045,665369,0
2096921,2096921,157957,665611,0
2096921,2096921,158188,665431,0
2096921,2096921,158154,665748,0
2096921,2096921,158033,665954,0
2096921,2096921,158034,665854,0
2096921,2096921,157820,665833,0
2096921,2096921,157931,665977,0
2096921,2096921,158217,666028,0
2096921,2096921,158258,666259,0
2096921,2096921,158103,666295,0
2096921,2096921,158123,666038,0
2096921,2096921,158364,666480,0
2096921,2096921,158249,666490,0
2096921,2096921,158160,666220,0
2096921,2096921,158222,666444,0
2096921,2096921,158249,666007,0
2096921,2096921,158241,666166,0
2096921,2096921,158510,666640,0
2096921,2096921,158489,666762,0
2096921,2096921,158306,666858,0
2096921,2096921,158414,666991,0
2096921,2096921,158444,666654,0
2096921,2096921,158476,666604,0
2096921,2096921,158545,666589,0
2096921,2096921,158311,666657,0
2096921,2096921,158197,666705,0
2096921,2096921,158514,666833,0
2096921,2096921,158470,666691,0
2096921,2096921,158581,666850,0
2096921,2096921,158631,667015,0
2096921,2096921,158726,667094,0
2096921,2096921,158451,667386,0
2096921,2096921,158357,667168,0
2096921,2096921,158507,666994,0
2096921,2096921,158579,667318,0
2096921,2096921,158370,667469,0
2096921,2096921,158734,667766,0
2096921,2096921,158444,667657,0
2096921,2096921,158604,667578,0
2096921,2096921,158355,667389,0
2096921,2096921,158527,667485,0
2096921,2096921,158580,667681,0
2096921,2096921,158715,667788,0
2096921,2096921,158687,667720,0
2096921,2096921,158671,667946,0
2096921,2096921,158618,667707,0
2096921,2096921,158582,667903,0
2096921,2096921,158811,668144,0
2096921,2096921,158837,667959,0
2096921,2096921,158834,668293,0
2096921,2096921,158495,668008,0
2096921,2096921,158777,668446,0
2096921,2096921,158855,668283,0
2096921,2096921,158719,668400,0
2096921,2096921,158849,667970,0
2096921,2096921,158871,668188,0
2096921,2096921,158866,668443,0
2096921,2096921,158934,668398,0
2096921,2096921,158829,668431,0
2096921,2096921,159289,668261,0
2096921,2096921,159032,668555,0
2096921,2096921,159016,668596,0
2096921,2096921,158775,668579,0
2096921,2096921,158651,668568,0
2096921,2096921,158924,668631,0
2096921,2096921,158882,668766,0
2096921,2096921,159006,668879,0
2096921,2096921,158996,668757,0
2096921,2096921,159138,668809,0
2096921,2096921,158933,668725,0
2096921,2096921,158889,668817,0
2096921,2096921,159231,668777,0
2096921,2096921,159186,669054,0
2096921,2096921,159043,669211,0
2096921,2096921,158945,669040,0
2096921,2096921,158946,668974,0
2096921,2096921,158730,669144,0
2096921,2096921,159305,669234,0
2096921,2096921,159069,669404,0
2096921,2096921,159202,668901,0
2096921,2096921,159082,669044,0
2096921,2096921,159228,669476,0
2096921,2096921,159084,669110,0
2096921,2096921,158945,669408,0
2096921,2096921,159164,669485,0
2096921,2096921,159536,669245,0
2096921,2096921,159519,669453,0
2096921,2096921,159171,669433,0
2096921,2096921,159475,669228,0
2096921,2096921,159168,669283,0
2096921,2096921,159155,669392,0
2096921,2096921,158949,669836,0
2096921,2096921,159093,669396,0
2096921,2096921,159172,669405,0
2096921,2096921,158938,669666,0
2096921,2096921,159159,669438,0
2096921,2096921,159332,669584,0
2096921,2096921,159726,669754,0
2096921,2096921,159709,669790,0
2096921,2096921,159659,669529,0
2096921,2096921,159612,669605,0
2096921,2096921,159339,669643,0
2096921,2096921,159500,669714,0
2096921,2096921,159300,669747,0
2096921,2096921,159665,669834,0
2096921,2096921,159348,669986,0
2096921,2096921,159314,669987,0
2096921,2096921,159247,670050,0
2096921,2096921,159359,670109,0
2096921,2096921,159409,670330,0
2096921,2096921,159536,670100,0
2096921,2096921,159775,670185,0
2096921,2096921,159543,669824,0
2096921,2096921,159709,669759,0
2096921,2096921,159477,669768,0
2096921,2096921,159323,669949,0
2096921,2096921,159266,670158,0
2096921,2096921,159354,670117,0
2096921,2096921,159319,670329,0
2096921,2096921,159363,670276,0
2096921,2096921,159595,670330,0
2096921,2096921,159540,669842,0
2096921,2096921,159480,670345,0
2096921,2096921,159393,670255,0
2096921,2096921,159236,670245,0
2096921,2096921,159524,670177,0
2096921,2096921,159380,670148,0
2096921,2096921,159665,670287,0
2096921,2096921,159483,670174,0
2096921,2096921,159622,670365,0
2096921,2096921,159733,670390,0
2096921,2096921,159540,670276,0
2096921,2096921,159542,670318,0
2096921,2096921,159508,670099,0
2096921,2096921,159230,670705,0
2096921,2096921,159471,670302,0
2096921,2096921,159411,670361,0
2096921,2096921,159353,670266,0
2096921,2096921,159562,669994,0
2096921,2096921,159663,670219,0
2096921,2096921,159507,670328,0
2096921,2096921,159447,670357,0
2096921,2096921,159876,670227,0
2096921,2096921,159622,670081,0
2096921,2096921,159713,670310,0
2096921,2096921,159537,670322,0
2096921,2096921,159521,670216,0
2096921,2096921,159526,670037,0
2096921,2096921,159576,670695,0
2096921,2096921,159562,670489,0
2096921,2096921,159624,670101,0
2096921,2096921,159594,670388,0
2096921,2096921,159519,670484,0
2096921,2096921,159394,670466,0
2096921,2096921,159428,670459,0
2096921,2096921,159689,670296,0
2096921,2096921,159327,670397,0
2096921,2096921,159612,670261,0
2096921,2096921,159486,670427,0
2096921,2096921,159631,670243,0
2096921,2096921,159364,670485,0
2096921,2096921,159367,670310,0
2096921,2096921,159470,670651,0
2096921,2096921,159591,670561,0
2096921,2096921,159393,670194,0
2096921,2096921,159432,670181,0
2096921,2096921,159638,670621,0
2096921,2096921,159580,670729,0
2096921,2096921,159981,670608,0
2096921,2096921,159590,670611,0
2096921,2096921,159491,670413,0
2096921,2096921,159709,670706,0
2096921,2096921,159426,670618,0
2096921,2096921,159634,670411,0
2096921,2096921,159829,670100,0
2096921,2096921,159947,670511,0
2096921,2096921,159494,670473,0
2096921,2096921,159451,670838,0
2096921,2096921,159466,670576,0
2096921,2096921,159337,670467,0
2096921,2096921,159774,670783,0
2096921,2096921,159548,670326,0
2096921,2096921,159588,670658,0
2096921,2096921,159535,670474,0
2096921,2096921,159827,670227,0
2096921,2096921,159536,670550,0
2096921,2096921,159824,670382,0
2096921,2096921,159663,670716,0
2096921,2096921,159798,670191,0
2096921,2096921,159930,670494,0
2096921,2096921,159616,670361,0
2096921,2096921,159576,670580,0
2096921,2096921,159687,670553,0
2096921,2096921,159753,670441,0
2096921,2096921,159461,670488,0
2096921,2096921,159376,670644,0
2096921,2096921,159639,670707,0
2096921,2096921,159832,670557,0
2096921,2096921,160029,670522,0
2096921,2096921,160089,670608,0
2096921,2096921,159983,670718,0
2096921,2096921,159556,670564,0
2096921,2096921,159587,670563,0
2096921,2096921,159287,670512,0
2096921,2096921,159586,670439,0
2096921,2096921,159710,670709,0
2096921,2096921,159281,670456,0
2096921,2096921,159720,670403,0
2096921,2096921,159646,670617,0
2096921,2096921,159964,670389,0
2096921,2096921,159740,670312,0
2096921,2096921,159801,670318,0
2096921,2096921,159591,670539,0
2096921,2096921,159742,670202,0
2096921,2096921,159201,670286,0
2096921,2096921,159464,670172,0
2096921,2096921,159667,670371,0
2096921,2096921,159628,670433,0
2096921,2096921,159557,670428,0
2096921,2096921,159531,670722,0
2096921,2096921,159459,670437,0
2096921,2096921,159582,670261,0
2096921,2096921,159733,670152,0
2096921,2096921,159668,670339,0
2096921,2096921,159725,670295,0
2096921,2096921,159576,670036,0
2096921,2096921,159487,670022,0
2096921,2096921,159527,669868,0
2096921,2096921,159580,670403,0
2096921,2096921,159873,670185,0
2096921,2096921,159650,670243,0
2096921,2096921,159566,670188,0
2096921,2096921,159766,670030,0
2096921,2096921,159436,669982,0
2096921,2096921,159587,669922,0
2096921,2096921,159687,670091,0
2096921,2096921,159411,670171,0
2096921,2096921,159759,670061,0
2096921,2096921,159626,670160,0
2096921,2096921,159471,669953,0
2096921,2096921,159579,670011,0
2096921,2096921,159478,669781,0
2096921,2096921,159372,669856,0
2096921,2096921,159350,670117,0
2096921,2096921,159365,670182,0
2096921,2096921,159351,669973,0
2096921,2096921,159732,670236,0
2096921,2096921,159479,670017,0
2096921,2096921,159506,670294,0
2096921,2096921,159727,670235,0
2096921,2096921,159677,669932,0
2096921,2096921,159666,669665,0
2096921,2096921,159549,669815,0
2096921,2096921,159385,669895,0
2096921,2096921,159414,669690,0
2096921,2096921,159638,669969,0
2096921,2096921,159347,669197,0
2096921,2096921,159599,669357,0
2096921,2096921,159074,669163,0
2096921,2096921,159212,669424,0
2096921,2096921,159251,669126,0
2096921,2096921,159165,668620,0
2096921,2096921,159028,668872,0
2096921,2096921,159271,668698,0
2096921,2096921,159205,668716,0
2096921,2096921,159003,668835,0
2096921,2096921,158889,668041,0
2096921,2096921,158984,668069,0
2096921,2096921,158967,667840,0
2096921,2096921,158751,668065,0
2096921,2096921,158739,667799,0
2096921,2096921,158909,666970,0
2096921,2096921,158722,666877,0
2096921,2096921,158581,666672,0
2096921,2096921,158382,666977,0
2096921,2096921,158323,666959,0
2096921,2096921,157996,665872,0
2096921,2096921,157949,666091,0
2096921,2096921,158242,665703,0
2096921,2096921,158195,665660,0
2096921,2096921,158095,665762,0
2096921,2096921,157388,663626,0
2096921,2096921,157595,663096,0
2096921,2096921,157284,662956,0
2096921,2096921,157334,663290,0
2096921,2096921,157290,663119,0
2096921,2096921,156637,660375,0
2096921,2096921,156195,659905,0
2096921,2096921,156169,659538,0
2096921,2096921,156523,659689,0
2096921,2096921,156076,659936,0
2096921,2096921,155784,658085,0
2096921,2096921,155657,657679,0
2096921,2096921,155884,657390,0
2096921,2096921,155703,657678,0
2096921,2096921,155457,657475,0
2096921,2096921,155440,656013,0
2096921,2096921,155600,655945,0
2096921,2096921,155528,655613,0
2096921,2096921,155357,655598,0
2096921,2096921,155029,655798,0
2096921,2096921,154941,654705,0
2096921,2096921,155142,653890,0
2096921,2096921,155067,654121,0
2096921,2096921,154820,654322,0
2096921,2096921,154914,654214,0
2096921,2096921,154674,653664,0
2096921,2096921,154633,653427,0
2096921,2096921,154382,653485,0
2096921,2096921,154654,653405,0
2096921,2096921,154604,653395,0
2096921,2096921,154365,652957,0
2096921,2096921,154241,652687,0
2096921,2096921,154263,652686,0
2096921,2096921,154345,652791,0
2096921,2096921,153965,652546,0
2096921,2096921,154343,652143,0
2096921,2096921,154395,652353,0
2096921,2096921,154322,652235,0
2096921,2096921,154376,652132,0
2096921,2096921,154308,651927,0
2096921,2096921,154265,651845,0
2096921,2096921,154187,652024,0
2096921,2096921,154117,651826,0
2096921,2096921,153979,651948,0
2096921,2096921,154075,652137,0
2096921,2096921,154031,652235,0
2096921,2096921,154100,651810,0
2096921,2096921,153986,652083,0
2096921,2096921,154174,652020,0
2096921,2096921,154541,652048,0
2096921,2096921,154376,652531,0
2096921,2096921,154299,652322,0
2096921,2096921,154355,652107,0
2096921,2096921,154045,652113,0
2096921,2096921,154217,652242,0
2096921,2096921,154300,652111,0
2096921,2096921,154530,652184,0
2096921,2096921,154328,652062,0
2096921,2096921,154225,652348,0
2096921,2096921,154195,652348,0
2096921,2096921,154400,652308,0
2096921,2096921,154306,652427,0
2096921,2096921,154320,652263,0
2096921,2096921,154310,652647,0
2096921,2096921,154305,652480,0
2096921,2096921,154402,652700,0
2096921,2096921,154544,652872,0
2096921,2096921,154487,652985,0
2096921,2096921,154470,653148,0
2096921,2096921,154635,652923,0
2096921,2096921,154475,653135,0
2096921,2096921,154418,653335,0
2096921,2096921,154750,652981,0
2096921,2096921,154555,653124,0
2096921,2096921,154657,653327,0
2096921,2096921,154671,653654,0
2096921,2096921,154836,653728,0
2096921,2096921,154969,653848,0
2096921,2096921,154759,653400,0
2096921,2096921,154873,653814,0
2096921,2096921,154701,654356,0
2096921,2096921,154812,654375,0
2096921,2096921,154767,654595,0
2096921,2096921,154901,654130,0
2096921,2096921,154713,654027,0
2096921,2096921,154654,654838,0
2096921,2096921,154874,654783,0
2096921,2096921,155025,654858,0
2096921,2096921,155298,654946,0
2096921,2096921,155247,654846,0
2096921,2096921,155238,655145,0
2096921,2096921,154902,655016,0
2096921,2096921,155248,655162,0
2096921,2096921,155037,655427,0
2096921,2096921,155289,655488,0
2096921,2096921,155251,655832,0
2096921,2096921,155260,655730,0
2096921,2096921,155647,656037,0
2096921,2096921,155092,655957,0
2096921,2096921,155129,655684,0
2096921,2096921,155454,656299,0
2096921,2096921,155548,656263,0
2096921,2096921,155383,656476,0
2096921,2096921,155663,656316,0
2096921,2096921,155656,656335,0
2096921,2096921,155714,656944,0
2096921,2096921,156051,657097,0
2096921,2096921,155898,657016,0
2096921,2096921,156061,657135,0
2096921,2096921,155753,656814,0
2096921,2096921,155769,657538,0
2096921,2096921,155726,657508,0
2096921,2096921,155741,657193,0
2096921,2096921,155897,657288,0
2096921,2096921,155939,657367,0
2096921,2096921,155957,657943,0
2096921,2096921,156124,658054,0
2096921,2096921,156089,657868,0
2096921,2096921,156306,658077,0
2096921,2096921,156495,658128,0
2096921,2096921,156277,658672,0
2096921,2096921,156278,658614,0
2096921,2096921,156176,658795,0
2096921,2096921,155901,658690,0
2096921,2096921,156073,658800,0
2096921,2096921,156412,658868,0
2096921,2096921,156334,658873,0
2096921,2096921,156217,659143,0
2096921,2096921,156286,659107,0
2096921,2096921,156346,658951,0
2096921,2096921,156373,659377,0
2096921,2096921,156381,659505,0
2096921,2096921,156277,659182,0
2096921,2096921,156246,659473,0
2096921,2096921,156317,659350,0
2096921,2096921,156510,659714,0
2096921,2096921,156641,659723,0
2096921,2096921,156562,659480,0
2096921,2096921,156588,659634,0
2096921,2096921,156705,659645,0
2096921,2096921,156502,659890,0
2096921,2096921,156463,660040,0
2096921,2096921,156553,659899,0
2096921,2096921,156693,660003,0
2096921,2096921,156296,659790,0
2096921,2096921,156506,660154,0
2096921,2096921,156707,660245,0
2096921,2096921,156472,660189,0
2096921,2096921,156483,660313,0
2096921,2096921,156523,660305,0
2096921,2096921,156607,660213,0
2096921,2096921,156841,659734,0
2096921,2096921,156546,659969,0
2096921,2096921,156543,660045,0
2096921,2096921,156813,660309,0
2096921,2096921,156358,659992,0
2096921,2096921,156538,660144,0
2096921,2096921,156677,660003,0
2096921,2096921,156543,659938,0
2096921,2096921,156644,660153,0
2096921,2096921,156387,659889,0
2096921,2096921,156371,659883,0
2096921,2096921,156259,660003,0
2096921,2096921,156538,659986,0
2096921,2096921,156669,660040,0
2096921,2096921,156685,659699,0
2096921,2096921,156961,659658,0
2096921,2096921,156830,659423,0
2096921,2096921,156631,659606,0
2096921,2096921,156603,659742,0
2096921,2096921,156472,659688,0
2096921,2096921,156472,659483,0
2096921,2096921,156785,659825,0
2096921,2096921,156557,659953,0
2096921,2096921,156616,659741,0
2096921,2096921,156693,659452,0
2096921,2096921,156464,659279,0
2096921,2096921,156815,659347,0
2096921,2096921,156114,659376,0
2096921,2096921,156349,659350,0
2096921,2096921,156025,659608,0
2096921,2096921,156182,659291,0
2096921,2096921,156254,659644,0
2096921,2096921,156535,659249,0
2096921,2096921,156592,659082,0
2096921,2096921,156112,659195,0
2096921,2096921,156096,659025,0
2096921,2096921,155934,658955,0
2096921,2096921,156365,658875,0
2096921,2096921,156453,659497,0
2096921,2096921,156237,659417,0
2096921,2096921,156061,659263,0
2096921,2096921,156321,658865,0
2096921,2096921,156296,659059,0
2096921,2096921,156260,659081,0
2096921,2096921,156415,659159,0
2096921,2096921,156406,659226,0
2096921,2096921,156360,659167,0
2096921,2096921,156526,659064,0
2096921,2096921,156544,659036,0
2096921,2096921,156648,659226,0
2096921,2096921,156533,659446,0
2096921,2096921,156611,659337,0
2096921,2096921,156418,659226,0
2096921,2096921,156341,659290,0
2096921,2096921,156431,659405,0
2096921,2096921,156488,659446,0
2096921,2096921,156572,659392,0
2096921,2096921,156377,659474,0
2096921,2096921,156504,659482,0
2096921,2096921,156465,659922,0
2096921,2096921,156538,659951,0
2096921,2096921,156696,659933,0
2096921,2096921,156358,659877,0
2096921,2096921,156647,659994,0
2096921,2096921,156968,660218,0
2096921,2096921,156694,660519,0
2096921,2096921,157152,660456,0
2096921,2096921,156868,660499,0
2096921,2096921,156686,660391,0
2096921,2096921,156816,660946,0
2096921,2096921,156755,660760,0
