2096921,2096921,182822,625281,0
2096921,2096921,182668,625088,0
2096921,2096921,182520,625184,0
2096921,2096921,182563,625218,0
2096921,2096921,182924,625019,0
2096921,2096921,182644,624956,0
2096921,2096921,182492,625296,0
2096921,2096921,182731,625396,0
2096921,2096921,182732,625556,0
2096921,2096921,182631,625377,0
2096921,2096921,182767,625387,0
2096921,2096921,182637,625101,0
2096921,2096921,182634,625090,0
2096921,2096921,182483,624938,0
2096921,2096921,182607,624952,0
2096921,2096921,182566,625268,0
2096921,2096921,182507,625553,0
2096921,2096921,182553,625081,0
2096921,2096921,182827,625655,0
2096921,2096921,182511,625632,0
2096921,2096921,182627,625469,0
2096921,2096921,182671,625207,0
2096921,2096921,182595,625153,0
2096921,2096921,182486,625108,0
2096921,2096921,182537,625115,0
2096921,2096921,182672,625004,0
2096921,2096921,182740,624912,0
2096921,2096921,182715,625229,0
2096921,2096921,182631,625058,0
2096921,2096921,182627,625199,0
2096921,2096921,182523,625252,0
2096921,2096921,182893,624800,0
2096921,2096921,182700,624820,0
2096921,2096921,182661,624901,0
2096921,2096921,182569,624642,0
2096921,2096921,182726,624761,0
2096921,2096921,182811,624866,0
2096921,2096921,182519,624914,0
2096921,2096921,182622,624901,0
2096921,2096921,182596,624671,0
2096921,2096921,182587,624843,0
2096921,2096921,182733,624655,0
2096921,2096921,182402,624564,0
2096921,2096921,182425,624464,0
2096921,2096921,182468,624268,0
2096921,2096921,182080,624497,0
2096921,2096921,182218,624494,0
2096921,2096921,182367,624362,0
2096921,2096921,182098,624047,0
2096921,2096921,182168,623999,0
2096921,2096921,182489,624170,0
2096921,2096921,182145,624093,0
2096921,2096921,181905,623515,0
2096921,2096921,182104,623859,0
2096921,2096921,182087,623757,0
2096921,2096921,181957,623884,0
2096921,2096921,182135,623833,0
2096921,2096921,181931,623606,0
2096921,2096921,181767,623500,0
2096921,2096921,181760,623755,0
2096921,2096921,181701,623450,0
2096921,2096921,181825,623416,0
2096921,2096921,181490,623043,0
2096921,2096921,181794,623169,0
2096921,2096921,181773,623051,0
2096921,2096921,181581,622947,0
2096921,2096921,181790,623026,0
2096921,2096921,181657,622983,0
2096921,2096921,181503,622620,0
2096921,2096921,181487,623191,0
2096921,2096921,181722,622657,0
2096921,2096921,181351,622761,0
2096921,2096921,181532,622431,0
2096921,2096921,181364,622670,0
2096921,2096921,181447,622912,0
2096921,2096921,181336,622657,0
2096921,2096921,181426,622568,0
2096921,2096921,181387,622946,0
2096921,2096921,181434,622801,0
2096921,2096921,181354,622825,0
2096921,2096921,181511,622603,0
2096921,2096921,181370,622633,0
2096921,2096921,181357,622508,0
2096921,2096921,181422,622310,0
2096921,2096921,181340,622311,0
2096921,2096921,181374,622550,0
2096921,2096921,181418,622664,0
2096921,2096921,181507,622788,0
2096921,2096921,181350,622699,0
2096921,2096921,181154,622753,0
2096921,2096921,181320,622918,0
2096921,2096921,181204,622551,0
2096921,2096921,181453,622349,0
2096921,2096921,181386,622545,0
2096921,2096921,181171,622488,0
2096921,2096921,181517,622298,0
2096921,2096921,181242,622618,0
2096921,2096921,181610,622768,0
2096921,2096921,181518,622555,0
2096921,2096921,181705,622688,0
2096921,2096921,181517,622701,0
2096921,2096921,181379,622577,0
2096921,2096921,181327,622647,0
2096921,2096921,181502,622400,0
2096921,2096921,181521,622619,0
2096921,2096921,181320,622531,0
2096921,2096921,181245,622571,0
2096921,2096921,181518,622659,0
2096921,2096921,181614,622634,0
2096921,2096921,181468,622710,0
2096921,2096921,181749,622630,0
2096921,2096921,181709,622728,0
2096921,2096921,181539,622809,0
2096921,2096921,181388,622639,0
2096921,2096921,181309,622589,0
2096921,2096921,181302,622756,0
2096921,2096921,181499,623032,0
2096921,2096921,181361,622777,0
2096921,2096921,181457,622996,0
2096921,2096921,181487,622896,0
2096921,2096921,181320,623140,0
2096921,2096921,181483,622859,0
2096921,2096921,181367,622812,0
2096921,2096921,181410,622891,0
2096921,2096921,181461,622868,0
2096921,2096921,181392,623023,0
2096921,2096921,181144,623114,0
2096921,2096921,181286,622979,0
2096921,2096921,181469,623322,0
2096921,2096921,181411,623272,0
2096921,2096921,181384,623084,0
2096921,2096921,181661,622792,0
2096921,2096921,181412,623062,0
2096921,2096921,181778,622839,0
2096921,2096921,181600,622999,0
2096921,2096921,181759,623074,0
2096921,2096921,181585,622910,0
2096921,2096921,181560,623316,0
2096921,2096921,181431,623255,0
2096921,2096921,181576,623382,0
2096921,2096921,181615,623437,0
2096921,2096921,181634,623284,0
2096921,2096921,181756,623562,0
2096921,2096921,181829,623550,0
2096921,2096921,181635,623212,0
2096921,2096921,181869,623358,0
2096921,2096921,181844,623246,0
2096921,2096921,181643,623547,0
2096921,2096921,181847,623162,0
2096921,2096921,181520,623171,0
2096921,2096921,181800,622824,0
2096921,2096921,181707,623363,0
2096921,2096921,181895,623335,0
2096921,2096921,181762,623100,0
2096921,2096921,181796,623277,0
2096921,2096921,182195,623597,0
2096921,2096921,181819,623111,0
2096921,2096921,181957,623339,0
2096921,2096921,181850,623524,0
2096921,2096921,182179,623365,0
2096921,2096921,181838,623444,0
2096921,2096921,181563,623545,0
2096921,2096921,181630,623515,0
2096921,2096921,181389,623474,0
2096921,2096921,181777,623501,0
2096921,2096921,181712,623754,0
2096921,2096921,181827,623924,0
2096921,2096921,181831,623754,0
2096921,2096921,182105,623731,0
2096921,2096921,182130,623759,0
2096921,2096921,181964,623603,0
2096921,2096921,181852,623688,0
2096921,2096921,182064,623875,0
2096921,2096921,181798,623818,0
2096921,2096921,181927,623579,0
2096921,2096921,181944,623420,0
2096921,2096921,182249,623346,0
2096921,2096921,182014,623379,0
2096921,2096921,182186,623671,0
2096921,2096921,181945,623790,0
2096921,2096921,181914,623877,0
2096921,2096921,181827,623699,0
2096921,2096921,182066,623750,0
2096921,2096921,182043,623710,0
2096921,2096921,182070,623739,0
2096921,2096921,182062,623990,0
2096921,2096921,182115,623833,0
2096921,2096921,182222,623837,0
2096921,2096921,182161,624021,0
2096921,2096921,181853,624047,0
2096921,2096921,181983,624167,0
2096921,2096921,181611,624069,0
2096921,2096921,181804,624050,0
2096921,2096921,181957,623775,0
2096921,2096921,182236,623805,0
2096921,2096921,182406,623815,0
2096921,2096921,182217,623788,0
2096921,2096921,182031,623915,0
2096921,2096921,181969,624177,0
2096921,2096921,182012,624254,0
2096921,2096921,182106,624112,0
2096921,2096921,181989,623981,0
2096921,2096921,182024,624376,0
2096921,2096921,182166,623877,0
2096921,2096921,182119,623885,0
2096921,2096921,182212,623888,0
2096921,2096921,182184,624043,0
2096921,2096921,181882,623916,0
2096921,2096921,182061,624144,0
2096921,2096921,181920,624149,0
2096921,2096921,182026,624133,0
2096921,2096921,181814,623698,0
2096921,2096921,181956,623954,0
2096921,2096921,182056,623799,0
2096921,2096921,181753,623853,0
2096921,2096921,182237,623899,0
2096921,2096921,182082,624256,0
2096921,2096921,182236,624114,0
2096921,2096921,181898,623895,0
2096921,2096921,181801,624089,0
2096921,2096921,181807,624221,0
2096921,2096921,181895,623978,0
2096921,2096921,181934,623778,0
2096921,2096921,181886,623584,0
2096921,2096921,181768,623761,0
2096921,2096921,182120,623613,0
2096921,2096921,182330,623775,0
2096921,2096921,182161,623968,0
2096921,2096921,182207,623828,0
2096921,2096921,182102,623882,0
2096921,2096921,181865,623995,0
2096921,2096921,182017,624034,0
2096921,2096921,181806,623759,0
2096921,2096921,181804,623892,0
2096921,2096921,181873,624064,0
2096921,2096921,182145,623975,0
2096921,2096921,182118,623998,0
2096921,2096921,182078,623949,0
2096921,2096921,182176,623973,0
2096921,2096921,182237,624107,0
2096921,2096921,182233,623946,0
2096921,2096921,181840,624096,0
2096921,2096921,181797,624241,0
2096921,2096921,181789,624106,0
2096921,2096921,181807,623705,0
2096921,2096921,182215,623862,0
2096921,2096921,182111,624054,0
2096921,2096921,182010,623853,0
2096921,2096921,182159,623823,0
2096921,2096921,182193,624028,0
2096921,2096921,182103,624037,0
2096921,2096921,181996,624232,0
2096921,2096921,181975,623949,0
2096921,2096921,181845,624153,0
2096921,2096921,181989,624214,0
2096921,2096921,182188,624043,0
2096921,2096921,182129,624158,0
2096921,2096921,182337,624392,0
2096921,2096921,182417,624203,0
2096921,2096921,182250,624283,0
2096921,2096921,182204,624123,0
2096921,2096921,182000,624387,0
2096921,2096921,182202,624592,0
2096921,2096921,181947,624368,0
2096921,2096921,182015,624289,0
2096921,2096921,181907,624492,0
2096921,2096921,182039,624181,0
2096921,2096921,182189,624304,0
2096921,2096921,182048,624410,0
2096921,2096921,181884,624269,0
2096921,2096921,182263,624436,0
2096921,2096921,182220,624421,0
2096921,2096921,182134,624704,0
2096921,2096921,182194,624707,0
2096921,2096921,182184,624607,0
2096921,2096921,182356,624658,0
2096921,2096921,182312,624504,0
2096921,2096921,181894,624186,0
2096921,2096921,182379,624557,0
2096921,2096921,182228,624574,0
2096921,2096921,182313,624582,0
2096921,2096921,182195,624582,0
2096921,2096921,182272,624634,0
2096921,2096921,182371,624606,0
2096921,2096921,182237,624499,0
2096921,2096921,182199,624705,0
2096921,2096921,182545,624650,0
2096921,2096921,182631,624681,0
2096921,2096921,182093,624628,0
2096921,2096921,182467,624698,0
2096921,2096921,182620,624612,0
2096921,2096921,182541,624714,0
2096921,2096921,182237,624867,0
2096921,2096921,182123,624974,0
2096921,2096921,182319,625004,0
2096921,2096921,182519,624490,0
2096921,2096921,182356,624967,0
2096921,2096921,182491,624925,0
2096921,2096921,182335,625005,0
2096921,2096921,182568,624869,0
2096921,2096921,182544,624749,0
2096921,2096921,182548,624755,0
2096921,2096921,182314,624629,0
2096921,2096921,182342,624730,0
2096921,2096921,182096,625295,0
2096921,2096921,182152,625110,0
2096921,2096921,182522,625067,0
2096921,2096921,182574,625070,0
2096921,2096921,182698,625248,0
2096921,2096921,182579,625027,0
2096921,2096921,182312,625221,0
2096921,2096921,182563,625030,0
2096921,2096921,182398,624711,0
2096921,2096921,182324,625071,0
2096921,2096921,182318,625272,0
2096921,2096921,182555,625112,0
2096921,2096921,182451,624914,0
2096921,2096921,182623,625060,0
2096921,2096921,182666,625075,0
2096921,2096921,182776,625143,0
2096921,2096921,182579,625008,0
2096921,2096921,182646,625213,0
2096921,2096921,182421,625143,0
2096921,2096921,182631,625497,0
2096921,2096921,182773,625300,0
2096921,2096921,182957,625317,0
2096921,2096921,182724,625530,0
2096921,2096921,182754,625588,0
2096921,2096921,182503,625574,0
2096921,2096921,182720,625828,0
2096921,2096921,182535,625647,0
2096921,2096921,182574,625369,0
2096921,2096921,182761,625463,0
2096921,2096921,182404,625280,0
2096921,2096921,182558,625415,0
2096921,2096921,182417,625431,0
2096921,2096921,182761,625141,0
2096921,2096921,182675,625596,0
2096921,2096921,182784,625758,0
2096921,2096921,182695,625705,0
2096921,2096921,182673,625414,0
2096921,2096921,182549,625405,0
2096921,2096921,182656,625499,0
2096921,2096921,182867,625650,0
2096921,2096921,182904,625609,0
2096921,2096921,182846,625661,0
2096921,2096921,182965,625614,0
2096921,2096921,182581,625940,0
2096921,2096921,182541,625719,0
2096921,2096921,182639,625759,0
2096921,2096921,182549,625652,0
2096921,2096921,182524,625678,0
2096921,2096921,182620,626028,0
2096921,2096921,182703,626062,0
2096921,2096921,182836,625742,0
2096921,2096921,182983,625655,0
2096921,2096921,182858,625636,0
2096921,2096921,182866,625920,0
2096921,2096921,182825,626006,0
2096921,2096921,183031,625704,0
2096921,2096921,182912,626058,0
2096921,2096921,182736,625810,0
2096921,2096921,183052,626197,0
2096921,2096921,182803,625901,0
2096921,2096921,183037,626119,0
2096921,2096921,183003,625798,0
2096921,2096921,182875,626045,0
2096921,2096921,182898,626135,0
2096921,2096921,183097,626273,0
2096921,2096921,182819,626208,0
2096921,2096921,182992,626161,0
2096921,2096921,182963,626084,0
2096921,2096921,183074,626345,0
2096921,2096921,182795,626120,0
2096921,2096921,183041,626246,0
2096921,2096921,182933,626180,0
2096921,2096921,182863,626309,0
2096921,2096921,183063,626538,0
2096921,2096921,183268,626389,0
2096921,2096921,183111,626164,0
2096921,2096921,183052,626280,0
2096921,2096921,183033,626352,0
2096921,2096921,183200,626273,0
2096921,2096921,182899,626393,0
2096921,2096921,183097,626683,0
2096921,2096921,183077,626410,0
2096921,2096921,183153,626242,0
2096921,2096921,182996,626396,0
2096921,2096921,182887,626695,0
2096921,2096921,182835,626478,0
2096921,2096921,183145,626382,0
2096921,2096921,183086,626462,0
2096921,2096921,182939,626664,0
2096921,2096921,182951,626527,0
2096921,2096921,183003,626829,0
2096921,2096921,182962,626706,0
2096921,2096921,183070,626724,0
2096921,2096921,183460,627100,0
2096921,2096921,183081,626923,0
2096921,2096921,183434,626891,0
2096921,2096921,183241,626889,0
2096921,2096921,183198,626483,0
2096921,2096921,182982,626810,0
2096921,2096921,182997,626872,0
2096921,2096921,183086,626855,0
2096921,2096921,182876,627046,0
2096921,2096921,182896,626768,0
2096921,2096921,183020,626740,0
2096921,2096921,183204,627093,0
2096921,2096921,183104,626869,0
2096921,2096921,183370,626828,0
2096921,2096921,183206,626812,0
2096921,2096921,183320,626752,0
2096921,2096921,183450,626905,0
2096921,2096921,183090,627115,0
2096921,2096921,183305,626880,0
2096921,2096921,183418,627242,0
2096921,2096921,183083,627375,0
2096921,2096921,183303,627196,0
2096921,2096921,183465,627070,0
2096921,2096921,183275,627099,0
2096921,2096921,183200,626913,0
2096921,2096921,183296,626690,0
2096921,2096921,183282,626965,0
2096921,2096921,183178,627121,0
2096921,2096921,183412,627376,0
2096921,2096921,183222,627450,0
2096921,2096921,183223,627512,0
2096921,2096921,183238,627320,0
2096921,2096921,183427,627380,0
2096921,2096921,183204,627161,0
2096921,2096921,183473,627242,0
2096921,2096921,183432,627043,0
2096921,2096921,183416,627268,0
2096921,2096921,183553,627336,0
2096921,2096921,183638,627502,0
2096921,2096921,183310,627302,0
2096921,2096921,183650,627447,0
2096921,2096921,183466,627259,0
2096921,2096921,183398,627693,0
2096921,2096921,183249,627377,0
2096921,2096921,183340,627406,0
2096921,2096921,183373,627262,0
2096921,2096921,183416,627435,0
2096921,2096921,183450,627376,0
2096921,2096921,183525,627571,0
2096921,2096921,183295,627579,0
2096921,2096921,183376,627843,0
2096921,2096921,183530,627760,0
2096921,2096921,183402,627727,0
2096921,2096921,183405,627650,0
2096921,2096921,183173,627479,0
2096921,2096921,183223,627584,0
2096921,2096921,183148,627684,0
2096921,2096921,183550,627507,0
2096921,2096921,183485,627460,0
2096921,2096921,183967,627577,0
2096921,2096921,183547,627615,0
2096921,2096921,183419,627857,0
2096921,2096921,183508,627833,0
2096921,2096921,183579,628077,0
2096921,2096921,183464,627942,0
2096921,2096921,183184,628002,0
2096921,2096921,183402,627739,0
2096921,2096921,183451,627755,0
2096921,2096921,183769,627953,0
2096921,2096921,184043,627908,0
2096921,2096921,183758,628085,0
2096921,2096921,183858,627994,0
2096921,2096921,183243,628179,0
2096921,2096921,183467,628119,0
2096921,2096921,183548,627893,0
2096921,2096921,183798,627919,0
2096921,2096921,184017,627654,0
2096921,2096921,183827,628044,0
2096921,2096921,183714,628053,0
2096921,2096921,183627,628122,0
2096921,2096921,183462,627979,0
2096921,2096921,183359,628364,0
2096921,2096921,183549,628107,0
2096921,2096921,183653,627867,0
2096921,2096921,183521,627935,0
2096921,2096921,183531,628139,0
2096921,2096921,183759,628125,0
2096921,2096921,183424,628448,0
2096921,2096921,183480,628157,0
2096921,2096921,183716,628487,0
2096921,2096921,183787,628450,0
2096921,2096921,183481,628337,0
2096921,2096921,183651,628071,0
2096921,2096921,183720,628210,0
2096921,2096921,183838,628021,0
2096921,2096921,183707,628345,0
2096921,2096921,183661,627997,0
2096921,2096921,183586,628007,0
2096921,2096921,183578,628319,0
2096921,2096921,183674,628237,0
2096921,2096921,183786,628389,0
2096921,2096921,183635,628623,0
2096921,2096921,183427,628130,0
2096921,2096921,183600,628131,0
2096921,2096921,183805,628007,0
2096921,2096921,183631,628464,0
2096921,2096921,183647,628902,0
2096921,2096921,183487,628648,0
2096921,2096921,183706,628644,0
2096921,2096921,183858,628403,0
2096921,2096921,183917,628693,0
2096921,2096921,183890,628750,0
2096921,2096921,183884,628668,0
2096921,2096921,183494,628823,0
2096921,2096921,183788,628552,0
2096921,2096921,183680,628480,0
2096921,2096921,183609,628429,0
2096921,2096921,183714,628709,0
2096921,2096921,183758,628932,0
2096921,2096921,183736,628804,0
2096921,2096921,183683,628611,0
2096921,2096921,183967,628911,0
2096921,2096921,184041,628840,0
2096921,2096921,183680,628734,0
2096921,2096921,183866,628923,0
2096921,2096921,183829,628671,0
2096921,2096921,183590,629032,0
2096921,2096921,183963,628832,0
2096921,2096921,183880,628733,0
2096921,2096921,183817,628878,0
2096921,2096921,183617,629006,0
2096921,2096921,183652,629010,0
2096921,2096921,183667,628704,0
2096921,2096921,183755,628534,0
2096921,2096921,184096,628558,0
2096921,2096921,183743,628443,0
2096921,2096921,183854,628534,0
2096921,2096921,183515,628516,0
2096921,2096921,183588,628844,0
2096921,2096921,183802,628881,0
2096921,2096921,183537,628679,0
2096921,2096921,183613,628867,0
2096921,2096921,183794,628610,0
2096921,2096921,183603,628541,0
2096921,2096921,183979,628626,0
2096921,2096921,183807,628617,0
2096921,2096921,183654,628762,0
2096921,2096921,183648,628887,0
2096921,2096921,183612,628515,0
2096921,2096921,183479,628842,0
2096921,2096921,183348,628400,0
2096921,2096921,183499,628219,0
2096921,2096921,183531,628422,0
2096921,2096921,183423,628158,0
2096921,2096921,183358,628256,0
2096921,2096921,183122,627993,0
2096921,2096921,183029,627842,0
2096921,2096921,182973,627566,0
2096921,2096921,183317,627603,0
2096921,2096921,183085,627759,0
2096921,2096921,182866,627667,0
2096921,2096921,183191,627948,0
2096921,2096921,183192,627821,0
2096921,2096921,183148,627538,0
2096921,2096921,182667,627594,0
2096921,2096921,182944,627590,0
2096921,2096921,182925,627396,0
2096921,2096921,183022,627338,0
2096921,2096921,182883,627172,0
2096921,2096921,182822,627225,0
2096921,2096921,182837,627219,0
2096921,2096921,182971,627425,0
2096921,2096921,183029,627226,0
2096921,2096921,182697,627330,0
2096921,2096921,182778,627065,0
2096921,2096921,182863,627247,0
2096921,2096921,182844,626982,0
2096921,2096921,182844,626942,0
2096921,2096921,182999,626895,0
2096921,2096921,182925,627192,0
2096921,2096921,183021,627277,0
2096921,2096921,182889,627158,0
2096921,2096921,182906,627086,0
2096921,2096921,182652,627084,0
2096921,2096921,182797,627143,0
2096921,2096921,182579,627189,0
2096921,2096921,182825,627052,0
2096921,2096921,182900,627155,0
2096921,2096921,182962,627214,0
2096921,2096921,182703,627380,0
2096921,2096921,182859,626889,0
2096921,2096921,182646,627279,0
2096921,2096921,182665,627203,0
2096921,2096921,182771,627456,0
2096921,2096921,182699,627693,0
2096921,2096921,182631,627373,0
2096921,2096921,182774,627040,0
2096921,2096921,182694,627274,0
2096921,2096921,182751,627054,0
2096921,2096921,183013,627558,0
2096921,2096921,182867,627463,0
2096921,2096921,182954,627441,0
2096921,2096921,182984,627577,0
2096921,2096921,182716,627640,0
2096921,2096921,182729,627707,0
2096921,2096921,182916,627364,0
2096921,2096921,182757,627242,0
2096921,2096921,182702,627374,0
2096921,2096921,182761,627448,0
2096921,2096921,183012,627487,0
2096921,2096921,183274,627567,0
2096921,2096921,182985,627642,0
2096921,2096921,182867,627712,0
2096921,2096921,182990,627590,0
2096921,2096921,182911,627609,0
2096921,2096921,182623,628015,0
2096921,2096921,183101,627913,0
2096921,2096921,183044,627513,0
2096921,2096921,183077,627702,0
2096921,2096921,183102,627787,0
2096921,2096921,182935,627930,0
2096921,2096921,182829,627919,0
2096921,2096921,183023,627824,0
2096921,2096921,183166,627614,0
2096921,2096921,182765,627664,0
2096921,2096921,182929,627935,0
2096921,2096921,182947,628060,0
2096921,2096921,182996,628202,0
2096921,2096921,183253,628233,0
2096921,2096921,183315,628260,0
2096921,2096921,183186,628300,0
2096921,2096921,183187,628200,0
2096921,2096921,183140,628425,0
2096921,2096921,183175,628350,0
2096921,2096921,183077,628440,0
2096921,2096921,183345,628385,0
2096921,2096921,183176,628364,0
2096921,2096921,183135,628211,0
2096921,2096921,183029,628147,0
2096921,2096921,183332,628157,0
2096921,2096921,183388,628404,0
2096921,2096921,183254,628384,0
2096921,2096921,183525,628287,0
2096921,2096921,183375,628300,0
2096921,2096921,182957,628211,0
2096921,2096921,183311,628499,0
2096921,2096921,183242,628895,0
2096921,2096921,183278,628661,0
2096921,2096921,183525,628682,0
2096921,2096921,183640,628819,0
2096921,2096921,183718,628425,0
2096921,2096921,183586,628621,0
2096921,2096921,183112,628272,0
2096921,2096921,183296,628527,0
2096921,2096921,183145,628909,0
2096921,2096921,183406,628958,0
2096921,2096921,183411,628895,0
2096921,2096921,183961,628806,0
2096921,2096921,183553,628704,0
2096921,2096921,183556,628866,0
2096921,2096921,183677,628960,0
2096921,2096921,183408,628941,0
2096921,2096921,183638,629023,0
2096921,2096921,183504,629151,0
2096921,2096921,183605,629068,0
2096921,2096921,183416,629239,0
2096921,2096921,183593,629156,0
2096921,2096921,183487,629340,0
2096921,2096921,183505,629158,0
2096921,2096921,183648,629356,0
2096921,2096921,183636,629067,0
2096921,2096921,183758,629360,0
2096921,2096921,183694,629067,0
2096921,2096921,183688,629234,0
2096921,2096921,183416,629414,0
2096921,2096921,183548,629433,0
2096921,2096921,183851,629450,0
2096921,2096921,183874,629460,0
2096921,2096921,183735,629339,0
2096921,2096921,183823,629187,0
2096921,2096921,183867,629453,0
2096921,2096921,184014,629433,0
2096921,2096921,183731,629358,0
2096921,2096921,183588,629387,0
2096921,2096921,183376,629408,0
2096921,2096921,183672,629591,0
2096921,2096921,183856,629829,0
2096921,2096921,183739,629520,0
2096921,2096921,183844,629616,0
2096921,2096921,184012,629644,0
2096921,2096921,184022,629751,0
2096921,2096921,183776,629840,0
2096921,2096921,183920,629863,0
2096921,2096921,183810,629511,0
2096921,2096921,183844,629670,0
2096921,2096921,183828,629598,0
2096921,2096921,183944,629789,0
2096921,2096921,183938,629593,0
2096921,2096921,184055,629855,0
2096921,2096921,183896,629819,0
2096921,2096921,183892,629706,0
2096921,2096921,184178,629978,0
2096921,2096921,183733,629727,0
2096921,2096921,183646,630053,0
2096921,2096921,183963,630043,0
2096921,2096921,183742,630040,0
2096921,2096921,183962,630228,0
2096921,2096921,183672,630106,0
2096921,2096921,183883,630175,0
2096921,2096921,183875,629796,0
2096921,2096921,183909,630054,0
2096921,2096921,183992,629876,0
2096921,2096921,184075,629898,0
2096921,2096921,184169,629718,0
2096921,2096921,183866,630021,0
2096921,2096921,183651,629499,0
2096921,2096921,183684,630105,0
2096921,2096921,183686,630132,0
2096921,2096921,183724,630387,0
2096921,2096921,183834,629803,0
2096921,2096921,183621,629815,0
2096921,2096921,183739,629583,0
2096921,2096921,183821,629987,0
2096921,2096921,183532,629830,0
2096921,2096921,183697,630013,0
2096921,2096921,183759,630200,0
2096921,2096921,184038,630050,0
2096921,2096921,183701,629761,0
2096921,2096921,184004,630049,0
2096921,2096921,183876,629737,0
2096921,2096921,184080,629979,0
2096921,2096921,183878,629627,0
2096921,2096921,183793,629621,0
2096921,2096921,183772,629687,0
2096921,2096921,183524,629762,0
2096921,2096921,183741,630121,0
2096921,2096921,183617,630080,0
2096921,2096921,183683,629830,0
2096921,2096921,183721,629862,0
2096921,2096921,183908,629866,0
2096921,2096921,183698,629977,0
2096921,2096921,184005,629871,0
2096921,2096921,183992,629977,0
2096921,2096921,184046,629800,0
2096921,2096921,183478,629782,0
2096921,2096921,183803,629947,0
2096921,2096921,183702,629964,0
2096921,2096921,183687,629754,0
2096921,2096921,183744,630157,0
2096921,2096921,184275,630225,0
2096921,2096921,184124,630174,0
2096921,2096921,183861,630004,0
2096921,2096921,183716,629823,0
2096921,2096921,183923,630063,0
2096921,2096921,184184,630238,0
2096921,2096921,184015,630196,0
2096921,2096921,183886,629881,0
2096921,2096921,183766,630282,0
2096921,2096921,183873,630033,0
2096921,2096921,184217,630208,0
2096921,2096921,184196,630115,0
2096921,2096921,184199,630196,0
2096921,2096921,183873,630166,0
2096921,2096921,184068,630152,0
2096921,2096921,183984,630044,0
2096921,2096921,183811,630240,0
2096921,2096921,183989,630200,0
2096921,2096921,183791,630620,0
2096921,2096921,183577,630369,0
2096921,2096921,183922,630315,0
2096921,2096921,183956,630303,0
2096921,2096921,184064,630330,0
2096921,2096921,184079,630299,0
2096921,2096921,184212,630106,0
2096921,2096921,184058,630223,0
2096921,2096921,183982,630494,0
2096921,2096921,184037,630605,0
2096921,2096921,183831,630416,0
2096921,2096921,184017,630421,0
2096921,2096921,184058,630404,0
2096921,2096921,184061,630470,0
2096921,2096921,184177,630414,0
2096921,2096921,184298,630101,0
2096921,2096921,184121,630408,0
2096921,2096921,184165,630259,0
2096921,2096921,183918,630038,0
2096921,2096921,184041,630313,0
2096921,2096921,184096,630565,0
2096921,2096921,183947,630316,0
2096921,2096921,184230,630504,0
2096921,2096921,184420,630588,0
2096921,2096921,184589,630489,0
2096921,2096921,184326,630377,0
2096921,2096921,184079,630578,0
2096921,2096921,184237,630139,0
2096921,2096921,184084,630397,0
2096921,2096921,183987,630516,0
2096921,2096921,183808,630719,0
2096921,2096921,184004,630477,0
2096921,2096921,184306,630546,0
2096921,2096921,184487,630267,0
2096921,2096921,184602,630541,0
2096921,2096921,184377,630507,0
2096921,2096921,184213,630719,0
2096921,2096921,184293,630620,0
2096921,2096921,184361,630587,0
2096921,2096921,184149,630777,0
2096921,2096921,184160,630610,0
2096921,2096921,184161,630583,0
2096921,2096921,184368,630610,0
2096921,2096921,183974,630700,0
2096921,2096921,184299,630896,0
2096921,2096921,184339,630712,0
2096921,2096921,184136,630771,0
2096921,2096921,184039,630745,0
2096921,2096921,184116,630557,0
2096921,2096921,183979,630969,0
2096921,2096921,184189,630825,0
2096921,2096921,184482,631040,0
2096921,2096921,184332,630551,0
2096921,2096921,184354,631069,0
2096921,2096921,184429,630757,0
2096921,2096921,184344,630732,0
2096921,2096921,184257,630541,0
2096921,2096921,184488,630866,0
2096921,2096921,184358,630795,0
2096921,2096921,184223,630487,0
2096921,2096921,184252,630614,0
2096921,2096921,184323,630997,0
2096921,2096921,184539,631049,0
2096921,2096921,184484,631069,0
2096921,2096921,184284,630911,0
2096921,2096921,184398,630997,0
2096921,2096921,184225,630852,0
2096921,2096921,184268,630773,0
2096921,2096921,184398,631093,0
2096921,2096921,184263,631000,0
2096921,2096921,184283,631027,0
2096921,2096921,184406,631000,0
2096921,2096921,184358,630849,0
2096921,2096921,184243,630961,0
2096921,2096921,184409,630912,0
2096921,2096921,184534,630965,0
2096921,2096921,184641,631032,0
2096921,2096921,184391,631077,0
2096921,2096921,184261,631042,0
2096921,2096921,184306,630918,0
2096921,2096921,184484,630923,0
2096921,2096921,184491,630768,0
2096921,2096921,184341,631179,0
2096921,2096921,184169,631214,0
2096921,2096921,184196,631269,0
2096921,2096921,184436,631139,0
2096921,2096921,184505,630829,0
2096921,2096921,184551,630977,0
2096921,2096921,184333,630836,0
2096921,2096921,184395,631146,0
2096921,2096921,184408,631094,0
2096921,2096921,184475,631145,0
2096921,2096921,184268,631503,0
2096921,2096921,184295,631094,0
2096921,2096921,184517,631236,0
2096921,2096921,184344,631135,0
2096921,2096921,184296,631102,0
2096921,2096921,184334,631202,0
2096921,2096921,184426,631355,0
2096921,2096921,184324,630824,0
2096921,2096921,184695,630889,0
2096921,2096921,184634,631251,0
2096921,2096921,184488,631275,0
2096921,2096921,184592,631217,0
2096921,2096921,184483,631278,0
2096921,2096921,184155,631048,0
2096921,2096921,184218,631241,0
2096921,2096921,184281,631171,0
2096921,2096921,184470,630998,0
2096921,2096921,184486,631032,0
2096921,2096921,184431,631207,0
2096921,2096921,184784,631285,0
2096921,2096921,184470,630972,0
2096921,2096921,184357,631287,0
2096921,2096921,184360,631401,0
2096921,2096921,184552,631302,0
2096921,2096921,184524,631437,0
2096921,2096921,184234,631668,0
2096921,2096921,184357,631341,0
2096921,2096921,184388,631373,0
2096921,2096921,184434,631151,0
2096921,2096921,184456,631115,0
2096921,2096921,184339,631221,0
2096921,2096921,184577,631472,0
2096921,2096921,184425,631648,0
2096921,2096921,184557,631574,0
2096921,2096921,184453,631368,0
2096921,2096921,184490,631368,0
2096921,2096921,184423,631137,0
2096921,2096921,184681,631387,0
2096921,2096921,184733,631183,0
2096921,2096921,184740,631438,0
2096921,2096921,184574,631410,0
2096921,2096921,184601,631594,0
2096921,2096921,184698,631314,0
2096921,2096921,184498,631586,0
2096921,2096921,184561,631615,0
2096921,2096921,184380,631517,0
2096921,2096921,184413,631419,0
2096921,2096921,184521,631082,0
2096921,2096921,184788,631107,0
2096921,2096921,184636,631572,0
2096921,2096921,184662,631340,0
2096921,2096921,184465,631423,0
2096921,2096921,184217,631399,0
2096921,2096921,184650,631348,0
2096921,2096921,184505,631202,0
2096921,2096921,184397,631431,0
2096921,2096921,184439,631699,0
2096921,2096921,184500,631408,0
2096921,2096921,184536,631460,0
2096921,2096921,184692,631238,0
2096921,2096921,184707,631381,0
2096921,2096921,184429,631323,0
2096921,2096921,184712,631344,0
2096921,2096921,184233,631510,0
2096921,2096921,184431,631547,0
2096921,2096921,184583,631329,0
2096921,2096921,184540,631445,0
2096921,2096921,184603,631457,0
2096921,2096921,184574,631117,0
2096921,2096921,184505,631295,0
2096921,2096921,184759,631291,0
2096921,2096921,184617,631316,0
2096921,2096921,184554,631368,0
2096921,2096921,184428,631341,0
2096921,2096921,184702,631522,0
2096921,2096921,184624,631731,0
2096921,2096921,184406,631436,0
2096921,2096921,184596,631432,0
2096921,2096921,184687,631425,0
2096921,2096921,184732,631386,0
2096921,2096921,184499,631514,0
2096921,2096921,184811,631599,0
2096921,2096921,184971,631650,0
2096921,2096921,184833,631509,0
2096921,2096921,184425,631591,0
2096921,2096921,184275,631247,0
2096921,2096921,184443,631344,0
2096921,2096921,184622,631423,0
2096921,2096921,184641,631596,0
2096921,2096921,184551,631392,0
2096921,2096921,184699,631701,0
2096921,2096921,184724,631479,0
2096921,2096921,184451,631440,0
2096921,2096921,184536,631496,0
2096921,2096921,184530,631457,0
2096921,2096921,184628,631467,0
2096921,2096921,184625,631366,0
2096921,2096921,184952,631588,0
2096921,2096921,184903,631257,0
2096921,2096921,184609,631512,0
2096921,2096921,184450,631782,0
2096921,2096921,184637,631493,0
2096921,2096921,184542,631586,0
2096921,2096921,184673,631582,0
2096921,2096921,184587,631309,0
2096921,2096921,184576,631364,0
2096921,2096921,184429,631317,0
2096921,2096921,184576,631265,0
2096921,2096921,184415,631547,0
2096921,2096921,184902,631222,0
2096921,2096921,184759,631435,0
2096921,2096921,184798,631865,0
2096921,2096921,184510,632013,0
2096921,2096921,184549,631678,0
2096921,2096921,184599,631287,0
2096921,2096921,184618,631071,0
2096921,2096921,184836,631127,0
2096921,2096921,184845,631129,0
2096921,2096921,184707,631315,0
2096921,2096921,184639,631052,0
2096921,2096921,184389,631409,0
2096921,2096921,184458,631317,0
2096921,2096921,184473,631437,0
2096921,2096921,184416,631386,0
2096921,2096921,184430,631401,0
2096921,2096921,184614,631501,0
2096921,2096921,184719,631388,0
2096921,2096921,184776,631204,0
2096921,2096921,184763,631609,0
2096921,2096921,184597,631582,0
2096921,2096921,184605,631727,0
2096921,2096921,184721,631651,0
2096921,2096921,184552,631583,0
2096921,2096921,184798,631526,0
2096921,2096921,184757,631187,0
2096921,2096921,184541,631412,0
2096921,2096921,184498,631206,0
2096921,2096921,184625,631392,0
2096921,2096921,184589,631352,0
2096921,2096921,184642,631553,0
2096921,2096921,184855,631133,0
2096921,2096921,184867,631511,0
2096921,2096921,184570,631228,0
2096921,2096921,184573,631492,0
2096921,2096921,184779,631009,0
2096921,2096921,184661,631059,0
2096921,2096921,184550,631085,0
2096921,2096921,184441,631183,0
2096921,2096921,184193,631369,0
2096921,2096921,184408,631435,0
2096921,2096921,184504,631419,0
2096921,2096921,184554,631130,0
2096921,2096921,184660,631340,0
2096921,2096921,184578,631270,0
2096921,2096921,184657,631121,0
2096921,2096921,184479,631116,0
2096921,2096921,184516,631344,0
2096921,2096921,184518,631421,0
2096921,2096921,184531,631371,0
2096921,2096921,184577,631235,0
2096921,2096921,184727,631547,0
2096921,2096921,184622,631435,0
2096921,2096921,184624,631222,0
2096921,2096921,184783,631130,0
2096921,2096921,184492,631343,0
2096921,2096921,184373,631292,0
2096921,2096921,184528,631187,0
2096921,2096921,184367,631225,0
2096921,2096921,184389,631166,0
2096921,2096921,184571,631344,0
2096921,2096921,184202,631410,0
2096921,2096921,184321,631017,0
2096921,2096921,184494,630712,0
2096921,2096921,184368,630849,0
2096921,2096921,184555,630660,0
2096921,2096921,184216,630728,0
2096921,2096921,184155,630923,0
2096921,2096921,184185,630769,0
2096921,2096921,184506,630836,0
2096921,2096921,184485,630989,0
2096921,2096921,184463,630734,0
2096921,2096921,184436,630625,0
2096921,2096921,184219,630790,0
2096921,2096921,184293,630763,0
2096921,2096921,184355,630826,0
2096921,2096921,184331,630431,0
2096921,2096921,184068,630190,0
2096921,2096921,183870,630640,0
2096921,2096921,184017,630405,0
2096921,2096921,184036,630528,0
2096921,2096921,183950,630570,0
2096921,2096921,183585,630034,0
2096921,2096921,183715,629940,0
2096921,2096921,183810,629955,0
2096921,2096921,183600,629956,0
2096921,2096921,183615,630078,0
2096921,2096921,183712,629491,0
2096921,2096921,184011,629412,0
2096921,2096921,183715,629391,0
2096921,2096921,183637,629495,0
2096921,2096921,183588,629883,0
2096921,2096921,183480,629342,0
2096921,2096921,183458,628968,0
2096921,2096921,183600,629056,0
2096921,2096921,183163,629218,0
2096921,2096921,183503,629060,0
2096921,2096921,183539,628747,0
2096921,2096921,183677,628857,0
2096921,2096921,183633,628709,0
2096921,2096921,183553,628844,0
2096921,2096921,183323,628779,0
2096921,2096921,183371,628490,0
2096921,2096921,183177,628458,0
2096921,2096921,183395,628624,0
2096921,2096921,183064,628545,0
2096921,2096921,183338,628446,0
2096921,2096921,183078,628134,0
2096921,2096921,183088,628146,0
2096921,2096921,183279,628246,0
2096921,2096921,183349,628333,0
2096921,2096921,183341,628270,0
2096921,2096921,183282,628361,0
2096921,2096921,183049,628250,0
2096921,2096921,183013,628207,0
2096921,2096921,182865,628133,0
2096921,2096921,183005,628155,0
2096921,2096921,182689,627841,0
2096921,2096921,183168,627964,0
2096921,2096921,183162,628198,0
2096921,2096921,183021,628002,0
2096921,2096921,182965,627839,0
2096921,2096921,182837,627909,0
2096921,2096921,182746,628017,0
2096921,2096921,182945,628139,0
2096921,2096921,182660,628153,0
2096921,2096921,182797,627810,0
2096921,2096921,182913,627754,0
2096921,2096921,183002,627979,0
2096921,2096921,182999,627585,0
2096921,2096921,183215,627776,0
2096921,2096921,182910,627989,0
2096921,2096921,182875,628007,0
2096921,2096921,182697,627704,0
2096921,2096921,182824,627928,0
2096921,2096921,182839,627730,0
2096921,2096921,182914,627556,0
2096921,2096921,182850,627459,0
2096921,2096921,182824,627621,0
2096921,2096921,182856,627604,0
2096921,2096921,182917,627807,0
2096921,2096921,183016,627896,0
2096921,2096921,182905,627752,0
2096921,2096921,182784,627681,0
2096921,2096921,182829,627722,0
2096921,2096921,182917,627837,0
2096921,2096921,182656,627486,0
2096921,2096921,183071,627774,0
2096921,2096921,182981,628013,0
2096921,2096921,183388,627937,0
2096921,2096921,183025,627725,0
2096921,2096921,183067,627637,0
2096921,2096921,183102,627888,0
2096921,2096921,183253,627508,0
2096921,2096921,183031,627970,0
2096921,2096921,182925,627859,0
2096921,2096921,182682,627556,0
2096921,2096921,182892,627604,0
2096921,2096921,182900,627639,0
2096921,2096921,183030,627645,0
2096921,2096921,182801,627920,0
2096921,2096921,183240,627825,0
2096921,2096921,182785,627951,0
2096921,2096921,182714,627859,0
2096921,2096921,182708,627963,0
2096921,2096921,183176,627975,0
2096921,2096921,183055,627892,0
2096921,2096921,183201,628230,0
2096921,2096921,183138,628030,0
2096921,2096921,183292,628033,0
2096921,2096921,183251,627922,0
2096921,2096921,183041,627748,0
2096921,2096921,182940,627778,0
2096921,2096921,183112,627775,0
2096921,2096921,182972,627883,0
2096921,2096921,182861,627836,0
2096921,2096921,182826,627861,0
2096921,2096921,182848,627854,0
2096921,2096921,183177,627577,0
2096921,2096921,183300,628117,0
2096921,2096921,183334,627869,0
2096921,2096921,183331,628088,0
2096921,2096921,183179,628286,0
2096921,2096921,183101,628084,0
2096921,2096921,183128,628067,0
2096921,2096921,183196,627905,0
2096921,2096921,183122,627635,0
2096921,2096921,183090,628151,0
2096921,2096921,183098,628089,0
2096921,2096921,183092,628286,0
2096921,2096921,183234,627958,0
2096921,2096921,183409,627994,0
2096921,2096921,183223,627831,0
2096921,2096921,183251,628036,0
2096921,2096921,183219,627794,0
2096921,2096921,183129,627897,0
2096921,2096921,183030,628200,0
2096921,2096921,183154,628075,0
2096921,2096921,183219,628133,0
2096921,2096921,183151,628082,0
2096921,2096921,183555,627843,0
2096921,2096921,183499,628192,0
2096921,2096921,183151,628111,0
2096921,2096921,183362,627932,0
2096921,2096921,183078,628095,0
2096921,2096921,183034,628071,0
2096921,2096921,182987,628073,0
2096921,2096921,183064,628153,0
2096921,2096921,183224,627956,0
2096921,2096921,183205,627731,0
2096921,2096921,183177,627874,0
2096921,2096921,183190,627793,0
2096921,2096921,183194,628140,0
2096921,2096921,183295,628123,0
2096921,2096921,183274,628100,0
2096921,2096921,183305,628024,0
2096921,2096921,182993,628004,0
2096921,2096921,183374,627833,0
2096921,2096921,183236,627887,0
2096921,2096921,183196,627798,0
2096921,2096921,183356,627875,0
2096921,2096921,183390,627880,0
2096921,2096921,183583,628005,0
2096921,2096921,183325,628118,0
2096921,2096921,183160,627816,0
2096921,2096921,183025,627940,0
2096921,2096921,183109,627821,0
2096921,2096921,183428,627975,0
2096921,2096921,183344,628059,0
2096921,2096921,183246,627902,0
2096921,2096921,183186,628324,0
2096921,2096921,183027,628026,0
2096921,2096921,183180,627902,0
2096921,2096921,183429,627842,0
2096921,2096921,183347,627620,0
2096921,2096921,183326,627615,0
2096921,2096921,182910,627568,0
2096921,2096921,183173,627856,0
2096921,2096921,183125,627804,0
2096921,2096921,183354,627828,0
2096921,2096921,183184,627772,0
2096921,2096921,183059,627795,0
2096921,2096921,183152,627587,0
2096921,2096921,183153,627781,0
2096921,2096921,183048,627513,0
2096921,2096921,183289,627577,0
2096921,2096921,183052,627709,0
2096921,2096921,183141,627417,0
2096921,2096921,183009,627217,0
2096921,2096921,183127,627356,0
2096921,2096921,183342,627454,0
2096921,2096921,183201,627534,0
2096921,2096921,183158,627474,0
2096921,2096921,183139,627551,0
2096921,2096921,183009,627359,0
2096921,2096921,182982,627577,0
2096921,2096921,182802,627440,0
2096921,2096921,182936,627401,0
2096921,2096921,183211,627248,0
2096921,2096921,183083,627429,0
2096921,2096921,183201,627382,0
2096921,2096921,183123,627541,0
2096921,2096921,183073,627200,0
2096921,2096921,182937,627443,0
2096921,2096921,182921,627346,0
2096921,2096921,182887,627327,0
2096921,2096921,182895,627140,0
2096921,2096921,182975,627164,0
2096921,2096921,182796,627113,0
2096921,2096921,183120,627047,0
2096921,2096921,183170,626842,0
2096921,2096921,183109,627220,0
2096921,2096921,183200,627151,0
2096921,2096921,182863,626928,0
2096921,2096921,182974,627313,0
2096921,2096921,183102,627083,0
2096921,2096921,182844,627008,0
2096921,2096921,182821,627158,0
2096921,2096921,182953,627137,0
2096921,2096921,182953,627039,0
2096921,2096921,183018,626965,0
2096921,2096921,182847,627037,0
2096921,2096921,182910,626969,0
2096921,2096921,183000,626955,0
2096921,2096921,183162,626880,0
2096921,2096921,182817,627023,0
2096921,2096921,183014,626741,0
2096921,2096921,182787,626801,0
2096921,2096921,182931,627087,0
2096921,2096921,182899,626714,0
2096921,2096921,182932,626859,0
2096921,2096921,182757,626690,0
2096921,2096921,182924,626864,0
2096921,2096921,183003,626919,0
2096921,2096921,183244,626825,0
2096921,2096921,183084,626759,0
2096921,2096921,182810,626903,0
2096921,2096921,182799,626950,0
2096921,2096921,182979,627032,0
2096921,2096921,183108,626940,0
2096921,2096921,183266,626857,0
2096921,2096921,183115,626915,0
2096921,2096921,183072,626826,0
2096921,2096921,182931,626770,0
2096921,2096921,182902,626751,0
2096921,2096921,183006,626805,0
2096921,2096921,182953,626677,0
2096921,2096921,182837,626981,0
2096921,2096921,182938,626686,0
2096921,2096921,182969,626856,0
2096921,2096921,183015,626917,0
2096921,2096921,183224,626735,0
2096921,2096921,182885,626720,0
2096921,2096921,182895,627081,0
2096921,2096921,183108,626959,0
2096921,2096921,182862,626802,0
2096921,2096921,182696,626787,0
2096921,2096921,183049,626773,0
2096921,2096921,182743,626734,0
2096921,2096921,182833,626758,0
2096921,2096921,182918,626693,0
2096921,2096921,182839,626469,0
2096921,2096921,182543,626552,0
2096921,2096921,183086,626356,0
2096921,2096921,182782,626203,0
2096921,2096921,182851,626332,0
2096921,2096921,183003,626747,0
2096921,2096921,183089,626808,0
2096921,2096921,183031,627166,0
2096921,2096921,183051,626848,0
2096921,2096921,183108,626850,0
2096921,2096921,183177,626873,0
2096921,2096921,183060,626922,0
2096921,2096921,183099,626637,0
2096921,2096921,182918,626470,0
2096921,2096921,182923,626512,0
2096921,2096921,182889,626371,0
2096921,2096921,182893,626325,0
2096921,2096921,182735,626615,0
2096921,2096921,182895,626537,0
2096921,2096921,182938,626673,0
2096921,2096921,183245,626643,0
2096921,2096921,182805,626633,0
2096921,2096921,183089,626759,0
2096921,2096921,182969,626749,0
2096921,2096921,183188,626529,0
2096921,2096921,183006,626401,0
2096921,2096921,183027,626315,0
2096921,2096921,182750,626662,0
2096921,2096921,182668,626736,0
2096921,2096921,182801,626865,0
2096921,2096921,182743,626594,0
2096921,2096921,183081,626665,0
2096921,2096921,182951,626378,0
2096921,2096921,182679,626584,0
2096921,2096921,182580,626536,0
2096921,2096921,182827,626493,0
2096921,2096921,182971,626500,0
2096921,2096921,182714,626120,0
2096921,2096921,183076,626548,0
2096921,2096921,183081,626495,0
2096921,2096921,183180,626471,0
2096921,2096921,182824,626525,0
2096921,2096921,182887,626411,0
2096921,2096921,183169,626513,0
2096921,2096921,183287,626316,0
2096921,2096921,182951,626176,0
2096921,2096921,183103,626427,0
2096921,2096921,182746,626321,0
2096921,2096921,182631,626446,0
2096921,2096921,182833,626364,0
2096921,2096921,183018,626358,0
2096921,2096921,183117,626434,0
2096921,2096921,182990,626675,0
2096921,2096921,183078,626347,0
2096921,2096921,182927,626368,0
2096921,2096921,182890,626148,0
2096921,2096921,182761,626098,0
2096921,2096921,182758,625986,0
2096921,2096921,182785,626204,0
2096921,2096921,182919,626493,0
2096921,2096921,182865,626322,0
2096921,2096921,183020,626438,0
2096921,2096921,182902,626351,0
2096921,2096921,182978,626319,0
2096921,2096921,183015,626176,0
2096921,2096921,183101,626224,0
2096921,2096921,183012,626224,0
2096921,2096921,182865,626183,0
2096921,2096921,182783,626258,0
2096921,2096921,182884,626483,0
2096921,2096921,182804,626340,0
2096921,2096921,182810,626045,0
2096921,2096921,183107,626236,0
2096921,2096921,183252,625993,0
2096921,2096921,182717,626017,0
2096921,2096921,182776,625760,0
2096921,2096921,182922,625924,0
2096921,2096921,182966,626067,0
2096921,2096921,182898,626001,0
2096921,2096921,183206,626201,0
2096921,2096921,182831,625951,0
2096921,2096921,182879,626093,0
2096921,2096921,182487,626166,0
2096921,2096921,182803,626473,0
2096921,2096921,182828,626053,0
2096921,2096921,182905,625844,0
2096921,2096921,182748,625976,0
2096921,2096921,182815,625985,0
2096921,2096921,182801,626012,0
2096921,2096921,183200,626072,0
2096921,2096921,183042,626275,0
2096921,2096921,183134,626292,0
2096921,2096921,183063,626080,0
2096921,2096921,182812,626146,0
2096921,2096921,182979,626223,0
2096921,2096921,182871,626332,0
2096921,2096921,182708,626052,0
2096921,2096921,183010,626200,0
2096921,2096921,182778,626025,0
2096921,2096921,182859,626064,0
2096921,2096921,182876,626374,0
2096921,2096921,182902,626146,0
2096921,2096921,182973,626091,0
2096921,2096921,182719,625846,0
2096921,2096921,182845,626033,0
2096921,2096921,182780,626079,0
2096921,2096921,182761,625879,0
2096921,2096921,182711,625905,0
2096921,2096921,183050,625908,0
2096921,2096921,182953,626127,0
2096921,2096921,183034,625967,0
2096921,2096921,182813,625940,0
2096921,2096921,182933,625962,0
2096921,2096921,182627,625928,0
2096921,2096921,182884,626054,0
2096921,2096921,183023,625881,0
2096921,2096921,182920,625985,0
2096921,2096921,183087,626118,0
2096921,2096921,183483,625782,0
2096921,2096921,182905,626027,0
2096921,2096921,183015,625802,0
2096921,2096921,182912,625532,0
2096921,2096921,182835,625846,0
2096921,2096921,182885,626080,0
2096921,2096921,182674,625829,0
2096921,2096921,182713,625860,0
2096921,2096921,182723,625654,0
2096921,2096921,182961,625661,0
2096921,2096921,182944,625599,0
2096921,2096921,183234,625859,0
2096921,2096921,182967,625999,0
2096921,2096921,182760,625696,0
2096921,2096921,182665,626092,0
2096921,2096921,182778,625518,0
2096921,2096921,182783,625787,0
2096921,2096921,182578,625939,0
2096921,2096921,182666,625654,0
2096921,2096921,182882,625673,0
2096921,2096921,182736,625893,0
2096921,2096921,183018,625688,0
2096921,2096921,182940,625849,0
2096921,2096921,182651,625708,0
2096921,2096921,182706,625845,0
2096921,2096921,182754,625640,0
2096921,2096921,182565,625695,0
2096921,2096921,182832,625940,0
2096921,2096921,182724,625843,0
2096921,2096921,182905,625755,0
2096921,2096921,182837,625674,0
2096921,2096921,182884,625420,0
2096921,2096921,182907,625602,0
2096921,2096921,182923,625724,0
2096921,2096921,182645,625570,0
2096921,2096921,182737,625516,0
2096921,2096921,182519,625739,0
2096921,2096921,182689,625569,0
2096921,2096921,182794,625592,0
2096921,2096921,182706,625631,0
2096921,2096921,183094,625651,0
2096921,2096921,183106,625463,0
2096921,2096921,182958,625464,0
2096921,2096921,182867,625477,0
2096921,2096921,182743,625648,0
2096921,2096921,182897,625813,0
2096921,2096921,182774,625674,0
2096921,2096921,182828,625505,0
2096921,2096921,182807,625546,0
2096921,2096921,182843,625739,0
2096921,2096921,182715,625485,0
2096921,2096921,183252,625937,0
2096921,2096921,182967,625478,0
2096921,2096921,182934,625448,0
2096921,2096921,182615,625447,0
2096921,2096921,182692,625439,0
2096921,2096921,182685,625537,0
2096921,2096921,182678,625398,0
2096921,2096921,182742,625312,0
2096921,2096921,182705,625346,0
2096921,2096921,183226,625296,0
2096921,2096921,182948,625495,0
2096921,2096921,183135,625435,0
2096921,2096921,183003,625393,0
2096921,2096921,182942,625447,0
2096921,2096921,182731,625458,0
2096921,2096921,182948,625489,0
2096921,2096921,182859,625569,0
2096921,2096921,182521,625352,0
2096921,2096921,182767,625520,0
2096921,2096921,182724,625623,0
2096921,2096921,182953,625570,0
2096921,2096921,183001,625647,0
2096921,2096921,182800,625780,0
2096921,2096921,182844,625234,0
2096921,2096921,182664,625361,0
2096921,2096921,182837,625446,0
2096921,2096921,182575,625229,0
2096921,2096921,182719,625065,0
2096921,2096921,182582,625175,0
2096921,2096921,182726,625366,0
2096921,2096921,182785,625497,0
2096921,2096921,182661,625277,0
2096921,2096921,182634,625363,0
2096921,2096921,182833,625804,0
2096921,2096921,182819,625394,0
2096921,2096921,182853,625446,0
2096921,2096921,182591,625337,0
2096921,2096921,182662,625292,0
2096921,2096921,182676,625471,0
2096921,2096921,183015,625481,0
2096921,2096921,183187,625514,0
2096921,2096921,182817,625179,0
2096921,2096921,182661,625362,0
2096921,2096921,182688,625145,0
2096921,2096921,182526,625126,0
2096921,2096921,182588,625282,0
2096921,2096921,182594,625217,0
2096921,2096921,182815,625146,0
2096921,2096921,182677,625194,0
2096921,2096921,182848,625502,0
2096921,2096921,182786,625096,0
2096921,2096921,182829,625537,0
2096921,2096921,183042,625366,0
2096921,2096921,182774,625363,0
2096921,2096921,182898,624991,0
2096921,2096921,182833,625024,0
2096921,2096921,182565,624918,0
2096921,2096921,182746,625194,0
2096921,2096921,182945,625284,0
2096921,2096921,182895,625179,0
2096921,2096921,182912,625246,0
2096921,2096921,182712,625215,0
2096921,2096921,182894,625031,0
2096921,2096921,182964,625273,0
2096921,2096921,182659,625358,0
2096921,2096921,182766,625145,0
2096921,2096921,182507,624927,0
2096921,2096921,182493,624972,0
2096921,2096921,182674,625011,0
2096921,2096921,182578,625070,0
2096921,2096921,182966,625198,0
2096921,2096921,182574,625594,0
2096921,2096921,182638,625014,0
2096921,2096921,182575,625239,0
2096921,2096921,182551,625206,0
2096921,2096921,182497,624954,0
2096921,2096921,182655,624988,0
2096921,2096921,182325,625096,0
2096921,2096921,182403,624882,0
2096921,2096921,182344,624700,0
2096921,2096921,182481,624915,0
2096921,2096921,182523,624987,0
2096921,2096921,182588,624733,0
2096921,2096921,182413,624625,0
2096921,2096921,182392,624752,0
2096921,2096921,182428,624847,0
2096921,2096921,182180,624688,0
2096921,2096921,182266,624482,0
2096921,2096921,182596,624416,0
2096921,2096921,182417,624423,0
2096921,2096921,182532,624544,0
2096921,2096921,182390,624521,0
2096921,2096921,182369,624263,0
2096921,2096921,182353,624118,0
2096921,2096921,182337,624222,0
2096921,2096921,181907,624052,0
2096921,2096921,182042,623914,0
2096921,2096921,181724,623541,0
2096921,2096921,181772,623619,0
2096921,2096921,181674,623556,0
2096921,2096921,181966,623659,0
2096921,2096921,182108,623672,0
2096921,2096921,181961,623384,0
2096921,2096921,181929,623204,0
2096921,2096921,181541,623399,0
2096921,2096921,181730,623110,0
2096921,2096921,181495,623171,0
2096921,2096921,181432,623108,0
2096921,2096921,181419,623090,0
2096921,2096921,181720,622750,0
2096921,2096921,181709,623125,0
2096921,2096921,181710,623225,0
2096921,2096921,181592,622937,0
2096921,2096921,181631,622602,0
2096921,2096921,181350,622880,0
2096921,2096921,181493,623009,0
2096921,2096921,181687,622714,0
2096921,2096921,181277,622981,0
2096921,2096921,181094,622825,0
2096921,2096921,181383,622601,0
2096921,2096921,181252,622793,0
2096921,2096921,181702,622892,0
2096921,2096921,181379,622931,0
2096921,2096921,181111,622607,0
2096921,2096921,181476,622463,0
2096921,2096921,181394,622734,0
2096921,2096921,181148,622702,0
2096921,2096921,181283,622645,0
2096921,2096921,181251,622511,0
2096921,2096921,181383,622841,0
2096921,2096921,181348,622832,0
2096921,2096921,181122,622837,0
2096921,2096921,181067,622775,0
2096921,2096921,181128,622645,0
2096921,2096921,181111,622641,0
2096921,2096921,181380,622386,0
2096921,2096921,181287,622366,0
2096921,2096921,181313,622359,0
2096921,2096921,181467,622066,0
2096921,2096921,181523,622795,0
2096921,2096921,181488,622698,0
2096921,2096921,181324,622674,0
2096921,2096921,181437,622778,0
2096921,2096921,181276,622718,0
2096921,2096921,181750,622777,0
2096921,2096921,181477,622735,0
2096921,2096921,181342,622556,0
2096921,2096921,181320,622655,0
2096921,2096921,181286,622615,0
2096921,2096921,181556,622604,0
2096921,2096921,181567,622787,0
2096921,2096921,181411,622991,0
2096921,2096921,181363,622841,0
2096921,2096921,181344,622655,0
2096921,2096921,181301,622755,0
2096921,2096921,181266,622562,0
2096921,2096921,181225,622811,0
2096921,2096921,181419,623153,0
2096921,2096921,181674,622874,0
2096921,2096921,181450,622631,0
2096921,2096921,181569,622496,0
2096921,2096921,181642,622531,0
2096921,2096921,181406,622504,0
2096921,2096921,181654,622614,0
2096921,2096921,181539,623033,0
2096921,2096921,181386,622975,0
2096921,2096921,181576,622844,0
2096921,2096921,181676,622783,0
2096921,2096921,181923,622959,0
2096921,2096921,181570,622878,0
2096921,2096921,181718,622878,0
2096921,2096921,181395,622794,0
2096921,2096921,181355,623051,0
2096921,2096921,181498,623056,0
2096921,2096921,181480,623011,0
2096921,2096921,181474,622959,0
2096921,2096921,181485,623027,0
2096921,2096921,181359,622990,0
2096921,2096921,181619,622942,0
2096921,2096921,181421,623040,0
2096921,2096921,181524,623136,0
2096921,2096921,181783,623201,0
2096921,2096921,181721,623270,0
2096921,2096921,181588,623139,0
2096921,2096921,181528,623181,0
2096921,2096921,181926,623389,0
2096921,2096921,181975,623242,0
2096921,2096921,181702,623341,0
2096921,2096921,181648,623453,0
2096921,2096921,181603,623241,0
2096921,2096921,181547,623481,0
2096921,2096921,181684,623038,0
2096921,2096921,182120,623427,0
2096921,2096921,181827,623225,0
2096921,2096921,181839,623370,0
2096921,2096921,181541,623063,0
2096921,2096921,181540,622956,0
2096921,2096921,181652,622968,0
2096921,2096921,181684,623316,0
2096921,2096921,181833,623176,0
2096921,2096921,181757,623210,0
2096921,2096921,181832,623318,0
2096921,2096921,181805,623126,0
2096921,2096921,181865,623332,0
2096921,2096921,181657,623435,0
2096921,2096921,181687,623395,0
2096921,2096921,181753,623419,0
2096921,2096921,181678,623581,0
2096921,2096921,181675,623398,0
2096921,2096921,181690,623550,0
2096921,2096921,181821,623502,0
2096921,2096921,181997,623567,0
2096921,2096921,182071,623757,0
2096921,2096921,182128,623876,0
2096921,2096921,182078,623630,0
2096921,2096921,182075,623771,0
2096921,2096921,181739,623545,0
2096921,2096921,181910,623746,0
2096921,2096921,181975,623770,0
2096921,2096921,181990,623744,0
2096921,2096921,182281,623605,0
2096921,2096921,182140,623994,0
2096921,2096921,182047,623740,0
2096921,2096921,182042,623829,0
2096921,2096921,182001,623775,0
2096921,2096921,182024,623764,0
2096921,2096921,181827,623850,0
2096921,2096921,181979,623853,0
2096921,2096921,181592,623560,0
2096921,2096921,181809,623780,0
2096921,2096921,181821,623938,0
2096921,2096921,182170,623886,0
2096921,2096921,182389,623666,0
2096921,2096921,182167,623655,0
2096921,2096921,181942,623846,0
2096921,2096921,182189,623748,0
2096921,2096921,182015,623761,0
2096921,2096921,181898,624034,0
2096921,2096921,181828,623798,0
2096921,2096921,182014,623847,0
2096921,2096921,181664,623997,0
2096921,2096921,181999,623826,0
2096921,2096921,181937,623654,0
2096921,2096921,182150,623825,0
2096921,2096921,181841,623793,0
2096921,2096921,182000,623865,0
2096921,2096921,182108,623626,0
2096921,2096921,181918,623510,0
2096921,2096921,181634,623440,0
2096921,2096921,182056,623742,0
2096921,2096921,181998,623955,0
2096921,2096921,181852,624120,0
2096921,2096921,182074,624027,0
2096921,2096921,182003,623822,0
2096921,2096921,182075,623842,0
2096921,2096921,181975,623751,0
2096921,2096921,182018,623545,0
2096921,2096921,181982,623693,0
2096921,2096921,182145,623695,0
2096921,2096921,181983,623761,0
2096921,2096921,181963,623960,0
2096921,2096921,181769,623861,0
2096921,2096921,182051,624073,0
2096921,2096921,182070,623912,0
2096921,2096921,182145,623732,0
2096921,2096921,181925,623458,0
2096921,2096921,181874,623541,0
2096921,2096921,181924,623602,0
2096921,2096921,181915,623687,0
2096921,2096921,181847,623657,0
2096921,2096921,182119,624048,0
2096921,2096921,182001,623845,0
2096921,2096921,181961,623727,0
2096921,2096921,182115,623994,0
2096921,2096921,181916,623840,0
2096921,2096921,182172,623537,0
2096921,2096921,181972,623781,0
2096921,2096921,181669,623988,0
2096921,2096921,181779,623755,0
2096921,2096921,181929,623529,0
2096921,2096921,182128,623615,0
2096921,2096921,182147,623732,0
2096921,2096921,181923,623918,0
2096921,2096921,181863,623919,0
2096921,2096921,182051,623696,0
2096921,2096921,181981,623944,0
2096921,2096921,182058,623842,0
2096921,2096921,181985,623562,0
2096921,2096921,181811,623896,0
2096921,2096921,181860,623815,0
2096921,2096921,182005,623993,0
2096921,2096921,181960,624060,0
2096921,2096921,182136,624348,0
2096921,2096921,182059,624278,0
2096921,2096921,182054,624068,0
2096921,2096921,182145,623800,0
2096921,2096921,181857,624014,0
2096921,2096921,181948,623680,0
2096921,2096921,181862,623899,0
2096921,2096921,181729,624095,0
2096921,2096921,181880,624016,0
2096921,2096921,182122,623773,0
2096921,2096921,181903,624197,0
2096921,2096921,182187,624238,0
2096921,2096921,182210,623967,0
2096921,2096921,182080,624120,0
2096921,2096921,181895,623885,0
2096921,2096921,182271,624116,0
2096921,2096921,181989,623847,0
2096921,2096921,182080,623971,0
2096921,2096921,182054,624271,0
2096921,2096921,182202,624198,0
2096921,2096921,181983,624254,0
2096921,2096921,182016,624124,0
2096921,2096921,181950,624390,0
2096921,2096921,182326,624499,0
2096921,2096921,182023,624299,0
2096921,2096921,182234,624109,0
2096921,2096921,182372,624428,0
2096921,2096921,182173,624246,0
2096921,2096921,182119,624402,0
2096921,2096921,182017,624595,0
2096921,2096921,182229,624426,0
2096921,2096921,182125,624511,0
2096921,2096921,182147,624139,0
2096921,2096921,182259,624257,0
2096921,2096921,182153,624260,0
2096921,2096921,182150,624504,0
2096921,2096921,182293,624490,0
2096921,2096921,182447,624721,0
2096921,2096921,182336,624484,0
2096921,2096921,182122,624659,0
2096921,2096921,182010,624719,0
2096921,2096921,182254,624630,0
2096921,2096921,182230,624599,0
2096921,2096921,182436,624312,0
2096921,2096921,182073,624214,0
2096921,2096921,182322,624394,0
2096921,2096921,182316,624320,0
2096921,2096921,182316,624468,0
2096921,2096921,182566,624690,0
2096921,2096921,182386,624718,0
2096921,2096921,182454,624783,0
2096921,2096921,182389,624904,0
2096921,2096921,182104,624443,0
2096921,2096921,182441,624712,0
2096921,2096921,182381,624700,0
2096921,2096921,182430,624968,0
2096921,2096921,182537,624986,0
2096921,2096921,182246,625031,0
2096921,2096921,182563,624806,0
2096921,2096921,182685,624999,0
2096921,2096921,182766,625180,0
2096921,2096921,182473,624988,0
2096921,2096921,182620,624777,0
2096921,2096921,182390,624944,0
2096921,2096921,182221,624543,0
2096921,2096921,182428,624722,0
2096921,2096921,182357,625135,0
2096921,2096921,182212,625001,0
2096921,2096921,182621,624807,0
2096921,2096921,182723,624842,0
2096921,2096921,182549,625191,0
2096921,2096921,182417,625051,0
2096921,2096921,182281,625033,0
2096921,2096921,182352,625132,0
2096921,2096921,182620,625270,0
2096921,2096921,182318,625321,0
2096921,2096921,182558,625244,0
2096921,2096921,182758,625267,0
2096921,2096921,182630,625248,0
2096921,2096921,182712,625080,0
2096921,2096921,182833,625314,0
2096921,2096921,182530,625398,0
2096921,2096921,182563,625257,0
2096921,2096921,182270,625079,0
2096921,2096921,182278,625414,0
2096921,2096921,182500,625275,0
2096921,2096921,182787,625081,0
2096921,2096921,182639,624992,0
2096921,2096921,182769,625319,0
2096921,2096921,182813,624973,0
2096921,2096921,182664,625303,0
2096921,2096921,182787,625414,0
2096921,2096921,182753,625610,0
2096921,2096921,182589,625567,0
2096921,2096921,182390,625496,0
2096921,2096921,182577,625816,0
2096921,2096921,182802,625895,0
2096921,2096921,182952,625739,0
2096921,2096921,182500,625771,0
2096921,2096921,182698,625687,0
2096921,2096921,182678,625450,0
2096921,2096921,182916,625531,0
2096921,2096921,182792,625759,0
2096921,2096921,182664,625458,0
2096921,2096921,182619,625402,0
2096921,2096921,182952,625726,0
2096921,2096921,182320,625849,0
2096921,2096921,182621,625639,0
2096921,2096921,182732,625758,0
2096921,2096921,183054,625906,0
2096921,2096921,183053,625932,0
2096921,2096921,183101,625838,0
2096921,2096921,182718,625711,0
2096921,2096921,182950,625863,0
2096921,2096921,182389,625759,0
2096921,2096921,182629,626014,0
2096921,2096921,182814,625869,0
2096921,2096921,182727,625904,0
2096921,2096921,182892,626041,0
2096921,2096921,182865,626053,0
2096921,2096921,182924,626058,0
2096921,2096921,182642,625762,0
2096921,2096921,182668,625852,0
2096921,2096921,182901,625855,0
2096921,2096921,183040,625823,0
2096921,2096921,182903,626065,0
2096921,2096921,182996,625989,0
2096921,2096921,182611,626268,0
2096921,2096921,182651,626281,0
2096921,2096921,182820,626184,0
2096921,2096921,183032,626038,0
2096921,2096921,182961,626098,0
2096921,2096921,183022,626136,0
2096921,2096921,182997,626205,0
2096921,2096921,183209,625781,0
2096921,2096921,182805,626045,0
2096921,2096921,182705,625947,0
2096921,2096921,182869,626378,0
2096921,2096921,182933,626384,0
2096921,2096921,182830,626503,0
2096921,2096921,182959,626315,0
2096921,2096921,183037,626518,0
2096921,2096921,182989,626554,0
2096921,2096921,182923,626639,0
2096921,2096921,183104,626576,0
2096921,2096921,183000,626504,0
2096921,2096921,183146,626727,0
2096921,2096921,183055,626924,0
2096921,2096921,183085,626679,0
2096921,2096921,182770,626612,0
2096921,2096921,183159,626675,0
2096921,2096921,183196,626626,0
2096921,2096921,182991,626712,0
2096921,2096921,183024,626594,0
2096921,2096921,183006,626662,0
2096921,2096921,183012,626847,0
2096921,2096921,183068,626719,0
2096921,2096921,182958,626754,0
2096921,2096921,183258,627013,0
2096921,2096921,183169,626886,0
2096921,2096921,182966,626719,0
2096921,2096921,182970,626848,0
2096921,2096921,183226,626818,0
2096921,2096921,182942,626733,0
2096921,2096921,183184,626696,0
2096921,2096921,183280,626750,0
2096921,2096921,183146,626732,0
2096921,2096921,183423,626693,0
2096921,2096921,183388,626941,0
2096921,2096921,183292,627070,0
2096921,2096921,183310,626913,0
2096921,2096921,183263,626950,0
2096921,2096921,183252,626964,0
2096921,2096921,183090,626989,0
2096921,2096921,183252,626883,0
2096921,2096921,183598,626958,0
2096921,2096921,183422,627077,0
2096921,2096921,183400,627067,0
2096921,2096921,183324,627107,0
2096921,2096921,183046,627150,0
2096921,2096921,183257,627261,0
2096921,2096921,183298,627127,0
2096921,2096921,183287,627180,0
2096921,2096921,183020,627073,0
2096921,2096921,182998,627124,0
2096921,2096921,183104,627109,0
2096921,2096921,183151,627168,0
2096921,2096921,183345,627193,0
2096921,2096921,183291,627398,0
2096921,2096921,183266,627580,0
2096921,2096921,183087,627822,0
2096921,2096921,183089,627623,0
2096921,2096921,183054,627469,0
2096921,2096921,182951,626961,0
2096921,2096921,183067,627031,0
2096921,2096921,183157,627142,0
2096921,2096921,183468,627009,0
2096921,2096921,183320,627215,0
2096921,2096921,183464,627467,0
2096921,2096921,183804,627498,0
2096921,2096921,183562,627747,0
2096921,2096921,183629,627395,0
2096921,2096921,183374,627882,0
2096921,2096921,183439,627586,0
2096921,2096921,183561,627672,0
2096921,2096921,183528,627420,0
2096921,2096921,183391,627661,0
2096921,2096921,183514,627532,0
2096921,2096921,183458,627676,0
2096921,2096921,183461,627453,0
2096921,2096921,183179,627646,0
2096921,2096921,183246,627738,0
2096921,2096921,183268,627717,0
2096921,2096921,183389,627459,0
2096921,2096921,183622,627445,0
2096921,2096921,183650,627526,0
2096921,2096921,183565,627280,0
2096921,2096921,183476,627610,0
2096921,2096921,183551,627701,0
2096921,2096921,183515,627805,0
2096921,2096921,183185,627875,0
2096921,2096921,183212,627963,0
2096921,2096921,183253,627941,0
2096921,2096921,183672,627751,0
2096921,2096921,183578,628106,0
2096921,2096921,183529,627874,0
2096921,2096921,183462,628041,0
2096921,2096921,183590,628186,0
2096921,2096921,183467,627926,0
2096921,2096921,183320,628165,0
2096921,2096921,183443,627887,0
2096921,2096921,183343,627628,0
2096921,2096921,183653,627722,0
2096921,2096921,183414,627811,0
2096921,2096921,183522,627645,0
2096921,2096921,183522,627717,0
2096921,2096921,183494,628002,0
2096921,2096921,183453,627972,0
2096921,2096921,183632,628094,0
2096921,2096921,183588,628180,0
2096921,2096921,183720,628111,0
2096921,2096921,183639,628242,0
2096921,2096921,183782,627991,0
2096921,2096921,183596,628229,0
2096921,2096921,183548,628318,0
2096921,2096921,183532,628003,0
2096921,2096921,183921,628235,0
2096921,2096921,183631,628132,0
2096921,2096921,183618,628066,0
2096921,2096921,183616,628227,0
2096921,2096921,183576,628264,0
2096921,2096921,183604,628347,0
2096921,2096921,183791,628184,0
2096921,2096921,183701,628184,0
2096921,2096921,183730,628102,0
2096921,2096921,183465,628549,0
2096921,2096921,183669,628248,0
2096921,2096921,183197,628159,0
2096921,2096921,183657,628432,0
2096921,2096921,183505,628586,0
2096921,2096921,183644,628425,0
2096921,2096921,183897,628432,0
2096921,2096921,183645,628302,0
2096921,2096921,183730,628347,0
2096921,2096921,183725,628437,0
2096921,2096921,183368,628187,0
2096921,2096921,183862,628448,0
2096921,2096921,183877,628409,0
2096921,2096921,183684,628715,0
2096921,2096921,183706,628333,0
2096921,2096921,183840,628963,0
2096921,2096921,184044,628568,0
2096921,2096921,183884,628510,0
2096921,2096921,183632,628518,0
2096921,2096921,183588,628738,0
2096921,2096921,183611,628494,0
2096921,2096921,183686,628748,0
2096921,2096921,183639,628306,0
2096921,2096921,183563,628779,0
2096921,2096921,183793,628728,0
2096921,2096921,183726,628499,0
2096921,2096921,183854,628488,0
2096921,2096921,183844,628323,0
2096921,2096921,183633,628520,0
2096921,2096921,183240,629033,0
2096921,2096921,183572,628576,0
2096921,2096921,183708,628503,0
2096921,2096921,183732,628779,0
2096921,2096921,183639,628663,0
2096921,2096921,183607,628470,0
2096921,2096921,183800,628623,0
2096921,2096921,183619,628584,0
2096921,2096921,183527,628329,0
2096921,2096921,183706,628590,0
2096921,2096921,183567,628362,0
2096921,2096921,183534,628016,0
2096921,2096921,183461,628356,0
2096921,2096921,183563,628599,0
2096921,2096921,183379,628507,0
2096921,2096921,183418,628486,0
2096921,2096921,183388,628196,0
2096921,2096921,183435,628123,0
2096921,2096921,183283,627954,0
2096921,2096921,183234,627831,0
2096921,2096921,183317,627797,0
2096921,2096921,183075,627759,0
2096921,2096921,183133,627698,0
2096921,2096921,183155,628029,0
2096921,2096921,183246,627843,0
2096921,2096921,183029,627942,0
2096921,2096921,183005,627627,0
2096921,2096921,183141,627381,0
2096921,2096921,182976,627166,0
2096921,2096921,183178,627209,0
2096921,2096921,183189,627297,0
2096921,2096921,182732,627203,0
2096921,2096921,183086,627158,0
2096921,2096921,182978,627341,0
2096921,2096921,182811,627030,0
2096921,2096921,182582,627298,0
2096921,2096921,182461,627271,0
2096921,2096921,182730,627174,0
2096921,2096921,182587,627129,0
2096921,2096921,182599,626961,0
2096921,2096921,182596,626753,0
2096921,2096921,182897,626973,0
2096921,2096921,182725,627070,0
2096921,2096921,182459,627115,0
2096921,2096921,182556,627264,0
2096921,2096921,182664,627176,0
2096921,2096921,182619,627425,0
2096921,2096921,182663,626883,0
2096921,2096921,182594,626842,0
2096921,2096921,182291,627014,0
2096921,2096921,182642,626942,0
2096921,2096921,182763,627095,0
2096921,2096921,183108,627051,0
2096921,2096921,182916,627086,0
2096921,2096921,182647,626897,0
2096921,2096921,182681,627017,0
2096921,2096921,182669,627013,0
2096921,2096921,182739,626883,0
2096921,2096921,182675,626922,0
2096921,2096921,182419,626962,0
2096921,2096921,182849,627056,0
2096921,2096921,182834,627269,0
2096921,2096921,182999,626830,0
2096921,2096921,182996,627025,0
2096921,2096921,182785,627125,0
2096921,2096921,183035,627376,0
2096921,2096921,183074,627634,0
2096921,2096921,182898,627554,0
2096921,2096921,182647,627456,0
2096921,2096921,182483,627221,0
2096921,2096921,182762,627058,0
2096921,2096921,182683,627242,0
2096921,2096921,182899,627252,0
2096921,2096921,182848,627308,0
2096921,2096921,182803,627468,0
2096921,2096921,182872,627703,0
2096921,2096921,182611,627776,0
2096921,2096921,182809,627411,0
2096921,2096921,182882,627321,0
2096921,2096921,182817,627474,0
2096921,2096921,182900,627627,0
2096921,2096921,182927,627569,0
2096921,2096921,183126,627751,0
2096921,2096921,183149,627633,0
2096921,2096921,182821,627702,0
2096921,2096921,182884,627707,0
2096921,2096921,183095,627874,0
2096921,2096921,182837,627735,0
2096921,2096921,182765,627784,0
2096921,2096921,182869,627806,0
2096921,2096921,183094,627852,0
2096921,2096921,183082,627786,0
2096921,2096921,183003,627909,0
2096921,2096921,183225,627987,0
2096921,2096921,182879,628092,0
2096921,2096921,183084,627974,0
2096921,2096921,182808,628007,0
2096921,2096921,183010,627961,0
2096921,2096921,183031,628199,0
2096921,2096921,183022,627947,0
2096921,2096921,182927,627905,0
2096921,2096921,183114,627942,0
2096921,2096921,183238,628282,0
2096921,2096921,183466,628071,0
2096921,2096921,183528,628224,0
2096921,2096921,183358,628208,0
2096921,2096921,183131,628392,0
2096921,2096921,183044,628521,0
2096921,2096921,183148,628407,0
2096921,2096921,183280,628354,0
2096921,2096921,183058,628236,0
2096921,2096921,183135,628388,0
2096921,2096921,183183,628526,0
2096921,2096921,183371,628545,0
2096921,2096921,183426,628353,0
2096921,2096921,183196,628469,0
2096921,2096921,183413,628850,0
2096921,2096921,183235,628719,0
2096921,2096921,183076,628652,0
2096921,2096921,183142,628650,0
2096921,2096921,183277,628469,0
2096921,2096921,183450,628805,0
2096921,2096921,183328,628930,0
2096921,2096921,183344,628725,0
2096921,2096921,183519,628751,0
2096921,2096921,183484,628865,0
2096921,2096921,183324,629140,0
2096921,2096921,183406,629226,0
2096921,2096921,183321,629069,0
2096921,2096921,183260,629051,0
2096921,2096921,183440,628860,0
2096921,2096921,183413,628902,0
2096921,2096921,183478,628900,0
2096921,2096921,183528,629075,0
2096921,2096921,183441,629265,0
2096921,2096921,183601,628963,0
2096921,2096921,183874,629395,0
2096921,2096921,183562,629159,0
2096921,2096921,183703,628970,0
2096921,2096921,183751,629282,0
2096921,2096921,183587,629355,0
2096921,2096921,183675,629473,0
2096921,2096921,183508,629262,0
2096921,2096921,183549,629056,0
2096921,2096921,183763,629143,0
2096921,2096921,183829,629369,0
2096921,2096921,183844,629548,0
2096921,2096921,183626,629659,0
2096921,2096921,183774,629209,0
2096921,2096921,183513,629382,0
2096921,2096921,183521,629701,0
2096921,2096921,183528,629695,0
2096921,2096921,183570,629433,0
2096921,2096921,183563,629292,0
2096921,2096921,183800,629516,0
2096921,2096921,183865,629425,0
2096921,2096921,184067,629467,0
2096921,2096921,183971,629373,0
2096921,2096921,183587,629463,0
2096921,2096921,183387,629210,0
2096921,2096921,183626,629676,0
2096921,2096921,183695,629580,0
2096921,2096921,183712,629786,0
2096921,2096921,183869,629481,0
2096921,2096921,183639,629828,0
2096921,2096921,183739,629561,0
2096921,2096921,183846,629647,0
2096921,2096921,183985,629594,0
2096921,2096921,183939,629427,0
2096921,2096921,183707,629517,0
2096921,2096921,183613,629541,0
2096921,2096921,184010,629711,0
2096921,2096921,183770,629787,0
2096921,2096921,183854,629713,0
2096921,2096921,183679,629803,0
2096921,2096921,183879,629627,0
2096921,2096921,183767,629546,0
2096921,2096921,183948,629453,0
2096921,2096921,183777,629564,0
2096921,2096921,183756,629550,0
2096921,2096921,183942,629449,0
2096921,2096921,183714,629522,0
2096921,2096921,183654,629889,0
2096921,2096921,183923,629779,0
2096921,2096921,183862,629801,0
2096921,2096921,183924,630128,0
2096921,2096921,183606,629796,0
2096921,2096921,183872,629821,0
2096921,2096921,183695,629564,0
2096921,2096921,183661,629616,0
2096921,2096921,183766,629590,0
2096921,2096921,183747,629989,0
2096921,2096921,183901,629987,0
2096921,2096921,183756,629920,0
2096921,2096921,183880,629906,0
2096921,2096921,183854,629648,0
2096921,2096921,183827,629749,0
2096921,2096921,184027,629617,0
2096921,2096921,183836,629706,0
2096921,2096921,183698,629592,0
2096921,2096921,183667,629578,0
2096921,2096921,183743,629846,0
2096921,2096921,183889,629740,0
2096921,2096921,184019,629716,0
2096921,2096921,183955,629667,0
2096921,2096921,183887,629823,0
2096921,2096921,184081,629727,0
2096921,2096921,184030,629942,0
2096921,2096921,183876,629670,0
2096921,2096921,183732,629718,0
2096921,2096921,183689,629837,0
2096921,2096921,183797,629988,0
2096921,2096921,183747,630002,0
2096921,2096921,183634,629841,0
2096921,2096921,183724,629871,0
2096921,2096921,183857,629804,0
2096921,2096921,183785,629728,0
2096921,2096921,183958,629814,0
2096921,2096921,183701,629831,0
2096921,2096921,183374,630005,0
2096921,2096921,183790,629751,0
2096921,2096921,183679,630154,0
2096921,2096921,183701,630022,0
2096921,2096921,183768,630170,0
2096921,2096921,184037,629774,0
2096921,2096921,183973,630121,0
2096921,2096921,184215,630162,0
2096921,2096921,184092,629891,0
2096921,2096921,183896,630022,0
2096921,2096921,183936,630190,0
2096921,2096921,183908,630212,0
2096921,2096921,183628,629949,0
2096921,2096921,183699,630431,0
2096921,2096921,183680,630316,0
2096921,2096921,183978,630075,0
2096921,2096921,183821,630297,0
2096921,2096921,184054,630102,0
2096921,2096921,183993,630021,0
2096921,2096921,184081,630142,0
2096921,2096921,184218,630435,0
2096921,2096921,184043,630450,0
2096921,2096921,183858,630254,0
2096921,2096921,184034,630375,0
2096921,2096921,184305,630483,0
2096921,2096921,184198,630416,0
2096921,2096921,184269,630535,0
2096921,2096921,184344,630497,0
2096921,2096921,183993,630489,0
2096921,2096921,184096,630289,0
2096921,2096921,184134,630353,0
2096921,2096921,184139,630377,0
2096921,2096921,183879,630590,0
2096921,2096921,184110,630535,0
2096921,2096921,184250,630652,0
2096921,2096921,184301,630548,0
2096921,2096921,184510,630578,0
2096921,2096921,183977,630324,0
2096921,2096921,184085,630110,0
2096921,2096921,184201,630552,0
2096921,2096921,184074,630347,0
2096921,2096921,183679,630387,0
2096921,2096921,183977,630754,0
2096921,2096921,184138,630686,0
2096921,2096921,184027,630812,0
2096921,2096921,184293,630752,0
2096921,2096921,184443,630796,0
2096921,2096921,184368,630591,0
2096921,2096921,184192,630698,0
2096921,2096921,184092,630746,0
2096921,2096921,184363,630540,0
2096921,2096921,184113,630660,0
2096921,2096921,184180,630499,0
2096921,2096921,184232,630798,0
2096921,2096921,184360,630368,0
2096921,2096921,184587,630654,0
2096921,2096921,184187,630578,0
2096921,2096921,184422,630889,0
2096921,2096921,184432,630675,0
2096921,2096921,184159,630514,0
2096921,2096921,184281,630710,0
2096921,2096921,184075,630999,0
2096921,2096921,184219,631020,0
2096921,2096921,184356,631050,0
2096921,2096921,184148,630948,0
2096921,2096921,184177,630735,0
2096921,2096921,184261,630889,0
2096921,2096921,184316,630873,0
2096921,2096921,184286,630683,0
2096921,2096921,184416,630844,0
2096921,2096921,184260,631019,0
2096921,2096921,184265,630721,0
2096921,2096921,184257,630395,0
2096921,2096921,184288,630852,0
2096921,2096921,184160,630763,0
2096921,2096921,184381,630675,0
2096921,2096921,184561,631025,0
2096921,2096921,184320,630768,0
2096921,2096921,184285,630814,0
2096921,2096921,183955,631017,0
2096921,2096921,184269,630893,0
2096921,2096921,184248,630858,0
2096921,2096921,184194,630780,0
2096921,2096921,184417,631014,0
2096921,2096921,184250,631156,0
2096921,2096921,184497,630883,0
2096921,2096921,184298,631236,0
2096921,2096921,184215,631010,0
2096921,2096921,184343,630992,0
2096921,2096921,184348,630939,0
2096921,2096921,184270,630996,0
2096921,2096921,184252,631065,0
2096921,2096921,184321,631195,0
2096921,2096921,184571,630980,0
2096921,2096921,184309,631188,0
2096921,2096921,184398,631134,0
2096921,2096921,184413,630954,0
2096921,2096921,184576,631069,0
2096921,2096921,184287,631304,0
2096921,2096921,184227,630972,0
2096921,2096921,184204,630895,0
2096921,2096921,184382,631237,0
2096921,2096921,184380,631039,0
2096921,2096921,184319,631221,0
2096921,2096921,184463,631248,0
2096921,2096921,184585,631156,0
2096921,2096921,184485,631099,0
2096921,2096921,184488,630981,0
2096921,2096921,184286,630918,0
2096921,2096921,184391,631229,0
2096921,2096921,184348,630781,0
2096921,2096921,184368,631138,0
2096921,2096921,184381,631220,0
2096921,2096921,184149,631152,0
2096921,2096921,184344,631138,0
2096921,2096921,184250,630835,0
2096921,2096921,184761,630922,0
2096921,2096921,184756,631211,0
2096921,2096921,184277,631478,0
2096921,2096921,184292,631211,0
2096921,2096921,184551,631225,0
2096921,2096921,184459,631506,0
2096921,2096921,184234,631139,0
2096921,2096921,184292,630889,0
2096921,2096921,184462,631435,0
2096921,2096921,184462,631315,0
2096921,2096921,184487,631234,0
2096921,2096921,184699,631225,0
2096921,2096921,184574,630819,0
2096921,2096921,184578,630974,0
2096921,2096921,184565,630918,0
2096921,2096921,184549,631237,0
2096921,2096921,184662,631194,0
2096921,2096921,184517,630938,0
2096921,2096921,184409,630759,0
2096921,2096921,184488,631095,0
2096921,2096921,184552,631122,0
2096921,2096921,184748,631180,0
2096921,2096921,184559,631373,0
2096921,2096921,184532,631169,0
2096921,2096921,184351,631097,0
2096921,2096921,184621,631163,0
2096921,2096921,184596,630968,0
2096921,2096921,184566,631494,0
2096921,2096921,184650,631455,0
2096921,2096921,184658,631350,0
2096921,2096921,184422,631212,0
2096921,2096921,184290,631198,0
2096921,2096921,184515,631085,0
2096921,2096921,184557,631114,0
2096921,2096921,184241,631222,0
2096921,2096921,184518,631111,0
2096921,2096921,184417,631087,0
2096921,2096921,184348,631346,0
2096921,2096921,184759,631134,0
2096921,2096921,184486,631194,0
2096921,2096921,184741,631334,0
2096921,2096921,184740,631238,0
2096921,2096921,184874,631265,0
2096921,2096921,184267,631287,0
2096921,2096921,184455,631159,0
2096921,2096921,184518,631462,0
2096921,2096921,184536,631300,0
2096921,2096921,184545,631270,0
2096921,2096921,184664,631199,0
2096921,2096921,184480,631352,0
2096921,2096921,184539,631429,0
2096921,2096921,184372,631372,0
2096921,2096921,184416,631105,0
2096921,2096921,184509,631135,0
2096921,2096921,184358,631486,0
2096921,2096921,184689,631532,0
2096921,2096921,184432,631353,0
2096921,2096921,184624,631425,0
2096921,2096921,184756,631697,0
2096921,2096921,184599,631281,0
2096921,2096921,184578,631426,0
2096921,2096921,184681,631259,0
2096921,2096921,184674,631196,0
2096921,2096921,184665,631394,0
2096921,2096921,184437,631286,0
2096921,2096921,184582,631149,0
2096921,2096921,184624,631432,0
2096921,2096921,184661,631450,0
2096921,2096921,184847,631604,0
2096921,2096921,184830,631434,0
2096921,2096921,184567,631405,0
2096921,2096921,184681,630982,0
2096921,2096921,184458,631252,0
2096921,2096921,184295,631284,0
2096921,2096921,184515,631377,0
2096921,2096921,184616,631404,0
2096921,2096921,184745,631627,0
2096921,2096921,184801,631634,0
2096921,2096921,184662,631616,0
2096921,2096921,184770,631274,0
2096921,2096921,184475,631365,0
2096921,2096921,184706,631551,0
2096921,2096921,184554,631414,0
2096921,2096921,184414,631390,0
2096921,2096921,184641,631639,0
2096921,2096921,184634,631597,0
2096921,2096921,184571,631475,0
2096921,2096921,184455,631418,0
2096921,2096921,184345,631496,0
2096921,2096921,184559,631474,0
2096921,2096921,184847,631500,0
2096921,2096921,184716,631492,0
2096921,2096921,184446,631316,0
2096921,2096921,184681,631693,0
2096921,2096921,184653,631191,0
2096921,2096921,184729,631472,0
2096921,2096921,184620,631469,0
2096921,2096921,184662,631509,0
2096921,2096921,184791,631428,0
2096921,2096921,184774,631218,0
2096921,2096921,184653,631410,0
2096921,2096921,184628,631324,0
2096921,2096921,184691,631512,0
2096921,2096921,184528,631504,0
2096921,2096921,184475,631265,0
2096921,2096921,184346,631337,0
2096921,2096921,184705,631257,0
2096921,2096921,184467,631511,0
2096921,2096921,184575,631263,0
2096921,2096921,184501,631464,0
2096921,2096921,184527,631307,0
2096921,2096921,184607,631645,0
2096921,2096921,184406,631479,0
2096921,2096921,184349,631727,0
2096921,2096921,184392,631154,0
2096921,2096921,184599,631454,0
2096921,2096921,184435,631238,0
2096921,2096921,184676,631643,0
2096921,2096921,184767,631302,0
2096921,2096921,184636,631360,0
2096921,2096921,184299,631454,0
2096921,2096921,184577,631522,0
2096921,2096921,184630,631254,0
2096921,2096921,184706,631782,0
2096921,2096921,184540,631342,0
2096921,2096921,184874,631092,0
2096921,2096921,184814,631208,0
2096921,2096921,184894,631582,0
2096921,2096921,184583,631423,0
2096921,2096921,184759,631640,0
2096921,2096921,184588,631497,0
2096921,2096921,184440,631643,0
2096921,2096921,184523,631660,0
2096921,2096921,184472,631228,0
2096921,2096921,184627,631496,0
2096921,2096921,184518,631165,0
2096921,2096921,184857,631129,0
2096921,2096921,184669,631280,0
2096921,2096921,184426,631230,0
2096921,2096921,184561,631415,0
2096921,2096921,184653,631211,0
2096921,2096921,184400,631382,0
2096921,2096921,184705,631194,0
2096921,2096921,184601,631313,0
2096921,2096921,184558,631017,0
2096921,2096921,184625,631134,0
2096921,2096921,184673,631250,0
2096921,2096921,184524,631439,0
2096921,2096921,184364,631393,0
2096921,2096921,184378,631566,0
2096921,2096921,184482,631619,0
2096921,2096921,184555,631610,0
2096921,2096921,184595,631360,0
2096921,2096921,184536,631161,0
2096921,2096921,184309,631082,0
2096921,2096921,184520,631133,0
2096921,2096921,184391,631198,0
2096921,2096921,184429,631108,0
2096921,2096921,184605,631210,0
2096921,2096921,184446,631039,0
2096921,2096921,184550,631625,0
2096921,2096921,184674,631091,0
2096921,2096921,184412,631080,0
2096921,2096921,184330,631031,0
2096921,2096921,184447,631116,0
2096921,2096921,184515,631093,0
2096921,2096921,184449,631014,0
2096921,2096921,184369,631065,0
2096921,2096921,184677,631213,0
2096921,2096921,184448,631153,0
2096921,2096921,184145,631060,0
2096921,2096921,184394,631095,0
2096921,2096921,184476,630668,0
2096921,2096921,184286,630752,0
2096921,2096921,184429,630671,0
2096921,2096921,184172,630803,0
2096921,2096921,183865,630516,0
2096921,2096921,183970,630346,0
2096921,2096921,184083,630453,0
2096921,2096921,184010,630829,0
2096921,2096921,183841,630911,0
2096921,2096921,184118,630473,0
2096921,2096921,183731,630282,0
2096921,2096921,183780,630250,0
2096921,2096921,183747,630095,0
2096921,2096921,183910,629819,0
2096921,2096921,183667,629768,0
2096921,2096921,183770,629368,0
2096921,2096921,183496,629621,0
2096921,2096921,183615,629670,0
2096921,2096921,183631,629753,0
2096921,2096921,183715,629477,0
2096921,2096921,183602,629183,0
2096921,2096921,183584,629175,0
2096921,2096921,183722,629321,0
2096921,2096921,183527,628883,0
2096921,2096921,183312,628733,0
2096921,2096921,183484,628520,0
2096921,2096921,183264,628433,0
2096921,2096921,183535,628835,0
2096921,2096921,183370,628773,0
2096921,2096921,183372,628797,0
2096921,2096921,183231,628745,0
2096921,2096921,183163,628501,0
2096921,2096921,183276,628473,0
2096921,2096921,183338,628685,0
2096921,2096921,183344,628136,0
2096921,2096921,183179,628159,0
2096921,2096921,183289,628368,0
2096921,2096921,183300,628611,0
2096921,2096921,183131,628353,0
2096921,2096921,183166,628265,0
2096921,2096921,183075,628351,0
2096921,2096921,182965,628241,0
2096921,2096921,183177,628151,0
2096921,2096921,182894,628166,0
2096921,2096921,182970,628046,0
2096921,2096921,183131,627860,0
2096921,2096921,183258,628296,0
2096921,2096921,183329,628134,0
2096921,2096921,183342,628197,0
2096921,2096921,183013,628280,0
2096921,2096921,183008,628218,0
2096921,2096921,182942,627855,0
2096921,2096921,183021,628056,0
2096921,2096921,182826,628247,0
2096921,2096921,183095,628207,0
2096921,2096921,183003,628295,0
2096921,2096921,183408,628072,0
2096921,2096921,183482,628012,0
2096921,2096921,183278,627922,0
2096921,2096921,182951,627863,0
2096921,2096921,183264,627910,0
2096921,2096921,182937,627815,0
2096921,2096921,182876,627835,0
2096921,2096921,182855,627620,0
2096921,2096921,183226,628041,0
2096921,2096921,183210,627889,0
2096921,2096921,183324,628017,0
2096921,2096921,183500,628088,0
2096921,2096921,183394,628036,0
2096921,2096921,183268,627893,0
2096921,2096921,183309,628222,0
2096921,2096921,183042,628187,0
2096921,2096921,182820,628111,0
2096921,2096921,183117,627972,0
2096921,2096921,183323,628020,0
2096921,2096921,182993,628091,0
2096921,2096921,183226,627843,0
2096921,2096921,183198,627921,0
2096921,2096921,183125,628084,0
2096921,2096921,182961,628190,0
2096921,2096921,182851,628003,0
2096921,2096921,183151,627892,0
2096921,2096921,183053,627853,0
2096921,2096921,183232,627985,0
2096921,2096921,183016,627785,0
2096921,2096921,183089,627824,0
2096921,2096921,183001,628115,0
2096921,2096921,183020,627808,0
2096921,2096921,183041,628060,0
2096921,2096921,183295,628272,0
2096921,2096921,183001,627764,0
2096921,2096921,183063,628036,0
2096921,2096921,182760,627973,0
2096921,2096921,182782,627717,0
2096921,2096921,182796,627915,0
2096921,2096921,183099,627744,0
2096921,2096921,183353,628051,0
2096921,2096921,183283,627876,0
2096921,2096921,183165,628272,0
2096921,2096921,183302,628023,0
2096921,2096921,183124,627804,0
2096921,2096921,183107,628095,0
2096921,2096921,183032,627902,0
2096921,2096921,183149,628013,0
2096921,2096921,183258,627927,0
2096921,2096921,183376,627849,0
2096921,2096921,183341,628299,0
2096921,2096921,183169,628179,0
2096921,2096921,183194,628046,0
2096921,2096921,182752,627966,0
2096921,2096921,182934,628117,0
2096921,2096921,182970,628028,0
2096921,2096921,182750,628233,0
2096921,2096921,183107,628045,0
2096921,2096921,182813,627893,0
2096921,2096921,182937,628093,0
2096921,2096921,183197,628085,0
2096921,2096921,183175,628193,0
2096921,2096921,183237,628111,0
2096921,2096921,183033,628068,0
2096921,2096921,183141,628134,0
2096921,2096921,183149,628243,0
2096921,2096921,183084,628097,0
2096921,2096921,183289,627966,0
2096921,2096921,183104,628214,0
2096921,2096921,183195,628025,0
2096921,2096921,183246,628023,0
2096921,2096921,183208,628295,0
2096921,2096921,183153,628187,0
2096921,2096921,183055,628138,0
2096921,2096921,182939,628264,0
2096921,2096921,182976,628030,0
2096921,2096921,182946,627793,0
2096921,2096921,183107,627686,0
2096921,2096921,183274,627752,0
2096921,2096921,183322,627622,0
2096921,2096921,183387,628149,0
2096921,2096921,183090,628236,0
2096921,2096921,183412,628249,0
2096921,2096921,183183,628343,0
2096921,2096921,183156,628247,0
2096921,2096921,183247,628403,0
2096921,2096921,183344,628149,0
2096921,2096921,183039,627964,0
2096921,2096921,183176,628102,0
2096921,2096921,183361,627790,0
2096921,2096921,183482,628142,0
2096921,2096921,183065,628122,0
2096921,2096921,183197,628130,0
2096921,2096921,182921,628079,0
2096921,2096921,183218,628181,0
2096921,2096921,183176,628076,0
2096921,2096921,183325,628219,0
2096921,2096921,182983,628091,0
2096921,2096921,183060,627878,0
2096921,2096921,183244,627754,0
2096921,2096921,183428,627858,0
2096921,2096921,183234,628082,0
2096921,2096921,183511,627977,0
2096921,2096921,183367,628222,0
2096921,2096921,183144,628180,0
2096921,2096921,183306,628360,0
2096921,2096921,183155,628080,0
2096921,2096921,183243,627937,0
2096921,2096921,183343,627965,0
2096921,2096921,183126,628006,0
2096921,2096921,183289,627751,0
2096921,2096921,183375,627479,0
2096921,2096921,183039,627664,0
2096921,2096921,183031,627541,0
2096921,2096921,182744,627498,0
2096921,2096921,183278,627776,0
2096921,2096921,183262,627682,0
2096921,2096921,183337,627582,0
2096921,2096921,183193,627428,0
2096921,2096921,183286,627325,0
2096921,2096921,183402,627517,0
2096921,2096921,183189,627521,0
2096921,2096921,182979,627674,0
2096921,2096921,183060,627375,0
2096921,2096921,183135,627587,0
2096921,2096921,183173,627454,0
2096921,2096921,182914,627393,0
2096921,2096921,183178,627381,0
2096921,2096921,182858,627487,0
2096921,2096921,182991,627356,0
2096921,2096921,183088,627559,0
2096921,2096921,183163,627336,0
2096921,2096921,182980,627445,0
2096921,2096921,183081,627402,0
2096921,2096921,182978,627577,0
2096921,2096921,183088,627542,0
2096921,2096921,182734,627419,0
2096921,2096921,182885,627392,0
2096921,2096921,182988,627417,0
2096921,2096921,183331,627388,0
2096921,2096921,183023,627345,0
2096921,2096921,182991,627539,0
2096921,2096921,182992,627675,0
2096921,2096921,182924,627432,0
2096921,2096921,182868,627487,0
2096921,2096921,182750,627180,0
2096921,2096921,182829,627116,0
2096921,2096921,182594,626948,0
2096921,2096921,183068,626838,0
2096921,2096921,183098,626963,0
2096921,2096921,183121,627020,0
2096921,2096921,183056,626989,0
2096921,2096921,182875,627013,0
2096921,2096921,183038,627099,0
2096921,2096921,183209,627118,0
2096921,2096921,183033,626717,0
2096921,2096921,182914,626855,0
2096921,2096921,183197,626912,0
2096921,2096921,182996,626869,0
2096921,2096921,183069,626890,0
2096921,2096921,183090,626866,0
2096921,2096921,182923,626832,0
2096921,2096921,183025,627100,0
2096921,2096921,182986,627066,0
2096921,2096921,182966,627057,0
2096921,2096921,182887,627013,0
2096921,2096921,182810,627005,0
2096921,2096921,182764,626961,0
2096921,2096921,183176,626866,0
2096921,2096921,182858,626823,0
2096921,2096921,182797,626880,0
2096921,2096921,183030,627031,0
2096921,2096921,183118,626956,0
2096921,2096921,182897,627000,0
2096921,2096921,182863,627123,0
2096921,2096921,182707,626843,0
2096921,2096921,182985,626902,0
2096921,2096921,182957,626803,0
2096921,2096921,183053,626744,0
2096921,2096921,182911,627060,0
2096921,2096921,182935,627006,0
2096921,2096921,182986,626908,0
2096921,2096921,183184,626899,0
2096921,2096921,182872,627065,0
2096921,2096921,182759,626785,0
2096921,2096921,182964,626849,0
2096921,2096921,182880,626933,0
2096921,2096921,182740,626999,0
2096921,2096921,183137,626584,0
2096921,2096921,182831,627124,0
2096921,2096921,182938,627173,0
2096921,2096921,182955,626872,0
2096921,2096921,183058,627102,0
2096921,2096921,182701,627026,0
2096921,2096921,183139,626790,0
2096921,2096921,183001,626610,0
2096921,2096921,183240,626718,0
2096921,2096921,182972,626775,0
2096921,2096921,183195,626788,0
2096921,2096921,183126,626900,0
2096921,2096921,183054,626870,0
2096921,2096921,183116,626759,0
2096921,2096921,182800,626717,0
2096921,2096921,182871,626701,0
2096921,2096921,183077,627175,0
2096921,2096921,182866,626839,0
2096921,2096921,182935,626940,0
2096921,2096921,183136,626988,0
2096921,2096921,183184,626615,0
2096921,2096921,183211,626525,0
2096921,2096921,182803,626970,0
2096921,2096921,182923,626798,0
2096921,2096921,183042,626901,0
2096921,2096921,182661,626975,0
2096921,2096921,182841,627324,0
2096921,2096921,182892,626836,0
2096921,2096921,182928,626901,0
2096921,2096921,182906,626566,0
2096921,2096921,182976,626726,0
2096921,2096921,183087,626542,0
2096921,2096921,182932,626710,0
2096921,2096921,183197,626914,0
2096921,2096921,183033,626885,0
2096921,2096921,182912,626877,0
2096921,2096921,182745,626740,0
2096921,2096921,183044,626543,0
2096921,2096921,182873,626694,0
2096921,2096921,183068,626530,0
2096921,2096921,183013,626570,0
2096921,2096921,183073,626583,0
2096921,2096921,183107,626902,0
2096921,2096921,183286,626811,0
2096921,2096921,183086,626834,0
2096921,2096921,183294,626548,0
2096921,2096921,182948,626450,0
2096921,2096921,183153,626611,0
2096921,2096921,183252,626615,0
2096921,2096921,183202,626656,0
2096921,2096921,183193,626384,0
2096921,2096921,182890,626459,0
2096921,2096921,183018,626409,0
2096921,2096921,182784,626686,0
2096921,2096921,183102,626605,0
2096921,2096921,183264,626575,0
2096921,2096921,182727,626560,0
2096921,2096921,182812,626558,0
2096921,2096921,182830,626390,0
2096921,2096921,183204,626500,0
2096921,2096921,183108,626282,0
2096921,2096921,183014,626391,0
2096921,2096921,183041,626432,0
2096921,2096921,183137,626594,0
2096921,2096921,183056,626477,0
2096921,2096921,182794,626470,0
2096921,2096921,183022,626679,0
2096921,2096921,182941,626478,0
2096921,2096921,182991,626701,0
2096921,2096921,182842,626642,0
2096921,2096921,182985,626559,0
2096921,2096921,183075,626467,0
2096921,2096921,183110,626367,0
2096921,2096921,183051,626371,0
2096921,2096921,183276,626112,0
2096921,2096921,183032,626493,0
2096921,2096921,183175,626341,0
2096921,2096921,183081,626459,0
2096921,2096921,182871,626327,0
2096921,2096921,182812,626272,0
2096921,2096921,182917,626021,0
2096921,2096921,183126,626103,0
2096921,2096921,183025,626244,0
2096921,2096921,183200,626302,0
2096921,2096921,182949,626370,0
2096921,2096921,183229,626251,0
2096921,2096921,183003,626216,0
2096921,2096921,182953,626201,0
2096921,2096921,182686,626068,0
2096921,2096921,182778,626263,0
2096921,2096921,183160,626048,0
2096921,2096921,182913,626194,0
2096921,2096921,183084,626303,0
2096921,2096921,183002,626294,0
2096921,2096921,183140,626220,0
2096921,2096921,183163,626102,0
2096921,2096921,183101,626196,0
2096921,2096921,183080,626193,0
2096921,2096921,183102,626013,0
2096921,2096921,182939,626177,0
2096921,2096921,182855,626136,0
2096921,2096921,183040,626386,0
2096921,2096921,182915,626387,0
2096921,2096921,182952,626075,0
2096921,2096921,183030,626322,0
2096921,2096921,182923,626293,0
2096921,2096921,182684,626066,0
2096921,2096921,182878,626064,0
2096921,2096921,182699,626040,0
2096921,2096921,182715,626299,0
2096921,2096921,182958,626108,0
2096921,2096921,183039,626108,0
2096921,2096921,182987,626119,0
2096921,2096921,182965,626245,0
2096921,2096921,182923,626269,0
2096921,2096921,182937,626122,0
2096921,2096921,182831,626040,0
2096921,2096921,182869,625986,0
2096921,2096921,182900,626240,0
2096921,2096921,183146,626058,0
2096921,2096921,183036,626251,0
2096921,2096921,183002,626177,0
2096921,2096921,182973,625934,0
2096921,2096921,182998,626105,0
2096921,2096921,183059,626230,0
2096921,2096921,183176,625778,0
2096921,2096921,182989,625721,0
2096921,2096921,182873,625692,0
2096921,2096921,182936,625684,0
2096921,2096921,182859,625948,0
2096921,2096921,183003,625762,0
2096921,2096921,182883,625596,0
2096921,2096921,182742,626033,0
2096921,2096921,182824,625962,0
2096921,2096921,182830,626111,0
2096921,2096921,183046,625684,0
2096921,2096921,182945,625871,0
2096921,2096921,183037,625755,0
2096921,2096921,182868,625649,0
2096921,2096921,183008,625768,0
2096921,2096921,182796,625904,0
2096921,2096921,182807,625644,0
2096921,2096921,182688,625827,0
2096921,2096921,182903,625848,0
2096921,2096921,182487,625876,0
2096921,2096921,182520,626031,0
2096921,2096921,182692,625659,0
2096921,2096921,182901,625944,0
2096921,2096921,182905,625643,0
2096921,2096921,182900,625772,0
2096921,2096921,182982,625694,0
2096921,2096921,182679,625579,0
2096921,2096921,182794,625614,0
2096921,2096921,182749,625807,0
2096921,2096921,182999,626132,0
2096921,2096921,183248,625997,0
2096921,2096921,182846,625607,0
2096921,2096921,182907,625748,0
2096921,2096921,183087,625857,0
2096921,2096921,182843,625784,0
2096921,2096921,182701,625388,0
2096921,2096921,182892,625600,0
2096921,2096921,182717,625737,0
2096921,2096921,182835,625711,0
2096921,2096921,182549,625995,0
2096921,2096921,182696,625798,0
2096921,2096921,182848,625585,0
2096921,2096921,182707,625808,0
2096921,2096921,182817,625598,0
2096921,2096921,182824,625698,0
2096921,2096921,182930,625992,0
2096921,2096921,182885,625844,0
2096921,2096921,182790,625794,0
2096921,2096921,182882,625733,0
2096921,2096921,182660,625852,0
2096921,2096921,182756,625623,0
2096921,2096921,182677,625823,0
2096921,2096921,182921,625662,0
2096921,2096921,182352,625707,0
2096921,2096921,182659,625545,0
2096921,2096921,182775,625335,0
2096921,2096921,182884,625682,0
2096921,2096921,182903,625721,0
2096921,2096921,182865,625711,0
2096921,2096921,182904,625828,0
2096921,2096921,182748,625446,0
2096921,2096921,182724,625361,0
2096921,2096921,182674,625145,0
2096921,2096921,182864,625377,0
2096921,2096921,182931,625253,0
2096921,2096921,182553,625425,0
2096921,2096921,182813,625415,0
2096921,2096921,182667,625564,0
2096921,2096921,182900,625385,0
2096921,2096921,182976,625757,0
2096921,2096921,182967,625537,0
2096921,2096921,182763,625569,0
2096921,2096921,182691,625261,0
2096921,2096921,182668,625482,0
2096921,2096921,182773,625568,0
2096921,2096921,182827,625542,0
2096921,2096921,182784,625641,0
2096921,2096921,182863,625603,0
2096921,2096921,182931,625372,0
2096921,2096921,182734,625477,0
2096921,2096921,182888,625125,0
2096921,2096921,182819,625234,0
2096921,2096921,182824,625127,0
2096921,2096921,182693,625545,0
2096921,2096921,182722,625456,0
2096921,2096921,182603,625614,0
2096921,2096921,182697,625368,0
2096921,2096921,182544,625524,0
2096921,2096921,182778,625541,0
2096921,2096921,182803,625417,0
2096921,2096921,182571,625376,0
2096921,2096921,182866,625412,0
2096921,2096921,182767,625545,0
2096921,2096921,182706,625402,0
2096921,2096921,182761,625551,0
2096921,2096921,182694,625606,0
2096921,2096921,182794,625429,0
2096921,2096921,182502,625336,0
2096921,2096921,182832,625275,0
2096921,2096921,182565,625286,0
2096921,2096921,182657,625399,0
2096921,2096921,182665,625294,0
2096921,2096921,182673,625221,0
2096921,2096921,182607,625163,0
2096921,2096921,182621,625313,0
2096921,2096921,182602,625529,0
2096921,2096921,182761,625330,0
2096921,2096921,182802,625516,0
2096921,2096921,183189,625440,0
2096921,2096921,182614,625367,0
2096921,2096921,182783,625411,0
2096921,2096921,182561,625256,0
2096921,2096921,182629,625193,0
2096921,2096921,182615,624991,0
2096921,2096921,182576,625360,0
2096921,2096921,182401,625318,0
2096921,2096921,182280,625398,0
2096921,2096921,182799,624979,0
2096921,2096921,182524,625072,0
2096921,2096921,182496,625250,0
2096921,2096921,182588,625042,0
2096921,2096921,182592,624773,0
2096921,2096921,182680,625126,0
2096921,2096921,182648,624789,0
2096921,2096921,182620,624988,0
2096921,2096921,182214,625092,0
2096921,2096921,182126,625152,0
2096921,2096921,182353,625336,0
2096921,2096921,182421,625209,0
2096921,2096921,182655,625096,0
2096921,2096921,182545,625044,0
2096921,2096921,182664,624549,0
2096921,2096921,182248,624743,0
2096921,2096921,182333,624568,0
2096921,2096921,182289,624510,0
2096921,2096921,182250,624390,0
2096921,2096921,181958,624575,0
2096921,2096921,182324,624847,0
2096921,2096921,182206,624569,0
2096921,2096921,182468,624703,0
2096921,2096921,182246,624152,0
2096921,2096921,182283,624346,0
2096921,2096921,182320,624238,0
2096921,2096921,182115,624433,0
2096921,2096921,182077,624359,0
2096921,2096921,181954,623680,0
2096921,2096921,182029,623789,0
2096921,2096921,182001,623898,0
2096921,2096921,182054,623866,0
2096921,2096921,181915,623739,0
2096921,2096921,181901,623525,0
2096921,2096921,181809,623597,0
2096921,2096921,181647,623191,0
2096921,2096921,181941,623575,0
2096921,2096921,181775,623400,0
2096921,2096921,181830,623109,0
2096921,2096921,181581,623162,0
2096921,2096921,181518,623402,0
2096921,2096921,181332,623192,0
2096921,2096921,181380,623405,0
2096921,2096921,181594,623102,0
2096921,2096921,181495,623218,0
2096921,2096921,181211,623204,0
2096921,2096921,181446,622847,0
2096921,2096921,181368,622914,0
2096921,2096921,181484,622964,0
2096921,2096921,181511,622872,0
2096921,2096921,181613,622749,0
2096921,2096921,181553,622722,0
2096921,2096921,181357,622826,0
2096921,2096921,181199,622811,0
2096921,2096921,181177,622491,0
2096921,2096921,181497,622653,0
2096921,2096921,181416,622587,0
2096921,2096921,181266,622596,0
2096921,2096921,181323,622455,0
2096921,2096921,181695,622194,0
2096921,2096921,181666,622628,0
2096921,2096921,181819,622893,0
2096921,2096921,181222,622657,0
2096921,2096921,181244,622706,0
2096921,2096921,181174,622526,0
2096921,2096921,181200,622594,0
2096921,2096921,181175,622516,0
2096921,2096921,181131,622597,0
2096921,2096921,181353,622393,0
2096921,2096921,181514,622451,0
2096921,2096921,181437,622464,0
2096921,2096921,181408,622943,0
2096921,2096921,181175,622689,0
2096921,2096921,181650,622224,0
2096921,2096921,181421,622594,0
2096921,2096921,181269,622595,0
2096921,2096921,181216,622449,0
2096921,2096921,181451,622437,0
2096921,2096921,181147,622431,0
2096921,2096921,181440,622529,0
2096921,2096921,181428,622652,0
2096921,2096921,181423,622409,0
2096921,2096921,181525,622658,0
2096921,2096921,181383,622868,0
2096921,2096921,181291,623097,0
2096921,2096921,181379,622766,0
2096921,2096921,181280,622971,0
2096921,2096921,181380,622607,0
2096921,2096921,181465,622533,0
2096921,2096921,181567,622893,0
2096921,2096921,181440,622670,0
2096921,2096921,181423,622923,0
2096921,2096921,181601,622509,0
2096921,2096921,181408,622546,0
2096921,2096921,181536,622652,0
2096921,2096921,181347,622839,0
2096921,2096921,181136,622791,0
2096921,2096921,181182,622979,0
2096921,2096921,181456,623005,0
2096921,2096921,181681,623032,0
2096921,2096921,181528,622823,0
2096921,2096921,181518,622960,0
2096921,2096921,181438,622815,0
2096921,2096921,181920,622975,0
2096921,2096921,181685,623040,0
2096921,2096921,181323,622754,0
2096921,2096921,181431,623061,0
2096921,2096921,181524,622990,0
2096921,2096921,181421,622976,0
2096921,2096921,181682,623171,0
2096921,2096921,181734,623122,0
2096921,2096921,181723,623028,0
2096921,2096921,181500,622962,0
2096921,2096921,181454,623152,0
2096921,2096921,181706,623182,0
2096921,2096921,181527,623089,0
2096921,2096921,181419,623215,0
2096921,2096921,181596,623365,0
2096921,2096921,181669,623465,0
2096921,2096921,181521,623390,0
2096921,2096921,181798,623476,0
2096921,2096921,181652,623413,0
2096921,2096921,181615,623147,0
2096921,2096921,181642,623384,0
2096921,2096921,181574,623199,0
2096921,2096921,181351,623336,0
2096921,2096921,181686,623368,0
2096921,2096921,181700,623301,0
2096921,2096921,181873,623419,0
2096921,2096921,181888,623305,0
2096921,2096921,181736,623486,0
2096921,2096921,181895,623336,0
2096921,2096921,181912,623169,0
2096921,2096921,181876,623433,0
2096921,2096921,181907,623393,0
2096921,2096921,181608,623392,0
2096921,2096921,181634,623439,0
2096921,2096921,181785,623086,0
2096921,2096921,182001,623562,0
2096921,2096921,181853,623775,0
2096921,2096921,182066,623850,0
2096921,2096921,182200,623711,0
2096921,2096921,182015,623844,0
2096921,2096921,182020,623675,0
2096921,2096921,181592,623547,0
2096921,2096921,181616,623218,0
2096921,2096921,181738,623584,0
2096921,2096921,181830,623541,0
2096921,2096921,181961,623813,0
2096921,2096921,181955,623776,0
2096921,2096921,181839,623931,0
2096921,2096921,182188,624021,0
2096921,2096921,182048,623911,0
2096921,2096921,182176,623676,0
2096921,2096921,182086,623665,0
2096921,2096921,182040,623879,0
2096921,2096921,181813,623852,0
2096921,2096921,181966,623807,0
2096921,2096921,182093,624125,0
2096921,2096921,182067,623972,0
2096921,2096921,182034,623981,0
2096921,2096921,181999,624034,0
2096921,2096921,181945,623959,0
2096921,2096921,181998,624036,0
2096921,2096921,182132,623910,0
2096921,2096921,182365,623606,0
2096921,2096921,182079,623587,0
2096921,2096921,182135,623509,0
2096921,2096921,181984,623945,0
2096921,2096921,182187,623734,0
2096921,2096921,182222,623858,0
2096921,2096921,182169,624078,0
2096921,2096921,182386,624071,0
2096921,2096921,182299,623832,0
2096921,2096921,181999,623765,0
2096921,2096921,181903,623787,0
2096921,2096921,181804,623714,0
2096921,2096921,181728,623898,0
2096921,2096921,181972,624018,0
2096921,2096921,182157,623934,0
2096921,2096921,181990,624031,0
2096921,2096921,182094,624029,0
2096921,2096921,181796,624203,0
2096921,2096921,181718,624053,0
2096921,2096921,181843,623648,0
2096921,2096921,182007,623795,0
2096921,2096921,181886,623797,0
2096921,2096921,182118,623722,0
2096921,2096921,182074,623971,0
2096921,2096921,181918,623843,0
2096921,2096921,181899,624048,0
2096921,2096921,181946,624096,0
2096921,2096921,181929,623920,0
2096921,2096921,181985,623777,0
2096921,2096921,181996,623556,0
2096921,2096921,181807,623816,0
2096921,2096921,182095,623601,0
2096921,2096921,181992,623614,0
2096921,2096921,182010,623608,0
2096921,2096921,181942,623712,0
2096921,2096921,181916,623388,0
2096921,2096921,181704,623901,0
2096921,2096921,181946,624069,0
2096921,2096921,181949,623849,0
2096921,2096921,181833,623779,0
2096921,2096921,182051,623722,0
2096921,2096921,182148,623668,0
2096921,2096921,181961,623689,0
2096921,2096921,182118,623542,0
2096921,2096921,181897,623865,0
2096921,2096921,181981,623961,0
2096921,2096921,182093,623814,0
2096921,2096921,182052,623951,0
2096921,2096921,182180,624133,0
2096921,2096921,182023,623868,0
2096921,2096921,181896,623733,0
2096921,2096921,181960,623536,0
2096921,2096921,182094,623692,0
2096921,2096921,182082,623477,0
2096921,2096921,181976,623787,0
2096921,2096921,182121,623789,0
2096921,2096921,181900,623743,0
2096921,2096921,181964,623849,0
2096921,2096921,181784,623967,0
2096921,2096921,182031,623969,0
2096921,2096921,182057,623924,0
2096921,2096921,181911,623747,0
2096921,2096921,181847,623870,0
2096921,2096921,182012,623812,0
2096921,2096921,182318,623950,0
2096921,2096921,181925,623972,0
2096921,2096921,181930,623704,0
2096921,2096921,182221,624216,0
2096921,2096921,181996,624226,0
2096921,2096921,181981,624214,0
2096921,2096921,182135,624286,0
2096921,2096921,182032,624200,0
2096921,2096921,182231,623897,0
2096921,2096921,182156,623911,0
2096921,2096921,181944,624046,0
2096921,2096921,182316,624124,0
2096921,2096921,182371,623952,0
2096921,2096921,182357,623986,0
2096921,2096921,182240,624195,0
2096921,2096921,181933,624089,0
2096921,2096921,182036,624468,0
2096921,2096921,182041,624224,0
2096921,2096921,182253,624046,0
2096921,2096921,182357,624207,0
2096921,2096921,182415,624118,0
2096921,2096921,182202,624295,0
2096921,2096921,182743,624545,0
2096921,2096921,182338,624428,0
2096921,2096921,182223,624523,0
2096921,2096921,182296,624323,0
2096921,2096921,182426,624445,0
2096921,2096921,182261,624488,0
2096921,2096921,182297,624512,0
2096921,2096921,182148,624467,0
2096921,2096921,182183,624260,0
2096921,2096921,182049,624244,0
2096921,2096921,182199,624410,0
2096921,2096921,182034,624611,0
2096921,2096921,182138,624507,0
2096921,2096921,182035,624473,0
2096921,2096921,182042,624670,0
2096921,2096921,182157,624638,0
2096921,2096921,182187,624314,0
2096921,2096921,182322,624652,0
2096921,2096921,182348,624749,0
2096921,2096921,182128,624761,0
2096921,2096921,182174,624846,0
2096921,2096921,182227,624645,0
2096921,2096921,182597,624916,0
2096921,2096921,182257,624836,0
2096921,2096921,182020,624872,0
2096921,2096921,182529,624484,0
2096921,2096921,182396,624597,0
2096921,2096921,182680,624561,0
2096921,2096921,182526,624794,0
2096921,2096921,182288,624466,0
2096921,2096921,182515,624718,0
2096921,2096921,182394,624677,0
2096921,2096921,182543,624812,0
2096921,2096921,182217,624540,0
2096921,2096921,182598,624948,0
2096921,2096921,182523,624682,0
2096921,2096921,182736,624668,0
2096921,2096921,182507,624879,0
2096921,2096921,182597,624984,0
2096921,2096921,182714,625103,0
2096921,2096921,182457,625262,0
2096921,2096921,182539,625024,0
2096921,2096921,182633,625209,0
2096921,2096921,182270,625376,0
2096921,2096921,182518,625300,0
2096921,2096921,182476,625124,0
2096921,2096921,182297,625247,0
2096921,2096921,182354,624958,0
2096921,2096921,182679,625347,0
2096921,2096921,182744,625282,0
2096921,2096921,182438,625353,0
2096921,2096921,182768,625436,0
2096921,2096921,182488,625455,0
2096921,2096921,182711,625560,0
2096921,2096921,182621,625025,0
2096921,2096921,182521,625027,0
2096921,2096921,182519,625043,0
2096921,2096921,182554,625392,0
2096921,2096921,182543,625317,0
2096921,2096921,182735,625470,0
2096921,2096921,183102,625438,0
2096921,2096921,182623,625739,0
2096921,2096921,182541,625675,0
2096921,2096921,182646,625630,0
2096921,2096921,182562,625662,0
2096921,2096921,182572,625362,0
2096921,2096921,182599,625354,0
2096921,2096921,182969,625262,0
2096921,2096921,182527,625534,0
2096921,2096921,182901,625536,0
2096921,2096921,182572,625787,0
2096921,2096921,182905,625857,0
2096921,2096921,182824,625456,0
2096921,2096921,182740,625866,0
2096921,2096921,182723,625633,0
2096921,2096921,182563,625533,0
2096921,2096921,182293,625341,0
2096921,2096921,182753,625702,0
2096921,2096921,182921,625626,0
2096921,2096921,183044,625937,0
2096921,2096921,182761,625563,0
2096921,2096921,182711,625571,0
2096921,2096921,182617,625515,0
2096921,2096921,182775,625657,0
2096921,2096921,182847,625889,0
2096921,2096921,182671,625713,0
2096921,2096921,182685,625816,0
2096921,2096921,182727,626001,0
2096921,2096921,182859,625769,0
2096921,2096921,182492,625986,0
2096921,2096921,182964,625975,0
2096921,2096921,182981,625784,0
2096921,2096921,182983,625837,0
2096921,2096921,182771,626150,0
2096921,2096921,182683,626099,0
2096921,2096921,182843,626034,0
2096921,2096921,182929,626011,0
2096921,2096921,182655,626147,0
2096921,2096921,182867,626106,0
2096921,2096921,182964,626079,0
2096921,2096921,183303,626224,0
2096921,2096921,182828,626289,0
2096921,2096921,183102,626094,0
2096921,2096921,182976,626159,0
2096921,2096921,182927,625911,0
2096921,2096921,182899,626127,0
2096921,2096921,182735,626256,0
2096921,2096921,182997,625993,0
2096921,2096921,183195,626301,0
2096921,2096921,183043,626310,0
2096921,2096921,183372,626458,0
2096921,2096921,183304,626377,0
2096921,2096921,183071,626360,0
2096921,2096921,182962,626472,0
2096921,2096921,183153,626207,0
2096921,2096921,183005,626221,0
2096921,2096921,182905,626301,0
2096921,2096921,182927,626560,0
2096921,2096921,183036,626545,0
2096921,2096921,183262,626308,0
2096921,2096921,183391,626157,0
2096921,2096921,183401,626459,0
2096921,2096921,183418,626343,0
2096921,2096921,183304,626367,0
2096921,2096921,183008,626405,0
2096921,2096921,183151,626594,0
2096921,2096921,182894,626592,0
2096921,2096921,183205,626561,0
2096921,2096921,183056,626850,0
2096921,2096921,183341,626849,0
2096921,2096921,182942,626799,0
2096921,2096921,182984,626493,0
2096921,2096921,183159,626595,0
2096921,2096921,183100,626919,0
2096921,2096921,183018,626750,0
2096921,2096921,182820,626866,0
2096921,2096921,182953,626839,0
2096921,2096921,183400,626627,0
2096921,2096921,183097,627021,0
2096921,2096921,183064,626941,0
2096921,2096921,183350,627030,0
2096921,2096921,183226,626717,0
2096921,2096921,183236,626986,0
2096921,2096921,183320,626967,0
2096921,2096921,183063,626679,0
2096921,2096921,183105,626756,0
2096921,2096921,182996,627068,0
2096921,2096921,183176,626958,0
2096921,2096921,183153,626911,0
2096921,2096921,183238,626847,0
2096921,2096921,183174,626889,0
2096921,2096921,183719,626845,0
2096921,2096921,183411,626743,0
2096921,2096921,183465,627186,0
2096921,2096921,182934,627076,0
2096921,2096921,183117,626880,0
2096921,2096921,183265,626989,0
2096921,2096921,183291,627155,0
2096921,2096921,183333,627057,0
2096921,2096921,183498,626823,0
2096921,2096921,183569,626941,0
2096921,2096921,183097,627127,0
2096921,2096921,183061,627176,0
2096921,2096921,183018,627230,0
2096921,2096921,182889,627572,0
2096921,2096921,183137,627490,0
2096921,2096921,182884,627405,0
2096921,2096921,183289,627552,0
2096921,2096921,183503,627707,0
2096921,2096921,183583,627486,0
2096921,2096921,183371,627482,0
2096921,2096921,183619,627228,0
2096921,2096921,183443,627340,0
2096921,2096921,183440,627481,0
2096921,2096921,183519,627555,0
2096921,2096921,183248,627621,0
2096921,2096921,183186,627202,0
2096921,2096921,183244,627534,0
2096921,2096921,183285,627314,0
2096921,2096921,183357,627536,0
2096921,2096921,183588,627291,0
2096921,2096921,183441,627155,0
2096921,2096921,183304,627211,0
2096921,2096921,183426,627512,0
2096921,2096921,183342,627348,0
2096921,2096921,183269,627718,0
2096921,2096921,183211,627636,0
2096921,2096921,183627,627524,0
2096921,2096921,183600,627440,0
2096921,2096921,183580,627617,0
2096921,2096921,183702,627581,0
2096921,2096921,183609,627851,0
2096921,2096921,183605,627997,0
2096921,2096921,183480,627623,0
2096921,2096921,183254,627480,0
2096921,2096921,183387,627797,0
2096921,2096921,183355,627825,0
2096921,2096921,183515,627879,0
2096921,2096921,183305,627895,0
2096921,2096921,183576,627986,0
2096921,2096921,183588,627917,0
2096921,2096921,183805,627990,0
2096921,2096921,183527,627885,0
2096921,2096921,183746,627787,0
2096921,2096921,183589,628089,0
2096921,2096921,183599,628034,0
2096921,2096921,183672,628073,0
2096921,2096921,183913,627865,0
2096921,2096921,183690,627947,0
2096921,2096921,183674,628076,0
2096921,2096921,183780,627936,0
2096921,2096921,183746,628203,0
2096921,2096921,183663,628108,0
2096921,2096921,183744,628002,0
2096921,2096921,183441,627815,0
2096921,2096921,183620,627890,0
2096921,2096921,183810,627925,0
2096921,2096921,183618,627818,0
2096921,2096921,183782,628017,0
2096921,2096921,183674,628034,0
2096921,2096921,183580,628177,0
2096921,2096921,183187,628082,0
2096921,2096921,183782,628027,0
2096921,2096921,183759,628136,0
2096921,2096921,183511,628347,0
2096921,2096921,183788,628083,0
2096921,2096921,183905,628276,0
2096921,2096921,183688,628156,0
2096921,2096921,183976,628313,0
2096921,2096921,183494,628262,0
2096921,2096921,183673,628321,0
2096921,2096921,183737,628314,0
2096921,2096921,183638,628622,0
2096921,2096921,183578,628452,0
2096921,2096921,183615,628403,0
2096921,2096921,183770,628345,0
2096921,2096921,183803,628282,0
2096921,2096921,183870,628487,0
2096921,2096921,183912,628465,0
2096921,2096921,183870,628612,0
2096921,2096921,183922,628645,0
2096921,2096921,183723,628527,0
2096921,2096921,183495,628498,0
2096921,2096921,183699,628707,0
2096921,2096921,183494,628392,0
2096921,2096921,183560,628372,0
2096921,2096921,183712,628288,0
2096921,2096921,183643,628548,0
2096921,2096921,183631,628487,0
2096921,2096921,183695,628281,0
2096921,2096921,183687,628595,0
2096921,2096921,183709,628719,0
2096921,2096921,183678,628603,0
2096921,2096921,183686,628453,0
2096921,2096921,183869,628369,0
2096921,2096921,183597,628286,0
2096921,2096921,183716,628328,0
2096921,2096921,183704,628423,0
2096921,2096921,183627,628650,0
2096921,2096921,183601,628540,0
2096921,2096921,183568,628465,0
2096921,2096921,183669,628423,0
2096921,2096921,183534,628693,0
2096921,2096921,183639,628608,0
2096921,2096921,183746,628476,0
2096921,2096921,183418,628279,0
2096921,2096921,183562,627831,0
2096921,2096921,183325,628187,0
2096921,2096921,183717,628450,0
2096921,2096921,183670,628628,0
2096921,2096921,183781,628326,0
2096921,2096921,183391,628367,0
2096921,2096921,183308,628294,0
2096921,2096921,183277,628403,0
2096921,2096921,183453,628243,0
2096921,2096921,183358,627878,0
2096921,2096921,183073,627949,0
2096921,2096921,182984,627676,0
2096921,2096921,182877,627714,0
2096921,2096921,183320,627693,0
2096921,2096921,183027,627712,0
2096921,2096921,182944,627691,0
2096921,2096921,183063,627575,0
2096921,2096921,183139,627592,0
2096921,2096921,182766,627246,0
2096921,2096921,183004,627406,0
2096921,2096921,182869,627463,0
2096921,2096921,182702,627163,0
2096921,2096921,183141,627121,0
2096921,2096921,182861,626936,0
2096921,2096921,182842,627031,0
2096921,2096921,182766,627158,0
2096921,2096921,182727,626757,0
2096921,2096921,182560,627266,0
2096921,2096921,182720,626988,0
2096921,2096921,182683,627066,0
2096921,2096921,182761,626964,0
2096921,2096921,182693,626955,0
2096921,2096921,182817,627004,0
2096921,2096921,182742,627133,0
2096921,2096921,182639,627065,0
2096921,2096921,182554,626798,0
2096921,2096921,182655,626693,0
2096921,2096921,182485,626778,0
2096921,2096921,182592,627033,0
2096921,2096921,182480,626780,0
2096921,2096921,182638,626988,0
2096921,2096921,182549,626930,0
2096921,2096921,182663,626885,0
2096921,2096921,182758,626663,0
2096921,2096921,182903,626735,0
2096921,2096921,182783,626737,0
2096921,2096921,182496,626781,0
2096921,2096921,182559,626888,0
2096921,2096921,182430,626976,0
2096921,2096921,182539,626938,0
2096921,2096921,182649,627076,0
2096921,2096921,182837,627040,0
2096921,2096921,182894,627009,0
2096921,2096921,182912,626883,0
2096921,2096921,182673,627222,0
2096921,2096921,182724,627151,0
2096921,2096921,182699,627357,0
2096921,2096921,182585,626814,0
2096921,2096921,182453,627142,0
2096921,2096921,182609,626901,0
2096921,2096921,182905,626895,0
2096921,2096921,182862,627286,0
2096921,2096921,183025,627389,0
2096921,2096921,182836,627307,0
2096921,2096921,182896,627362,0
2096921,2096921,182992,627069,0
2096921,2096921,182911,627422,0
2096921,2096921,182816,627256,0
2096921,2096921,182641,627364,0
2096921,2096921,182620,627388,0
2096921,2096921,182561,627615,0
2096921,2096921,182809,627539,0
2096921,2096921,182936,627445,0
2096921,2096921,183093,627202,0
2096921,2096921,182795,627509,0
2096921,2096921,182968,627420,0
2096921,2096921,182889,627609,0
2096921,2096921,183099,627503,0
2096921,2096921,182837,627685,0
2096921,2096921,182489,627503,0
2096921,2096921,182728,627687,0
2096921,2096921,182730,627811,0
2096921,2096921,183106,627641,0
2096921,2096921,183330,627584,0
2096921,2096921,183234,627924,0
2096921,2096921,183215,627859,0
2096921,2096921,183192,627978,0
2096921,2096921,183179,628082,0
2096921,2096921,183068,627840,0
2096921,2096921,183043,627939,0
2096921,2096921,183035,627887,0
2096921,2096921,182808,628004,0
2096921,2096921,183262,628003,0
2096921,2096921,183364,627997,0
2096921,2096921,183178,628121,0
2096921,2096921,183158,628202,0
2096921,2096921,183037,627789,0
2096921,2096921,183236,628132,0
2096921,2096921,182974,628093,0
2096921,2096921,183183,628248,0
2096921,2096921,183061,628517,0
2096921,2096921,183315,628619,0
2096921,2096921,183436,628324,0
2096921,2096921,183294,628158,0
2096921,2096921,183231,628365,0
2096921,2096921,183282,628185,0
2096921,2096921,183080,628477,0
2096921,2096921,183180,628667,0
2096921,2096921,183133,628403,0
2096921,2096921,182956,628340,0
2096921,2096921,183126,628455,0
2096921,2096921,183003,628702,0
2096921,2096921,183314,628669,0
2096921,2096921,183300,628593,0
2096921,2096921,183320,628806,0
2096921,2096921,183379,628546,0
2096921,2096921,183510,628834,0
2096921,2096921,183279,628835,0
2096921,2096921,183270,628604,0
2096921,2096921,183375,628594,0
2096921,2096921,183367,628833,0
2096921,2096921,183419,628703,0
2096921,2096921,183457,629136,0
2096921,2096921,183620,628920,0
2096921,2096921,183894,629032,0
2096921,2096921,183769,629001,0
2096921,2096921,183501,629064,0
2096921,2096921,183441,629207,0
2096921,2096921,183551,629032,0
2096921,2096921,183262,628900,0
2096921,2096921,183551,628960,0
2096921,2096921,183460,629232,0
2096921,2096921,183799,629137,0
2096921,2096921,183611,629272,0
2096921,2096921,183696,629251,0
2096921,2096921,183490,629151,0
2096921,2096921,183411,629179,0
2096921,2096921,183290,629154,0
2096921,2096921,183285,629236,0
2096921,2096921,183501,629058,0
2096921,2096921,183554,629374,0
2096921,2096921,183668,629382,0
2096921,2096921,183635,629564,0
2096921,2096921,183918,629616,0
2096921,2096921,183573,629728,0
2096921,2096921,183809,629364,0
2096921,2096921,183708,629534,0
2096921,2096921,183711,629670,0
2096921,2096921,183660,629276,0
2096921,2096921,183671,629017,0
2096921,2096921,183848,629165,0
2096921,2096921,183875,629364,0
2096921,2096921,183873,629503,0
2096921,2096921,183865,629634,0
2096921,2096921,183718,629564,0
2096921,2096921,183875,629564,0
2096921,2096921,183787,629570,0
2096921,2096921,183623,629464,0
2096921,2096921,183792,629480,0
2096921,2096921,183641,629497,0
2096921,2096921,183504,629982,0
2096921,2096921,183802,629266,0
2096921,2096921,183772,629484,0
2096921,2096921,183828,629577,0
2096921,2096921,183656,629592,0
2096921,2096921,183719,629683,0
2096921,2096921,183499,630104,0
2096921,2096921,183425,629817,0
2096921,2096921,183581,629603,0
2096921,2096921,183811,629577,0
2096921,2096921,183723,629685,0
2096921,2096921,183842,629730,0
2096921,2096921,183722,629749,0
2096921,2096921,183782,629778,0
2096921,2096921,183755,629750,0
2096921,2096921,183806,629578,0
2096921,2096921,183860,629661,0
2096921,2096921,183832,629664,0
2096921,2096921,183686,629516,0
2096921,2096921,183567,629597,0
2096921,2096921,183486,629299,0
2096921,2096921,183701,629680,0
2096921,2096921,183834,629893,0
2096921,2096921,183593,629917,0
2096921,2096921,183708,629742,0
2096921,2096921,183658,629831,0
2096921,2096921,183537,630099,0
2096921,2096921,183297,629781,0
2096921,2096921,183331,629356,0
2096921,2096921,183744,629606,0
2096921,2096921,183942,629615,0
2096921,2096921,184063,629684,0
2096921,2096921,183993,629647,0
2096921,2096921,183917,629766,0
2096921,2096921,183450,629587,0
2096921,2096921,183726,629866,0
2096921,2096921,183575,629961,0
2096921,2096921,183329,629845,0
2096921,2096921,183650,629511,0
2096921,2096921,183750,629901,0
2096921,2096921,183536,629883,0
2096921,2096921,184009,629637,0
2096921,2096921,183945,629581,0
2096921,2096921,183927,630090,0
2096921,2096921,183834,630104,0
2096921,2096921,183646,630079,0
2096921,2096921,183754,629655,0
2096921,2096921,183668,629563,0
2096921,2096921,183637,629397,0
