2096921,2096921,162333,666959,0
2096921,2096921,162217,666687,0
2096921,2096921,161933,666555,0
2096921,2096921,161829,666400,0
2096921,2096921,161966,666364,0
2096921,2096921,161703,666320,0
2096921,2096921,161659,666148,0
2096921,2096921,161892,665957,0
2096921,2096921,161781,666081,0
2096921,2096921,161604,666180,0
2096921,2096921,161834,665983,0
2096921,2096921,161429,665516,0
2096921,2096921,161690,665422,0
2096921,2096921,161765,665479,0
2096921,2096921,161652,665584,0
2096921,2096921,161346,665311,0
2096921,2096921,161248,664798,0
2096921,2096921,161195,664676,0
2096921,2096921,161015,664405,0
2096921,2096921,161379,664558,0
2096921,2096921,161354,664624,0
2096921,2096921,161173,664112,0
2096921,2096921,161072,664096,0
2096921,2096921,161032,663755,0
2096921,2096921,161118,664089,0
2096921,2096921,161289,664144,0
2096921,2096921,160466,662505,0
2096921,2096921,160278,662203,0
2096921,2096921,159943,661944,0
2096921,2096921,160168,662132,0
2096921,2096921,160086,662110,0
2096921,2096921,159459,660214,0
2096921,2096921,159067,659682,0
2096921,2096921,159181,659586,0
2096921,2096921,159159,659537,0
2096921,2096921,159233,659917,0
2096921,2096921,158512,658246,0
2096921,2096921,158522,658277,0
2096921,2096921,158478,658369,0
2096921,2096921,158447,658140,0
2096921,2096921,158687,657868,0
2096921,2096921,158116,657051,0
2096921,2096921,157849,656725,0
2096921,2096921,157583,656566,0
2096921,2096921,157926,656468,0
2096921,2096921,158069,656788,0
2096921,2096921,157804,655978,0
2096921,2096921,157575,655855,0
2096921,2096921,157621,656075,0
2096921,2096921,157581,655799,0
2096921,2096921,157467,655867,0
2096921,2096921,157441,655223,0
2096921,2096921,157192,655150,0
2096921,2096921,157356,655191,0
2096921,2096921,157169,655445,0
2096921,2096921,157190,655208,0
2096921,2096921,157274,654460,0
2096921,2096921,157268,654718,0
2096921,2096921,157249,654737,0
2096921,2096921,157205,654664,0
2096921,2096921,157274,654803,0
2096921,2096921,157015,654748,0
2096921,2096921,156583,654207,0
2096921,2096921,156784,654349,0
2096921,2096921,156812,654437,0
2096921,2096921,156944,654452,0
2096921,2096921,156729,654185,0
2096921,2096921,156782,654098,0
2096921,2096921,156994,654248,0
2096921,2096921,156688,654085,0
2096921,2096921,156946,654149,0
2096921,2096921,156880,654144,0
2096921,2096921,157068,654314,0
2096921,2096921,157067,654194,0
2096921,2096921,157203,654323,0
2096921,2096921,156848,654210,0
2096921,2096921,157300,654403,0
2096921,2096921,156883,654257,0
2096921,2096921,157039,654692,0
2096921,2096921,156999,654663,0
2096921,2096921,157088,654604,0
2096921,2096921,156936,654497,0
2096921,2096921,157202,654545,0
2096921,2096921,156993,654568,0
2096921,2096921,157012,654481,0
2096921,2096921,156884,654466,0
2096921,2096921,157024,654802,0
2096921,2096921,157370,654897,0
2096921,2096921,156877,654868,0
2096921,2096921,157000,654988,0
2096921,2096921,157295,655257,0
2096921,2096921,157046,655428,0
2096921,2096921,157511,655461,0
2096921,2096921,157197,655568,0
2096921,2096921,157257,655347,0
2096921,2096921,157169,655505,0
2096921,2096921,157213,655495,0
2096921,2096921,157300,655855,0
2096921,2096921,157494,655719,0
2096921,2096921,157329,655684,0
2096921,2096921,157347,655518,0
2096921,2096921,157474,656064,0
2096921,2096921,157671,655974,0
2096921,2096921,157599,656352,0
2096921,2096921,157631,656309,0
2096921,2096921,157494,656210,0
2096921,2096921,157911,656209,0
2096921,2096921,158070,656435,0
2096921,2096921,157804,656603,0
2096921,2096921,158025,656756,0
2096921,2096921,157805,656652,0
2096921,2096921,157976,657061,0
2096921,2096921,158120,657091,0
2096921,2096921,158090,657083,0
2096921,2096921,157859,657352,0
2096921,2096921,158038,657622,0
2096921,2096921,158007,657652,0
2096921,2096921,158223,657811,0
2096921,2096921,158162,657708,0
2096921,2096921,158396,657688,0
2096921,2096921,158015,657822,0
2096921,2096921,158615,658013,0
2096921,2096921,158563,657982,0
2096921,2096921,158425,658085,0
2096921,2096921,158391,657859,0
2096921,2096921,158254,658095,0
2096921,2096921,158651,658074,0
2096921,2096921,158658,658378,0
2096921,2096921,158707,658394,0
2096921,2096921,158403,658535,0
2096921,2096921,158391,658820,0
2096921,2096921,158349,658828,0
2096921,2096921,158568,658878,0
2096921,2096921,158631,658916,0
2096921,2096921,158847,658958,0
2096921,2096921,158595,659049,0
2096921,2096921,158945,659428,0
2096921,2096921,159172,659409,0
2096921,2096921,159168,659673,0
2096921,2096921,159169,659380,0
2096921,2096921,158855,659836,0
2096921,2096921,159150,660179,0
2096921,2096921,158925,660503,0
2096921,2096921,159035,660230,0
2096921,2096921,158986,660217,0
2096921,2096921,158911,660096,0
2096921,2096921,159214,660484,0
2096921,2096921,159259,660803,0
2096921,2096921,159221,660637,0
2096921,2096921,159341,660692,0
2096921,2096921,159223,660874,0
2096921,2096921,159402,661055,0
2096921,2096921,159368,661241,0
2096921,2096921,159596,661168,0
2096921,2096921,159531,661377,0
2096921,2096921,159339,661266,0
2096921,2096921,159850,661654,0
2096921,2096921,159336,661617,0
2096921,2096921,159575,661808,0
2096921,2096921,159741,662094,0
2096921,2096921,159658,661962,0
2096921,2096921,159663,662227,0
2096921,2096921,159810,662137,0
2096921,2096921,159572,662192,0
2096921,2096921,159677,662120,0
2096921,2096921,159512,662175,0
2096921,2096921,159656,662626,0
2096921,2096921,159781,662628,0
2096921,2096921,159782,662359,0
2096921,2096921,160021,662462,0
2096921,2096921,159604,662593,0
2096921,2096921,159851,662694,0
2096921,2096921,160040,662678,0
2096921,2096921,160128,662736,0
2096921,2096921,160072,662876,0
2096921,2096921,159858,662470,0
2096921,2096921,160084,662836,0
2096921,2096921,160082,662780,0
2096921,2096921,160168,663193,0
2096921,2096921,160306,663101,0
2096921,2096921,160059,662868,0
2096921,2096921,160231,662956,0
2096921,2096921,160356,663108,0
2096921,2096921,160178,663220,0
2096921,2096921,160026,663246,0
2096921,2096921,160231,663352,0
2096921,2096921,159965,663160,0
2096921,2096921,159920,663447,0
2096921,2096921,159924,663481,0
2096921,2096921,159850,663351,0
2096921,2096921,159833,663179,0
2096921,2096921,159768,663523,0
2096921,2096921,160169,663399,0
2096921,2096921,160199,663324,0
2096921,2096921,160269,663244,0
2096921,2096921,160379,663374,0
2096921,2096921,160220,663301,0
2096921,2096921,160207,663462,0
2096921,2096921,160236,663488,0
2096921,2096921,160155,663762,0
2096921,2096921,160468,663566,0
2096921,2096921,160441,663570,0
2096921,2096921,160317,663620,0
2096921,2096921,160128,663264,0
2096921,2096921,160093,663485,0
2096921,2096921,159807,663374,0
2096921,2096921,159883,663443,0
2096921,2096921,159963,663333,0
2096921,2096921,160014,663377,0
2096921,2096921,160027,663769,0
2096921,2096921,159964,663494,0
2096921,2096921,160251,663718,0
2096921,2096921,159979,663953,0
2096921,2096921,160385,663940,0
2096921,2096921,160223,663930,0
2096921,2096921,160360,663782,0
2096921,2096921,160401,664142,0
2096921,2096921,160355,664299,0
2096921,2096921,160433,664026,0
2096921,2096921,160384,664319,0
2096921,2096921,160570,663901,0
2096921,2096921,160563,664138,0
2096921,2096921,160451,664235,0
2096921,2096921,160093,664847,0
2096921,2096921,160037,664438,0
2096921,2096921,160183,664163,0
2096921,2096921,160482,664414,0
2096921,2096921,160395,664548,0
2096921,2096921,160724,664542,0
2096921,2096921,160423,664604,0
2096921,2096921,160405,664687,0
2096921,2096921,160524,664742,0
2096921,2096921,160521,664994,0
2096921,2096921,160326,665190,0
2096921,2096921,160560,664851,0
2096921,2096921,160706,664880,0
2096921,2096921,160640,665644,0
2096921,2096921,160806,665529,0
2096921,2096921,160948,665986,0
2096921,2096921,160832,666051,0
2096921,2096921,160788,666149,0
2096921,2096921,160946,666623,0
2096921,2096921,160969,666816,0
2096921,2096921,160926,666693,0
2096921,2096921,161055,666461,0
2096921,2096921,160959,666237,0
2096921,2096921,160559,666342,0
2096921,2096921,161143,666876,0
2096921,2096921,161236,666680,0
2096921,2096921,160964,666749,0
2096921,2096921,161236,666663,0
2096921,2096921,161111,667350,0
2096921,2096921,161127,667480,0
2096921,2096921,161175,667314,0
2096921,2096921,161264,667338,0
2096921,2096921,161381,667503,0
2096921,2096921,161634,667755,0
2096921,2096921,161482,668100,0
2096921,2096921,161462,667984,0
2096921,2096921,161408,668108,0
2096921,2096921,161474,668431,0
2096921,2096921,161630,668447,0
2096921,2096921,161618,668604,0
2096921,2096921,161691,668516,0
2096921,2096921,161801,668410,0
2096921,2096921,161551,668839,0
2096921,2096921,161688,668862,0
2096921,2096921,161567,669129,0
2096921,2096921,161744,669033,0
2096921,2096921,161688,668897,0
2096921,2096921,162175,669388,0
2096921,2096921,162001,669339,0
2096921,2096921,161746,669279,0
2096921,2096921,161874,669328,0
2096921,2096921,161901,669314,0
2096921,2096921,162206,669656,0
2096921,2096921,162077,669907,0
2096921,2096921,162389,669750,0
2096921,2096921,162218,670216,0
2096921,2096921,161985,670195,0
2096921,2096921,162414,670563,0
2096921,2096921,162516,670627,0
2096921,2096921,162333,670559,0
2096921,2096921,162497,670557,0
2096921,2096921,162400,670846,0
2096921,2096921,162683,670986,0
2096921,2096921,162264,671156,0
2096921,2096921,162518,671079,0
2096921,2096921,162387,671343,0
2096921,2096921,162362,671086,0
2096921,2096921,162648,671264,0
2096921,2096921,162697,671530,0
2096921,2096921,162763,671378,0
2096921,2096921,162863,671247,0
2096921,2096921,162785,671532,0
2096921,2096921,162970,672062,0
2096921,2096921,162905,672226,0
2096921,2096921,162839,672151,0
2096921,2096921,162683,671975,0
2096921,2096921,162927,671904,0
2096921,2096921,162892,672434,0
2096921,2096921,163129,672751,0
2096921,2096921,162861,672407,0
2096921,2096921,163010,672742,0
2096921,2096921,163060,672860,0
2096921,2096921,163209,673306,0
2096921,2096921,163481,673364,0
2096921,2096921,163203,673407,0
2096921,2096921,163309,673359,0
2096921,2096921,163194,673293,0
2096921,2096921,163307,673646,0
2096921,2096921,163349,674167,0
2096921,2096921,163148,673964,0
2096921,2096921,163349,673892,0
2096921,2096921,163551,673784,0
2096921,2096921,163483,674034,0
2096921,2096921,163357,674080,0
2096921,2096921,163523,674049,0
2096921,2096921,163376,674258,0
2096921,2096921,163585,674441,0
2096921,2096921,163489,674686,0
2096921,2096921,163896,674967,0
2096921,2096921,163626,674882,0
2096921,2096921,163949,675122,0
2096921,2096921,163626,674679,0
2096921,2096921,164049,675200,0
2096921,2096921,163723,675351,0
2096921,2096921,164129,675407,0
2096921,2096921,163708,675405,0
2096921,2096921,163684,675202,0
2096921,2096921,163631,675581,0
2096921,2096921,163873,675841,0
2096921,2096921,163778,675769,0
2096921,2096921,163785,675879,0
2096921,2096921,163785,675599,0
2096921,2096921,163967,676161,0
2096921,2096921,163847,676069,0
2096921,2096921,163958,676469,0
2096921,2096921,164268,676628,0
2096921,2096921,163929,676480,0
2096921,2096921,164176,676896,0
2096921,2096921,164353,676604,0
2096921,2096921,164110,676912,0
2096921,2096921,164066,676579,0
2096921,2096921,164382,676878,0
2096921,2096921,164192,677165,0
2096921,2096921,164173,677447,0
2096921,2096921,164588,677385,0
2096921,2096921,164603,677351,0
2096921,2096921,164564,677218,0
2096921,2096921,164713,677621,0
2096921,2096921,164606,677722,0
2096921,2096921,164701,677904,0
2096921,2096921,164645,677781,0
2096921,2096921,164496,677747,0
2096921,2096921,164748,678069,0
2096921,2096921,164411,678225,0
2096921,2096921,164823,678099,0
2096921,2096921,164574,678316,0
2096921,2096921,165038,678594,0
2096921,2096921,165157,678494,0
2096921,2096921,164784,678781,0
2096921,2096921,164843,678378,0
2096921,2096921,164624,678612,0
2096921,2096921,164689,678639,0
2096921,2096921,164904,679043,0
2096921,2096921,164787,679032,0
2096921,2096921,165316,679482,0
2096921,2096921,165150,679142,0
2096921,2096921,164982,679204,0
2096921,2096921,165412,679868,0
2096921,2096921,165122,679498,0
2096921,2096921,165358,679557,0
2096921,2096921,165327,679703,0
2096921,2096921,165263,679602,0
2096921,2096921,165308,679746,0
2096921,2096921,165140,679843,0
2096921,2096921,165055,679901,0
2096921,2096921,165224,679972,0
2096921,2096921,165187,679629,0
2096921,2096921,165367,680140,0
2096921,2096921,165453,680230,0
2096921,2096921,165228,680386,0
2096921,2096921,165167,680167,0
2096921,2096921,165315,680242,0
2096921,2096921,165489,680700,0
2096921,2096921,165376,680683,0
2096921,2096921,165605,680913,0
2096921,2096921,165519,680881,0
2096921,2096921,165536,680986,0
2096921,2096921,165731,681274,0
2096921,2096921,165855,681145,0
2096921,2096921,165463,681465,0
2096921,2096921,165438,681230,0
2096921,2096921,165494,681367,0
2096921,2096921,165707,681769,0
2096921,2096921,165561,681742,0
2096921,2096921,165782,681796,0
2096921,2096921,165698,681519,0
2096921,2096921,165701,681724,0
2096921,2096921,165905,681818,0
2096921,2096921,165601,682054,0
2096921,2096921,165915,681900,0
2096921,2096921,165472,682116,0
2096921,2096921,165779,682039,0
2096921,2096921,165740,682509,0
2096921,2096921,165995,682457,0
2096921,2096921,165956,682523,0
2096921,2096921,166036,682607,0
2096921,2096921,166209,682659,0
2096921,2096921,166076,683166,0
2096921,2096921,166138,683187,0
2096921,2096921,166022,683124,0
2096921,2096921,166094,682963,0
2096921,2096921,166175,683277,0
2096921,2096921,166128,683028,0
2096921,2096921,166262,683445,0
2096921,2096921,166201,683340,0
2096921,2096921,166061,683494,0
2096921,2096921,166135,683498,0
2096921,2096921,166433,683783,0
2096921,2096921,166262,683595,0
2096921,2096921,166268,683896,0
2096921,2096921,166379,683842,0
2096921,2096921,166442,683696,0
2096921,2096921,166507,684061,0
2096921,2096921,166436,684109,0
2096921,2096921,166650,684456,0
2096921,2096921,166679,684365,0
2096921,2096921,166360,684381,0
2096921,2096921,166352,684637,0
2096921,2096921,166525,684879,0
2096921,2096921,166681,684755,0
2096921,2096921,166457,684576,0
2096921,2096921,166410,684772,0
2096921,2096921,166650,685088,0
2096921,2096921,166892,685039,0
2096921,2096921,166647,685164,0
2096921,2096921,166772,685047,0
2096921,2096921,166589,685169,0
2096921,2096921,166732,685266,0
2096921,2096921,166723,685149,0
2096921,2096921,166785,685419,0
2096921,2096921,166878,685530,0
2096921,2096921,166670,685666,0
2096921,2096921,166883,685578,0
2096921,2096921,166738,685622,0
2096921,2096921,166721,686028,0
2096921,2096921,166827,685921,0
2096921,2096921,166679,685448,0
2096921,2096921,166944,686123,0
2096921,2096921,166828,686312,0
2096921,2096921,166747,686142,0
2096921,2096921,166770,686179,0
2096921,2096921,166794,686017,0
2096921,2096921,166962,686185,0
2096921,2096921,166745,686453,0
2096921,2096921,166894,686222,0
2096921,2096921,167076,686417,0
2096921,2096921,166771,686486,0
2096921,2096921,167263,686373,0
2096921,2096921,167124,686587,0
2096921,2096921,167128,686521,0
2096921,2096921,166963,686501,0
2096921,2096921,167164,686522,0
2096921,2096921,167093,686971,0
2096921,2096921,167350,686979,0
2096921,2096921,167257,687137,0
2096921,2096921,167482,686811,0
2096921,2096921,167026,686949,0
2096921,2096921,167105,687030,0
2096921,2096921,167024,687393,0
2096921,2096921,167213,687400,0
2096921,2096921,167024,687322,0
2096921,2096921,167257,687528,0
2096921,2096921,167312,687594,0
2096921,2096921,167789,687748,0
2096921,2096921,167185,687620,0
2096921,2096921,167223,687705,0
2096921,2096921,167424,687714,0
2096921,2096921,167403,687912,0
2096921,2096921,167432,687974,0
2096921,2096921,167622,687672,0
2096921,2096921,167571,688102,0
2096921,2096921,167440,688143,0
2096921,2096921,167407,688386,0
2096921,2096921,167393,688347,0
2096921,2096921,167488,688270,0
2096921,2096921,167047,688159,0
2096921,2096921,167218,688375,0
2096921,2096921,167471,688507,0
2096921,2096921,167702,688512,0
2096921,2096921,167391,688542,0
2096921,2096921,167604,688838,0
2096921,2096921,167863,688748,0
2096921,2096921,167623,689245,0
2096921,2096921,167651,688997,0
2096921,2096921,167671,688833,0
2096921,2096921,167917,689019,0
2096921,2096921,167628,688911,0
2096921,2096921,167644,688809,0
2096921,2096921,167498,688720,0
2096921,2096921,167593,688843,0
2096921,2096921,167269,688713,0
2096921,2096921,167758,688574,0
2096921,2096921,167566,688683,0
2096921,2096921,167544,688652,0
2096921,2096921,167512,688451,0
2096921,2096921,167304,688403,0
2096921,2096921,167443,688519,0
2096921,2096921,167451,688244,0
2096921,2096921,167457,687903,0
2096921,2096921,167141,688035,0
2096921,2096921,167297,688391,0
2096921,2096921,167214,688552,0
2096921,2096921,167320,687947,0
2096921,2096921,167162,688103,0
2096921,2096921,167187,687916,0
2096921,2096921,167247,687960,0
2096921,2096921,167470,687841,0
2096921,2096921,167079,687416,0
2096921,2096921,166861,687499,0
2096921,2096921,166820,687417,0
2096921,2096921,166971,687230,0
2096921,2096921,166715,687166,0
2096921,2096921,166220,686028,0
2096921,2096921,165999,685366,0
2096921,2096921,165923,685575,0
2096921,2096921,166057,685488,0
2096921,2096921,165845,685534,0
2096921,2096921,165288,683691,0
2096921,2096921,165007,683171,0
2096921,2096921,164764,683348,0
2096921,2096921,164932,683058,0
2096921,2096921,165158,683167,0
2096921,2096921,164462,682017,0
2096921,2096921,164624,682092,0
2096921,2096921,164790,681980,0
2096921,2096921,164526,682202,0
2096921,2096921,164575,682064,0
2096921,2096921,164005,681140,0
2096921,2096921,164357,680934,0
2096921,2096921,164064,681036,0
2096921,2096921,163904,680824,0
2096921,2096921,163949,680785,0
2096921,2096921,163738,680227,0
2096921,2096921,163448,680217,0
2096921,2096921,163586,680071,0
2096921,2096921,163839,679756,0
2096921,2096921,163480,679961,0
2096921,2096921,163340,679831,0
2096921,2096921,163206,679605,0
2096921,2096921,163272,679395,0
2096921,2096921,162832,679487,0
2096921,2096921,163155,679194,0
2096921,2096921,162954,679093,0
2096921,2096921,163140,679505,0
2096921,2096921,163359,679145,0
2096921,2096921,163211,679306,0
2096921,2096921,163430,679548,0
2096921,2096921,163026,679079,0
2096921,2096921,162948,679195,0
2096921,2096921,163156,679093,0
2096921,2096921,163087,679474,0
2096921,2096921,163273,679161,0
2096921,2096921,163187,679071,0
2096921,2096921,163405,679356,0
2096921,2096921,163343,679118,0
2096921,2096921,163437,679165,0
2096921,2096921,163146,679201,0
2096921,2096921,163239,679099,0
2096921,2096921,163018,679456,0
2096921,2096921,163125,679021,0
2096921,2096921,163209,679334,0
2096921,2096921,163094,679624,0
2096921,2096921,163314,679606,0
2096921,2096921,163193,679906,0
2096921,2096921,163098,679773,0
2096921,2096921,163128,679868,0
2096921,2096921,163380,679919,0
2096921,2096921,163141,679893,0
2096921,2096921,163268,680063,0
2096921,2096921,163510,679804,0
2096921,2096921,163495,680193,0
2096921,2096921,163558,680095,0
2096921,2096921,163489,680397,0
2096921,2096921,163420,680348,0
2096921,2096921,163621,680458,0
2096921,2096921,163578,680436,0
2096921,2096921,163435,680524,0
2096921,2096921,163486,680942,0
2096921,2096921,163564,680722,0
2096921,2096921,163622,680923,0
2096921,2096921,163516,680714,0
2096921,2096921,163339,680528,0
2096921,2096921,163597,681254,0
2096921,2096921,163639,681434,0
2096921,2096921,163506,681365,0
2096921,2096921,163795,681108,0
2096921,2096921,164079,681379,0
2096921,2096921,164380,681907,0
2096921,2096921,164121,681788,0
2096921,2096921,164120,681856,0
2096921,2096921,164219,682075,0
2096921,2096921,164215,682223,0
2096921,2096921,164571,682510,0
2096921,2096921,164505,682769,0
2096921,2096921,164477,682827,0
2096921,2096921,164588,682716,0
2096921,2096921,164254,682757,0
2096921,2096921,164326,682924,0
2096921,2096921,164359,683295,0
2096921,2096921,164416,683019,0
2096921,2096921,164640,683069,0
2096921,2096921,164760,683049,0
2096921,2096921,164732,683348,0
2096921,2096921,164655,683291,0
2096921,2096921,164764,683373,0
2096921,2096921,164556,683513,0
2096921,2096921,164418,683696,0
2096921,2096921,164585,683998,0
2096921,2096921,164782,684033,0
2096921,2096921,164712,684033,0
2096921,2096921,164573,684029,0
2096921,2096921,164724,684023,0
2096921,2096921,165038,684437,0
2096921,2096921,164996,684738,0
2096921,2096921,164957,684661,0
2096921,2096921,165034,684678,0
2096921,2096921,165281,684497,0
2096921,2096921,165472,685084,0
2096921,2096921,165408,685347,0
2096921,2096921,165340,685424,0
2096921,2096921,165258,685322,0
2096921,2096921,165540,685262,0
2096921,2096921,165497,685445,0
2096921,2096921,165341,685539,0
2096921,2096921,165316,685308,0
2096921,2096921,165244,685648,0
2096921,2096921,165608,685544,0
2096921,2096921,165512,685854,0
2096921,2096921,165412,686034,0
2096921,2096921,165674,685868,0
2096921,2096921,165790,686205,0
2096921,2096921,165929,686108,0
2096921,2096921,165902,686497,0
2096921,2096921,165993,686752,0
2096921,2096921,166049,686651,0
2096921,2096921,165903,686960,0
2096921,2096921,166089,686937,0
2096921,2096921,165928,686684,0
2096921,2096921,165956,687084,0
2096921,2096921,166166,687199,0
2096921,2096921,165847,686780,0
2096921,2096921,166101,687015,0
2096921,2096921,166133,687146,0
2096921,2096921,165762,687298,0
2096921,2096921,166038,687390,0
2096921,2096921,166062,687486,0
2096921,2096921,166239,686881,0
2096921,2096921,166260,687213,0
2096921,2096921,166097,687420,0
2096921,2096921,166182,687258,0
2096921,2096921,166455,687387,0
2096921,2096921,166424,687364,0
2096921,2096921,166478,687726,0
2096921,2096921,166333,687653,0
2096921,2096921,166550,687725,0
2096921,2096921,166602,687893,0
2096921,2096921,166643,687675,0
2096921,2096921,166357,688051,0
2096921,2096921,166327,688000,0
2096921,2096921,166272,688084,0
2096921,2096921,166438,687824,0
2096921,2096921,166263,687802,0
2096921,2096921,166142,687766,0
2096921,2096921,166318,687870,0
2096921,2096921,166672,688021,0
2096921,2096921,166195,687878,0
2096921,2096921,166422,687552,0
2096921,2096921,166510,688003,0
2096921,2096921,166469,687878,0
2096921,2096921,166459,688136,0
2096921,2096921,166653,688050,0
2096921,2096921,166681,688015,0
2096921,2096921,166267,687847,0
2096921,2096921,166503,687639,0
2096921,2096921,166549,688024,0
2096921,2096921,166309,687844,0
2096921,2096921,166488,687796,0
2096921,2096921,166423,687647,0
2096921,2096921,166408,687750,0
2096921,2096921,166276,687552,0
2096921,2096921,166169,687831,0
2096921,2096921,166173,687476,0
2096921,2096921,166242,687422,0
2096921,2096921,166080,687444,0
2096921,2096921,166095,687423,0
2096921,2096921,165888,687371,0
2096921,2096921,165843,687565,0
2096921,2096921,166248,687671,0
2096921,2096921,166209,687392,0
2096921,2096921,166385,687480,0
2096921,2096921,166285,687432,0
2096921,2096921,166357,687690,0
2096921,2096921,166244,687512,0
2096921,2096921,166202,687420,0
2096921,2096921,166397,687172,0
2096921,2096921,166152,686995,0
2096921,2096921,166161,687370,0
2096921,2096921,165906,687385,0
2096921,2096921,165924,687707,0
2096921,2096921,165875,687419,0
2096921,2096921,165883,687577,0
2096921,2096921,165960,687316,0
2096921,2096921,165957,687326,0
2096921,2096921,166010,686984,0
2096921,2096921,166212,687300,0
2096921,2096921,166022,687271,0
2096921,2096921,166009,687643,0
2096921,2096921,166194,687601,0
2096921,2096921,166241,687445,0
2096921,2096921,166080,687148,0
2096921,2096921,166045,687437,0
2096921,2096921,166140,687777,0
2096921,2096921,166191,687618,0
2096921,2096921,166382,687521,0
2096921,2096921,166422,687501,0
2096921,2096921,165891,687587,0
2096921,2096921,166058,687386,0
2096921,2096921,166165,687555,0
2096921,2096921,166067,687381,0
2096921,2096921,166265,687777,0
2096921,2096921,165926,687343,0
2096921,2096921,166239,687321,0
2096921,2096921,166045,687452,0
2096921,2096921,166335,687649,0
2096921,2096921,166361,687448,0
2096921,2096921,166595,687784,0
2096921,2096921,166463,687962,0
2096921,2096921,166403,688234,0
2096921,2096921,166601,688292,0
2096921,2096921,166386,688349,0
2096921,2096921,166742,688302,0
2096921,2096921,166473,688215,0
2096921,2096921,166507,688507,0
2096921,2096921,166535,688712,0
2096921,2096921,166617,688599,0
2096921,2096921,166594,688549,0
2096921,2096921,166408,688838,0
2096921,2096921,166524,688796,0
2096921,2096921,166583,688742,0
2096921,2096921,166814,688532,0
2096921,2096921,166714,688747,0
2096921,2096921,166710,688784,0
2096921,2096921,166855,689184,0
2096921,2096921,166837,688901,0
2096921,2096921,166785,689002,0
2096921,2096921,166985,688934,0
2096921,2096921,166690,689190,0
2096921,2096921,166946,689064,0
2096921,2096921,167031,689067,0
2096921,2096921,167134,689056,0
2096921,2096921,167155,689211,0
2096921,2096921,167002,689295,0
2096921,2096921,166909,689437,0
2096921,2096921,167112,689185,0
2096921,2096921,167046,689377,0
2096921,2096921,166950,689731,0
2096921,2096921,166899,689641,0
2096921,2096921,166995,689780,0
2096921,2096921,166925,689821,0
2096921,2096921,166871,689824,0
2096921,2096921,167248,689785,0
2096921,2096921,167070,689621,0
2096921,2096921,167101,689906,0
2096921,2096921,167030,689991,0
2096921,2096921,167205,690011,0
2096921,2096921,167333,689994,0
2096921,2096921,167099,690079,0
2096921,2096921,167320,690009,0
2096921,2096921,167204,690140,0
2096921,2096921,167169,690095,0
2096921,2096921,167447,690300,0
2096921,2096921,167247,690303,0
2096921,2096921,167364,690573,0
2096921,2096921,167610,690590,0
2096921,2096921,167650,690691,0
2096921,2096921,167496,690578,0
2096921,2096921,167324,690329,0
2096921,2096921,167478,690589,0
2096921,2096921,167508,690417,0
2096921,2096921,167500,690543,0
2096921,2096921,167598,690548,0
2096921,2096921,167336,690628,0
2096921,2096921,167367,690657,0
2096921,2096921,167429,690795,0
2096921,2096921,167576,690728,0
2096921,2096921,167497,690870,0
2096921,2096921,167265,690658,0
2096921,2096921,167422,691222,0
2096921,2096921,167474,691049,0
2096921,2096921,167521,690789,0
2096921,2096921,167957,691273,0
2096921,2096921,167611,691089,0
2096921,2096921,167818,691698,0
2096921,2096921,167738,691673,0
2096921,2096921,167993,691491,0
2096921,2096921,167887,691396,0
2096921,2096921,167779,691458,0
2096921,2096921,168079,691365,0
2096921,2096921,168131,691398,0
2096921,2096921,167852,691540,0
2096921,2096921,167564,691425,0
2096921,2096921,167601,691575,0
2096921,2096921,167915,691520,0
2096921,2096921,167892,691499,0
2096921,2096921,167768,691471,0
2096921,2096921,167997,691848,0
2096921,2096921,168082,691828,0
2096921,2096921,167992,691829,0
2096921,2096921,167924,691757,0
2096921,2096921,168204,691622,0
2096921,2096921,167743,691726,0
2096921,2096921,168018,691895,0
2096921,2096921,167948,691919,0
2096921,2096921,168204,691905,0
2096921,2096921,168045,692091,0
2096921,2096921,168123,692333,0
2096921,2096921,168097,692445,0
2096921,2096921,168349,692110,0
2096921,2096921,168092,692033,0
2096921,2096921,168397,692202,0
2096921,2096921,168141,692188,0
2096921,2096921,168195,692219,0
2096921,2096921,168433,692119,0
2096921,2096921,168134,692259,0
2096921,2096921,168375,692074,0
2096921,2096921,168085,692375,0
2096921,2096921,168348,692301,0
2096921,2096921,168207,692455,0
2096921,2096921,168154,692179,0
2096921,2096921,168067,692285,0
2096921,2096921,168100,691956,0
2096921,2096921,168178,692061,0
2096921,2096921,168178,692155,0
2096921,2096921,168368,692319,0
2096921,2096921,168350,692340,0
2096921,2096921,168096,692400,0
2096921,2096921,168360,692779,0
2096921,2096921,168488,692428,0
2096921,2096921,168282,692515,0
2096921,2096921,168394,692445,0
2096921,2096921,168436,692663,0
2096921,2096921,168300,692691,0
2096921,2096921,168639,692659,0
2096921,2096921,168448,692598,0
2096921,2096921,168281,692507,0
2096921,2096921,168216,692280,0
2096921,2096921,168319,692744,0
2096921,2096921,168364,692440,0
2096921,2096921,168018,692242,0
2096921,2096921,168291,692735,0
2096921,2096921,167955,692235,0
2096921,2096921,168151,692603,0
2096921,2096921,168510,692662,0
2096921,2096921,168335,692578,0
2096921,2096921,168195,692741,0
2096921,2096921,168372,692866,0
2096921,2096921,168333,692906,0
2096921,2096921,168334,692754,0
2096921,2096921,168579,692635,0
2096921,2096921,168347,692537,0
2096921,2096921,168437,692510,0
2096921,2096921,168482,692864,0
2096921,2096921,168274,692585,0
2096921,2096921,168399,692069,0
2096921,2096921,168383,692228,0
2096921,2096921,168312,692574,0
2096921,2096921,168435,692758,0
2096921,2096921,168435,692674,0
2096921,2096921,168239,692746,0
2096921,2096921,168423,692601,0
2096921,2096921,168528,692793,0
2096921,2096921,168650,692696,0
2096921,2096921,168653,692511,0
2096921,2096921,168621,692642,0
2096921,2096921,168513,692557,0
2096921,2096921,168340,692483,0
2096921,2096921,168421,692436,0
2096921,2096921,168536,692417,0
2096921,2096921,168361,692435,0
2096921,2096921,168359,692521,0
2096921,2096921,168395,692343,0
2096921,2096921,168156,692464,0
2096921,2096921,168293,692182,0
2096921,2096921,168416,692365,0
2096921,2096921,168265,692259,0
2096921,2096921,168253,692683,0
2096921,2096921,168488,692493,0
2096921,2096921,168318,692503,0
2096921,2096921,168128,692386,0
2096921,2096921,168535,692411,0
2096921,2096921,168443,692597,0
2096921,2096921,168450,692461,0
2096921,2096921,168472,692325,0
2096921,2096921,168529,692394,0
2096921,2096921,168653,692371,0
2096921,2096921,168657,692399,0
2096921,2096921,168554,692507,0
2096921,2096921,168544,692410,0
2096921,2096921,168304,692540,0
2096921,2096921,168240,692102,0
2096921,2096921,168254,692304,0
2096921,2096921,168519,692125,0
2096921,2096921,168724,691768,0
2096921,2096921,168417,692069,0
2096921,2096921,168036,692380,0
2096921,2096921,168334,691972,0
2096921,2096921,168270,692033,0
2096921,2096921,168544,691980,0
2096921,2096921,168315,691961,0
2096921,2096921,168567,691990,0
2096921,2096921,168473,691899,0
2096921,2096921,168281,691929,0
2096921,2096921,168282,691799,0
2096921,2096921,168421,692158,0
2096921,2096921,168364,691679,0
2096921,2096921,168313,692062,0
2096921,2096921,168300,691738,0
2096921,2096921,168298,691758,0
2096921,2096921,168511,691732,0
2096921,2096921,168330,691737,0
2096921,2096921,168330,691750,0
2096921,2096921,168342,691582,0
2096921,2096921,168247,691483,0
2096921,2096921,168410,691886,0
2096921,2096921,168419,691546,0
2096921,2096921,168473,691799,0
2096921,2096921,168357,691689,0
2096921,2096921,168393,691772,0
2096921,2096921,168387,691347,0
2096921,2096921,168395,691224,0
2096921,2096921,168380,691329,0
2096921,2096921,168464,691323,0
2096921,2096921,168176,691474,0
2096921,2096921,168328,691133,0
2096921,2096921,168175,690933,0
2096921,2096921,168268,691063,0
2096921,2096921,167930,691073,0
2096921,2096921,168222,691116,0
2096921,2096921,168095,690924,0
2096921,2096921,168251,690820,0
2096921,2096921,168213,691340,0
2096921,2096921,168412,691290,0
2096921,2096921,168400,691069,0
2096921,2096921,168172,690972,0
2096921,2096921,168209,690953,0
2096921,2096921,168057,691099,0
2096921,2096921,168089,690869,0
2096921,2096921,168038,690841,0
2096921,2096921,167943,690679,0
2096921,2096921,167980,690497,0
2096921,2096921,167829,690641,0
2096921,2096921,168046,690628,0
2096921,2096921,168127,690492,0
2096921,2096921,167998,690556,0
2096921,2096921,167915,690387,0
2096921,2096921,167937,690475,0
2096921,2096921,168072,690349,0
2096921,2096921,168016,690190,0
2096921,2096921,167958,690341,0
2096921,2096921,167963,690128,0
2096921,2096921,167872,690169,0
2096921,2096921,168028,690090,0
2096921,2096921,168016,690225,0
2096921,2096921,167836,690167,0
2096921,2096921,167613,689935,0
2096921,2096921,167824,689849,0
2096921,2096921,167660,689971,0
2096921,2096921,167758,689467,0
2096921,2096921,167613,689542,0
2096921,2096921,168001,689419,0
2096921,2096921,167523,689627,0
2096921,2096921,168024,689402,0
2096921,2096921,167811,689526,0
2096921,2096921,167994,689552,0
2096921,2096921,168023,689275,0
2096921,2096921,167891,689488,0
2096921,2096921,168040,689356,0
2096921,2096921,167844,689292,0
2096921,2096921,167634,689089,0
2096921,2096921,167820,689113,0
2096921,2096921,167720,689014,0
2096921,2096921,167704,689206,0
2096921,2096921,167666,688920,0
2096921,2096921,167563,688924,0
2096921,2096921,167654,688796,0
2096921,2096921,167634,688633,0
2096921,2096921,167318,688732,0
2096921,2096921,167251,687904,0
2096921,2096921,167341,688264,0
2096921,2096921,167060,688234,0
2096921,2096921,167380,687808,0
2096921,2096921,167440,688043,0
2096921,2096921,167540,687828,0
2096921,2096921,167500,687570,0
2096921,2096921,167164,687406,0
2096921,2096921,167102,687497,0
2096921,2096921,167161,687689,0
2096921,2096921,167173,686782,0
2096921,2096921,166788,686574,0
2096921,2096921,166758,686664,0
2096921,2096921,166935,686477,0
2096921,2096921,166868,686367,0
2096921,2096921,166557,685612,0
2096921,2096921,166635,685260,0
2096921,2096921,166276,685493,0
2096921,2096921,166464,685145,0
2096921,2096921,166550,685563,0
2096921,2096921,166174,684488,0
2096921,2096921,165978,684067,0
2096921,2096921,165944,684162,0
2096921,2096921,165927,684365,0
2096921,2096921,166098,684280,0
2096921,2096921,165521,682522,0
2096921,2096921,165455,682627,0
2096921,2096921,165255,682280,0
2096921,2096921,165087,682275,0
2096921,2096921,165195,682360,0
2096921,2096921,164392,680404,0
2096921,2096921,164315,679894,0
2096921,2096921,164070,679469,0
2096921,2096921,163942,679381,0
2096921,2096921,164053,679371,0
2096921,2096921,163451,677854,0
2096921,2096921,163148,677276,0
2096921,2096921,163296,677051,0
2096921,2096921,163333,677290,0
2096921,2096921,163273,677624,0
2096921,2096921,162652,676235,0
2096921,2096921,162602,675777,0
2096921,2096921,162518,675716,0
2096921,2096921,162469,675754,0
2096921,2096921,162766,675894,0
2096921,2096921,162207,674997,0
2096921,2096921,162231,674611,0
2096921,2096921,162267,674301,0
2096921,2096921,162238,674579,0
2096921,2096921,161933,674457,0
2096921,2096921,161661,673625,0
2096921,2096921,161865,673271,0
2096921,2096921,161951,673630,0
2096921,2096921,161782,673478,0
2096921,2096921,161766,673562,0
2096921,2096921,161731,672914,0
2096921,2096921,161356,672625,0
2096921,2096921,161301,672459,0
2096921,2096921,161321,672582,0
2096921,2096921,161560,672654,0
2096921,2096921,161469,672195,0
2096921,2096921,161224,671934,0
2096921,2096921,161439,672138,0
2096921,2096921,161308,671909,0
2096921,2096921,161526,672349,0
2096921,2096921,161186,671690,0
2096921,2096921,161159,671880,0
2096921,2096921,161129,671748,0
2096921,2096921,161370,671585,0
2096921,2096921,161063,671955,0
2096921,2096921,161286,671295,0
2096921,2096921,161244,671246,0
2096921,2096921,161253,671199,0
2096921,2096921,161201,671267,0
2096921,2096921,161181,671415,0
2096921,2096921,161177,671179,0
2096921,2096921,160878,671555,0
2096921,2096921,161312,671592,0
2096921,2096921,161144,671227,0
2096921,2096921,160903,671214,0
2096921,2096921,160818,670881,0
2096921,2096921,161033,670720,0
2096921,2096921,161039,670865,0
2096921,2096921,160850,671045,0
2096921,2096921,161104,670870,0
2096921,2096921,160943,670991,0
2096921,2096921,161040,671083,0
2096921,2096921,161061,670473,0
2096921,2096921,161062,670974,0
2096921,2096921,161055,670766,0
2096921,2096921,161215,670499,0
2096921,2096921,161151,670516,0
2096921,2096921,160943,670788,0
2096921,2096921,161004,670859,0
2096921,2096921,161214,671059,0
2096921,2096921,161147,670907,0
2096921,2096921,161277,671048,0
2096921,2096921,161056,670830,0
2096921,2096921,161053,670654,0
2096921,2096921,161329,670776,0
2096921,2096921,161562,670800,0
2096921,2096921,161333,670814,0
2096921,2096921,161492,670841,0
2096921,2096921,161589,670575,0
2096921,2096921,161133,670684,0
2096921,2096921,161286,670963,0
2096921,2096921,161243,671024,0
2096921,2096921,161357,671161,0
2096921,2096921,161335,671198,0
2096921,2096921,161524,670968,0
2096921,2096921,161709,670957,0
2096921,2096921,161575,670907,0
2096921,2096921,161658,670969,0
2096921,2096921,161468,671164,0
2096921,2096921,161403,671214,0
2096921,2096921,161502,671012,0
2096921,2096921,161778,671082,0
2096921,2096921,161728,671143,0
2096921,2096921,161729,671223,0
2096921,2096921,161440,670863,0
2096921,2096921,161506,670917,0
2096921,2096921,161619,671158,0
2096921,2096921,161698,671029,0
2096921,2096921,161540,670974,0
2096921,2096921,161524,670870,0
2096921,2096921,161678,671227,0
2096921,2096921,161789,671136,0
2096921,2096921,161850,671143,0
2096921,2096921,161701,671065,0
2096921,2096921,161625,671224,0
2096921,2096921,161634,671290,0
2096921,2096921,162049,671075,0
2096921,2096921,161691,671406,0
2096921,2096921,161797,671331,0
2096921,2096921,161881,671341,0
2096921,2096921,162158,671467,0
2096921,2096921,162210,671545,0
2096921,2096921,161988,671539,0
2096921,2096921,162407,671593,0
2096921,2096921,162217,671530,0
2096921,2096921,161938,671631,0
2096921,2096921,162078,671331,0
2096921,2096921,161807,671356,0
2096921,2096921,161975,671132,0
2096921,2096921,161854,671354,0
2096921,2096921,162162,671518,0
2096921,2096921,162132,671217,0
2096921,2096921,162001,671611,0
2096921,2096921,161940,671663,0
2096921,2096921,161760,671422,0
2096921,2096921,162122,671475,0
2096921,2096921,162031,671620,0
2096921,2096921,161916,671859,0
2096921,2096921,162162,671262,0
2096921,2096921,162130,671536,0
2096921,2096921,162179,671582,0
2096921,2096921,162152,671735,0
2096921,2096921,162366,671530,0
2096921,2096921,162321,671490,0
2096921,2096921,162042,671535,0
2096921,2096921,162174,671599,0
2096921,2096921,162267,671580,0
2096921,2096921,162341,671378,0
2096921,2096921,162221,671262,0
2096921,2096921,162047,671385,0
2096921,2096921,162015,671020,0
2096921,2096921,162052,671385,0
2096921,2096921,162180,671128,0
2096921,2096921,161891,671043,0
2096921,2096921,162082,671252,0
2096921,2096921,162105,670963,0
2096921,2096921,162192,670976,0
2096921,2096921,162008,670993,0
2096921,2096921,162180,671170,0
2096921,2096921,162346,671011,0
2096921,2096921,161997,670962,0
2096921,2096921,161995,670585,0
2096921,2096921,162136,670289,0
2096921,2096921,162084,670644,0
2096921,2096921,162048,670919,0
2096921,2096921,162069,670554,0
2096921,2096921,161701,670309,0
2096921,2096921,161912,670146,0
2096921,2096921,161705,670249,0
2096921,2096921,161738,670103,0
2096921,2096921,161709,669856,0
2096921,2096921,161636,669879,0
2096921,2096921,161625,670159,0
2096921,2096921,161585,670012,0
2096921,2096921,161741,669799,0
2096921,2096921,161671,669393,0
2096921,2096921,161578,669530,0
2096921,2096921,161723,669235,0
2096921,2096921,161725,669355,0
2096921,2096921,161661,669218,0
2096921,2096921,161516,669084,0
2096921,2096921,161552,669074,0
2096921,2096921,161363,669054,0
2096921,2096921,161725,669170,0
2096921,2096921,161497,668942,0
2096921,2096921,161412,668733,0
2096921,2096921,161032,668677,0
2096921,2096921,161241,668659,0
2096921,2096921,161543,668619,0
2096921,2096921,161670,668578,0
2096921,2096921,161298,668004,0
2096921,2096921,161257,668065,0
2096921,2096921,161148,668214,0
2096921,2096921,161382,668129,0
2096921,2096921,161352,668021,0
2096921,2096921,161204,667777,0
2096921,2096921,160924,667510,0
2096921,2096921,161422,667636,0
2096921,2096921,161426,667583,0
2096921,2096921,161233,667814,0
2096921,2096921,161281,667326,0
2096921,2096921,161156,667574,0
2096921,2096921,161199,667583,0
2096921,2096921,161165,667647,0
2096921,2096921,161170,667480,0
2096921,2096921,160884,667249,0
2096921,2096921,161085,667293,0
2096921,2096921,161087,666963,0
2096921,2096921,161296,667141,0
2096921,2096921,161043,667218,0
2096921,2096921,161254,666885,0
2096921,2096921,161100,666974,0
2096921,2096921,161077,666980,0
2096921,2096921,160950,666940,0
2096921,2096921,160583,667135,0
2096921,2096921,161059,666739,0
2096921,2096921,160986,666548,0
2096921,2096921,160758,666819,0
2096921,2096921,161041,666816,0
2096921,2096921,161229,666863,0
2096921,2096921,161157,667109,0
2096921,2096921,160975,666550,0
2096921,2096921,161099,666936,0
2096921,2096921,161262,667164,0
2096921,2096921,161218,666911,0
2096921,2096921,161071,666762,0
2096921,2096921,161082,666651,0
2096921,2096921,161050,666884,0
2096921,2096921,161006,666961,0
2096921,2096921,160942,666802,0
2096921,2096921,161228,666754,0
2096921,2096921,161153,666923,0
2096921,2096921,161067,666703,0
2096921,2096921,160850,666809,0
2096921,2096921,160958,666610,0
2096921,2096921,161111,666709,0
2096921,2096921,161219,666689,0
2096921,2096921,161344,666627,0
2096921,2096921,161398,666698,0
2096921,2096921,161076,667005,0
2096921,2096921,161371,666908,0
2096921,2096921,161302,667019,0
2096921,2096921,161264,666927,0
2096921,2096921,161062,666706,0
2096921,2096921,160988,666569,0
2096921,2096921,161374,666825,0
2096921,2096921,161011,666753,0
2096921,2096921,161119,666478,0
2096921,2096921,161145,666881,0
2096921,2096921,161281,666599,0
2096921,2096921,161134,666670,0
2096921,2096921,161141,666437,0
2096921,2096921,160999,666828,0
2096921,2096921,161303,666743,0
2096921,2096921,160914,666635,0
2096921,2096921,161050,666617,0
2096921,2096921,161122,666497,0
2096921,2096921,161111,666576,0
2096921,2096921,161258,666430,0
2096921,2096921,161186,666480,0
2096921,2096921,161260,666549,0
2096921,2096921,161390,666884,0
2096921,2096921,161280,666827,0
2096921,2096921,161066,666798,0
2096921,2096921,161145,666593,0
2096921,2096921,161559,666734,0
2096921,2096921,161517,666598,0
2096921,2096921,161363,666858,0
2096921,2096921,161528,666493,0
2096921,2096921,161483,666456,0
2096921,2096921,161519,666555,0
2096921,2096921,161083,666569,0
2096921,2096921,161199,666446,0
2096921,2096921,161145,666685,0
2096921,2096921,161450,666867,0
2096921,2096921,161361,666542,0
2096921,2096921,161452,666470,0
2096921,2096921,161286,666393,0
2096921,2096921,161338,666834,0
2096921,2096921,161514,666542,0
2096921,2096921,161142,666612,0
2096921,2096921,161389,666795,0
2096921,2096921,161253,666931,0
2096921,2096921,161440,666692,0
2096921,2096921,161548,666547,0
2096921,2096921,161390,666739,0
2096921,2096921,161564,666731,0
2096921,2096921,161525,666693,0
2096921,2096921,161236,666645,0
2096921,2096921,161287,666592,0
2096921,2096921,161364,666787,0
2096921,2096921,161381,666610,0
2096921,2096921,161583,666341,0
2096921,2096921,161515,666457,0
2096921,2096921,161446,666439,0
2096921,2096921,161208,666291,0
2096921,2096921,161465,666406,0
2096921,2096921,161252,666466,0
2096921,2096921,161653,666218,0
2096921,2096921,161469,666437,0
2096921,2096921,161696,666452,0
2096921,2096921,161349,666794,0
2096921,2096921,161697,666486,0
2096921,2096921,161586,666642,0
2096921,2096921,161516,666696,0
2096921,2096921,161787,666448,0
2096921,2096921,161725,666466,0
2096921,2096921,161477,666424,0
2096921,2096921,161633,666457,0
2096921,2096921,161503,666369,0
2096921,2096921,161514,666549,0
2096921,2096921,161458,666572,0
2096921,2096921,161636,666364,0
2096921,2096921,161401,666231,0
2096921,2096921,161541,666490,0
2096921,2096921,161602,666266,0
2096921,2096921,161429,666098,0
2096921,2096921,161573,666514,0
2096921,2096921,161476,666210,0
2096921,2096921,161366,666324,0
2096921,2096921,161710,666465,0
2096921,2096921,161756,666504,0
2096921,2096921,161823,666652,0
2096921,2096921,161914,666466,0
2096921,2096921,161516,666516,0
2096921,2096921,161470,666634,0
2096921,2096921,161426,666529,0
2096921,2096921,161867,666573,0
2096921,2096921,161771,666445,0
2096921,2096921,161715,666540,0
2096921,2096921,161787,666256,0
2096921,2096921,161642,666300,0
2096921,2096921,161645,666521,0
2096921,2096921,161497,666698,0
2096921,2096921,161730,666645,0
2096921,2096921,161766,666243,0
2096921,2096921,161719,666325,0
2096921,2096921,161610,666161,0
2096921,2096921,161467,666248,0
2096921,2096921,161385,666160,0
2096921,2096921,161662,666047,0
2096921,2096921,161538,666495,0
2096921,2096921,161528,666228,0
2096921,2096921,161810,666327,0
2096921,2096921,161690,666542,0
2096921,2096921,161777,666292,0
2096921,2096921,161930,666498,0
2096921,2096921,161945,666534,0
2096921,2096921,161684,666085,0
2096921,2096921,161937,666435,0
2096921,2096921,162201,666436,0
2096921,2096921,162019,666526,0
2096921,2096921,161863,666375,0
2096921,2096921,161494,666261,0
2096921,2096921,161677,666308,0
2096921,2096921,161373,666246,0
2096921,2096921,161684,666047,0
2096921,2096921,161839,666131,0
2096921,2096921,161538,666026,0
2096921,2096921,161766,666111,0
2096921,2096921,161726,666271,0
2096921,2096921,161651,666402,0
2096921,2096921,161703,666324,0
2096921,2096921,161695,666558,0
2096921,2096921,161727,666353,0
2096921,2096921,161599,666235,0
2096921,2096921,161997,666283,0
2096921,2096921,161798,666375,0
2096921,2096921,161715,666454,0
2096921,2096921,161871,666390,0
2096921,2096921,161873,666278,0
2096921,2096921,161684,666241,0
2096921,2096921,161744,666105,0
2096921,2096921,161659,665979,0
2096921,2096921,161661,666454,0
2096921,2096921,161445,666317,0
2096921,2096921,161709,666231,0
2096921,2096921,162013,666516,0
2096921,2096921,161665,666273,0
2096921,2096921,161584,666380,0
2096921,2096921,161951,666459,0
2096921,2096921,161767,666313,0
2096921,2096921,161748,666484,0
2096921,2096921,161550,666361,0
2096921,2096921,161453,666514,0
2096921,2096921,161908,666586,0
2096921,2096921,161929,666440,0
2096921,2096921,161789,666385,0
2096921,2096921,161745,666271,0
2096921,2096921,161948,666463,0
2096921,2096921,161681,666266,0
2096921,2096921,161648,666591,0
2096921,2096921,161890,666299,0
2096921,2096921,161821,666332,0
2096921,2096921,161814,666311,0
2096921,2096921,161553,666385,0
2096921,2096921,161634,666093,0
2096921,2096921,161540,666090,0
2096921,2096921,161559,666172,0
2096921,2096921,161937,666375,0
2096921,2096921,162074,666400,0
2096921,2096921,162254,666203,0
2096921,2096921,161779,666400,0
2096921,2096921,161620,666486,0
2096921,2096921,161857,666285,0
2096921,2096921,161898,666454,0
2096921,2096921,161854,666249,0
2096921,2096921,161878,666331,0
2096921,2096921,162124,666462,0
2096921,2096921,161783,666292,0
2096921,2096921,161758,666172,0
2096921,2096921,161855,666385,0
2096921,2096921,161786,666358,0
2096921,2096921,161805,666321,0
2096921,2096921,161513,666565,0
2096921,2096921,161909,666532,0
2096921,2096921,161617,666475,0
2096921,2096921,161554,666218,0
2096921,2096921,161917,666568,0
2096921,2096921,161974,666547,0
2096921,2096921,162111,666713,0
2096921,2096921,162011,666737,0
2096921,2096921,162071,666600,0
2096921,2096921,162021,666786,0
2096921,2096921,162038,666704,0
2096921,2096921,161961,666666,0
2096921,2096921,161628,666401,0
2096921,2096921,161857,666568,0
2096921,2096921,161657,666518,0
2096921,2096921,161687,666543,0
2096921,2096921,161835,666663,0
2096921,2096921,161977,666683,0
2096921,2096921,161892,666571,0
2096921,2096921,161702,666503,0
2096921,2096921,162085,666416,0
2096921,2096921,161858,666742,0
2096921,2096921,161831,666606,0
2096921,2096921,161731,666679,0
2096921,2096921,161996,666904,0
2096921,2096921,162164,666868,0
2096921,2096921,162245,666881,0
2096921,2096921,162030,666805,0
2096921,2096921,161948,666917,0
2096921,2096921,161809,666922,0
2096921,2096921,161839,666952,0
2096921,2096921,161947,666640,0
2096921,2096921,161786,666492,0
2096921,2096921,162032,666529,0
2096921,2096921,161893,666715,0
2096921,2096921,161882,666608,0
2096921,2096921,162030,666825,0
2096921,2096921,162107,666881,0
2096921,2096921,162131,666337,0
2096921,2096921,162035,666476,0
2096921,2096921,162200,666619,0
2096921,2096921,162279,666781,0
2096921,2096921,162155,666796,0
2096921,2096921,162123,666964,0
2096921,2096921,161838,666895,0
2096921,2096921,161736,666782,0
2096921,2096921,161919,666829,0
2096921,2096921,161845,666899,0
2096921,2096921,161858,666813,0
2096921,2096921,161867,666842,0
2096921,2096921,161867,666952,0
2096921,2096921,161765,666618,0
2096921,2096921,161958,666531,0
2096921,2096921,161740,666293,0
2096921,2096921,162045,666394,0
2096921,2096921,161864,666769,0
2096921,2096921,161951,666924,0
2096921,2096921,162042,666769,0
2096921,2096921,161949,666892,0
2096921,2096921,161974,666778,0
2096921,2096921,162254,666907,0
2096921,2096921,162213,666842,0
2096921,2096921,161894,666840,0
2096921,2096921,162176,666797,0
2096921,2096921,161721,666606,0
2096921,2096921,161763,666980,0
2096921,2096921,161912,666711,0
2096921,2096921,161803,666478,0
2096921,2096921,161828,666566,0
2096921,2096921,161982,666621,0
2096921,2096921,162086,666241,0
2096921,2096921,161770,666312,0
2096921,2096921,161883,666322,0
2096921,2096921,161794,666202,0
2096921,2096921,161772,666165,0
2096921,2096921,162081,666293,0
2096921,2096921,161706,666061,0
2096921,2096921,161769,666311,0
2096921,2096921,161944,666025,0
2096921,2096921,161609,666192,0
2096921,2096921,161679,666217,0
2096921,2096921,161325,665790,0
2096921,2096921,161515,665601,0
2096921,2096921,161405,665428,0
2096921,2096921,161577,665308,0
2096921,2096921,161710,665225,0
2096921,2096921,161310,664844,0
2096921,2096921,161360,664893,0
2096921,2096921,161252,664827,0
2096921,2096921,161107,664497,0
2096921,2096921,161028,664831,0
2096921,2096921,160772,663921,0
2096921,2096921,160683,663840,0
2096921,2096921,161016,663543,0
2096921,2096921,160877,663955,0
2096921,2096921,160850,663633,0
2096921,2096921,160178,662325,0
2096921,2096921,160022,662373,0
2096921,2096921,159956,662140,0
2096921,2096921,160098,661570,0
2096921,2096921,159890,661810,0
2096921,2096921,159236,660460,0
2096921,2096921,159240,659815,0
2096921,2096921,159284,659763,0
2096921,2096921,159330,659657,0
2096921,2096921,159264,659798,0
2096921,2096921,158555,658448,0
2096921,2096921,158568,658384,0
2096921,2096921,158410,658153,0
2096921,2096921,158495,657812,0
2096921,2096921,158293,657819,0
2096921,2096921,157894,657026,0
2096921,2096921,157938,657003,0
2096921,2096921,157681,656388,0
2096921,2096921,157730,656438,0
2096921,2096921,157651,656736,0
2096921,2096921,157471,656072,0
2096921,2096921,157272,655822,0
2096921,2096921,157492,655556,0
2096921,2096921,157105,655653,0
2096921,2096921,157350,655728,0
2096921,2096921,157103,655496,0
2096921,2096921,157026,655167,0
2096921,2096921,157323,655029,0
2096921,2096921,157102,655140,0
2096921,2096921,157470,654819,0
2096921,2096921,156809,654781,0
2096921,2096921,157237,654591,0
2096921,2096921,157168,654513,0
2096921,2096921,157250,654502,0
2096921,2096921,157299,654765,0
2096921,2096921,157124,654606,0
2096921,2096921,156915,654391,0
2096921,2096921,157096,653959,0
2096921,2096921,156984,654267,0
2096921,2096921,156990,654398,0
2096921,2096921,156719,654282,0
2096921,2096921,157017,654213,0
2096921,2096921,156856,654264,0
2096921,2096921,156659,654093,0
2096921,2096921,156787,654224,0
2096921,2096921,156849,654234,0
2096921,2096921,156687,654017,0
2096921,2096921,156526,654078,0
2096921,2096921,156694,654142,0
2096921,2096921,156810,654153,0
2096921,2096921,156636,654161,0
2096921,2096921,156908,654498,0
2096921,2096921,157048,654470,0
2096921,2096921,156843,654334,0
2096921,2096921,156751,654680,0
2096921,2096921,156985,654534,0
2096921,2096921,156987,655015,0
2096921,2096921,157032,654849,0
2096921,2096921,156723,654678,0
2096921,2096921,156855,654510,0
2096921,2096921,156980,654831,0
2096921,2096921,157135,654965,0
2096921,2096921,157115,655029,0
2096921,2096921,157155,654864,0
2096921,2096921,157186,654802,0
2096921,2096921,157286,655084,0
2096921,2096921,157016,654887,0
2096921,2096921,157016,655060,0
2096921,2096921,157091,654899,0
2096921,2096921,157274,655177,0
2096921,2096921,157439,655291,0
2096921,2096921,157593,655513,0
2096921,2096921,157292,655413,0
2096921,2096921,157475,655843,0
2096921,2096921,157489,655414,0
2096921,2096921,157469,655862,0
2096921,2096921,157866,655859,0
2096921,2096921,157508,655963,0
2096921,2096921,157563,656088,0
2096921,2096921,157667,656083,0
2096921,2096921,157716,656443,0
2096921,2096921,157595,656552,0
2096921,2096921,157879,656424,0
2096921,2096921,157760,656441,0
2096921,2096921,157409,656451,0
2096921,2096921,157788,656895,0
2096921,2096921,157567,656917,0
2096921,2096921,157729,656840,0
2096921,2096921,157830,657136,0
2096921,2096921,157787,656739,0
2096921,2096921,157880,657146,0
2096921,2096921,158046,657271,0
2096921,2096921,158141,657577,0
2096921,2096921,158111,657547,0
2096921,2096921,157986,657530,0
2096921,2096921,158061,657736,0
2096921,2096921,158572,657904,0
2096921,2096921,158636,657972,0
2096921,2096921,158331,658139,0
2096921,2096921,158288,657954,0
2096921,2096921,158774,658361,0
2096921,2096921,158649,658455,0
2096921,2096921,158721,658034,0
2096921,2096921,158570,658616,0
2096921,2096921,158585,658170,0
2096921,2096921,158394,658958,0
2096921,2096921,158466,658716,0
2096921,2096921,158771,658860,0
2096921,2096921,158638,659007,0
2096921,2096921,158517,658911,0
2096921,2096921,158993,659451,0
2096921,2096921,158901,659602,0
2096921,2096921,158915,659524,0
2096921,2096921,158608,659615,0
2096921,2096921,159017,659416,0
2096921,2096921,158832,659949,0
2096921,2096921,159063,659905,0
2096921,2096921,159402,660203,0
2096921,2096921,159575,660345,0
2096921,2096921,159290,660208,0
2096921,2096921,159468,660587,0
2096921,2096921,159298,660626,0
2096921,2096921,159329,660636,0
2096921,2096921,159045,660681,0
2096921,2096921,159316,660781,0
2096921,2096921,159487,660921,0
2096921,2096921,159326,661012,0
2096921,2096921,159307,660963,0
2096921,2096921,159249,660956,0
2096921,2096921,159491,660755,0
2096921,2096921,159443,661493,0
2096921,2096921,159577,661336,0
2096921,2096921,159684,661418,0
2096921,2096921,159647,661526,0
2096921,2096921,159621,661422,0
2096921,2096921,159675,661484,0
2096921,2096921,159661,661762,0
2096921,2096921,159596,661709,0
2096921,2096921,159638,661911,0
2096921,2096921,159743,661879,0
2096921,2096921,159991,662038,0
2096921,2096921,159941,661896,0
2096921,2096921,160057,662094,0
2096921,2096921,159841,662123,0
2096921,2096921,159855,662046,0
2096921,2096921,159801,662034,0
2096921,2096921,159926,662504,0
2096921,2096921,159748,662284,0
2096921,2096921,159779,662091,0
2096921,2096921,159917,662470,0
2096921,2096921,159728,662764,0
2096921,2096921,159641,662625,0
2096921,2096921,159629,662908,0
2096921,2096921,160129,662494,0
2096921,2096921,160221,662600,0
2096921,2096921,160227,662778,0
2096921,2096921,160095,662806,0
2096921,2096921,160081,662691,0
2096921,2096921,159935,662633,0
2096921,2096921,160399,662782,0
2096921,2096921,160124,662765,0
2096921,2096921,160253,662802,0
2096921,2096921,159970,662671,0
2096921,2096921,159904,662736,0
2096921,2096921,159990,662551,0
2096921,2096921,159911,662428,0
2096921,2096921,159968,662530,0
2096921,2096921,160136,662628,0
2096921,2096921,160020,662784,0
2096921,2096921,160029,662828,0
2096921,2096921,159979,663080,0
2096921,2096921,160029,663209,0
2096921,2096921,160098,663023,0
2096921,2096921,159641,663124,0
2096921,2096921,159913,662970,0
2096921,2096921,160023,662821,0
2096921,2096921,159861,662865,0
2096921,2096921,159937,663048,0
2096921,2096921,160174,662916,0
2096921,2096921,159878,663125,0
2096921,2096921,159845,663174,0
2096921,2096921,159760,663121,0
2096921,2096921,159761,663244,0
2096921,2096921,159810,663077,0
2096921,2096921,159949,663195,0
2096921,2096921,160004,663241,0
2096921,2096921,160221,663108,0
2096921,2096921,160126,663340,0
2096921,2096921,159576,663399,0
2096921,2096921,159954,663455,0
2096921,2096921,159979,663403,0
2096921,2096921,160152,663469,0
2096921,2096921,160322,663700,0
2096921,2096921,160300,663439,0
2096921,2096921,160137,663769,0
2096921,2096921,160533,664027,0
2096921,2096921,160299,663973,0
2096921,2096921,160046,663801,0
2096921,2096921,160231,663701,0
2096921,2096921,160121,663925,0
2096921,2096921,160161,664179,0
2096921,2096921,160357,664410,0
2096921,2096921,160293,664192,0
2096921,2096921,160331,664236,0
2096921,2096921,160321,664046,0
2096921,2096921,160377,664410,0
2096921,2096921,160095,664455,0
2096921,2096921,160292,664655,0
2096921,2096921,160428,664670,0
2096921,2096921,160196,664582,0
2096921,2096921,160449,664826,0
2096921,2096921,160484,665258,0
2096921,2096921,160398,665369,0
2096921,2096921,160357,665285,0
2096921,2096921,160422,665102,0
2096921,2096921,160838,665730,0
2096921,2096921,160776,665643,0
2096921,2096921,160687,665783,0
2096921,2096921,160840,665669,0
2096921,2096921,160945,665667,0
2096921,2096921,160773,665907,0
2096921,2096921,160730,666083,0
2096921,2096921,160970,666333,0
2096921,2096921,161131,666239,0
2096921,2096921,160978,666376,0
2096921,2096921,161146,666508,0
2096921,2096921,160942,666627,0
2096921,2096921,161236,666726,0
2096921,2096921,161225,666600,0
2096921,2096921,161336,666844,0
2096921,2096921,161257,667300,0
2096921,2096921,161283,667447,0
2096921,2096921,161306,667493,0
2096921,2096921,161545,667648,0
2096921,2096921,161569,667299,0
2096921,2096921,161392,667890,0
2096921,2096921,161303,667837,0
2096921,2096921,161335,667694,0
2096921,2096921,161251,667889,0
2096921,2096921,161566,667674,0
2096921,2096921,161472,668471,0
2096921,2096921,161716,668430,0
2096921,2096921,161820,668239,0
2096921,2096921,161593,668202,0
2096921,2096921,161551,668113,0
2096921,2096921,161864,668282,0
2096921,2096921,161921,668643,0
2096921,2096921,161928,668812,0
2096921,2096921,161938,669082,0
2096921,2096921,161890,668785,0
2096921,2096921,161924,669165,0
2096921,2096921,162187,669533,0
2096921,2096921,162084,669304,0
2096921,2096921,162167,669490,0
2096921,2096921,162119,669538,0
2096921,2096921,162219,669945,0
2096921,2096921,162108,670082,0
2096921,2096921,162176,669829,0
2096921,2096921,162310,669810,0
2096921,2096921,162341,669789,0
2096921,2096921,162301,670410,0
2096921,2096921,162170,670454,0
2096921,2096921,162390,670656,0
2096921,2096921,162270,670506,0
2096921,2096921,162194,670595,0
2096921,2096921,162507,670870,0
2096921,2096921,162435,670728,0
2096921,2096921,162443,670970,0
2096921,2096921,162810,671120,0
2096921,2096921,162620,671388,0
2096921,2096921,162886,671479,0
2096921,2096921,162732,671441,0
2096921,2096921,162713,671486,0
2096921,2096921,162507,671689,0
2096921,2096921,162653,671474,0
2096921,2096921,162306,672093,0
2096921,2096921,162862,672205,0
2096921,2096921,162991,671931,0
2096921,2096921,162784,671999,0
2096921,2096921,162727,672088,0
2096921,2096921,163075,672580,0
2096921,2096921,163373,672698,0
2096921,2096921,162893,672706,0
2096921,2096921,163044,672613,0
2096921,2096921,162867,672919,0
2096921,2096921,163097,673113,0
2096921,2096921,163199,672993,0
2096921,2096921,163407,672897,0
2096921,2096921,163418,673022,0
2096921,2096921,163234,673156,0
2096921,2096921,163538,673519,0
2096921,2096921,163575,673543,0
2096921,2096921,163340,673501,0
2096921,2096921,163314,673735,0
2096921,2096921,163473,673624,0
2096921,2096921,163504,673873,0
2096921,2096921,163134,674136,0
2096921,2096921,163076,674211,0
2096921,2096921,163145,674558,0
2096921,2096921,163197,674444,0
2096921,2096921,163695,674574,0
2096921,2096921,163354,674554,0
2096921,2096921,163565,674536,0
2096921,2096921,163534,674748,0
2096921,2096921,163456,674680,0
2096921,2096921,163411,675037,0
2096921,2096921,163715,674915,0
2096921,2096921,163780,675479,0
2096921,2096921,163767,675273,0
2096921,2096921,163643,675079,0
2096921,2096921,163953,675534,0
2096921,2096921,163929,675273,0
2096921,2096921,163924,675869,0
2096921,2096921,163998,675882,0
2096921,2096921,163823,675630,0
2096921,2096921,164147,675917,0
2096921,2096921,163955,676353,0
2096921,2096921,164156,676191,0
2096921,2096921,164041,676265,0
2096921,2096921,163973,676136,0
2096921,2096921,164011,676667,0
2096921,2096921,164279,676534,0
2096921,2096921,164112,676577,0
2096921,2096921,164078,676605,0
2096921,2096921,164170,676479,0
2096921,2096921,164273,676722,0
2096921,2096921,164307,676999,0
2096921,2096921,164300,676909,0
2096921,2096921,164432,677026,0
2096921,2096921,164346,676909,0
2096921,2096921,164518,677627,0
2096921,2096921,164529,677668,0
2096921,2096921,164665,677673,0
2096921,2096921,164524,677667,0
2096921,2096921,164610,677528,0
2096921,2096921,164551,677825,0
2096921,2096921,165032,677818,0
2096921,2096921,164556,677701,0
2096921,2096921,164844,677758,0
2096921,2096921,164735,677901,0
2096921,2096921,164768,678422,0
2096921,2096921,164883,678859,0
2096921,2096921,164784,678470,0
2096921,2096921,164670,678322,0
2096921,2096921,164646,678276,0
2096921,2096921,164759,678716,0
2096921,2096921,164881,678873,0
2096921,2096921,165021,678681,0
2096921,2096921,164794,678729,0
2096921,2096921,164688,678879,0
2096921,2096921,164744,679525,0
2096921,2096921,165360,679451,0
2096921,2096921,165131,679506,0
2096921,2096921,165187,679434,0
2096921,2096921,165047,679055,0
2096921,2096921,164875,679710,0
2096921,2096921,165033,679509,0
2096921,2096921,164940,679698,0
2096921,2096921,164877,679420,0
2096921,2096921,164931,679779,0
2096921,2096921,164932,680067,0
2096921,2096921,165070,680250,0
2096921,2096921,165140,680105,0
2096921,2096921,165425,680606,0
2096921,2096921,165307,680346,0
2096921,2096921,165194,680548,0
2096921,2096921,165412,680876,0
2096921,2096921,165290,680821,0
2096921,2096921,165585,680695,0
2096921,2096921,165241,680988,0
2096921,2096921,165515,680903,0
2096921,2096921,165289,681075,0
2096921,2096921,165122,681152,0
2096921,2096921,165340,681045,0
2096921,2096921,165540,681154,0
2096921,2096921,165627,681139,0
2096921,2096921,165577,681117,0
2096921,2096921,165720,681117,0
2096921,2096921,165542,681090,0
2096921,2096921,165817,681490,0
2096921,2096921,165704,681912,0
2096921,2096921,165762,681957,0
2096921,2096921,165724,682047,0
2096921,2096921,165779,682116,0
2096921,2096921,165721,681921,0
2096921,2096921,165861,682179,0
2096921,2096921,165656,682212,0
2096921,2096921,165772,682234,0
2096921,2096921,165853,682254,0
2096921,2096921,165901,682026,0
2096921,2096921,165925,682528,0
2096921,2096921,165974,682543,0
2096921,2096921,166117,682585,0
2096921,2096921,165726,682918,0
2096921,2096921,165792,682721,0
2096921,2096921,166055,683011,0
2096921,2096921,166079,683224,0
2096921,2096921,166259,683019,0
2096921,2096921,166249,683046,0
2096921,2096921,166222,683368,0
2096921,2096921,166425,683370,0
2096921,2096921,166232,683524,0
2096921,2096921,166168,683521,0
2096921,2096921,166157,683632,0
2096921,2096921,166281,683688,0
2096921,2096921,166700,683808,0
2096921,2096921,166230,684167,0
2096921,2096921,166116,683875,0
2096921,2096921,166093,683982,0
2096921,2096921,166103,684084,0
2096921,2096921,166633,684266,0
2096921,2096921,166616,684175,0
2096921,2096921,166373,684040,0
2096921,2096921,166706,684166,0
2096921,2096921,166537,684305,0
2096921,2096921,166762,684757,0
2096921,2096921,166901,684815,0
2096921,2096921,166605,684675,0
2096921,2096921,166269,684625,0
2096921,2096921,166331,684574,0
2096921,2096921,166677,685016,0
2096921,2096921,166431,685067,0
2096921,2096921,166550,684890,0
2096921,2096921,166586,685162,0
2096921,2096921,166712,684806,0
2096921,2096921,166643,685458,0
2096921,2096921,166739,685507,0
2096921,2096921,166621,685728,0
2096921,2096921,166650,685574,0
2096921,2096921,166620,685480,0
2096921,2096921,166907,685805,0
2096921,2096921,166854,685982,0
2096921,2096921,166931,686060,0
2096921,2096921,166759,685960,0
2096921,2096921,166956,685690,0
2096921,2096921,166788,685975,0
2096921,2096921,166929,685856,0
2096921,2096921,166798,686069,0
2096921,2096921,166944,686063,0
2096921,2096921,166620,685881,0
2096921,2096921,166962,686648,0
2096921,2096921,167050,686476,0
2096921,2096921,167131,686573,0
2096921,2096921,167107,686700,0
2096921,2096921,166944,686626,0
2096921,2096921,167157,686893,0
2096921,2096921,167167,686663,0
2096921,2096921,167198,686549,0
2096921,2096921,167285,686591,0
2096921,2096921,167251,686560,0
2096921,2096921,167222,686953,0
2096921,2096921,167234,687047,0
2096921,2096921,167232,687040,0
2096921,2096921,167076,686999,0
2096921,2096921,167186,686740,0
2096921,2096921,167224,687234,0
2096921,2096921,167037,687306,0
2096921,2096921,167087,687030,0
2096921,2096921,167285,687165,0
2096921,2096921,166982,687313,0
2096921,2096921,167505,687758,0
2096921,2096921,167537,687443,0
2096921,2096921,167449,687871,0
2096921,2096921,167338,687765,0
2096921,2096921,167414,687836,0
2096921,2096921,167545,687829,0
2096921,2096921,167629,687819,0
2096921,2096921,167283,687952,0
2096921,2096921,167531,687824,0
2096921,2096921,167567,687677,0
2096921,2096921,167604,687968,0
2096921,2096921,167352,687984,0
2096921,2096921,167322,688088,0
2096921,2096921,167362,688384,0
2096921,2096921,167337,688448,0
2096921,2096921,167307,688290,0
2096921,2096921,167319,687680,0
2096921,2096921,167436,687792,0
2096921,2096921,167423,688090,0
2096921,2096921,167511,688050,0
2096921,2096921,167452,687925,0
2096921,2096921,167537,687909,0
2096921,2096921,167488,688131,0
2096921,2096921,167578,688011,0
2096921,2096921,167464,687992,0
2096921,2096921,167082,687770,0
2096921,2096921,167135,687513,0
2096921,2096921,167180,687487,0
2096921,2096921,167218,687844,0
2096921,2096921,166764,687989,0
2096921,2096921,166923,687229,0
2096921,2096921,166961,687055,0
2096921,2096921,166571,687241,0
2096921,2096921,166782,687257,0
2096921,2096921,166881,686938,0
2096921,2096921,166500,686900,0
2096921,2096921,166675,686802,0
2096921,2096921,166652,686398,0
2096921,2096921,166715,686403,0
2096921,2096921,166622,686702,0
2096921,2096921,165939,685514,0
2096921,2096921,165936,685187,0
2096921,2096921,166121,685234,0
2096921,2096921,166138,685182,0
2096921,2096921,166039,685081,0
2096921,2096921,165178,683350,0
2096921,2096921,165107,683241,0
2096921,2096921,164895,682954,0
2096921,2096921,164909,682780,0
2096921,2096921,165088,682856,0
2096921,2096921,164471,681613,0
2096921,2096921,164254,681298,0
2096921,2096921,164076,681395,0
2096921,2096921,164189,681474,0
2096921,2096921,164163,681420,0
2096921,2096921,164018,680479,0
2096921,2096921,163991,680207,0
2096921,2096921,163649,680506,0
2096921,2096921,163653,680327,0
2096921,2096921,163864,680223,0
2096921,2096921,163772,679782,0
2096921,2096921,163723,679943,0
2096921,2096921,163690,679864,0
2096921,2096921,163827,679558,0
2096921,2096921,163554,679596,0
2096921,2096921,163460,678954,0
2096921,2096921,163358,678948,0
2096921,2096921,163255,678995,0
2096921,2096921,163209,678869,0
2096921,2096921,163076,678867,0
2096921,2096921,163191,678458,0
2096921,2096921,163188,678661,0
2096921,2096921,162940,678793,0
2096921,2096921,163155,678948,0
2096921,2096921,163141,678748,0
2096921,2096921,162850,678465,0
2096921,2096921,162866,678638,0
2096921,2096921,162927,678496,0
2096921,2096921,162910,678739,0
2096921,2096921,163214,678890,0
2096921,2096921,163001,678997,0
2096921,2096921,163224,679111,0
2096921,2096921,163079,678819,0
2096921,2096921,162967,678684,0
2096921,2096921,163164,678592,0
2096921,2096921,163192,678946,0
2096921,2096921,163136,679125,0
2096921,2096921,162926,678970,0
2096921,2096921,163208,678814,0
2096921,2096921,163022,678747,0
2096921,2096921,163091,679328,0
2096921,2096921,162880,679319,0
2096921,2096921,162846,679299,0
2096921,2096921,162943,679520,0
2096921,2096921,162888,679474,0
2096921,2096921,163067,679635,0
2096921,2096921,163056,679577,0
2096921,2096921,163196,679747,0
2096921,2096921,163213,679654,0
2096921,2096921,163019,679608,0
2096921,2096921,163501,679981,0
2096921,2096921,163259,679949,0
2096921,2096921,163387,679810,0
2096921,2096921,163540,679954,0
2096921,2096921,163557,680088,0
2096921,2096921,163795,680331,0
2096921,2096921,163481,680601,0
2096921,2096921,163558,680353,0
2096921,2096921,163469,680705,0
2096921,2096921,163340,680449,0
2096921,2096921,163657,681204,0
2096921,2096921,163841,681038,0
2096921,2096921,163769,680812,0
2096921,2096921,163762,681055,0
2096921,2096921,163579,681040,0
2096921,2096921,163946,681712,0
2096921,2096921,163990,681675,0
2096921,2096921,164166,681682,0
2096921,2096921,164147,681771,0
2096921,2096921,164154,681762,0
2096921,2096921,164324,682103,0
2096921,2096921,164235,682419,0
2096921,2096921,164117,681950,0
2096921,2096921,164218,682203,0
2096921,2096921,164149,682062,0
2096921,2096921,164389,682658,0
2096921,2096921,164247,682461,0
2096921,2096921,164388,682562,0
2096921,2096921,164428,682420,0
2096921,2096921,164298,682472,0
2096921,2096921,164512,683271,0
2096921,2096921,164485,683222,0
2096921,2096921,164433,683122,0
2096921,2096921,164516,683191,0
2096921,2096921,164768,683375,0
2096921,2096921,164825,683554,0
2096921,2096921,165065,683751,0
2096921,2096921,164996,683775,0
2096921,2096921,164715,683807,0
2096921,2096921,164721,683888,0
2096921,2096921,165045,684530,0
2096921,2096921,164818,684235,0
2096921,2096921,164879,684060,0
2096921,2096921,165140,684299,0
2096921,2096921,164905,684080,0
2096921,2096921,165046,684712,0
2096921,2096921,165085,684567,0
2096921,2096921,165071,684756,0
2096921,2096921,165083,684362,0
2096921,2096921,165052,684474,0
2096921,2096921,165170,685122,0
2096921,2096921,165395,685479,0
2096921,2096921,165263,685214,0
2096921,2096921,165481,685427,0
2096921,2096921,165280,685213,0
2096921,2096921,165571,686111,0
2096921,2096921,165546,685999,0
2096921,2096921,165595,685685,0
2096921,2096921,165407,686040,0
2096921,2096921,165447,686144,0
2096921,2096921,165661,686209,0
2096921,2096921,165605,686567,0
2096921,2096921,165577,686518,0
2096921,2096921,165770,686395,0
2096921,2096921,165528,686063,0
2096921,2096921,165665,686538,0
2096921,2096921,165571,686585,0
2096921,2096921,165918,686572,0
2096921,2096921,165643,686898,0
2096921,2096921,165671,686704,0
2096921,2096921,166003,687066,0
2096921,2096921,166111,687211,0
2096921,2096921,165808,687279,0
2096921,2096921,166007,686931,0
2096921,2096921,165852,687330,0
2096921,2096921,166205,687439,0
2096921,2096921,166016,687303,0
2096921,2096921,166178,687317,0
2096921,2096921,165916,687419,0
2096921,2096921,165971,687683,0
2096921,2096921,166066,687390,0
2096921,2096921,166164,687589,0
2096921,2096921,166469,687675,0
2096921,2096921,166612,687673,0
2096921,2096921,166303,687683,0
2096921,2096921,166232,687707,0
2096921,2096921,166217,687663,0
2096921,2096921,166208,687920,0
2096921,2096921,166448,687699,0
2096921,2096921,166276,687835,0
2096921,2096921,166435,687807,0
2096921,2096921,166379,688002,0
2096921,2096921,166489,687981,0
2096921,2096921,166432,687699,0
2096921,2096921,166160,687954,0
2096921,2096921,166315,688134,0
2096921,2096921,166415,687997,0
2096921,2096921,166496,687692,0
2096921,2096921,166141,687940,0
2096921,2096921,166455,687609,0
2096921,2096921,166451,687843,0
2096921,2096921,166401,687533,0
2096921,2096921,166258,687731,0
2096921,2096921,166216,687571,0
2096921,2096921,166185,687385,0
2096921,2096921,166408,687348,0
2096921,2096921,166397,687523,0
2096921,2096921,166245,687919,0
2096921,2096921,166306,687798,0
2096921,2096921,166295,687770,0
2096921,2096921,166387,687716,0
2096921,2096921,166585,687574,0
2096921,2096921,166140,687815,0
2096921,2096921,166155,687713,0
2096921,2096921,166293,687576,0
2096921,2096921,166608,687234,0
2096921,2096921,166266,687248,0
2096921,2096921,166124,687313,0
2096921,2096921,166167,687371,0
2096921,2096921,165929,687463,0
2096921,2096921,165980,686886,0
2096921,2096921,165806,687141,0
2096921,2096921,166125,687558,0
2096921,2096921,165986,687258,0
2096921,2096921,166063,687521,0
2096921,2096921,166233,687286,0
2096921,2096921,166348,687436,0
2096921,2096921,165999,687420,0
2096921,2096921,166118,687243,0
2096921,2096921,166234,687501,0
2096921,2096921,166090,687355,0
2096921,2096921,166171,687402,0
2096921,2096921,166293,687015,0
2096921,2096921,166164,687013,0
2096921,2096921,166052,687457,0
2096921,2096921,166202,687389,0
2096921,2096921,166320,687341,0
2096921,2096921,166087,687143,0
2096921,2096921,166188,686903,0
2096921,2096921,166050,687126,0
2096921,2096921,165887,687299,0
2096921,2096921,165895,687246,0
2096921,2096921,166131,687153,0
2096921,2096921,166258,687581,0
2096921,2096921,166288,687340,0
2096921,2096921,166342,687371,0
2096921,2096921,166321,687544,0
2096921,2096921,166381,687699,0
2096921,2096921,166320,687568,0
2096921,2096921,166143,687506,0
2096921,2096921,166376,687537,0
2096921,2096921,166403,687783,0
2096921,2096921,166328,687783,0
2096921,2096921,166412,687758,0
2096921,2096921,166114,687660,0
2096921,2096921,166124,687989,0
2096921,2096921,166543,687905,0
2096921,2096921,166205,687800,0
2096921,2096921,166110,688006,0
2096921,2096921,166393,688137,0
2096921,2096921,166709,688377,0
2096921,2096921,166463,688678,0
2096921,2096921,166321,688551,0
2096921,2096921,166561,688412,0
2096921,2096921,166574,688403,0
2096921,2096921,166869,688609,0
2096921,2096921,166621,688694,0
2096921,2096921,166869,688697,0
2096921,2096921,166839,688866,0
2096921,2096921,166789,688662,0
2096921,2096921,166813,688993,0
2096921,2096921,166958,688887,0
2096921,2096921,167082,689209,0
2096921,2096921,167220,689165,0
2096921,2096921,166604,689018,0
2096921,2096921,166776,688955,0
2096921,2096921,166752,689018,0
2096921,2096921,167051,689237,0
2096921,2096921,167094,689138,0
2096921,2096921,166929,688924,0
2096921,2096921,167219,689211,0
2096921,2096921,166950,689473,0
2096921,2096921,167028,689529,0
2096921,2096921,166895,689154,0
2096921,2096921,167120,689194,0
2096921,2096921,167078,689518,0
2096921,2096921,167123,689342,0
2096921,2096921,167110,689262,0
2096921,2096921,166935,689672,0
2096921,2096921,167044,689585,0
2096921,2096921,167215,689728,0
2096921,2096921,167207,689838,0
2096921,2096921,167054,689945,0
2096921,2096921,167182,689945,0
2096921,2096921,167431,689796,0
2096921,2096921,166897,689808,0
2096921,2096921,167367,690164,0
2096921,2096921,167385,690028,0
2096921,2096921,167422,690435,0
2096921,2096921,167224,690298,0
2096921,2096921,167367,690630,0
2096921,2096921,167517,690389,0
2096921,2096921,167456,690420,0
2096921,2096921,167645,690558,0
2096921,2096921,167465,690479,0
2096921,2096921,167625,690541,0
2096921,2096921,167305,690591,0
2096921,2096921,167306,690508,0
2096921,2096921,167342,690446,0
2096921,2096921,167352,690359,0
2096921,2096921,167446,690722,0
2096921,2096921,167420,690951,0
2096921,2096921,167523,690509,0
2096921,2096921,167671,690839,0
2096921,2096921,167690,690805,0
2096921,2096921,167654,690897,0
2096921,2096921,167872,690743,0
2096921,2096921,167694,691106,0
2096921,2096921,167605,691204,0
2096921,2096921,167705,691131,0
2096921,2096921,167883,691167,0
2096921,2096921,167782,691147,0
2096921,2096921,167568,691088,0
2096921,2096921,167654,691267,0
2096921,2096921,167744,691184,0
2096921,2096921,167659,691453,0
2096921,2096921,167749,691442,0
2096921,2096921,167443,691292,0
2096921,2096921,167756,691505,0
2096921,2096921,167610,691296,0
2096921,2096921,167890,691696,0
2096921,2096921,168037,691381,0
2096921,2096921,168037,691785,0
2096921,2096921,167770,691811,0
2096921,2096921,167986,691987,0
2096921,2096921,168146,691703,0
2096921,2096921,168009,691784,0
2096921,2096921,168036,691870,0
2096921,2096921,167973,691523,0
2096921,2096921,168196,691556,0
2096921,2096921,168144,692138,0
2096921,2096921,168066,691975,0
2096921,2096921,168360,692061,0
2096921,2096921,168175,692008,0
2096921,2096921,168207,691758,0
2096921,2096921,168445,691796,0
2096921,2096921,168104,691961,0
2096921,2096921,168109,692097,0
2096921,2096921,167887,692044,0
2096921,2096921,168062,692298,0
2096921,2096921,168057,692443,0
2096921,2096921,168065,692415,0
2096921,2096921,168172,692356,0
2096921,2096921,168216,691975,0
2096921,2096921,168229,692324,0
2096921,2096921,167978,692289,0
2096921,2096921,168211,692317,0
2096921,2096921,168237,692500,0
2096921,2096921,168280,692279,0
2096921,2096921,168197,692420,0
2096921,2096921,168135,692211,0
2096921,2096921,168205,692365,0
2096921,2096921,168271,692796,0
2096921,2096921,168097,692581,0
2096921,2096921,167902,692663,0
2096921,2096921,168131,692624,0
2096921,2096921,168062,692783,0
2096921,2096921,168382,692415,0
2096921,2096921,168147,692365,0
2096921,2096921,168105,692419,0
2096921,2096921,168230,692626,0
2096921,2096921,168277,692767,0
2096921,2096921,168300,692818,0
2096921,2096921,168554,692757,0
2096921,2096921,168597,692390,0
2096921,2096921,168514,692849,0
2096921,2096921,168349,692723,0
2096921,2096921,168497,692612,0
2096921,2096921,168340,692726,0
2096921,2096921,168358,692896,0
2096921,2096921,168566,692609,0
2096921,2096921,168415,692684,0
2096921,2096921,168386,692680,0
2096921,2096921,168338,692669,0
2096921,2096921,168212,692798,0
2096921,2096921,168097,692619,0
2096921,2096921,168496,692430,0
2096921,2096921,168451,692605,0
2096921,2096921,168478,692976,0
2096921,2096921,168957,692857,0
2096921,2096921,169016,693010,0
2096921,2096921,168818,692563,0
2096921,2096921,168979,692774,0
2096921,2096921,168667,692721,0
2096921,2096921,168648,692825,0
2096921,2096921,168548,692699,0
2096921,2096921,168437,692554,0
2096921,2096921,168578,692759,0
2096921,2096921,168524,692809,0
2096921,2096921,168205,692430,0
2096921,2096921,168417,692551,0
2096921,2096921,168356,692759,0
2096921,2096921,168126,692615,0
2096921,2096921,168209,692538,0
2096921,2096921,168587,692605,0
2096921,2096921,168350,692601,0
2096921,2096921,168458,692933,0
2096921,2096921,168642,692817,0
2096921,2096921,168484,692709,0
2096921,2096921,168562,692596,0
2096921,2096921,168863,692569,0
2096921,2096921,168537,692659,0
2096921,2096921,168544,692580,0
2096921,2096921,168268,692630,0
2096921,2096921,168430,692625,0
2096921,2096921,168229,692419,0
2096921,2096921,168382,692129,0
2096921,2096921,168428,692182,0
2096921,2096921,168447,692343,0
2096921,2096921,168183,692423,0
2096921,2096921,168635,692444,0
2096921,2096921,168523,692379,0
2096921,2096921,168519,692221,0
2096921,2096921,168607,692351,0
2096921,2096921,168556,692626,0
2096921,2096921,168367,692375,0
2096921,2096921,168526,692486,0
2096921,2096921,168241,692478,0
2096921,2096921,168112,692355,0
2096921,2096921,168390,692210,0
2096921,2096921,168272,692285,0
2096921,2096921,168225,692280,0
2096921,2096921,168236,692011,0
2096921,2096921,168212,691981,0
2096921,2096921,168345,691988,0
2096921,2096921,168564,692047,0
2096921,2096921,168418,691929,0
2096921,2096921,168346,692185,0
2096921,2096921,168516,692453,0
2096921,2096921,168707,692560,0
2096921,2096921,168682,692288,0
2096921,2096921,168348,692087,0
2096921,2096921,168522,692186,0
2096921,2096921,168500,692033,0
2096921,2096921,168412,692171,0
2096921,2096921,168482,692003,0
2096921,2096921,168395,692121,0
2096921,2096921,168177,692048,0
2096921,2096921,168472,691954,0
2096921,2096921,168319,692113,0
2096921,2096921,168502,691870,0
2096921,2096921,168290,691810,0
2096921,2096921,168490,691862,0
2096921,2096921,168475,691834,0
2096921,2096921,168485,691757,0
2096921,2096921,168373,691870,0
2096921,2096921,168216,691957,0
2096921,2096921,168391,691654,0
2096921,2096921,168399,691650,0
2096921,2096921,168562,691829,0
2096921,2096921,168428,691643,0
2096921,2096921,168273,691552,0
2096921,2096921,168234,691509,0
2096921,2096921,168385,691787,0
2096921,2096921,168380,691864,0
2096921,2096921,168153,691683,0
2096921,2096921,167988,691696,0
2096921,2096921,167995,691300,0
2096921,2096921,168026,691429,0
2096921,2096921,168085,691338,0
2096921,2096921,168447,691500,0
2096921,2096921,168174,691394,0
2096921,2096921,168288,691326,0
2096921,2096921,168122,691475,0
2096921,2096921,168089,691195,0
2096921,2096921,167940,691274,0
2096921,2096921,168215,690798,0
2096921,2096921,168397,691057,0
2096921,2096921,168309,690994,0
2096921,2096921,168053,690627,0
2096921,2096921,168173,690722,0
2096921,2096921,167953,690523,0
2096921,2096921,168253,690771,0
2096921,2096921,168028,690889,0
2096921,2096921,167906,690760,0
2096921,2096921,168142,690860,0
2096921,2096921,168260,690601,0
2096921,2096921,168003,690848,0
2096921,2096921,168300,690548,0
2096921,2096921,168426,690826,0
2096921,2096921,168135,690463,0
2096921,2096921,168267,690452,0
2096921,2096921,168049,690157,0
2096921,2096921,168055,690383,0
2096921,2096921,168052,690133,0
2096921,2096921,168102,690076,0
2096921,2096921,167852,689738,0
2096921,2096921,167921,689922,0
2096921,2096921,167817,690173,0
2096921,2096921,168203,689824,0
2096921,2096921,168005,689916,0
2096921,2096921,168129,689752,0
2096921,2096921,167858,689741,0
2096921,2096921,167719,689932,0
2096921,2096921,167610,689654,0
2096921,2096921,167855,689664,0
2096921,2096921,168055,689872,0
2096921,2096921,168037,689503,0
2096921,2096921,167968,689722,0
2096921,2096921,167699,689621,0
2096921,2096921,167741,689490,0
2096921,2096921,167563,689220,0
2096921,2096921,167644,689193,0
2096921,2096921,167391,688986,0
2096921,2096921,167835,688959,0
2096921,2096921,167652,688322,0
2096921,2096921,167370,688374,0
2096921,2096921,167381,688337,0
2096921,2096921,167480,688595,0
2096921,2096921,167396,688728,0
2096921,2096921,167304,688100,0
2096921,2096921,167441,687755,0
2096921,2096921,167291,688066,0
2096921,2096921,167566,688039,0
2096921,2096921,167502,688042,0
2096921,2096921,167363,687436,0
2096921,2096921,166754,687033,0
2096921,2096921,166916,687220,0
2096921,2096921,167072,686939,0
2096921,2096921,167027,686978,0
2096921,2096921,166488,686189,0
2096921,2096921,166504,686023,0
2096921,2096921,166387,685966,0
2096921,2096921,166533,686135,0
2096921,2096921,166267,685765,0
2096921,2096921,166212,685224,0
2096921,2096921,166002,684697,0
2096921,2096921,166027,684909,0
2096921,2096921,166305,684691,0
2096921,2096921,166173,684846,0
2096921,2096921,165605,683201,0
2096921,2096921,165302,683004,0
2096921,2096921,165421,682642,0
2096921,2096921,165479,682867,0
2096921,2096921,165572,682578,0
2096921,2096921,164550,680445,0
2096921,2096921,164323,680053,0
2096921,2096921,164181,680060,0
2096921,2096921,164028,680278,0
2096921,2096921,164177,679994,0
2096921,2096921,163447,678348,0
2096921,2096921,163581,678103,0
2096921,2096921,163404,678158,0
2096921,2096921,163247,677931,0
2096921,2096921,163224,678061,0
2096921,2096921,162686,676757,0
2096921,2096921,162501,676569,0
2096921,2096921,162884,676419,0
2096921,2096921,162664,676368,0
2096921,2096921,162813,676417,0
2096921,2096921,162563,675690,0
2096921,2096921,162503,675593,0
2096921,2096921,162174,675681,0
2096921,2096921,162256,675289,0
2096921,2096921,162417,675224,0
2096921,2096921,162410,674458,0
2096921,2096921,162040,674185,0
2096921,2096921,161996,674082,0
2096921,2096921,161794,673991,0
2096921,2096921,162192,673977,0
2096921,2096921,161670,673324,0
2096921,2096921,161561,673067,0
2096921,2096921,161475,672900,0
2096921,2096921,161551,673192,0
2096921,2096921,161623,673039,0
2096921,2096921,161268,672596,0
2096921,2096921,161357,672642,0
2096921,2096921,161541,672878,0
2096921,2096921,161483,672560,0
2096921,2096921,161578,672428,0
2096921,2096921,161711,672369,0
2096921,2096921,161709,672378,0
2096921,2096921,161631,672330,0
2096921,2096921,161678,672455,0
2096921,2096921,161485,672196,0
2096921,2096921,161283,672058,0
2096921,2096921,161286,671943,0
2096921,2096921,161403,672118,0
2096921,2096921,160998,671878,0
2096921,2096921,161318,671836,0
2096921,2096921,161465,672078,0
2096921,2096921,161325,671549,0
2096921,2096921,161303,671905,0
2096921,2096921,161298,671684,0
2096921,2096921,161048,671662,0
2096921,2096921,161210,671475,0
2096921,2096921,161231,671409,0
2096921,2096921,161211,671849,0
2096921,2096921,161219,671755,0
2096921,2096921,161241,671806,0
2096921,2096921,161168,671684,0
2096921,2096921,161468,671540,0
2096921,2096921,161390,671311,0
2096921,2096921,161322,671553,0
2096921,2096921,161327,671206,0
2096921,2096921,161151,671495,0
2096921,2096921,161294,671436,0
2096921,2096921,161214,671506,0
2096921,2096921,161404,671367,0
2096921,2096921,161497,671394,0
2096921,2096921,161589,671494,0
2096921,2096921,161482,671278,0
2096921,2096921,161430,671588,0
2096921,2096921,161274,671436,0
2096921,2096921,161361,671637,0
2096921,2096921,161247,671361,0
2096921,2096921,161218,671572,0
2096921,2096921,161494,671513,0
2096921,2096921,161539,671759,0
2096921,2096921,161657,671829,0
2096921,2096921,161806,671670,0
2096921,2096921,161740,671696,0
2096921,2096921,161558,671360,0
2096921,2096921,161555,671683,0
2096921,2096921,161358,671967,0
2096921,2096921,161526,671897,0
2096921,2096921,161412,671706,0
2096921,2096921,161755,671139,0
2096921,2096921,161490,671552,0
2096921,2096921,161407,671555,0
2096921,2096921,161462,671641,0
2096921,2096921,161518,671934,0
2096921,2096921,161650,671897,0
2096921,2096921,161776,672260,0
2096921,2096921,161668,671882,0
2096921,2096921,161843,671979,0
2096921,2096921,161845,671964,0
2096921,2096921,161701,671995,0
2096921,2096921,161996,671959,0
2096921,2096921,161931,671891,0
2096921,2096921,161647,671969,0
2096921,2096921,161716,672097,0
2096921,2096921,161899,672070,0
2096921,2096921,161854,671769,0
2096921,2096921,161943,671605,0
2096921,2096921,162051,671562,0
2096921,2096921,161933,671758,0
2096921,2096921,161924,671900,0
2096921,2096921,161714,672007,0
2096921,2096921,161900,671796,0
2096921,2096921,162078,672191,0
2096921,2096921,162225,671923,0
2096921,2096921,162191,671763,0
2096921,2096921,162401,671776,0
2096921,2096921,162238,671998,0
2096921,2096921,162256,672417,0
2096921,2096921,162210,672530,0
2096921,2096921,162149,672208,0
2096921,2096921,162062,672048,0
2096921,2096921,162300,671992,0
2096921,2096921,162173,671806,0
2096921,2096921,162159,672202,0
2096921,2096921,161985,672080,0
2096921,2096921,162012,672212,0
2096921,2096921,162241,672078,0
2096921,2096921,162332,672224,0
2096921,2096921,162524,672004,0
2096921,2096921,162155,672233,0
2096921,2096921,162473,672225,0
2096921,2096921,162344,672175,0
2096921,2096921,162446,671982,0
2096921,2096921,162490,672202,0
2096921,2096921,162400,672434,0
2096921,2096921,162366,672164,0
2096921,2096921,162459,672088,0
2096921,2096921,162202,672282,0
2096921,2096921,162313,671894,0
2096921,2096921,162574,671505,0
2096921,2096921,162494,672010,0
2096921,2096921,162127,672085,0
2096921,2096921,162243,672040,0
2096921,2096921,162217,672135,0
2096921,2096921,162203,671917,0
2096921,2096921,161953,671695,0
2096921,2096921,162095,671898,0
2096921,2096921,162503,671771,0
2096921,2096921,162296,671809,0
2096921,2096921,162403,671797,0
2096921,2096921,162237,671724,0
2096921,2096921,162119,671549,0
2096921,2096921,162251,671377,0
2096921,2096921,162216,671612,0
2096921,2096921,162069,671475,0
2096921,2096921,161743,671356,0
2096921,2096921,161896,671195,0
2096921,2096921,161936,670798,0
2096921,2096921,161994,670885,0
2096921,2096921,162045,671100,0
2096921,2096921,162037,671007,0
2096921,2096921,161924,671206,0
2096921,2096921,162125,670678,0
2096921,2096921,162340,670444,0
2096921,2096921,161798,670669,0
2096921,2096921,162098,670369,0
2096921,2096921,162210,670281,0
2096921,2096921,161902,670290,0
2096921,2096921,161899,670188,0
2096921,2096921,161912,669991,0
2096921,2096921,162087,670007,0
2096921,2096921,161978,669969,0
2096921,2096921,161494,670034,0
2096921,2096921,161617,669581,0
2096921,2096921,161506,669388,0
2096921,2096921,161489,669260,0
2096921,2096921,161652,669460,0
2096921,2096921,161520,669018,0
2096921,2096921,161313,669143,0
2096921,2096921,161525,669249,0
2096921,2096921,161494,669120,0
2096921,2096921,161456,669059,0
2096921,2096921,161522,668967,0
2096921,2096921,161663,668754,0
2096921,2096921,161602,668723,0
2096921,2096921,161518,669044,0
2096921,2096921,161619,668675,0
2096921,2096921,161291,668611,0
2096921,2096921,161204,668169,0
2096921,2096921,161098,668494,0
2096921,2096921,161091,668425,0
2096921,2096921,161055,668209,0
2096921,2096921,161066,668139,0
2096921,2096921,161116,667925,0
2096921,2096921,160984,667707,0
2096921,2096921,161075,667755,0
2096921,2096921,161366,667902,0
2096921,2096921,161248,667683,0
2096921,2096921,160884,667692,0
2096921,2096921,161041,667701,0
2096921,2096921,161128,667685,0
2096921,2096921,161189,667809,0
2096921,2096921,161259,667717,0
2096921,2096921,161167,667817,0
2096921,2096921,161238,667913,0
2096921,2096921,161098,667790,0
2096921,2096921,161178,667672,0
2096921,2096921,161270,667491,0
2096921,2096921,161031,667223,0
2096921,2096921,160957,667268,0
2096921,2096921,160691,667309,0
2096921,2096921,161200,667207,0
2096921,2096921,160919,667424,0
2096921,2096921,161063,667435,0
2096921,2096921,161036,667496,0
2096921,2096921,161158,667342,0
2096921,2096921,161161,667571,0
2096921,2096921,161419,667147,0
2096921,2096921,161482,667145,0
2096921,2096921,161364,667453,0
2096921,2096921,161277,667636,0
2096921,2096921,161185,667412,0
2096921,2096921,161230,667366,0
2096921,2096921,161373,667558,0
2096921,2096921,161251,667082,0
2096921,2096921,161221,666933,0
2096921,2096921,161059,667047,0
2096921,2096921,160989,667332,0
2096921,2096921,161146,667331,0
2096921,2096921,161114,667333,0
2096921,2096921,161354,667411,0
2096921,2096921,161195,667547,0
2096921,2096921,161756,667444,0
2096921,2096921,161306,667468,0
2096921,2096921,161348,667476,0
2096921,2096921,161488,667265,0
2096921,2096921,161276,667255,0
2096921,2096921,161201,667185,0
2096921,2096921,161330,667127,0
2096921,2096921,161197,667357,0
2096921,2096921,161264,667525,0
2096921,2096921,161371,667326,0
2096921,2096921,161143,667327,0
2096921,2096921,161284,667251,0
2096921,2096921,161269,667143,0
2096921,2096921,161060,666935,0
2096921,2096921,161313,666966,0
2096921,2096921,161220,667001,0
2096921,2096921,161187,666941,0
2096921,2096921,161378,667097,0
2096921,2096921,161383,667101,0
2096921,2096921,161240,667437,0
2096921,2096921,161447,667263,0
2096921,2096921,161688,667273,0
2096921,2096921,161569,667020,0
2096921,2096921,161124,667331,0
2096921,2096921,161415,667126,0
2096921,2096921,161340,666957,0
2096921,2096921,161811,667199,0
2096921,2096921,161443,667181,0
2096921,2096921,161260,666870,0
2096921,2096921,161454,666959,0
2096921,2096921,161260,666992,0
2096921,2096921,161440,666867,0
2096921,2096921,161065,666874,0
2096921,2096921,161502,666966,0
2096921,2096921,161257,667163,0
2096921,2096921,161581,666925,0
2096921,2096921,161824,666959,0
2096921,2096921,161521,667151,0
2096921,2096921,161317,667046,0
2096921,2096921,161396,667157,0
2096921,2096921,161413,666966,0
2096921,2096921,161384,666849,0
2096921,2096921,161221,666871,0
2096921,2096921,161542,666719,0
2096921,2096921,161433,666928,0
2096921,2096921,161441,666990,0
2096921,2096921,161134,666980,0
2096921,2096921,161424,666949,0
2096921,2096921,161532,667045,0
2096921,2096921,161882,667109,0
2096921,2096921,161720,666992,0
2096921,2096921,161710,666872,0
2096921,2096921,161506,666858,0
2096921,2096921,161571,666827,0
2096921,2096921,161417,666830,0
2096921,2096921,161409,666898,0
2096921,2096921,161566,666764,0
2096921,2096921,161516,666890,0
2096921,2096921,161772,666606,0
2096921,2096921,161501,666708,0
2096921,2096921,161275,666963,0
2096921,2096921,161562,666930,0
2096921,2096921,161754,666915,0
2096921,2096921,161573,666762,0
2096921,2096921,161643,667009,0
2096921,2096921,161624,666720,0
2096921,2096921,161585,666822,0
2096921,2096921,161473,666757,0
2096921,2096921,161825,667165,0
2096921,2096921,161815,666875,0
2096921,2096921,161780,666905,0
2096921,2096921,161812,666905,0
2096921,2096921,161575,666936,0
2096921,2096921,161840,666959,0
2096921,2096921,161747,666864,0
2096921,2096921,161965,666958,0
2096921,2096921,161437,666375,0
2096921,2096921,161645,666653,0
2096921,2096921,161676,666737,0
2096921,2096921,161672,666800,0
2096921,2096921,161637,666844,0
2096921,2096921,161891,666983,0
2096921,2096921,161817,666928,0
2096921,2096921,161651,666915,0
2096921,2096921,161828,666724,0
2096921,2096921,161878,667079,0
2096921,2096921,161757,666922,0
2096921,2096921,161697,666821,0
2096921,2096921,161850,666857,0
2096921,2096921,161669,666580,0
2096921,2096921,161821,666768,0
2096921,2096921,161952,666855,0
2096921,2096921,161847,667114,0
2096921,2096921,161866,666731,0
2096921,2096921,161946,666795,0
2096921,2096921,161984,666516,0
2096921,2096921,161543,666652,0
2096921,2096921,161511,666578,0
2096921,2096921,161858,666826,0
2096921,2096921,161543,666766,0
2096921,2096921,161693,666825,0
2096921,2096921,161713,666486,0
2096921,2096921,161901,666704,0
2096921,2096921,161704,666660,0
2096921,2096921,161569,666464,0
2096921,2096921,161707,666427,0
2096921,2096921,161704,666372,0
2096921,2096921,161828,666761,0
2096921,2096921,161725,666984,0
2096921,2096921,161811,666564,0
2096921,2096921,161747,666504,0
2096921,2096921,161846,666546,0
2096921,2096921,161454,666440,0
2096921,2096921,161575,666746,0
2096921,2096921,161822,666453,0
2096921,2096921,161981,666602,0
2096921,2096921,161862,666439,0
2096921,2096921,162017,666347,0
2096921,2096921,162028,666414,0
2096921,2096921,161919,666649,0
2096921,2096921,161997,666424,0
2096921,2096921,162017,666743,0
2096921,2096921,161750,666448,0
2096921,2096921,161472,666298,0
2096921,2096921,161612,666539,0
2096921,2096921,161842,666250,0
2096921,2096921,161583,666347,0
2096921,2096921,161644,666438,0
2096921,2096921,161583,666491,0
2096921,2096921,161742,666539,0
2096921,2096921,161869,666546,0
2096921,2096921,162159,666448,0
2096921,2096921,162054,666575,0
2096921,2096921,161859,666503,0
2096921,2096921,162022,666451,0
2096921,2096921,161984,666273,0
2096921,2096921,162071,666474,0
2096921,2096921,161800,666569,0
2096921,2096921,161925,666405,0
2096921,2096921,161984,666442,0
2096921,2096921,161831,666361,0
2096921,2096921,161744,666563,0
2096921,2096921,161516,666424,0
2096921,2096921,161547,666358,0
2096921,2096921,161722,666276,0
2096921,2096921,161716,666380,0
2096921,2096921,162013,666186,0
2096921,2096921,161731,666529,0
2096921,2096921,161837,666564,0
2096921,2096921,161816,666854,0
2096921,2096921,162135,666735,0
2096921,2096921,161816,666382,0
2096921,2096921,161864,666473,0
2096921,2096921,161713,666747,0
2096921,2096921,161837,666667,0
2096921,2096921,161755,666456,0
2096921,2096921,162021,666445,0
2096921,2096921,161642,666285,0
2096921,2096921,161941,666397,0
2096921,2096921,161889,666495,0
2096921,2096921,162000,666360,0
2096921,2096921,161964,666265,0
2096921,2096921,161759,666336,0
2096921,2096921,161965,666501,0
2096921,2096921,161948,666609,0
2096921,2096921,161861,666481,0
2096921,2096921,161827,666372,0
2096921,2096921,161740,666252,0
2096921,2096921,161854,666666,0
2096921,2096921,162001,666224,0
2096921,2096921,161612,666388,0
2096921,2096921,161811,666495,0
2096921,2096921,162082,666348,0
2096921,2096921,161856,666788,0
2096921,2096921,161942,666502,0
2096921,2096921,162017,666249,0
2096921,2096921,161882,666345,0
2096921,2096921,161948,666081,0
2096921,2096921,161873,666404,0
2096921,2096921,161891,666490,0
2096921,2096921,161864,666681,0
2096921,2096921,162177,666689,0
2096921,2096921,162014,666120,0
2096921,2096921,161926,666634,0
2096921,2096921,161746,666462,0
2096921,2096921,161815,666644,0
2096921,2096921,161862,666405,0
2096921,2096921,161716,666623,0
2096921,2096921,162089,666597,0
2096921,2096921,162151,666442,0
2096921,2096921,162020,666734,0
2096921,2096921,162059,666649,0
2096921,2096921,162099,666353,0
2096921,2096921,162137,666697,0
2096921,2096921,161892,667018,0
2096921,2096921,162042,666779,0
2096921,2096921,162006,666755,0
2096921,2096921,162127,666675,0
2096921,2096921,162251,666621,0
2096921,2096921,161889,666422,0
2096921,2096921,161992,666943,0
2096921,2096921,162116,667014,0
2096921,2096921,161961,666743,0
2096921,2096921,161680,666401,0
2096921,2096921,161773,666521,0
2096921,2096921,162087,666527,0
2096921,2096921,162027,666555,0
2096921,2096921,162081,666578,0
2096921,2096921,161947,666683,0
2096921,2096921,162108,666840,0
2096921,2096921,161935,666530,0
2096921,2096921,161893,666756,0
2096921,2096921,161965,666661,0
2096921,2096921,161951,666764,0
2096921,2096921,161941,666662,0
2096921,2096921,161629,666560,0
2096921,2096921,161818,666415,0
2096921,2096921,161899,666447,0
2096921,2096921,161952,666604,0
2096921,2096921,161971,666839,0
2096921,2096921,162311,666609,0
2096921,2096921,161959,666543,0
2096921,2096921,162031,666590,0
2096921,2096921,161961,666645,0
2096921,2096921,162023,666753,0
2096921,2096921,162065,666652,0
2096921,2096921,162251,666473,0
2096921,2096921,162032,666779,0
2096921,2096921,161965,666661,0
2096921,2096921,161915,666622,0
2096921,2096921,161852,666950,0
2096921,2096921,161982,666582,0
2096921,2096921,161959,666826,0
2096921,2096921,162035,666774,0
2096921,2096921,161930,666615,0
2096921,2096921,161920,666670,0
2096921,2096921,162132,666616,0
2096921,2096921,162068,666638,0
2096921,2096921,162132,666538,0
2096921,2096921,162119,666646,0
2096921,2096921,162453,666848,0
2096921,2096921,162421,666694,0
2096921,2096921,162164,666666,0
2096921,2096921,161971,666751,0
2096921,2096921,161936,666527,0
2096921,2096921,161618,666344,0
2096921,2096921,161625,666113,0
2096921,2096921,161842,666377,0
2096921,2096921,161787,666241,0
2096921,2096921,161934,666260,0
2096921,2096921,161862,666077,0
2096921,2096921,161861,665718,0
2096921,2096921,161911,665850,0
2096921,2096921,161564,665558,0
2096921,2096921,161929,666210,0
2096921,2096921,161516,665564,0
2096921,2096921,161692,665276,0
2096921,2096921,161498,665298,0
2096921,2096921,161660,665556,0
2096921,2096921,161530,665389,0
2096921,2096921,161016,664943,0
2096921,2096921,161387,664544,0
2096921,2096921,161428,664657,0
2096921,2096921,161144,664471,0
2096921,2096921,161163,664371,0
2096921,2096921,160824,663956,0
2096921,2096921,160544,663943,0
2096921,2096921,160648,664085,0
2096921,2096921,160647,663583,0
2096921,2096921,161063,663569,0
2096921,2096921,160275,662286,0
2096921,2096921,159983,662091,0
2096921,2096921,159726,662008,0
2096921,2096921,160067,662054,0
2096921,2096921,160233,662061,0
2096921,2096921,159595,660194,0
2096921,2096921,159115,659704,0
2096921,2096921,159206,659832,0
2096921,2096921,158971,659949,0
2096921,2096921,159203,659729,0
2096921,2096921,158476,658221,0
2096921,2096921,158647,657808,0
2096921,2096921,158446,658105,0
2096921,2096921,158461,658088,0
2096921,2096921,158579,658272,0
2096921,2096921,158154,657047,0
2096921,2096921,158154,656786,0
2096921,2096921,157919,656395,0
2096921,2096921,157795,656625,0
2096921,2096921,157838,656678,0
2096921,2096921,157593,655970,0
2096921,2096921,157501,655926,0
2096921,2096921,157692,655875,0
2096921,2096921,157570,655838,0
2096921,2096921,157505,656110,0
2096921,2096921,157368,655431,0
2096921,2096921,156990,655100,0
2096921,2096921,157026,655230,0
2096921,2096921,157048,655297,0
2096921,2096921,157423,655075,0
2096921,2096921,156809,654672,0
2096921,2096921,156763,654673,0
2096921,2096921,156925,654757,0
2096921,2096921,157250,654615,0
2096921,2096921,156979,654581,0
2096921,2096921,156751,654125,0
2096921,2096921,156978,654154,0
2096921,2096921,157057,654289,0
2096921,2096921,156901,654271,0
2096921,2096921,157184,654358,0
2096921,2096921,157162,654099,0
2096921,2096921,156935,654453,0
2096921,2096921,156966,654451,0
2096921,2096921,156774,654128,0
2096921,2096921,157039,654344,0
2096921,2096921,156790,654172,0
2096921,2096921,156783,654227,0
2096921,2096921,156851,654134,0
2096921,2096921,157020,654180,0
2096921,2096921,156729,654076,0
2096921,2096921,156860,654088,0
2096921,2096921,156896,654145,0
2096921,2096921,157012,654099,0
2096921,2096921,156834,654303,0
2096921,2096921,156443,654288,0
2096921,2096921,156863,654302,0
2096921,2096921,156781,654193,0
2096921,2096921,156669,654387,0
2096921,2096921,157156,654611,0
2096921,2096921,157133,654640,0
2096921,2096921,156745,654671,0
2096921,2096921,156985,654317,0
2096921,2096921,157104,654707,0
2096921,2096921,157120,654870,0
2096921,2096921,157088,654751,0
2096921,2096921,157414,654780,0
2096921,2096921,157217,655026,0
2096921,2096921,157116,655252,0
2096921,2096921,157055,655083,0
2096921,2096921,157090,654881,0
2096921,2096921,157322,655268,0
2096921,2096921,157058,655124,0
2096921,2096921,157221,655190,0
2096921,2096921,157290,655082,0
2096921,2096921,157121,655400,0
2096921,2096921,157396,655913,0
2096921,2096921,157347,656082,0
2096921,2096921,157433,655871,0
2096921,2096921,157713,655962,0
2096921,2096921,157523,656104,0
2096921,2096921,157851,656298,0
2096921,2096921,157825,656471,0
2096921,2096921,157869,656568,0
2096921,2096921,158124,656459,0
2096921,2096921,157818,656446,0
2096921,2096921,157717,656769,0
2096921,2096921,158023,656914,0
2096921,2096921,157881,656952,0
2096921,2096921,157584,656899,0
2096921,2096921,157711,656714,0
2096921,2096921,157993,657269,0
2096921,2096921,157934,657017,0
2096921,2096921,157931,657172,0
2096921,2096921,158039,657183,0
2096921,2096921,157982,656878,0
2096921,2096921,158324,657255,0
2096921,2096921,158316,657712,0
2096921,2096921,158190,657671,0
2096921,2096921,158243,657556,0
2096921,2096921,158161,657788,0
2096921,2096921,158505,658351,0
2096921,2096921,158358,658300,0
2096921,2096921,158694,658164,0
2096921,2096921,158620,658493,0
2096921,2096921,158467,658488,0
2096921,2096921,158570,658499,0
2096921,2096921,158575,658453,0
2096921,2096921,158581,658825,0
2096921,2096921,158587,658709,0
2096921,2096921,158420,658593,0
2096921,2096921,158965,659193,0
2096921,2096921,158981,659052,0
2096921,2096921,159000,658988,0
2096921,2096921,158549,659248,0
2096921,2096921,158661,659027,0
2096921,2096921,158981,659472,0
2096921,2096921,158944,659459,0
2096921,2096921,158803,659550,0
2096921,2096921,158873,659949,0
2096921,2096921,159115,659850,0
2096921,2096921,159272,660015,0
2096921,2096921,159336,660196,0
2096921,2096921,159337,660153,0
2096921,2096921,159191,660162,0
2096921,2096921,158917,660315,0
2096921,2096921,159368,660263,0
2096921,2096921,159383,660750,0
2096921,2096921,159336,660757,0
2096921,2096921,159322,660393,0
2096921,2096921,159445,660943,0
2096921,2096921,159426,660954,0
2096921,2096921,159580,661274,0
2096921,2096921,159649,661218,0
2096921,2096921,159585,661231,0
2096921,2096921,159764,661139,0
2096921,2096921,159623,661503,0
2096921,2096921,159553,661535,0
2096921,2096921,159530,661465,0
2096921,2096921,159574,661241,0
2096921,2096921,159574,661548,0
2096921,2096921,159932,661779,0
2096921,2096921,159765,661915,0
2096921,2096921,159770,661959,0
2096921,2096921,159743,662090,0
2096921,2096921,159781,661812,0
2096921,2096921,159698,661939,0
2096921,2096921,159962,662070,0
2096921,2096921,160040,662136,0
2096921,2096921,159760,662280,0
2096921,2096921,159787,662193,0
2096921,2096921,159739,662210,0
2096921,2096921,159894,662263,0
2096921,2096921,159920,662455,0
2096921,2096921,159972,662368,0
2096921,2096921,159899,662351,0
2096921,2096921,160108,662524,0
2096921,2096921,160141,662624,0
2096921,2096921,159974,662575,0
2096921,2096921,160109,662589,0
2096921,2096921,159900,662635,0
2096921,2096921,159934,662475,0
2096921,2096921,159935,662460,0
2096921,2096921,160042,662361,0
2096921,2096921,159778,662418,0
2096921,2096921,159916,662591,0
2096921,2096921,159781,662657,0
2096921,2096921,159943,662762,0
2096921,2096921,159909,662713,0
2096921,2096921,159898,662514,0
2096921,2096921,159920,662562,0
2096921,2096921,159681,662516,0
2096921,2096921,159957,662711,0
2096921,2096921,160008,662616,0
2096921,2096921,159973,662551,0
2096921,2096921,159965,662519,0
2096921,2096921,159832,662515,0
2096921,2096921,160149,662869,0
2096921,2096921,159940,662734,0
2096921,2096921,159793,662758,0
2096921,2096921,159997,662595,0
2096921,2096921,159835,662850,0
2096921,2096921,159797,662659,0
2096921,2096921,159753,662807,0
2096921,2096921,159931,662624,0
2096921,2096921,159817,663018,0
2096921,2096921,159941,663033,0
2096921,2096921,160023,663265,0
2096921,2096921,160004,663254,0
2096921,2096921,160137,663094,0
2096921,2096921,160041,662942,0
2096921,2096921,160032,663606,0
2096921,2096921,160467,663641,0
2096921,2096921,160192,663699,0
2096921,2096921,160105,663301,0
2096921,2096921,160035,663397,0
2096921,2096921,160025,663435,0
2096921,2096921,159949,663449,0
2096921,2096921,160089,663568,0
2096921,2096921,160269,663398,0
2096921,2096921,160128,663526,0
2096921,2096921,160241,663916,0
2096921,2096921,160110,664067,0
2096921,2096921,160292,664053,0
2096921,2096921,160139,663960,0
2096921,2096921,160342,663830,0
2096921,2096921,160527,664257,0
2096921,2096921,160287,664183,0
2096921,2096921,160282,664312,0
2096921,2096921,160349,664211,0
2096921,2096921,160512,664306,0
2096921,2096921,160816,664568,0
2096921,2096921,160422,664551,0
2096921,2096921,160544,664966,0
2096921,2096921,160213,664774,0
2096921,2096921,160295,664962,0
2096921,2096921,160439,664933,0
2096921,2096921,160758,665400,0
2096921,2096921,160473,665405,0
2096921,2096921,160619,665413,0
2096921,2096921,161065,665290,0
2096921,2096921,161276,666018,0
2096921,2096921,161170,666126,0
2096921,2096921,160991,665892,0
2096921,2096921,160890,666044,0
2096921,2096921,160872,666498,0
2096921,2096921,161109,666356,0
2096921,2096921,160886,666662,0
2096921,2096921,160743,666322,0
2096921,2096921,161169,666616,0
2096921,2096921,161036,666492,0
2096921,2096921,161377,666521,0
2096921,2096921,161344,666581,0
2096921,2096921,161244,666666,0
2096921,2096921,161330,666859,0
2096921,2096921,161129,666680,0
2096921,2096921,161159,667109,0
2096921,2096921,161490,667137,0
2096921,2096921,161733,667107,0
2096921,2096921,161711,667400,0
2096921,2096921,161486,667411,0
2096921,2096921,161840,667592,0
2096921,2096921,161537,667892,0
2096921,2096921,161606,667621,0
2096921,2096921,161229,667651,0
2096921,2096921,161238,667740,0
2096921,2096921,161598,667993,0
2096921,2096921,161594,668353,0
2096921,2096921,161842,668259,0
2096921,2096921,161675,668464,0
2096921,2096921,161815,668228,0
2096921,2096921,162104,668803,0
2096921,2096921,162054,668913,0
2096921,2096921,161952,668837,0
2096921,2096921,161882,668686,0
2096921,2096921,161661,668671,0
2096921,2096921,162082,669406,0
2096921,2096921,161789,669227,0
2096921,2096921,162021,669556,0
2096921,2096921,162036,669364,0
2096921,2096921,162062,669221,0
2096921,2096921,161951,669652,0
2096921,2096921,161970,669973,0
2096921,2096921,162052,669852,0
2096921,2096921,162377,669687,0
2096921,2096921,161931,669806,0
2096921,2096921,162245,670475,0
2096921,2096921,162200,670246,0
2096921,2096921,162283,670483,0
2096921,2096921,162537,670351,0
2096921,2096921,162515,670567,0
2096921,2096921,162630,670819,0
2096921,2096921,162608,670877,0
2096921,2096921,162871,671160,0
2096921,2096921,162368,670923,0
2096921,2096921,162413,671119,0
2096921,2096921,162315,671429,0
2096921,2096921,162514,671531,0
2096921,2096921,162383,671388,0
2096921,2096921,162405,671470,0
2096921,2096921,162617,671482,0
2096921,2096921,162963,671711,0
2096921,2096921,162597,671906,0
2096921,2096921,162834,671765,0
2096921,2096921,162933,672053,0
2096921,2096921,162727,671820,0
2096921,2096921,163225,672421,0
2096921,2096921,163137,672281,0
2096921,2096921,163141,672744,0
2096921,2096921,163055,672709,0
2096921,2096921,163140,672555,0
2096921,2096921,163236,673045,0
2096921,2096921,163239,673092,0
2096921,2096921,163216,673181,0
2096921,2096921,163144,673313,0
2096921,2096921,163326,672908,0
2096921,2096921,163322,673310,0
2096921,2096921,163071,673379,0
2096921,2096921,163267,673444,0
2096921,2096921,163646,673327,0
2096921,2096921,163248,673283,0
2096921,2096921,163481,673729,0
2096921,2096921,163230,673914,0
2096921,2096921,163223,673875,0
2096921,2096921,163391,673902,0
2096921,2096921,163437,673769,0
2096921,2096921,163427,674120,0
2096921,2096921,163401,674601,0
2096921,2096921,163770,674521,0
2096921,2096921,163650,674416,0
2096921,2096921,163848,674554,0
2096921,2096921,163852,674865,0
2096921,2096921,163796,675092,0
2096921,2096921,163822,675035,0
2096921,2096921,163703,675231,0
2096921,2096921,163678,674858,0
2096921,2096921,163793,674920,0
2096921,2096921,163773,675119,0
2096921,2096921,163922,675404,0
2096921,2096921,163821,675357,0
2096921,2096921,163851,675318,0
2096921,2096921,163980,675899,0
2096921,2096921,164358,675804,0
2096921,2096921,164107,675579,0
2096921,2096921,163882,675587,0
2096921,2096921,164095,675874,0
2096921,2096921,164277,676235,0
2096921,2096921,164146,676403,0
2096921,2096921,164301,676166,0
2096921,2096921,164388,676577,0
2096921,2096921,164485,676721,0
2096921,2096921,164406,676669,0
2096921,2096921,164614,677116,0
2096921,2096921,164407,676969,0
2096921,2096921,164535,676958,0
2096921,2096921,164389,676832,0
2096921,2096921,164281,677369,0
2096921,2096921,164392,677215,0
2096921,2096921,164251,677133,0
2096921,2096921,164639,677383,0
2096921,2096921,164267,677264,0
2096921,2096921,164508,677552,0
2096921,2096921,164616,677624,0
2096921,2096921,164449,677706,0
2096921,2096921,164502,677703,0
2096921,2096921,164668,677768,0
2096921,2096921,164705,678190,0
2096921,2096921,164783,678258,0
2096921,2096921,164766,678313,0
2096921,2096921,164647,678465,0
2096921,2096921,164554,678244,0
2096921,2096921,164493,678772,0
2096921,2096921,164920,678723,0
2096921,2096921,164801,678990,0
2096921,2096921,164626,678556,0
2096921,2096921,164526,678453,0
2096921,2096921,165048,678771,0
2096921,2096921,164987,678964,0
2096921,2096921,165170,679022,0
2096921,2096921,165026,679053,0
2096921,2096921,165113,679092,0
2096921,2096921,165204,679307,0
2096921,2096921,164884,679492,0
2096921,2096921,164995,679498,0
2096921,2096921,165024,679770,0
2096921,2096921,164917,679467,0
2096921,2096921,165088,679978,0
2096921,2096921,165204,679925,0
2096921,2096921,164974,679928,0
2096921,2096921,165131,679872,0
2096921,2096921,165020,679682,0
2096921,2096921,165267,680120,0
2096921,2096921,165119,680319,0
2096921,2096921,165395,680466,0
2096921,2096921,165383,680236,0
2096921,2096921,165308,680088,0
2096921,2096921,165339,680428,0
2096921,2096921,165374,680528,0
2096921,2096921,165756,680378,0
2096921,2096921,165534,680905,0
2096921,2096921,165739,680867,0
2096921,2096921,165708,681086,0
2096921,2096921,165720,680990,0
2096921,2096921,165446,681461,0
2096921,2096921,165732,681144,0
2096921,2096921,165429,681293,0
2096921,2096921,165697,681437,0
2096921,2096921,165507,681395,0
2096921,2096921,165621,681581,0
2096921,2096921,166026,681507,0
2096921,2096921,165747,681648,0
2096921,2096921,166128,681991,0
2096921,2096921,165833,682107,0
2096921,2096921,166115,682050,0
2096921,2096921,165753,682273,0
2096921,2096921,166113,682084,0
2096921,2096921,165890,682220,0
2096921,2096921,165831,682538,0
2096921,2096921,165697,682497,0
2096921,2096921,165784,682526,0
2096921,2096921,165766,681992,0
2096921,2096921,165963,682775,0
2096921,2096921,165991,682764,0
2096921,2096921,165976,682518,0
2096921,2096921,165722,682825,0
2096921,2096921,165700,682889,0
2096921,2096921,166106,683241,0
2096921,2096921,166315,682957,0
2096921,2096921,166322,683117,0
2096921,2096921,166469,683315,0
2096921,2096921,166382,683279,0
2096921,2096921,166335,683691,0
2096921,2096921,166231,683451,0
2096921,2096921,166177,683547,0
2096921,2096921,166193,683629,0
2096921,2096921,166318,683851,0
2096921,2096921,166201,683890,0
2096921,2096921,166127,684012,0
2096921,2096921,166215,683790,0
2096921,2096921,166708,683804,0
2096921,2096921,166632,683667,0
2096921,2096921,166459,684195,0
2096921,2096921,166382,684286,0
2096921,2096921,166739,684780,0
2096921,2096921,166645,684593,0
2096921,2096921,166425,684523,0
2096921,2096921,166428,684979,0
2096921,2096921,166240,684549,0
2096921,2096921,166171,684905,0
2096921,2096921,166571,684761,0
2096921,2096921,166452,685066,0
2096921,2096921,166569,685247,0
2096921,2096921,166512,685105,0
2096921,2096921,166912,685191,0
2096921,2096921,166776,685407,0
2096921,2096921,166503,685216,0
2096921,2096921,166513,685277,0
2096921,2096921,166713,685265,0
2096921,2096921,166479,685447,0
2096921,2096921,166647,685543,0
2096921,2096921,166739,685392,0
2096921,2096921,166907,685709,0
2096921,2096921,166630,685657,0
2096921,2096921,166830,685856,0
2096921,2096921,166896,685746,0
2096921,2096921,167063,685858,0
2096921,2096921,166556,685968,0
2096921,2096921,166526,685858,0
2096921,2096921,166941,685940,0
2096921,2096921,166992,686134,0
2096921,2096921,166732,686138,0
2096921,2096921,166833,686434,0
2096921,2096921,166892,686717,0
2096921,2096921,167026,686353,0
2096921,2096921,166995,686261,0
2096921,2096921,166855,686139,0
2096921,2096921,167053,686571,0
2096921,2096921,166677,686810,0
2096921,2096921,166866,686712,0
2096921,2096921,167247,686824,0
2096921,2096921,167244,686941,0
2096921,2096921,167030,687076,0
2096921,2096921,167134,687214,0
2096921,2096921,167159,687291,0
2096921,2096921,167410,686987,0
2096921,2096921,167463,687035,0
2096921,2096921,167355,687441,0
2096921,2096921,167402,687479,0
2096921,2096921,167222,687403,0
2096921,2096921,167480,687284,0
2096921,2096921,167294,687227,0
2096921,2096921,167204,687295,0
2096921,2096921,167280,687517,0
2096921,2096921,166897,687584,0
2096921,2096921,167097,687273,0
2096921,2096921,167523,687647,0
2096921,2096921,167411,687661,0
2096921,2096921,167315,687727,0
2096921,2096921,167386,687220,0
2096921,2096921,167275,687422,0
2096921,2096921,167151,687691,0
2096921,2096921,167134,687639,0
2096921,2096921,167005,687818,0
2096921,2096921,167340,687491,0
2096921,2096921,167229,687155,0
2096921,2096921,167169,687514,0
2096921,2096921,166935,687275,0
2096921,2096921,166987,687348,0
2096921,2096921,166562,687268,0
2096921,2096921,166823,687104,0
2096921,2096921,167168,687068,0
2096921,2096921,166850,686922,0
2096921,2096921,166965,687070,0
2096921,2096921,166772,686685,0
2096921,2096921,166803,686735,0
2096921,2096921,166740,686688,0
2096921,2096921,166352,686479,0
2096921,2096921,166645,686374,0
2096921,2096921,166705,685890,0
2096921,2096921,166623,686121,0
2096921,2096921,166508,685949,0
2096921,2096921,165826,684912,0
2096921,2096921,165676,684389,0
2096921,2096921,165883,684378,0
2096921,2096921,165635,684398,0
2096921,2096921,165782,684562,0
2096921,2096921,165264,682571,0
2096921,2096921,164985,682257,0
2096921,2096921,164905,682198,0
2096921,2096921,165008,682360,0
2096921,2096921,164791,682428,0
2096921,2096921,164292,681586,0
2096921,2096921,164211,681084,0
2096921,2096921,164283,680819,0
2096921,2096921,164394,680752,0
2096921,2096921,164258,680993,0
2096921,2096921,163809,680053,0
2096921,2096921,163803,679891,0
2096921,2096921,163627,679755,0
2096921,2096921,163837,679721,0
2096921,2096921,163653,679691,0
2096921,2096921,163230,678989,0
2096921,2096921,163479,679029,0
2096921,2096921,163426,679285,0
2096921,2096921,163574,679015,0
2096921,2096921,163496,679066,0
2096921,2096921,163061,678812,0
2096921,2096921,163060,678446,0
2096921,2096921,162963,678780,0
2096921,2096921,163091,678928,0
2096921,2096921,163330,678617,0
2096921,2096921,163219,678542,0
2096921,2096921,163093,678639,0
2096921,2096921,163216,678562,0
2096921,2096921,163000,678592,0
2096921,2096921,162850,678344,0
2096921,2096921,162644,678246,0
2096921,2096921,162918,678346,0
2096921,2096921,162806,677995,0
2096921,2096921,162781,678202,0
2096921,2096921,162919,678024,0
2096921,2096921,162746,678325,0
2096921,2096921,162847,678332,0
2096921,2096921,163037,678582,0
2096921,2096921,162721,678432,0
2096921,2096921,162589,678401,0
2096921,2096921,162753,678187,0
2096921,2096921,162864,678686,0
2096921,2096921,163128,678766,0
2096921,2096921,163165,678502,0
2096921,2096921,163188,678501,0
2096921,2096921,163172,678963,0
2096921,2096921,163023,678964,0
2096921,2096921,163004,679055,0
2096921,2096921,163191,678968,0
2096921,2096921,163067,678981,0
2096921,2096921,163135,679156,0
2096921,2096921,163170,678987,0
2096921,2096921,163143,678968,0
2096921,2096921,162999,679412,0
2096921,2096921,163024,679382,0
2096921,2096921,163026,679563,0
2096921,2096921,163013,679331,0
2096921,2096921,163135,679650,0
2096921,2096921,163339,679797,0
2096921,2096921,163595,679874,0
2096921,2096921,163532,680215,0
2096921,2096921,163392,680048,0
2096921,2096921,163710,680245,0
2096921,2096921,163876,680278,0
2096921,2096921,163441,680102,0
2096921,2096921,163432,680513,0
2096921,2096921,163761,680745,0
2096921,2096921,163382,680658,0
2096921,2096921,163573,680276,0
2096921,2096921,163496,680569,0
2096921,2096921,163688,680816,0
2096921,2096921,163940,681239,0
2096921,2096921,163957,681341,0
2096921,2096921,163772,681351,0
2096921,2096921,164152,681430,0
2096921,2096921,164015,681877,0
2096921,2096921,164188,682010,0
2096921,2096921,164431,682136,0
2096921,2096921,164189,681858,0
2096921,2096921,164467,681847,0
2096921,2096921,164471,682327,0
2096921,2096921,164428,682623,0
2096921,2096921,164337,682526,0
2096921,2096921,164226,682289,0
2096921,2096921,164512,682350,0
2096921,2096921,164597,682725,0
2096921,2096921,164634,682723,0
2096921,2096921,164360,683073,0
2096921,2096921,164708,682987,0
2096921,2096921,164708,682961,0
2096921,2096921,164734,683021,0
2096921,2096921,164709,683398,0
2096921,2096921,164441,683574,0
2096921,2096921,164926,683747,0
2096921,2096921,164724,683605,0
2096921,2096921,165050,683952,0
2096921,2096921,165187,684327,0
2096921,2096921,164934,684127,0
2096921,2096921,164997,684298,0
2096921,2096921,164901,684103,0
2096921,2096921,165284,684449,0
2096921,2096921,164971,684420,0
2096921,2096921,165237,684245,0
2096921,2096921,165024,684360,0
2096921,2096921,165316,684433,0
2096921,2096921,165311,684989,0
2096921,2096921,165530,685045,0
2096921,2096921,165303,685378,0
2096921,2096921,165570,685286,0
2096921,2096921,165276,684940,0
2096921,2096921,165703,685807,0
2096921,2096921,165537,685681,0
2096921,2096921,165558,685734,0
2096921,2096921,165791,685596,0
2096921,2096921,165804,685984,0
2096921,2096921,165668,686306,0
2096921,2096921,165759,685969,0
2096921,2096921,165712,686233,0
2096921,2096921,165523,686279,0
2096921,2096921,165518,686281,0
2096921,2096921,165712,686600,0
2096921,2096921,165944,686722,0
2096921,2096921,165885,686653,0
2096921,2096921,166059,686646,0
2096921,2096921,166198,687002,0
2096921,2096921,166334,687076,0
2096921,2096921,166266,687064,0
2096921,2096921,166234,687126,0
2096921,2096921,166005,686993,0
2096921,2096921,166215,687127,0
2096921,2096921,166209,686980,0
2096921,2096921,166248,687472,0
2096921,2096921,166169,687309,0
2096921,2096921,166130,687391,0
2096921,2096921,166182,687190,0
2096921,2096921,166260,687606,0
2096921,2096921,166224,687558,0
2096921,2096921,165928,687659,0
2096921,2096921,166050,687575,0
2096921,2096921,166411,687578,0
2096921,2096921,166442,687559,0
2096921,2096921,166288,687676,0
2096921,2096921,166317,687677,0
2096921,2096921,166125,688054,0
2096921,2096921,166328,687816,0
2096921,2096921,166176,687777,0
2096921,2096921,166518,687777,0
2096921,2096921,166456,687711,0
2096921,2096921,166032,687808,0
2096921,2096921,166564,687662,0
2096921,2096921,166504,688107,0
2096921,2096921,166201,687626,0
2096921,2096921,166258,688066,0
2096921,2096921,166208,687981,0
2096921,2096921,166234,687990,0
2096921,2096921,166496,687801,0
2096921,2096921,166306,687712,0
2096921,2096921,166373,687778,0
2096921,2096921,166481,687711,0
2096921,2096921,166138,687653,0
2096921,2096921,166258,687675,0
2096921,2096921,166570,687710,0
2096921,2096921,166306,687497,0
2096921,2096921,166219,687802,0
2096921,2096921,166181,687821,0
2096921,2096921,166291,687787,0
2096921,2096921,166202,687620,0
2096921,2096921,166215,687385,0
2096921,2096921,166100,687441,0
2096921,2096921,166285,687499,0
2096921,2096921,166233,687661,0
2096921,2096921,166013,687393,0
2096921,2096921,166347,687390,0
2096921,2096921,166251,687346,0
2096921,2096921,166218,687570,0
2096921,2096921,166433,687340,0
2096921,2096921,166312,687442,0
2096921,2096921,166408,687386,0
2096921,2096921,166195,687439,0
2096921,2096921,166007,687209,0
2096921,2096921,165996,687323,0
2096921,2096921,165814,687467,0
2096921,2096921,165980,687512,0
2096921,2096921,166061,687375,0
2096921,2096921,165961,687094,0
2096921,2096921,165833,687160,0
2096921,2096921,165882,687114,0
2096921,2096921,165843,687247,0
2096921,2096921,166038,687453,0
2096921,2096921,166388,687026,0
2096921,2096921,166286,687256,0
2096921,2096921,166458,687501,0
2096921,2096921,166410,687426,0
2096921,2096921,166177,687441,0
2096921,2096921,166175,687490,0
2096921,2096921,165967,687773,0
2096921,2096921,166002,687638,0
2096921,2096921,165907,687173,0
2096921,2096921,166079,687117,0
2096921,2096921,166001,687410,0
2096921,2096921,165991,687264,0
2096921,2096921,166130,687279,0
2096921,2096921,166248,687280,0
2096921,2096921,166403,687316,0
2096921,2096921,166438,687673,0
2096921,2096921,166177,688105,0
2096921,2096921,166132,688154,0
2096921,2096921,166128,688049,0
2096921,2096921,166453,688074,0
2096921,2096921,166137,688076,0
2096921,2096921,166500,687962,0
2096921,2096921,166332,687874,0
2096921,2096921,166467,687827,0
2096921,2096921,166418,687880,0
2096921,2096921,166282,688248,0
2096921,2096921,166367,688258,0
2096921,2096921,166412,688337,0
2096921,2096921,166437,688226,0
2096921,2096921,166354,688315,0
2096921,2096921,166688,688250,0
