2096921,2096921,156570,655046,0
2096921,2096921,156842,654902,0
2096921,2096921,156753,654760,0
2096921,2096921,156716,654685,0
2096921,2096921,156830,655362,0
2096921,2096921,156822,655834,0
2096921,2096921,156916,655808,0
2096921,2096921,156894,655948,0
2096921,2096921,157067,655773,0
2096921,2096921,157108,656743,0
2096921,2096921,157179,656942,0
2096921,2096921,157282,657312,0
2096921,2096921,157374,657296,0
2096921,2096921,157640,656979,0
2096921,2096921,157651,657696,0
2096921,2096921,157679,658124,0
2096921,2096921,157325,658114,0
2096921,2096921,157408,658052,0
2096921,2096921,157759,657933,0
2096921,2096921,157677,658878,0
2096921,2096921,157784,659026,0
2096921,2096921,157648,658988,0
2096921,2096921,157851,659122,0
2096921,2096921,158106,659012,0
2096921,2096921,157956,659886,0
2096921,2096921,158080,660296,0
2096921,2096921,158044,660046,0
2096921,2096921,158190,660176,0
2096921,2096921,158089,660105,0
2096921,2096921,157812,660839,0
2096921,2096921,158152,661274,0
2096921,2096921,158085,661006,0
2096921,2096921,158139,661171,0
2096921,2096921,158274,661129,0
2096921,2096921,158348,662080,0
2096921,2096921,158303,662257,0
2096921,2096921,158317,662311,0
2096921,2096921,158641,662230,0
2096921,2096921,158844,662499,0
2096921,2096921,158905,663193,0
2096921,2096921,158682,663446,0
2096921,2096921,158672,663251,0
2096921,2096921,158675,663567,0
2096921,2096921,158863,663215,0
2096921,2096921,159220,663998,0
2096921,2096921,159107,664553,0
2096921,2096921,159014,664590,0
2096921,2096921,159076,664604,0
2096921,2096921,159050,664698,0
2096921,2096921,159037,665519,0
2096921,2096921,159154,665505,0
2096921,2096921,159569,665673,0
2096921,2096921,159393,665337,0
2096921,2096921,159660,665696,0
2096921,2096921,159691,666222,0
2096921,2096921,159758,666359,0
2096921,2096921,159531,666309,0
2096921,2096921,159395,666594,0
2096921,2096921,159250,666746,0
2096921,2096921,159629,667113,0
2096921,2096921,159922,667412,0
2096921,2096921,159745,667720,0
2096921,2096921,159656,667465,0
2096921,2096921,159926,667338,0
2096921,2096921,160131,668039,0
2096921,2096921,159981,668207,0
2096921,2096921,159993,668241,0
2096921,2096921,160038,668440,0
2096921,2096921,159955,668152,0
2096921,2096921,160419,668777,0
2096921,2096921,160122,669032,0
2096921,2096921,160174,669032,0
2096921,2096921,160153,669069,0
2096921,2096921,160265,669077,0
2096921,2096921,160668,669512,0
2096921,2096921,160549,669613,0
2096921,2096921,160356,669793,0
2096921,2096921,160084,669749,0
2096921,2096921,160560,669723,0
2096921,2096921,160443,669841,0
2096921,2096921,160530,670175,0
2096921,2096921,160445,670025,0
2096921,2096921,160374,670097,0
2096921,2096921,160539,670080,0
2096921,2096921,160339,670499,0
2096921,2096921,160665,670267,0
2096921,2096921,160519,670090,0
2096921,2096921,160302,670286,0
2096921,2096921,160264,670721,0
2096921,2096921,160478,670753,0
2096921,2096921,160691,670833,0
2096921,2096921,160578,670926,0
2096921,2096921,160478,670619,0
2096921,2096921,160275,671039,0
2096921,2096921,160604,671063,0
2096921,2096921,160489,670929,0
2096921,2096921,160547,670867,0
2096921,2096921,160651,670971,0
2096921,2096921,160390,670762,0
2096921,2096921,160665,670990,0
2096921,2096921,160801,671190,0
2096921,2096921,160647,671047,0
2096921,2096921,160733,670952,0
2096921,2096921,160934,670979,0
2096921,2096921,160635,671232,0
2096921,2096921,160900,671150,0
2096921,2096921,160786,671258,0
2096921,2096921,160730,671292,0
2096921,2096921,160597,671549,0
2096921,2096921,160661,671485,0
2096921,2096921,160767,671525,0
2096921,2096921,160826,671538,0
2096921,2096921,160634,671085,0
2096921,2096921,160857,671321,0
2096921,2096921,160717,671652,0
2096921,2096921,160715,671801,0
2096921,2096921,160755,671775,0
2096921,2096921,160920,671666,0
2096921,2096921,160912,671964,0
2096921,2096921,161261,672171,0
2096921,2096921,161011,672155,0
2096921,2096921,161131,672163,0
2096921,2096921,161172,672116,0
2096921,2096921,161077,672101,0
2096921,2096921,161355,672714,0
2096921,2096921,161250,672588,0
2096921,2096921,161032,672760,0
2096921,2096921,161081,672540,0
2096921,2096921,161301,672495,0
2096921,2096921,160962,672810,0
2096921,2096921,161572,673266,0
2096921,2096921,161390,673011,0
2096921,2096921,161352,673424,0
2096921,2096921,161406,673284,0
2096921,2096921,161288,673537,0
2096921,2096921,161283,673744,0
2096921,2096921,161245,673802,0
2096921,2096921,161303,673580,0
2096921,2096921,161510,673705,0
2096921,2096921,161298,674443,0
2096921,2096921,161413,674485,0
2096921,2096921,161782,674654,0
2096921,2096921,161919,674779,0
2096921,2096921,161924,674611,0
2096921,2096921,161530,675526,0
2096921,2096921,161749,675279,0
2096921,2096921,161691,675156,0
2096921,2096921,161718,675393,0
2096921,2096921,161898,675364,0
2096921,2096921,161867,676187,0
2096921,2096921,161937,676446,0
2096921,2096921,162298,676306,0
2096921,2096921,162000,676302,0
2096921,2096921,161996,676382,0
2096921,2096921,162083,677113,0
2096921,2096921,162190,676709,0
2096921,2096921,162165,677016,0
2096921,2096921,162119,676976,0
2096921,2096921,162400,677016,0
2096921,2096921,162414,677607,0
2096921,2096921,162470,677890,0
2096921,2096921,162292,677708,0
2096921,2096921,162404,677967,0
2096921,2096921,162450,677862,0
2096921,2096921,162341,678516,0
2096921,2096921,162324,678843,0
2096921,2096921,162686,678933,0
2096921,2096921,162650,678712,0
2096921,2096921,162817,678725,0
2096921,2096921,162650,679321,0
2096921,2096921,162619,679022,0
2096921,2096921,162806,679200,0
2096921,2096921,162835,679043,0
2096921,2096921,163028,679065,0
2096921,2096921,162939,680015,0
2096921,2096921,162801,679975,0
2096921,2096921,162907,679587,0
2096921,2096921,162718,679970,0
2096921,2096921,162891,679931,0
2096921,2096921,163255,680543,0
2096921,2096921,162935,680598,0
2096921,2096921,163356,680879,0
2096921,2096921,163144,680725,0
2096921,2096921,163387,680833,0
2096921,2096921,163188,681271,0
2096921,2096921,163303,681585,0
2096921,2096921,163105,681384,0
2096921,2096921,163236,681483,0
2096921,2096921,163212,681574,0
2096921,2096921,163413,682214,0
2096921,2096921,163385,682099,0
2096921,2096921,163674,682336,0
2096921,2096921,163401,682045,0
2096921,2096921,163191,682134,0
2096921,2096921,163349,682474,0
2096921,2096921,163732,682924,0
2096921,2096921,163576,682946,0
2096921,2096921,163929,682709,0
2096921,2096921,163673,682911,0
2096921,2096921,163968,683379,0
2096921,2096921,163664,683233,0
2096921,2096921,163366,683558,0
2096921,2096921,163473,683470,0
2096921,2096921,163929,683418,0
2096921,2096921,164207,684246,0
2096921,2096921,163620,684269,0
2096921,2096921,163838,683859,0
2096921,2096921,163826,684377,0
2096921,2096921,163857,684227,0
2096921,2096921,164076,684526,0
2096921,2096921,163990,685042,0
2096921,2096921,164175,684708,0
2096921,2096921,164150,684799,0
2096921,2096921,164285,684697,0
2096921,2096921,164468,685031,0
2096921,2096921,164108,685281,0
2096921,2096921,164203,684961,0
2096921,2096921,164295,685061,0
2096921,2096921,164221,685244,0
2096921,2096921,164246,685529,0
2096921,2096921,164263,685857,0
2096921,2096921,164346,685938,0
2096921,2096921,164193,685883,0
2096921,2096921,164240,686302,0
2096921,2096921,164642,686555,0
2096921,2096921,164742,686536,0
2096921,2096921,164855,686573,0
2096921,2096921,164083,686517,0
2096921,2096921,164204,686450,0
2096921,2096921,164506,687009,0
2096921,2096921,164536,687204,0
2096921,2096921,164701,687050,0
2096921,2096921,164728,686775,0
2096921,2096921,164711,686887,0
2096921,2096921,164557,687121,0
2096921,2096921,164691,687511,0
2096921,2096921,164646,687192,0
2096921,2096921,164653,687392,0
2096921,2096921,164547,687423,0
2096921,2096921,164913,687577,0
2096921,2096921,164918,687497,0
2096921,2096921,164735,688054,0
2096921,2096921,164782,687903,0
2096921,2096921,164957,688186,0
2096921,2096921,165364,688203,0
2096921,2096921,164904,688156,0
2096921,2096921,164794,687915,0
2096921,2096921,164885,688111,0
2096921,2096921,165139,688416,0
2096921,2096921,165158,688883,0
2096921,2096921,165292,688691,0
2096921,2096921,165195,689020,0
2096921,2096921,165211,688816,0
2096921,2096921,165262,688666,0
2096921,2096921,165358,689263,0
2096921,2096921,165320,689337,0
2096921,2096921,165347,689211,0
2096921,2096921,165448,689458,0
2096921,2096921,165284,689374,0
2096921,2096921,165551,689766,0
2096921,2096921,165205,689428,0
2096921,2096921,165227,690007,0
2096921,2096921,165242,689715,0
2096921,2096921,165453,689742,0
2096921,2096921,165316,689686,0
2096921,2096921,165449,689993,0
2096921,2096921,165548,689749,0
2096921,2096921,165750,690323,0
2096921,2096921,165148,690172,0
2096921,2096921,165490,690480,0
2096921,2096921,165430,690549,0
2096921,2096921,165684,690269,0
2096921,2096921,165443,690254,0
2096921,2096921,165349,690269,0
2096921,2096921,165372,690489,0
2096921,2096921,165821,690391,0
2096921,2096921,165736,690716,0
2096921,2096921,165788,690531,0
2096921,2096921,165537,690816,0
2096921,2096921,165743,690971,0
2096921,2096921,165905,691106,0
2096921,2096921,165752,690988,0
2096921,2096921,165925,691474,0
2096921,2096921,165622,691122,0
2096921,2096921,165667,691049,0
2096921,2096921,165404,691027,0
2096921,2096921,165605,691043,0
2096921,2096921,166012,690899,0
2096921,2096921,165677,691324,0
2096921,2096921,165434,691374,0
2096921,2096921,165698,691423,0
2096921,2096921,165929,691344,0
2096921,2096921,166088,691607,0
2096921,2096921,165536,691272,0
2096921,2096921,165698,691497,0
2096921,2096921,165855,691263,0
2096921,2096921,165861,691703,0
2096921,2096921,165646,691459,0
2096921,2096921,165915,691570,0
2096921,2096921,166008,691922,0
2096921,2096921,165964,691964,0
2096921,2096921,165887,691870,0
2096921,2096921,165843,692111,0
2096921,2096921,165980,691938,0
2096921,2096921,166100,692087,0
2096921,2096921,166044,691981,0
2096921,2096921,166006,692151,0
2096921,2096921,165772,692271,0
2096921,2096921,166279,692249,0
2096921,2096921,165869,692547,0
2096921,2096921,166200,692646,0
2096921,2096921,166178,692359,0
2096921,2096921,165870,692592,0
2096921,2096921,165893,692495,0
2096921,2096921,166164,692293,0
2096921,2096921,166127,692752,0
2096921,2096921,166193,692594,0
2096921,2096921,166104,692798,0
2096921,2096921,166212,692563,0
2096921,2096921,165963,692632,0
2096921,2096921,166059,692507,0
2096921,2096921,166086,692652,0
2096921,2096921,166154,692835,0
2096921,2096921,166020,692711,0
2096921,2096921,166008,693047,0
2096921,2096921,166019,692962,0
2096921,2096921,166230,692769,0
2096921,2096921,166003,692809,0
2096921,2096921,166088,692731,0
2096921,2096921,166463,693092,0
2096921,2096921,166215,693028,0
2096921,2096921,166100,692956,0
2096921,2096921,166265,692929,0
2096921,2096921,166103,692966,0
2096921,2096921,166212,693030,0
2096921,2096921,166003,693326,0
2096921,2096921,166024,692917,0
2096921,2096921,166134,693070,0
2096921,2096921,166270,692933,0
2096921,2096921,166015,693228,0
2096921,2096921,166270,693472,0
2096921,2096921,166330,693280,0
2096921,2096921,166121,693281,0
2096921,2096921,166322,693283,0
2096921,2096921,166040,693250,0
2096921,2096921,166271,693342,0
2096921,2096921,166288,693138,0
2096921,2096921,166160,693473,0
2096921,2096921,166126,693383,0
2096921,2096921,166373,693461,0
2096921,2096921,166167,693247,0
2096921,2096921,166297,693667,0
2096921,2096921,166269,693576,0
2096921,2096921,166328,693358,0
2096921,2096921,166098,693515,0
2096921,2096921,166282,693658,0
2096921,2096921,166389,693620,0
2096921,2096921,166243,693330,0
2096921,2096921,166073,693498,0
2096921,2096921,166388,693412,0
2096921,2096921,166106,693660,0
2096921,2096921,166261,693635,0
2096921,2096921,166057,693642,0
2096921,2096921,166243,693514,0
2096921,2096921,166151,693612,0
2096921,2096921,166259,693525,0
2096921,2096921,166183,693614,0
2096921,2096921,166108,693643,0
2096921,2096921,166367,693482,0
2096921,2096921,165997,693240,0
2096921,2096921,166252,693462,0
2096921,2096921,166243,693564,0
2096921,2096921,165987,693527,0
2096921,2096921,166280,693724,0
2096921,2096921,166482,693696,0
2096921,2096921,166295,693562,0
2096921,2096921,166265,693454,0
2096921,2096921,166283,693489,0
2096921,2096921,166213,693622,0
2096921,2096921,166089,693661,0
2096921,2096921,166541,693541,0
2096921,2096921,166463,693535,0
2096921,2096921,166155,693614,0
2096921,2096921,166312,693601,0
2096921,2096921,166329,693579,0
2096921,2096921,166481,693588,0
2096921,2096921,166004,693510,0
2096921,2096921,166407,693489,0
2096921,2096921,166420,693308,0
2096921,2096921,166482,693548,0
2096921,2096921,166115,693389,0
2096921,2096921,166125,693309,0
2096921,2096921,166317,693169,0
2096921,2096921,166265,693183,0
2096921,2096921,166046,693334,0
2096921,2096921,166176,693277,0
2096921,2096921,166097,693598,0
2096921,2096921,166096,693411,0
2096921,2096921,166139,693702,0
2096921,2096921,166291,693441,0
2096921,2096921,166196,693431,0
2096921,2096921,166272,693836,0
2096921,2096921,166156,693396,0
2096921,2096921,166045,693284,0
2096921,2096921,165902,692974,0
2096921,2096921,166190,692893,0
2096921,2096921,166452,692955,0
2096921,2096921,166319,692822,0
2096921,2096921,166132,692716,0
2096921,2096921,165989,692298,0
2096921,2096921,165967,692319,0
2096921,2096921,165968,692140,0
2096921,2096921,165999,692560,0
2096921,2096921,165817,692211,0
2096921,2096921,165814,691486,0
2096921,2096921,165263,691307,0
2096921,2096921,165730,691325,0
2096921,2096921,165512,691216,0
2096921,2096921,165440,691020,0
2096921,2096921,165389,690071,0
2096921,2096921,165203,690126,0
2096921,2096921,165282,690027,0
2096921,2096921,165311,690238,0
2096921,2096921,165003,689790,0
2096921,2096921,164902,688740,0
2096921,2096921,164809,688524,0
2096921,2096921,164930,688464,0
2096921,2096921,164833,688578,0
2096921,2096921,164625,688376,0
2096921,2096921,164247,685714,0
2096921,2096921,164101,685203,0
2096921,2096921,164145,685356,0
2096921,2096921,164164,685478,0
2096921,2096921,163248,685396,0
2096921,2096921,163307,682255,0
2096921,2096921,163470,681499,0
2096921,2096921,163349,681354,0
2096921,2096921,163316,681127,0
2096921,2096921,162622,681259,0
2096921,2096921,162696,679228,0
2096921,2096921,162483,678715,0
2096921,2096921,162703,678527,0
2096921,2096921,162448,678151,0
2096921,2096921,162201,678371,0
2096921,2096921,161865,676688,0
2096921,2096921,161969,676321,0
2096921,2096921,161704,676187,0
2096921,2096921,161845,675973,0
2096921,2096921,161851,675813,0
2096921,2096921,161626,674699,0
2096921,2096921,161595,674555,0
2096921,2096921,161474,674239,0
2096921,2096921,161690,674685,0
2096921,2096921,161281,674227,0
2096921,2096921,161469,673891,0
2096921,2096921,161300,673413,0
2096921,2096921,161024,673241,0
2096921,2096921,161513,673399,0
2096921,2096921,161197,673742,0
2096921,2096921,161072,672752,0
2096921,2096921,161142,672819,0
2096921,2096921,161330,672403,0
2096921,2096921,161115,672395,0
2096921,2096921,160900,672226,0
2096921,2096921,161038,671909,0
2096921,2096921,160892,671884,0
2096921,2096921,160944,672167,0
2096921,2096921,160919,672164,0
2096921,2096921,161228,672072,0
2096921,2096921,160974,671968,0
2096921,2096921,160933,672115,0
2096921,2096921,160929,671667,0
2096921,2096921,161156,671781,0
2096921,2096921,161007,671972,0
2096921,2096921,160839,671744,0
2096921,2096921,161008,671670,0
2096921,2096921,161015,671517,0
2096921,2096921,160989,671676,0
2096921,2096921,160961,671617,0
2096921,2096921,160945,672033,0
2096921,2096921,160931,672106,0
2096921,2096921,160984,672239,0
2096921,2096921,160973,672242,0
2096921,2096921,161280,672418,0
2096921,2096921,161215,672309,0
2096921,2096921,161150,672304,0
2096921,2096921,161001,672219,0
2096921,2096921,160884,672242,0
2096921,2096921,160794,672385,0
2096921,2096921,160953,672132,0
2096921,2096921,160946,672316,0
2096921,2096921,161174,672429,0
2096921,2096921,161202,672624,0
2096921,2096921,161121,672323,0
2096921,2096921,161082,672949,0
2096921,2096921,161117,672847,0
2096921,2096921,161319,673108,0
2096921,2096921,161176,672950,0
2096921,2096921,161430,672825,0
2096921,2096921,161406,673717,0
2096921,2096921,161590,673789,0
2096921,2096921,161371,673774,0
2096921,2096921,161337,673578,0
2096921,2096921,161564,673696,0
2096921,2096921,161617,674272,0
2096921,2096921,161467,673968,0
2096921,2096921,161395,673873,0
2096921,2096921,161631,674130,0
2096921,2096921,161590,674116,0
2096921,2096921,161619,674972,0
2096921,2096921,161566,674876,0
2096921,2096921,161518,674891,0
2096921,2096921,161692,674892,0
2096921,2096921,161816,674895,0
2096921,2096921,161724,675273,0
2096921,2096921,161707,675374,0
2096921,2096921,161864,675231,0
2096921,2096921,161682,675439,0
2096921,2096921,161797,675458,0
2096921,2096921,162098,676044,0
2096921,2096921,162051,676127,0
2096921,2096921,162128,676224,0
2096921,2096921,162164,676008,0
2096921,2096921,162103,675924,0
2096921,2096921,162118,676427,0
2096921,2096921,162201,676408,0
2096921,2096921,162380,676164,0
2096921,2096921,162257,676307,0
2096921,2096921,162268,676299,0
2096921,2096921,162254,676835,0
2096921,2096921,162306,677406,0
2096921,2096921,162174,677115,0
2096921,2096921,162335,677204,0
2096921,2096921,162555,677247,0
2096921,2096921,162585,677331,0
2096921,2096921,162537,677626,0
2096921,2096921,162405,677557,0
2096921,2096921,162464,677678,0
2096921,2096921,162736,677912,0
2096921,2096921,162430,678237,0
2096921,2096921,162424,678093,0
2096921,2096921,162546,678270,0
2096921,2096921,162509,678363,0
2096921,2096921,162584,678254,0
2096921,2096921,162740,678826,0
2096921,2096921,162387,678631,0
2096921,2096921,162682,678578,0
2096921,2096921,162474,678804,0
2096921,2096921,162684,678415,0
2096921,2096921,162864,679043,0
2096921,2096921,162763,679373,0
2096921,2096921,162773,679682,0
2096921,2096921,162715,679273,0
2096921,2096921,162855,679373,0
2096921,2096921,162825,679604,0
2096921,2096921,162855,679691,0
2096921,2096921,162657,679746,0
2096921,2096921,162778,679783,0
2096921,2096921,162557,679596,0
2096921,2096921,162887,680156,0
2096921,2096921,162678,680221,0
2096921,2096921,162949,680244,0
2096921,2096921,162746,680376,0
2096921,2096921,162953,679864,0
2096921,2096921,163086,680480,0
2096921,2096921,163064,680219,0
2096921,2096921,162887,680310,0
2096921,2096921,163381,680238,0
2096921,2096921,162973,680287,0
2096921,2096921,163030,680542,0
2096921,2096921,162957,680213,0
2096921,2096921,163237,680166,0
2096921,2096921,163237,680117,0
2096921,2096921,163008,680369,0
2096921,2096921,163095,680490,0
2096921,2096921,163008,679940,0
2096921,2096921,162982,680361,0
2096921,2096921,163006,680301,0
2096921,2096921,163059,680614,0
2096921,2096921,163027,680134,0
2096921,2096921,163267,680136,0
2096921,2096921,163196,680125,0
2096921,2096921,162969,680056,0
2096921,2096921,162744,679955,0
2096921,2096921,163089,680155,0
2096921,2096921,163190,679811,0
2096921,2096921,162744,679689,0
2096921,2096921,163096,679771,0
2096921,2096921,162695,679833,0
2096921,2096921,162532,679591,0
2096921,2096921,162725,679687,0
2096921,2096921,162373,679447,0
2096921,2096921,162690,679551,0
2096921,2096921,162871,679583,0
2096921,2096921,162538,679284,0
2096921,2096921,162774,679283,0
2096921,2096921,162501,679175,0
2096921,2096921,162556,679248,0
2096921,2096921,162339,679381,0
2096921,2096921,162497,678858,0
2096921,2096921,162649,678334,0
2096921,2096921,162505,678740,0
2096921,2096921,162670,679105,0
2096921,2096921,162548,678485,0
2096921,2096921,162340,678245,0
2096921,2096921,162474,678247,0
2096921,2096921,162192,677817,0
2096921,2096921,162347,678074,0
2096921,2096921,162333,678110,0
2096921,2096921,162327,677901,0
2096921,2096921,162345,677826,0
2096921,2096921,162406,677728,0
2096921,2096921,162269,677605,0
2096921,2096921,162057,677696,0
2096921,2096921,162144,677536,0
2096921,2096921,161955,677193,0
2096921,2096921,162078,677297,0
2096921,2096921,162564,677171,0
2096921,2096921,162051,677222,0
2096921,2096921,162300,677028,0
2096921,2096921,162446,676798,0
2096921,2096921,162319,676855,0
2096921,2096921,162205,676878,0
2096921,2096921,161992,676939,0
2096921,2096921,162312,676627,0
2096921,2096921,162073,676778,0
2096921,2096921,162174,676652,0
2096921,2096921,162052,676616,0
2096921,2096921,161904,676706,0
2096921,2096921,162147,676767,0
2096921,2096921,162206,676804,0
2096921,2096921,162261,676662,0
2096921,2096921,161874,676330,0
2096921,2096921,161925,676343,0
2096921,2096921,162190,676389,0
2096921,2096921,162069,676654,0
2096921,2096921,162128,676354,0
2096921,2096921,161944,676509,0
2096921,2096921,161840,676474,0
2096921,2096921,162069,676762,0
2096921,2096921,162175,676571,0
2096921,2096921,162065,676638,0
2096921,2096921,161976,676848,0
2096921,2096921,162132,676927,0
2096921,2096921,162054,676825,0
2096921,2096921,162191,676879,0
2096921,2096921,162188,677014,0
2096921,2096921,162254,676818,0
2096921,2096921,162039,677119,0
2096921,2096921,162218,677195,0
2096921,2096921,162001,677185,0
2096921,2096921,162350,676954,0
2096921,2096921,161832,677251,0
2096921,2096921,161989,676832,0
2096921,2096921,162149,677340,0
2096921,2096921,162292,677276,0
2096921,2096921,162082,677084,0
2096921,2096921,162345,676931,0
2096921,2096921,162077,677309,0
2096921,2096921,162044,677101,0
2096921,2096921,162091,677157,0
2096921,2096921,162103,677167,0
2096921,2096921,161946,676890,0
2096921,2096921,162145,676720,0
2096921,2096921,162403,677060,0
2096921,2096921,162342,677140,0
2096921,2096921,162189,677213,0
2096921,2096921,162354,676993,0
2096921,2096921,162289,677145,0
2096921,2096921,162259,677163,0
2096921,2096921,162319,677143,0
2096921,2096921,162232,676960,0
2096921,2096921,162304,677359,0
2096921,2096921,162226,677494,0
2096921,2096921,162432,677445,0
2096921,2096921,162209,677318,0
2096921,2096921,162147,677314,0
2096921,2096921,162372,677201,0
2096921,2096921,162135,677120,0
2096921,2096921,162321,677199,0
2096921,2096921,162147,677424,0
2096921,2096921,162471,677436,0
2096921,2096921,162296,677424,0
2096921,2096921,162190,677449,0
2096921,2096921,162274,677456,0
2096921,2096921,162335,677330,0
2096921,2096921,162050,677138,0
2096921,2096921,162189,677047,0
2096921,2096921,162393,677510,0
2096921,2096921,162163,677281,0
2096921,2096921,162302,677383,0
2096921,2096921,162325,677612,0
2096921,2096921,162285,677534,0
2096921,2096921,162128,677199,0
2096921,2096921,162159,677305,0
2096921,2096921,162183,677129,0
2096921,2096921,162414,677360,0
2096921,2096921,162125,677353,0
2096921,2096921,162322,677325,0
2096921,2096921,162189,677020,0
2096921,2096921,162392,677319,0
2096921,2096921,162394,677083,0
2096921,2096921,162175,677030,0
2096921,2096921,162260,677250,0
2096921,2096921,162170,677288,0
2096921,2096921,162287,677235,0
2096921,2096921,162254,677402,0
2096921,2096921,162061,677099,0
2096921,2096921,162291,677230,0
2096921,2096921,162218,677156,0
2096921,2096921,162139,677070,0
2096921,2096921,162412,677364,0
2096921,2096921,162300,677072,0
2096921,2096921,162324,677096,0
2096921,2096921,161913,677205,0
2096921,2096921,162133,677373,0
2096921,2096921,162133,676858,0
2096921,2096921,162031,677081,0
2096921,2096921,162110,677025,0
2096921,2096921,162234,676995,0
2096921,2096921,162169,677030,0
2096921,2096921,162274,677070,0
2096921,2096921,162061,676898,0
2096921,2096921,162315,677360,0
2096921,2096921,162169,677310,0
2096921,2096921,162236,677230,0
2096921,2096921,162264,677061,0
2096921,2096921,162000,677046,0
2096921,2096921,162062,676872,0
2096921,2096921,162082,676858,0
2096921,2096921,161963,676958,0
2096921,2096921,162037,676917,0
2096921,2096921,161998,676872,0
2096921,2096921,162130,677044,0
2096921,2096921,161892,676821,0
2096921,2096921,162037,676509,0
2096921,2096921,161883,676723,0
2096921,2096921,161837,676550,0
2096921,2096921,161976,676624,0
2096921,2096921,161927,676656,0
2096921,2096921,161896,676469,0
2096921,2096921,162081,676605,0
2096921,2096921,161998,676618,0
2096921,2096921,162018,676645,0
2096921,2096921,162240,676267,0
2096921,2096921,162199,676210,0
2096921,2096921,161912,676170,0
2096921,2096921,161789,675965,0
2096921,2096921,161654,676177,0
2096921,2096921,161753,676144,0
2096921,2096921,161937,676460,0
2096921,2096921,161879,676293,0
2096921,2096921,161856,676048,0
2096921,2096921,161763,675967,0
2096921,2096921,161711,676048,0
2096921,2096921,161962,676080,0
2096921,2096921,161832,676067,0
2096921,2096921,161978,675931,0
2096921,2096921,161916,675820,0
2096921,2096921,162014,676022,0
2096921,2096921,161745,676238,0
2096921,2096921,161949,675911,0
2096921,2096921,161539,675893,0
2096921,2096921,161882,675830,0
2096921,2096921,161588,675608,0
2096921,2096921,161736,675585,0
2096921,2096921,161762,675511,0
2096921,2096921,161658,675396,0
2096921,2096921,161742,675565,0
2096921,2096921,161713,674801,0
2096921,2096921,161641,675225,0
2096921,2096921,161720,675051,0
2096921,2096921,161591,675092,0
2096921,2096921,161589,675106,0
2096921,2096921,161568,675083,0
2096921,2096921,161480,674628,0
2096921,2096921,161645,675100,0
2096921,2096921,161741,674755,0
2096921,2096921,161575,674984,0
2096921,2096921,161463,674623,0
2096921,2096921,161617,674783,0
2096921,2096921,161609,674737,0
2096921,2096921,161730,674932,0
2096921,2096921,161664,674434,0
2096921,2096921,162152,674418,0
2096921,2096921,161655,674381,0
2096921,2096921,161415,674497,0
2096921,2096921,161408,674637,0
2096921,2096921,161598,674084,0
2096921,2096921,161352,674235,0
2096921,2096921,161473,673949,0
2096921,2096921,161443,674575,0
2096921,2096921,161669,674049,0
2096921,2096921,161284,674123,0
2096921,2096921,161584,674041,0
2096921,2096921,161299,673735,0
2096921,2096921,161423,673529,0
2096921,2096921,161414,673741,0
2096921,2096921,161261,673676,0
2096921,2096921,161241,673529,0
2096921,2096921,161485,673655,0
2096921,2096921,161476,673738,0
2096921,2096921,161621,673384,0
2096921,2096921,161264,673642,0
2096921,2096921,161220,673389,0
2096921,2096921,161363,673634,0
2096921,2096921,161354,673128,0
2096921,2096921,160920,673460,0
2096921,2096921,160921,673265,0
2096921,2096921,161281,673107,0
2096921,2096921,161158,672931,0
2096921,2096921,161248,672999,0
2096921,2096921,161211,672744,0
2096921,2096921,161074,672691,0
2096921,2096921,160892,672650,0
2096921,2096921,161019,672529,0
2096921,2096921,161208,672646,0
2096921,2096921,161047,672682,0
2096921,2096921,160774,672525,0
2096921,2096921,160930,672667,0
2096921,2096921,160974,672528,0
2096921,2096921,160940,672658,0
2096921,2096921,161099,672550,0
2096921,2096921,160746,672393,0
2096921,2096921,160998,672389,0
2096921,2096921,160806,672082,0
2096921,2096921,160686,672140,0
2096921,2096921,160737,672100,0
2096921,2096921,160962,672044,0
2096921,2096921,161134,671901,0
2096921,2096921,161029,671802,0
2096921,2096921,160940,671976,0
2096921,2096921,161248,671942,0
2096921,2096921,160638,672051,0
2096921,2096921,160421,671587,0
2096921,2096921,160716,671585,0
2096921,2096921,160694,671587,0
2096921,2096921,160453,671530,0
2096921,2096921,160612,671720,0
2096921,2096921,160880,671418,0
2096921,2096921,160627,671341,0
2096921,2096921,160458,671245,0
2096921,2096921,160430,671125,0
2096921,2096921,160640,671066,0
2096921,2096921,160478,670720,0
2096921,2096921,160270,670535,0
2096921,2096921,160412,670641,0
2096921,2096921,160730,670732,0
2096921,2096921,160577,670946,0
2096921,2096921,160539,670565,0
2096921,2096921,160620,670465,0
2096921,2096921,160460,670717,0
2096921,2096921,160456,670665,0
2096921,2096921,160495,670416,0
2096921,2096921,160435,670233,0
2096921,2096921,160440,670274,0
2096921,2096921,160212,670122,0
2096921,2096921,160468,670304,0
2096921,2096921,160432,670241,0
2096921,2096921,160385,669803,0
2096921,2096921,160362,669646,0
2096921,2096921,160393,669647,0
2096921,2096921,160158,669742,0
2096921,2096921,160263,669727,0
2096921,2096921,160302,669619,0
2096921,2096921,160190,669231,0
2096921,2096921,160112,669410,0
2096921,2096921,160102,669417,0
2096921,2096921,160048,669416,0
2096921,2096921,159810,669187,0
2096921,2096921,160298,668796,0
2096921,2096921,160207,668904,0
2096921,2096921,160171,669067,0
2096921,2096921,159993,668815,0
2096921,2096921,159931,668531,0
2096921,2096921,160050,668400,0
2096921,2096921,159961,668476,0
2096921,2096921,159710,668420,0
2096921,2096921,159805,668504,0
2096921,2096921,159947,668178,0
2096921,2096921,159961,668113,0
2096921,2096921,159644,668484,0
2096921,2096921,159862,668140,0
2096921,2096921,159986,668026,0
2096921,2096921,159659,667921,0
2096921,2096921,159783,667618,0
2096921,2096921,159587,667898,0
2096921,2096921,159671,667693,0
2096921,2096921,159614,667750,0
2096921,2096921,159720,667551,0
2096921,2096921,159589,667439,0
2096921,2096921,159734,667410,0
2096921,2096921,159656,667497,0
2096921,2096921,159543,667522,0
2096921,2096921,159124,667199,0
2096921,2096921,159529,666649,0
2096921,2096921,159524,666926,0
2096921,2096921,159596,666967,0
2096921,2096921,159487,666915,0
2096921,2096921,159409,666890,0
2096921,2096921,159562,667107,0
2096921,2096921,159613,666706,0
2096921,2096921,159409,666857,0
2096921,2096921,159510,666621,0
2096921,2096921,159363,665928,0
2096921,2096921,159233,665395,0
2096921,2096921,159392,665618,0
2096921,2096921,159028,665438,0
2096921,2096921,158924,665758,0
2096921,2096921,158951,664828,0
2096921,2096921,159171,664712,0
2096921,2096921,159151,664866,0
2096921,2096921,159149,664814,0
2096921,2096921,158968,664554,0
2096921,2096921,158939,663882,0
2096921,2096921,158710,663188,0
2096921,2096921,159007,663024,0
2096921,2096921,158763,663351,0
2096921,2096921,158460,663502,0
2096921,2096921,158354,662259,0
2096921,2096921,158411,662077,0
2096921,2096921,158491,661889,0
2096921,2096921,158442,661763,0
2096921,2096921,157989,662089,0
2096921,2096921,158007,660740,0
2096921,2096921,157767,660496,0
2096921,2096921,157817,660209,0
2096921,2096921,157567,660224,0
2096921,2096921,157418,659578,0
2096921,2096921,157499,657410,0
2096921,2096921,157217,656885,0
2096921,2096921,157381,656877,0
2096921,2096921,156892,656976,0
2096921,2096921,156241,656773,0
2096921,2096921,156050,653316,0
2096921,2096921,155983,652700,0
2096921,2096921,155949,652637,0
2096921,2096921,156141,652379,0
2096921,2096921,155329,652630,0
2096921,2096921,155372,650391,0
2096921,2096921,155313,650062,0
2096921,2096921,155264,649462,0
2096921,2096921,155265,649708,0
2096921,2096921,154948,649516,0
2096921,2096921,154828,647849,0
2096921,2096921,154527,647129,0
2096921,2096921,154728,647075,0
2096921,2096921,154759,646826,0
2096921,2096921,154323,646976,0
2096921,2096921,154373,645303,0
2096921,2096921,154221,645326,0
2096921,2096921,154353,645619,0
2096921,2096921,154484,645343,0
2096921,2096921,154046,645307,0
2096921,2096921,154211,644277,0
2096921,2096921,153984,643769,0
2096921,2096921,153720,643958,0
2096921,2096921,153821,643854,0
2096921,2096921,154049,643915,0
2096921,2096921,153583,643315,0
2096921,2096921,153773,642790,0
2096921,2096921,153657,642719,0
2096921,2096921,153791,642978,0
2096921,2096921,153528,642865,0
2096921,2096921,153591,642061,0
2096921,2096921,153622,642319,0
2096921,2096921,153748,641853,0
2096921,2096921,153687,642084,0
2096921,2096921,153411,641868,0
2096921,2096921,153440,641887,0
2096921,2096921,153206,641563,0
2096921,2096921,153214,641761,0
2096921,2096921,153557,641528,0
2096921,2096921,153504,641680,0
2096921,2096921,153214,641659,0
2096921,2096921,153340,641398,0
2096921,2096921,153287,641198,0
2096921,2096921,153328,641516,0
2096921,2096921,153230,641506,0
2096921,2096921,153455,641353,0
2096921,2096921,153453,641515,0
2096921,2096921,153190,641681,0
2096921,2096921,153204,641758,0
2096921,2096921,153125,641499,0
2096921,2096921,153200,641557,0
2096921,2096921,153281,641298,0
2096921,2096921,152982,641427,0
2096921,2096921,152929,641262,0
2096921,2096921,153018,641134,0
2096921,2096921,153095,641259,0
2096921,2096921,153358,641620,0
2096921,2096921,153351,641222,0
2096921,2096921,153477,641672,0
2096921,2096921,153518,641454,0
2096921,2096921,153176,641657,0
2096921,2096921,153184,641722,0
2096921,2096921,153528,641764,0
2096921,2096921,153524,641744,0
2096921,2096921,153402,641877,0
2096921,2096921,153308,642238,0
2096921,2096921,153409,642149,0
2096921,2096921,153449,642373,0
2096921,2096921,153616,642235,0
2096921,2096921,153410,641944,0
2096921,2096921,153474,642554,0
2096921,2096921,153463,642539,0
2096921,2096921,153740,642509,0
2096921,2096921,153497,642876,0
2096921,2096921,153734,642739,0
2096921,2096921,153669,643008,0
2096921,2096921,153684,643216,0
2096921,2096921,153645,643108,0
2096921,2096921,153829,643099,0
2096921,2096921,154191,643131,0
2096921,2096921,154081,643421,0
2096921,2096921,153830,643572,0
2096921,2096921,153858,643322,0
2096921,2096921,153951,643656,0
2096921,2096921,154042,643631,0
2096921,2096921,154176,644183,0
2096921,2096921,153967,644050,0
2096921,2096921,153996,644221,0
2096921,2096921,153956,644137,0
2096921,2096921,154471,644230,0
2096921,2096921,154095,644465,0
2096921,2096921,153928,644681,0
2096921,2096921,154068,644472,0
2096921,2096921,154230,644363,0
2096921,2096921,153977,644368,0
2096921,2096921,154122,645004,0
2096921,2096921,154230,645057,0
2096921,2096921,154255,644973,0
2096921,2096921,154193,645129,0
2096921,2096921,154159,645031,0
2096921,2096921,154182,645486,0
2096921,2096921,154232,645421,0
2096921,2096921,154378,645441,0
2096921,2096921,154201,645315,0
2096921,2096921,154884,645360,0
2096921,2096921,154498,646234,0
2096921,2096921,154656,646279,0
2096921,2096921,154514,646361,0
2096921,2096921,154505,646108,0
2096921,2096921,154570,646201,0
2096921,2096921,154607,647027,0
2096921,2096921,154638,646601,0
2096921,2096921,154652,646826,0
2096921,2096921,154582,646681,0
2096921,2096921,154544,646621,0
2096921,2096921,154350,647364,0
2096921,2096921,154557,647220,0
2096921,2096921,154752,647224,0
2096921,2096921,154560,647127,0
2096921,2096921,154756,647375,0
2096921,2096921,154549,647546,0
2096921,2096921,154741,647516,0
2096921,2096921,155024,647587,0
2096921,2096921,155052,647648,0
2096921,2096921,154919,647886,0
2096921,2096921,155105,648222,0
2096921,2096921,154826,648124,0
2096921,2096921,154800,648430,0
2096921,2096921,154929,648327,0
2096921,2096921,154827,648297,0
2096921,2096921,155020,648430,0
2096921,2096921,154957,648216,0
2096921,2096921,154999,648336,0
2096921,2096921,154974,648635,0
2096921,2096921,155381,648657,0
2096921,2096921,155155,648267,0
2096921,2096921,155286,648764,0
2096921,2096921,155431,648667,0
2096921,2096921,154971,648742,0
2096921,2096921,155139,648707,0
2096921,2096921,155190,648927,0
2096921,2096921,155035,648836,0
2096921,2096921,154973,648869,0
2096921,2096921,154959,648792,0
2096921,2096921,155204,648641,0
2096921,2096921,155156,648716,0
2096921,2096921,154864,648682,0
2096921,2096921,155006,648864,0
2096921,2096921,155046,648899,0
2096921,2096921,154918,648694,0
2096921,2096921,154980,648458,0
2096921,2096921,154761,649065,0
2096921,2096921,154955,648941,0
2096921,2096921,155059,648450,0
2096921,2096921,154946,648552,0
2096921,2096921,154910,648423,0
2096921,2096921,155132,648323,0
2096921,2096921,155198,648564,0
2096921,2096921,155441,648454,0
2096921,2096921,155015,648607,0
2096921,2096921,155001,648414,0
2096921,2096921,155152,648340,0
2096921,2096921,155086,648292,0
2096921,2096921,154940,647984,0
2096921,2096921,154593,648125,0
2096921,2096921,154814,647723,0
2096921,2096921,154890,647970,0
2096921,2096921,154955,648207,0
2096921,2096921,154839,647919,0
2096921,2096921,154779,648210,0
2096921,2096921,154908,648094,0
2096921,2096921,155018,647929,0
2096921,2096921,154802,647676,0
2096921,2096921,154805,647984,0
2096921,2096921,154607,647912,0
2096921,2096921,154702,647775,0
2096921,2096921,154966,647867,0
2096921,2096921,154679,647512,0
2096921,2096921,154717,647897,0
2096921,2096921,154556,647660,0
2096921,2096921,154835,647696,0
2096921,2096921,154708,647695,0
2096921,2096921,154697,647833,0
2096921,2096921,154742,647778,0
2096921,2096921,154928,647605,0
2096921,2096921,154944,647618,0
2096921,2096921,155123,647416,0
2096921,2096921,154720,647672,0
2096921,2096921,154993,647609,0
2096921,2096921,154828,647734,0
2096921,2096921,154935,647679,0
2096921,2096921,154608,647696,0
2096921,2096921,154765,647567,0
2096921,2096921,154637,647880,0
2096921,2096921,154744,647633,0
2096921,2096921,154777,647893,0
2096921,2096921,154835,648044,0
2096921,2096921,154993,648014,0
2096921,2096921,154921,647719,0
2096921,2096921,154927,648036,0
2096921,2096921,154947,647988,0
2096921,2096921,154823,648272,0
2096921,2096921,154796,648088,0
2096921,2096921,155079,648261,0
2096921,2096921,154896,648044,0
2096921,2096921,155227,648291,0
2096921,2096921,155050,648709,0
2096921,2096921,155007,648558,0
2096921,2096921,155060,648551,0
2096921,2096921,155150,648643,0
2096921,2096921,155213,649162,0
2096921,2096921,155115,649181,0
2096921,2096921,154942,649006,0
2096921,2096921,154904,649264,0
2096921,2096921,154916,649060,0
2096921,2096921,155241,649651,0
2096921,2096921,155194,649615,0
2096921,2096921,155124,649760,0
2096921,2096921,155174,649510,0
2096921,2096921,155376,649487,0
2096921,2096921,155255,650057,0
2096921,2096921,155440,649784,0
2096921,2096921,155517,650238,0
2096921,2096921,155542,649812,0
2096921,2096921,155253,649925,0
2096921,2096921,155707,650225,0
2096921,2096921,155568,650292,0
2096921,2096921,155292,650584,0
2096921,2096921,155564,650491,0
2096921,2096921,155295,650432,0
2096921,2096921,155637,650763,0
2096921,2096921,155555,650655,0
2096921,2096921,155539,650751,0
2096921,2096921,155442,650576,0
2096921,2096921,155406,650608,0
2096921,2096921,155792,650987,0
2096921,2096921,155586,651005,0
2096921,2096921,155562,651131,0
2096921,2096921,155599,651224,0
2096921,2096921,155824,651076,0
2096921,2096921,155539,651469,0
2096921,2096921,155637,651539,0
2096921,2096921,155332,651459,0
2096921,2096921,155468,651665,0
2096921,2096921,155741,651552,0
2096921,2096921,155995,651497,0
2096921,2096921,155968,651436,0
2096921,2096921,155964,652147,0
2096921,2096921,155564,651689,0
2096921,2096921,155892,651749,0
2096921,2096921,155938,652355,0
2096921,2096921,156013,652516,0
2096921,2096921,155940,652272,0
2096921,2096921,155700,652098,0
2096921,2096921,155760,652153,0
2096921,2096921,155927,652627,0
2096921,2096921,156168,652372,0
2096921,2096921,156012,652474,0
2096921,2096921,155853,652747,0
2096921,2096921,156194,652854,0
2096921,2096921,155936,652679,0
2096921,2096921,156064,652993,0
2096921,2096921,155896,652698,0
2096921,2096921,156179,652937,0
2096921,2096921,155845,652945,0
2096921,2096921,156218,653323,0
2096921,2096921,156083,653137,0
2096921,2096921,156233,653284,0
2096921,2096921,156283,653425,0
2096921,2096921,156254,653530,0
2096921,2096921,156304,653756,0
2096921,2096921,155983,653813,0
2096921,2096921,156135,653495,0
2096921,2096921,156022,653567,0
2096921,2096921,156194,653457,0
2096921,2096921,156434,654211,0
2096921,2096921,156288,653784,0
2096921,2096921,156441,654343,0
2096921,2096921,156591,654012,0
2096921,2096921,156713,653976,0
2096921,2096921,156461,654286,0
2096921,2096921,156633,654453,0
2096921,2096921,156521,654319,0
2096921,2096921,156295,654256,0
2096921,2096921,156471,654492,0
2096921,2096921,156430,654859,0
2096921,2096921,156577,654624,0
2096921,2096921,156733,654542,0
2096921,2096921,156748,654847,0
2096921,2096921,156552,654846,0
2096921,2096921,156430,654962,0
2096921,2096921,156544,654722,0
2096921,2096921,156619,654722,0
2096921,2096921,156793,654912,0
2096921,2096921,156900,655153,0
2096921,2096921,156711,655122,0
2096921,2096921,156664,655133,0
2096921,2096921,156562,654871,0
2096921,2096921,156719,655209,0
2096921,2096921,156731,655178,0
2096921,2096921,156519,655728,0
2096921,2096921,156601,655331,0
2096921,2096921,156676,655760,0
2096921,2096921,156709,655410,0
2096921,2096921,156907,655441,0
2096921,2096921,156758,655940,0
2096921,2096921,156944,655916,0
2096921,2096921,156704,655764,0
2096921,2096921,156748,655839,0
2096921,2096921,156588,655962,0
2096921,2096921,156661,655858,0
2096921,2096921,156601,655838,0
2096921,2096921,156915,656014,0
2096921,2096921,156567,656159,0
2096921,2096921,156738,655954,0
2096921,2096921,156817,656129,0
2096921,2096921,157015,656245,0
2096921,2096921,156923,656508,0
2096921,2096921,156867,656173,0
2096921,2096921,157048,656341,0
2096921,2096921,156892,656617,0
2096921,2096921,157016,656816,0
2096921,2096921,157010,656805,0
2096921,2096921,156986,656903,0
2096921,2096921,157146,656857,0
2096921,2096921,157082,657000,0
2096921,2096921,156826,657060,0
2096921,2096921,156901,656963,0
2096921,2096921,157052,657020,0
2096921,2096921,157244,656988,0
2096921,2096921,156895,656985,0
2096921,2096921,157036,657221,0
2096921,2096921,156993,657066,0
2096921,2096921,156993,657074,0
2096921,2096921,156880,657209,0
2096921,2096921,157292,657506,0
2096921,2096921,157220,657440,0
2096921,2096921,157268,657521,0
2096921,2096921,157368,657749,0
2096921,2096921,157435,657689,0
2096921,2096921,157265,657990,0
2096921,2096921,157245,658003,0
2096921,2096921,157312,658109,0
2096921,2096921,157430,658024,0
2096921,2096921,157407,657951,0
2096921,2096921,157360,658015,0
2096921,2096921,157036,658040,0
2096921,2096921,157283,658196,0
2096921,2096921,157595,658315,0
2096921,2096921,157249,658037,0
2096921,2096921,157307,658317,0
2096921,2096921,157227,658485,0
2096921,2096921,157249,658446,0
2096921,2096921,157368,658318,0
2096921,2096921,157545,658331,0
2096921,2096921,157603,658491,0
2096921,2096921,157545,658659,0
2096921,2096921,157634,658608,0
2096921,2096921,157702,658678,0
2096921,2096921,157423,658466,0
2096921,2096921,157486,659187,0
2096921,2096921,157785,658811,0
2096921,2096921,157609,659164,0
2096921,2096921,158055,659013,0
2096921,2096921,157804,659001,0
2096921,2096921,157620,659179,0
2096921,2096921,157832,659260,0
2096921,2096921,157647,659066,0
2096921,2096921,157438,659346,0
2096921,2096921,157740,659287,0
2096921,2096921,157590,659212,0
2096921,2096921,157594,659550,0
2096921,2096921,157695,659516,0
2096921,2096921,157718,659342,0
2096921,2096921,157821,659563,0
2096921,2096921,157824,659865,0
2096921,2096921,158087,659715,0
2096921,2096921,157914,659918,0
2096921,2096921,157978,659724,0
2096921,2096921,158085,659682,0
2096921,2096921,157785,660052,0
2096921,2096921,157786,660083,0
2096921,2096921,157629,660170,0
2096921,2096921,157754,660133,0
2096921,2096921,157928,660179,0
2096921,2096921,158082,660467,0
2096921,2096921,157621,660600,0
2096921,2096921,157886,660571,0
2096921,2096921,158026,660702,0
2096921,2096921,158201,660620,0
2096921,2096921,158324,660883,0
2096921,2096921,158123,660801,0
2096921,2096921,158143,660855,0
2096921,2096921,158144,660952,0
2096921,2096921,158154,660790,0
2096921,2096921,157870,660977,0
2096921,2096921,157986,660787,0
2096921,2096921,158111,660860,0
2096921,2096921,158268,660723,0
2096921,2096921,157835,661027,0
2096921,2096921,157836,661198,0
2096921,2096921,158080,661246,0
2096921,2096921,158181,661183,0
2096921,2096921,158346,661317,0
2096921,2096921,158063,661104,0
2096921,2096921,158167,661329,0
2096921,2096921,158184,661347,0
2096921,2096921,158129,661693,0
2096921,2096921,157971,661440,0
2096921,2096921,158200,661814,0
2096921,2096921,158499,661892,0
2096921,2096921,158231,661941,0
2096921,2096921,158502,661522,0
2096921,2096921,158312,661763,0
2096921,2096921,158265,661741,0
2096921,2096921,158314,662172,0
2096921,2096921,158225,661890,0
2096921,2096921,158371,661948,0
2096921,2096921,158305,661986,0
2096921,2096921,158230,662273,0
2096921,2096921,158515,662373,0
2096921,2096921,158439,662628,0
2096921,2096921,158362,662303,0
2096921,2096921,158403,662509,0
2096921,2096921,158398,662531,0
2096921,2096921,158309,662905,0
2096921,2096921,158258,662692,0
2096921,2096921,158482,662914,0
2096921,2096921,158354,662994,0
2096921,2096921,158647,662952,0
2096921,2096921,158413,663009,0
2096921,2096921,158742,663255,0
2096921,2096921,158798,663078,0
2096921,2096921,158318,662988,0
2096921,2096921,159017,662936,0
2096921,2096921,158865,663358,0
2096921,2096921,158780,663523,0
2096921,2096921,158966,663605,0
2096921,2096921,158892,663700,0
2096921,2096921,158853,663171,0
2096921,2096921,158895,663675,0
2096921,2096921,158774,663534,0
2096921,2096921,158861,663633,0
2096921,2096921,158604,663911,0
2096921,2096921,158622,663823,0
2096921,2096921,158817,664120,0
2096921,2096921,158939,663946,0
2096921,2096921,158912,663943,0
2096921,2096921,158842,663549,0
2096921,2096921,158971,663818,0
2096921,2096921,158868,663880,0
2096921,2096921,158465,664167,0
2096921,2096921,158753,664316,0
2096921,2096921,159019,664411,0
2096921,2096921,158921,664223,0
2096921,2096921,158741,664681,0
2096921,2096921,158888,664775,0
2096921,2096921,159011,664770,0
2096921,2096921,159109,664646,0
2096921,2096921,159249,664675,0
2096921,2096921,158819,664603,0
2096921,2096921,158868,665076,0
2096921,2096921,158872,664968,0
2096921,2096921,158677,664801,0
2096921,2096921,158944,664931,0
2096921,2096921,159036,665119,0
2096921,2096921,158969,665366,0
2096921,2096921,159225,665516,0
2096921,2096921,159180,665294,0
2096921,2096921,159160,665279,0
2096921,2096921,158968,664961,0
2096921,2096921,158854,664993,0
2096921,2096921,158975,664919,0
2096921,2096921,159148,665041,0
2096921,2096921,159205,664796,0
2096921,2096921,158871,664749,0
2096921,2096921,159001,664881,0
2096921,2096921,159268,664638,0
2096921,2096921,159040,664484,0
2096921,2096921,158797,664614,0
2096921,2096921,159101,664201,0
2096921,2096921,158739,663924,0
2096921,2096921,158623,663973,0
2096921,2096921,158980,663790,0
2096921,2096921,158753,663933,0
2096921,2096921,158753,663251,0
2096921,2096921,158532,663447,0
2096921,2096921,158599,663298,0
2096921,2096921,158742,663361,0
2096921,2096921,158409,663034,0
2096921,2096921,158694,662201,0
2096921,2096921,158197,662500,0
2096921,2096921,158345,662312,0
2096921,2096921,158311,662159,0
2096921,2096921,157670,662231,0
2096921,2096921,157671,659829,0
2096921,2096921,157859,659360,0
2096921,2096921,157784,659310,0
2096921,2096921,157745,659861,0
2096921,2096921,157213,659546,0
2096921,2096921,156767,656588,0
2096921,2096921,156617,655914,0
2096921,2096921,156870,655935,0
2096921,2096921,156885,656057,0
2096921,2096921,156294,656170,0
2096921,2096921,156242,654043,0
2096921,2096921,156226,653727,0
2096921,2096921,156180,653645,0
2096921,2096921,156183,653739,0
2096921,2096921,155908,653626,0
2096921,2096921,155611,652241,0
2096921,2096921,155743,651865,0
2096921,2096921,155871,651943,0
2096921,2096921,155907,651669,0
2096921,2096921,155541,652100,0
2096921,2096921,155490,650808,0
2096921,2096921,155810,650820,0
2096921,2096921,155640,650256,0
2096921,2096921,155490,650257,0
2096921,2096921,155462,650568,0
2096921,2096921,155207,649939,0
2096921,2096921,155309,649968,0
2096921,2096921,155519,649762,0
2096921,2096921,155355,649512,0
2096921,2096921,155093,649566,0
2096921,2096921,155323,649620,0
2096921,2096921,155239,649558,0
2096921,2096921,155007,649528,0
2096921,2096921,155046,649545,0
2096921,2096921,155283,649603,0
2096921,2096921,155240,649381,0
2096921,2096921,155247,649118,0
2096921,2096921,155044,649180,0
2096921,2096921,155292,649323,0
2096921,2096921,155520,649444,0
2096921,2096921,155499,649457,0
2096921,2096921,155582,649617,0
2096921,2096921,155695,649661,0
2096921,2096921,155500,649745,0
2096921,2096921,155329,649659,0
2096921,2096921,155411,650051,0
2096921,2096921,155388,649985,0
2096921,2096921,155408,649849,0
2096921,2096921,155357,650095,0
2096921,2096921,155783,649622,0
2096921,2096921,155492,650368,0
2096921,2096921,155460,650672,0
2096921,2096921,155475,650589,0
2096921,2096921,155473,650802,0
2096921,2096921,155826,650414,0
2096921,2096921,156027,650953,0
2096921,2096921,155534,651178,0
2096921,2096921,155551,651505,0
2096921,2096921,155818,651233,0
2096921,2096921,155795,651198,0
2096921,2096921,155786,651712,0
2096921,2096921,155908,651921,0
2096921,2096921,155892,651862,0
2096921,2096921,155822,651919,0
2096921,2096921,156009,651876,0
2096921,2096921,156405,652710,0
2096921,2096921,156134,652686,0
2096921,2096921,156136,653180,0
2096921,2096921,155943,652883,0
2096921,2096921,156452,652915,0
2096921,2096921,156570,653817,0
2096921,2096921,156500,653904,0
2096921,2096921,156613,654067,0
2096921,2096921,156246,654126,0
2096921,2096921,156789,654024,0
2096921,2096921,156957,654671,0
2096921,2096921,156582,654654,0
2096921,2096921,156606,655090,0
2096921,2096921,156809,655107,0
2096921,2096921,157157,655017,0
2096921,2096921,156935,655878,0
2096921,2096921,156996,655933,0
2096921,2096921,157069,656062,0
2096921,2096921,157031,656213,0
2096921,2096921,157441,656246,0
2096921,2096921,157306,657137,0
2096921,2096921,157265,656985,0
2096921,2096921,157266,657196,0
2096921,2096921,157408,657219,0
2096921,2096921,157490,656920,0
2096921,2096921,157618,658117,0
2096921,2096921,157415,658233,0
2096921,2096921,157559,657974,0
2096921,2096921,157577,658199,0
2096921,2096921,157714,658254,0
2096921,2096921,157643,659043,0
2096921,2096921,157550,659366,0
2096921,2096921,157778,659274,0
2096921,2096921,157647,659224,0
2096921,2096921,157749,659116,0
2096921,2096921,157896,660066,0
2096921,2096921,158020,660349,0
2096921,2096921,158355,660204,0
2096921,2096921,158421,660434,0
2096921,2096921,158091,660519,0
2096921,2096921,158464,661305,0
2096921,2096921,158164,661167,0
2096921,2096921,158216,661572,0
2096921,2096921,158403,661421,0
2096921,2096921,158457,661362,0
2096921,2096921,158583,662597,0
2096921,2096921,158426,662711,0
2096921,2096921,158449,662482,0
2096921,2096921,158535,662493,0
2096921,2096921,158753,662260,0
2096921,2096921,158589,663068,0
2096921,2096921,158993,663594,0
2096921,2096921,158787,663807,0
2096921,2096921,158669,663861,0
2096921,2096921,159118,663761,0
2096921,2096921,159244,664264,0
2096921,2096921,159150,664490,0
2096921,2096921,158894,664660,0
2096921,2096921,159094,664797,0
2096921,2096921,159318,664679,0
2096921,2096921,159544,665580,0
2096921,2096921,159543,665580,0
2096921,2096921,159156,665738,0
2096921,2096921,159273,665650,0
2096921,2096921,159597,665778,0
2096921,2096921,159557,666864,0
2096921,2096921,159312,666786,0
2096921,2096921,159605,666771,0
2096921,2096921,159701,666529,0
2096921,2096921,159578,666558,0
2096921,2096921,159869,667433,0
2096921,2096921,159906,667323,0
2096921,2096921,159717,667335,0
2096921,2096921,159769,667389,0
2096921,2096921,159883,667436,0
2096921,2096921,159879,668020,0
2096921,2096921,159929,668086,0
2096921,2096921,159895,668288,0
2096921,2096921,159953,668246,0
2096921,2096921,160103,668193,0
2096921,2096921,160175,668547,0
2096921,2096921,159941,668941,0
2096921,2096921,160053,668909,0
2096921,2096921,160139,668903,0
2096921,2096921,160202,668719,0
2096921,2096921,159854,669260,0
2096921,2096921,160212,669350,0
2096921,2096921,160349,669290,0
2096921,2096921,160097,669323,0
2096921,2096921,160354,669286,0
2096921,2096921,160093,669375,0
2096921,2096921,160483,669726,0
2096921,2096921,160017,669459,0
2096921,2096921,159966,669460,0
2096921,2096921,160273,669453,0
2096921,2096921,160203,670069,0
2096921,2096921,160464,670325,0
2096921,2096921,160464,669899,0
2096921,2096921,160426,669895,0
2096921,2096921,160495,669842,0
2096921,2096921,160374,670010,0
2096921,2096921,160421,669969,0
2096921,2096921,160126,669942,0
2096921,2096921,160704,670118,0
2096921,2096921,160508,669994,0
2096921,2096921,160632,670267,0
2096921,2096921,160616,670301,0
2096921,2096921,160892,670331,0
2096921,2096921,160484,670385,0
2096921,2096921,160473,670182,0
2096921,2096921,160772,670778,0
2096921,2096921,160650,670520,0
2096921,2096921,160490,670382,0
2096921,2096921,160476,670345,0
2096921,2096921,160452,670320,0
2096921,2096921,160604,670636,0
2096921,2096921,160458,670816,0
2096921,2096921,160336,670793,0
2096921,2096921,160762,670607,0
2096921,2096921,160660,670727,0
2096921,2096921,160755,670882,0
2096921,2096921,160726,671023,0
2096921,2096921,160601,671129,0
2096921,2096921,160473,671005,0
2096921,2096921,160925,671047,0
2096921,2096921,160747,671343,0
2096921,2096921,160527,671443,0
2096921,2096921,160650,671736,0
2096921,2096921,160862,671619,0
2096921,2096921,160650,671326,0
2096921,2096921,160874,671645,0
2096921,2096921,160903,671843,0
2096921,2096921,161107,671697,0
2096921,2096921,161053,671550,0
2096921,2096921,160866,671798,0
2096921,2096921,160891,672114,0
2096921,2096921,161057,672347,0
2096921,2096921,160836,672404,0
2096921,2096921,161009,672376,0
2096921,2096921,160997,672378,0
2096921,2096921,161041,673211,0
2096921,2096921,161021,673110,0
2096921,2096921,161357,672948,0
2096921,2096921,161501,672959,0
2096921,2096921,161464,673129,0
2096921,2096921,161591,673782,0
2096921,2096921,161484,673836,0
2096921,2096921,161482,673999,0
2096921,2096921,161527,674170,0
2096921,2096921,161370,673815,0
2096921,2096921,161573,674401,0
2096921,2096921,161663,674508,0
2096921,2096921,161534,674997,0
2096921,2096921,161640,674966,0
2096921,2096921,161780,674705,0
2096921,2096921,161762,675472,0
2096921,2096921,162000,675606,0
2096921,2096921,162076,675707,0
2096921,2096921,161828,675903,0
2096921,2096921,162080,675616,0
2096921,2096921,162101,676346,0
2096921,2096921,162170,676802,0
2096921,2096921,162172,676593,0
2096921,2096921,161991,676563,0
2096921,2096921,162035,676601,0
2096921,2096921,162251,676965,0
2096921,2096921,162137,677171,0
2096921,2096921,162047,677292,0
2096921,2096921,162238,677254,0
2096921,2096921,162081,677164,0
2096921,2096921,162133,677751,0
2096921,2096921,161935,678063,0
2096921,2096921,162341,677860,0
2096921,2096921,162435,677786,0
2096921,2096921,162449,677731,0
2096921,2096921,162481,678550,0
2096921,2096921,162256,678453,0
2096921,2096921,162639,678631,0
2096921,2096921,162475,678418,0
2096921,2096921,162892,678889,0
2096921,2096921,162803,679303,0
2096921,2096921,162789,679311,0
2096921,2096921,162746,679391,0
2096921,2096921,162692,679379,0
2096921,2096921,162727,679441,0
2096921,2096921,162996,680086,0
2096921,2096921,163003,679928,0
2096921,2096921,163088,680063,0
2096921,2096921,163123,680189,0
2096921,2096921,163307,680372,0
2096921,2096921,163106,680620,0
2096921,2096921,163240,680885,0
2096921,2096921,162990,680453,0
2096921,2096921,162810,680628,0
2096921,2096921,163373,680768,0
2096921,2096921,163302,681412,0
2096921,2096921,163238,681568,0
2096921,2096921,163315,681773,0
2096921,2096921,163412,681502,0
2096921,2096921,163492,681961,0
2096921,2096921,163614,682165,0
2096921,2096921,163467,682274,0
2096921,2096921,163483,682296,0
2096921,2096921,163605,682377,0
2096921,2096921,163586,682059,0
2096921,2096921,163553,682513,0
2096921,2096921,163776,682871,0
2096921,2096921,163610,682842,0
2096921,2096921,163575,682729,0
2096921,2096921,163565,682658,0
2096921,2096921,163751,683438,0
2096921,2096921,163597,683165,0
2096921,2096921,163813,683312,0
2096921,2096921,163425,683039,0
2096921,2096921,163740,683213,0
2096921,2096921,163872,683931,0
2096921,2096921,164200,684344,0
2096921,2096921,164094,684195,0
2096921,2096921,163982,684261,0
2096921,2096921,164069,683971,0
2096921,2096921,163860,684503,0
2096921,2096921,163904,684691,0
2096921,2096921,163886,684264,0
2096921,2096921,163934,684769,0
2096921,2096921,164171,684752,0
2096921,2096921,164051,685235,0
2096921,2096921,164347,685339,0
2096921,2096921,164287,684969,0
2096921,2096921,163944,685284,0
2096921,2096921,164366,685287,0
2096921,2096921,164501,685617,0
2096921,2096921,164355,685764,0
2096921,2096921,164184,685950,0
2096921,2096921,164539,685807,0
2096921,2096921,164377,685592,0
2096921,2096921,164429,686288,0
2096921,2096921,164708,686381,0
2096921,2096921,164691,686164,0
2096921,2096921,164442,686475,0
2096921,2096921,164901,686152,0
2096921,2096921,164567,686860,0
2096921,2096921,164627,687114,0
2096921,2096921,164492,687085,0
2096921,2096921,164326,686734,0
2096921,2096921,164611,686890,0
2096921,2096921,164707,687434,0
2096921,2096921,164885,687194,0
2096921,2096921,164610,687602,0
2096921,2096921,164744,687504,0
2096921,2096921,164801,687466,0
2096921,2096921,164677,687795,0
2096921,2096921,164806,688018,0
2096921,2096921,164708,687474,0
2096921,2096921,164722,687652,0
2096921,2096921,164896,687792,0
2096921,2096921,164861,688509,0
2096921,2096921,164913,688306,0
2096921,2096921,164916,688407,0
2096921,2096921,164967,688416,0
2096921,2096921,165148,688656,0
2096921,2096921,165019,688947,0
2096921,2096921,164971,688665,0
2096921,2096921,165246,688784,0
2096921,2096921,165173,688671,0
2096921,2096921,165508,688404,0
2096921,2096921,165292,689091,0
2096921,2096921,165212,689165,0
2096921,2096921,165429,689210,0
2096921,2096921,165012,689188,0
2096921,2096921,165333,689036,0
2096921,2096921,165292,689622,0
2096921,2096921,165434,689779,0
2096921,2096921,165247,689488,0
2096921,2096921,165704,689402,0
2096921,2096921,165268,689572,0
2096921,2096921,165528,689959,0
2096921,2096921,165321,689902,0
2096921,2096921,165252,689824,0
2096921,2096921,165377,690048,0
2096921,2096921,165578,689943,0
2096921,2096921,165427,690322,0
2096921,2096921,165470,690291,0
2096921,2096921,165356,690105,0
2096921,2096921,165515,690096,0
2096921,2096921,165435,690343,0
2096921,2096921,165572,690199,0
2096921,2096921,165731,690896,0
2096921,2096921,165849,690875,0
2096921,2096921,165722,690655,0
2096921,2096921,165628,690770,0
2096921,2096921,165684,690948,0
2096921,2096921,165711,690769,0
2096921,2096921,165510,691040,0
2096921,2096921,165620,690976,0
2096921,2096921,165670,690936,0
2096921,2096921,165494,691213,0
2096921,2096921,165551,691463,0
2096921,2096921,165719,691292,0
2096921,2096921,165670,691504,0
2096921,2096921,165870,691452,0
2096921,2096921,165831,691443,0
2096921,2096921,165887,691487,0
2096921,2096921,166002,691274,0
2096921,2096921,165843,691251,0
2096921,2096921,166044,691526,0
2096921,2096921,165871,691632,0
2096921,2096921,165796,691730,0
2096921,2096921,165857,691831,0
2096921,2096921,165743,691913,0
2096921,2096921,165742,691751,0
2096921,2096921,165431,692028,0
2096921,2096921,165887,691580,0
2096921,2096921,165625,691510,0
2096921,2096921,165842,691574,0
2096921,2096921,165684,691537,0
2096921,2096921,165630,691940,0
2096921,2096921,165850,692169,0
2096921,2096921,165928,691776,0
2096921,2096921,165784,692208,0
2096921,2096921,165526,692597,0
2096921,2096921,165780,692285,0
2096921,2096921,165966,692181,0
2096921,2096921,165756,692316,0
2096921,2096921,165785,692284,0
2096921,2096921,165888,692393,0
2096921,2096921,165941,692427,0
2096921,2096921,165797,692441,0
2096921,2096921,166027,692371,0
2096921,2096921,166348,692520,0
2096921,2096921,166345,692639,0
2096921,2096921,166406,692434,0
2096921,2096921,166107,692814,0
2096921,2096921,166224,692798,0
2096921,2096921,166057,693057,0
2096921,2096921,166095,692654,0
2096921,2096921,166101,692954,0
2096921,2096921,166089,692623,0
2096921,2096921,165820,692909,0
2096921,2096921,166032,693018,0
2096921,2096921,166284,692944,0
2096921,2096921,166309,693002,0
2096921,2096921,166217,693194,0
2096921,2096921,166041,692921,0
2096921,2096921,166105,693296,0
2096921,2096921,166228,693045,0
2096921,2096921,166192,693203,0
2096921,2096921,166082,693305,0
2096921,2096921,166096,693467,0
2096921,2096921,166035,693071,0
2096921,2096921,166139,693447,0
2096921,2096921,166376,693311,0
2096921,2096921,166266,693057,0
2096921,2096921,166478,693042,0
2096921,2096921,166186,693635,0
2096921,2096921,166195,693494,0
2096921,2096921,166140,693488,0
2096921,2096921,166172,693486,0
2096921,2096921,166387,693735,0
2096921,2096921,166245,693578,0
2096921,2096921,166212,693559,0
2096921,2096921,166237,693559,0
2096921,2096921,166152,693515,0
2096921,2096921,166217,693607,0
2096921,2096921,165996,693450,0
2096921,2096921,166134,693386,0
2096921,2096921,166077,693479,0
2096921,2096921,166361,693733,0
2096921,2096921,166202,693658,0
2096921,2096921,166384,693566,0
2096921,2096921,166233,693340,0
2096921,2096921,166231,693371,0
2096921,2096921,166161,693243,0
2096921,2096921,166145,693158,0
2096921,2096921,166353,693671,0
2096921,2096921,166293,693456,0
2096921,2096921,166346,693361,0
2096921,2096921,166274,693616,0
2096921,2096921,166331,693546,0
2096921,2096921,166326,693597,0
2096921,2096921,166089,693492,0
2096921,2096921,166414,693512,0
2096921,2096921,166145,693473,0
2096921,2096921,166172,693706,0
2096921,2096921,166152,693577,0
2096921,2096921,166158,693525,0
2096921,2096921,166320,693614,0
2096921,2096921,166207,693335,0
2096921,2096921,166309,693751,0
2096921,2096921,166418,693527,0
2096921,2096921,166251,693540,0
2096921,2096921,166336,693363,0
2096921,2096921,166403,693573,0
2096921,2096921,166008,693405,0
2096921,2096921,166346,693438,0
2096921,2096921,166141,693454,0
2096921,2096921,166292,693677,0
2096921,2096921,166201,693904,0
2096921,2096921,166044,693505,0
2096921,2096921,166206,693758,0
2096921,2096921,166465,693864,0
2096921,2096921,166210,693529,0
2096921,2096921,166208,693548,0
2096921,2096921,166327,693718,0
2096921,2096921,166140,693787,0
2096921,2096921,166225,693736,0
2096921,2096921,166135,693499,0
2096921,2096921,166302,693732,0
2096921,2096921,166458,693562,0
2096921,2096921,166192,693633,0
2096921,2096921,166406,693519,0
2096921,2096921,166348,693108,0
2096921,2096921,166209,692769,0
2096921,2096921,165922,693104,0
2096921,2096921,165640,692832,0
2096921,2096921,165774,693044,0
2096921,2096921,165944,692555,0
2096921,2096921,165766,692215,0
2096921,2096921,165915,692091,0
2096921,2096921,166130,692161,0
2096921,2096921,165939,692352,0
2096921,2096921,166146,691653,0
2096921,2096921,165489,690925,0
2096921,2096921,165646,691167,0
2096921,2096921,165525,691612,0
2096921,2096921,165359,691230,0
2096921,2096921,165168,690417,0
2096921,2096921,165546,689811,0
2096921,2096921,165399,689734,0
2096921,2096921,165332,690335,0
2096921,2096921,165059,690100,0
2096921,2096921,165025,688770,0
2096921,2096921,165016,688500,0
2096921,2096921,165128,688518,0
2096921,2096921,165207,688711,0
2096921,2096921,164690,688519,0
2096921,2096921,164388,685980,0
2096921,2096921,164139,685592,0
2096921,2096921,164055,685322,0
2096921,2096921,164285,685188,0
2096921,2096921,163558,685268,0
2096921,2096921,163484,682194,0
2096921,2096921,163197,681514,0
2096921,2096921,163142,681330,0
2096921,2096921,163131,681209,0
2096921,2096921,162449,681405,0
2096921,2096921,162603,679283,0
2096921,2096921,162643,678655,0
2096921,2096921,162818,678622,0
2096921,2096921,162513,678653,0
2096921,2096921,162149,678256,0
2096921,2096921,161923,676628,0
2096921,2096921,161998,676464,0
2096921,2096921,161902,676121,0
2096921,2096921,161784,676187,0
2096921,2096921,161368,675978,0
2096921,2096921,161674,674812,0
2096921,2096921,161772,674688,0
2096921,2096921,161604,674443,0
2096921,2096921,161782,674558,0
2096921,2096921,161645,674244,0
2096921,2096921,161748,673686,0
2096921,2096921,161508,673479,0
2096921,2096921,161268,673299,0
2096921,2096921,161325,673565,0
2096921,2096921,161243,673774,0
2096921,2096921,161145,673077,0
2096921,2096921,161320,672516,0
2096921,2096921,161218,672697,0
2096921,2096921,161348,672321,0
2096921,2096921,161004,672606,0
2096921,2096921,161037,672250,0
2096921,2096921,160868,672077,0
2096921,2096921,160963,672087,0
2096921,2096921,161032,672010,0
2096921,2096921,160951,671913,0
2096921,2096921,160853,671980,0
2096921,2096921,161058,672045,0
2096921,2096921,161161,671690,0
2096921,2096921,161002,671927,0
2096921,2096921,161208,671883,0
2096921,2096921,161076,671806,0
2096921,2096921,160892,671781,0
2096921,2096921,160875,671432,0
2096921,2096921,161026,671430,0
2096921,2096921,160770,671690,0
2096921,2096921,161157,671985,0
2096921,2096921,161140,672485,0
2096921,2096921,161132,672145,0
2096921,2096921,161016,672196,0
2096921,2096921,161108,672306,0
2096921,2096921,160749,672318,0
2096921,2096921,161007,672153,0
2096921,2096921,161488,672320,0
2096921,2096921,161041,672408,0
2096921,2096921,161366,672485,0
2096921,2096921,161260,672506,0
2096921,2096921,161333,672468,0
2096921,2096921,161379,672186,0
2096921,2096921,161260,672355,0
2096921,2096921,161055,672567,0
2096921,2096921,161402,672719,0
2096921,2096921,161234,673021,0
2096921,2096921,160972,673138,0
2096921,2096921,161189,673214,0
2096921,2096921,161286,673361,0
2096921,2096921,161134,673858,0
2096921,2096921,161337,673864,0
2096921,2096921,161387,673884,0
2096921,2096921,161613,673467,0
2096921,2096921,161793,673783,0
2096921,2096921,161623,674331,0
2096921,2096921,161725,674341,0
2096921,2096921,161589,674328,0
2096921,2096921,161560,674504,0
2096921,2096921,161534,674706,0
2096921,2096921,161885,674936,0
2096921,2096921,161584,674965,0
2096921,2096921,161537,674939,0
2096921,2096921,161705,674934,0
2096921,2096921,161771,674810,0
2096921,2096921,161874,675330,0
2096921,2096921,161662,675293,0
2096921,2096921,161881,675462,0
2096921,2096921,161618,675663,0
2096921,2096921,161919,675624,0
2096921,2096921,162079,675985,0
2096921,2096921,162062,676039,0
2096921,2096921,162163,675948,0
2096921,2096921,161960,676131,0
2096921,2096921,162308,676248,0
2096921,2096921,162311,676904,0
2096921,2096921,162060,676791,0
2096921,2096921,162052,676624,0
2096921,2096921,162004,676666,0
2096921,2096921,162255,676446,0
2096921,2096921,162341,676904,0
2096921,2096921,162319,677149,0
2096921,2096921,162181,677393,0
2096921,2096921,162417,677646,0
2096921,2096921,162484,677578,0
2096921,2096921,162238,677895,0
2096921,2096921,162374,677934,0
2096921,2096921,162170,677570,0
2096921,2096921,162522,677910,0
2096921,2096921,162510,677746,0
2096921,2096921,162612,678528,0
2096921,2096921,162320,678294,0
2096921,2096921,162409,678166,0
2096921,2096921,162649,678409,0
2096921,2096921,163043,678339,0
2096921,2096921,162804,678848,0
2096921,2096921,162602,678916,0
2096921,2096921,162731,678875,0
2096921,2096921,162635,678953,0
2096921,2096921,162619,678951,0
2096921,2096921,162835,679790,0
2096921,2096921,162882,679937,0
2096921,2096921,162822,679865,0
2096921,2096921,162959,679587,0
2096921,2096921,163022,680100,0
2096921,2096921,162862,679782,0
2096921,2096921,163163,680121,0
2096921,2096921,162967,680140,0
2096921,2096921,163019,680148,0
2096921,2096921,163026,679840,0
2096921,2096921,162995,680156,0
2096921,2096921,162960,680346,0
2096921,2096921,162996,680256,0
2096921,2096921,163022,680360,0
2096921,2096921,163023,680090,0
2096921,2096921,163115,680309,0
2096921,2096921,162998,680271,0
2096921,2096921,163276,680609,0
2096921,2096921,163124,680620,0
2096921,2096921,163015,680623,0
2096921,2096921,163135,680632,0
2096921,2096921,162920,680703,0
2096921,2096921,163034,680410,0
2096921,2096921,162845,680365,0
2096921,2096921,162921,680667,0
2096921,2096921,162914,680770,0
2096921,2096921,163068,680531,0
2096921,2096921,163139,680381,0
2096921,2096921,163395,680436,0
2096921,2096921,163237,680579,0
2096921,2096921,163074,680264,0
2096921,2096921,163044,680514,0
2096921,2096921,162715,680272,0
2096921,2096921,163121,680436,0
2096921,2096921,163111,680594,0
2096921,2096921,163193,680491,0
2096921,2096921,163002,680031,0
2096921,2096921,162947,679791,0
2096921,2096921,162829,680034,0
2096921,2096921,162607,680000,0
2096921,2096921,162861,680012,0
2096921,2096921,163040,680094,0
2096921,2096921,162774,679817,0
2096921,2096921,162953,679560,0
2096921,2096921,162941,679909,0
2096921,2096921,162824,679276,0
2096921,2096921,162646,679358,0
2096921,2096921,163035,679663,0
2096921,2096921,162970,679450,0
2096921,2096921,162665,679434,0
2096921,2096921,162643,678853,0
2096921,2096921,162548,679164,0
2096921,2096921,162473,678992,0
2096921,2096921,162497,679014,0
2096921,2096921,162551,679004,0
2096921,2096921,162284,678615,0
2096921,2096921,162506,678323,0
2096921,2096921,162560,678338,0
2096921,2096921,162713,678181,0
2096921,2096921,162211,678394,0
2096921,2096921,162299,678099,0
2096921,2096921,162273,678101,0
2096921,2096921,162640,678035,0
2096921,2096921,162506,677829,0
2096921,2096921,162387,678019,0
2096921,2096921,162417,677579,0
2096921,2096921,162254,677534,0
2096921,2096921,162452,677496,0
2096921,2096921,162151,677596,0
2096921,2096921,162534,677556,0
2096921,2096921,162551,677512,0
2096921,2096921,162709,677191,0
2096921,2096921,162217,677289,0
2096921,2096921,162400,677385,0
2096921,2096921,162105,677259,0
2096921,2096921,162192,676973,0
2096921,2096921,162066,676825,0
2096921,2096921,162192,677010,0
2096921,2096921,162002,677296,0
2096921,2096921,162304,677174,0
2096921,2096921,162309,676982,0
2096921,2096921,162080,676717,0
2096921,2096921,162088,676743,0
2096921,2096921,162120,677068,0
2096921,2096921,162036,677122,0
2096921,2096921,162158,676747,0
2096921,2096921,161875,676799,0
2096921,2096921,161866,676794,0
2096921,2096921,161812,676870,0
2096921,2096921,162077,676764,0
2096921,2096921,162174,676787,0
2096921,2096921,162213,677154,0
2096921,2096921,162235,676929,0
2096921,2096921,162152,676969,0
2096921,2096921,162122,676798,0
2096921,2096921,162288,677079,0
2096921,2096921,162675,677445,0
2096921,2096921,162275,677310,0
2096921,2096921,162275,677251,0
2096921,2096921,162354,677103,0
2096921,2096921,162584,677332,0
2096921,2096921,162385,677581,0
2096921,2096921,162404,677460,0
2096921,2096921,162291,677487,0
2096921,2096921,162320,677438,0
2096921,2096921,162108,677627,0
2096921,2096921,162286,677743,0
2096921,2096921,162415,677821,0
2096921,2096921,162610,677996,0
2096921,2096921,162238,677632,0
2096921,2096921,162388,677969,0
2096921,2096921,162311,677989,0
2096921,2096921,162612,677940,0
2096921,2096921,162551,678195,0
2096921,2096921,162362,678294,0
2096921,2096921,162470,677872,0
2096921,2096921,162010,677872,0
2096921,2096921,162236,678191,0
2096921,2096921,162223,677743,0
2096921,2096921,162333,677927,0
2096921,2096921,162222,677882,0
2096921,2096921,162234,677930,0
2096921,2096921,162177,677886,0
2096921,2096921,162505,677854,0
2096921,2096921,162340,677784,0
2096921,2096921,162241,677939,0
2096921,2096921,162361,678122,0
2096921,2096921,162338,678169,0
2096921,2096921,162288,678255,0
2096921,2096921,162538,678124,0
2096921,2096921,162487,678175,0
2096921,2096921,162673,677950,0
2096921,2096921,162667,678445,0
2096921,2096921,162438,678325,0
2096921,2096921,162380,678515,0
2096921,2096921,162438,678555,0
2096921,2096921,162455,678450,0
2096921,2096921,162396,678041,0
2096921,2096921,162556,678127,0
2096921,2096921,162483,677872,0
2096921,2096921,162420,677927,0
2096921,2096921,162261,678008,0
2096921,2096921,162361,678161,0
2096921,2096921,162216,678331,0
2096921,2096921,162266,678327,0
2096921,2096921,162396,678311,0
2096921,2096921,162388,678240,0
2096921,2096921,162552,678383,0
2096921,2096921,162361,678105,0
2096921,2096921,162493,678303,0
2096921,2096921,162467,677910,0
2096921,2096921,162820,678040,0
2096921,2096921,162463,678127,0
2096921,2096921,162661,678117,0
2096921,2096921,162391,678107,0
2096921,2096921,162566,678109,0
2096921,2096921,162098,677924,0
2096921,2096921,162286,677855,0
2096921,2096921,162267,677925,0
2096921,2096921,162624,677973,0
2096921,2096921,162511,678226,0
2096921,2096921,162469,678397,0
2096921,2096921,162543,678327,0
2096921,2096921,162398,678093,0
2096921,2096921,162561,678194,0
2096921,2096921,162428,678168,0
2096921,2096921,162131,678280,0
2096921,2096921,161984,678244,0
2096921,2096921,162264,678058,0
2096921,2096921,162184,678058,0
2096921,2096921,162351,677733,0
2096921,2096921,162330,677776,0
2096921,2096921,162078,677935,0
2096921,2096921,162248,677895,0
2096921,2096921,162438,677972,0
2096921,2096921,162138,677688,0
2096921,2096921,162264,677801,0
2096921,2096921,162425,677737,0
2096921,2096921,162210,677934,0
2096921,2096921,162318,677979,0
2096921,2096921,162508,677649,0
2096921,2096921,162422,677601,0
2096921,2096921,162417,677598,0
2096921,2096921,162162,677659,0
2096921,2096921,162213,677769,0
2096921,2096921,161921,677842,0
2096921,2096921,162018,677552,0
2096921,2096921,162018,677395,0
2096921,2096921,162119,677524,0
2096921,2096921,162459,677523,0
2096921,2096921,162304,677168,0
2096921,2096921,162316,677321,0
2096921,2096921,162217,677383,0
2096921,2096921,162152,677054,0
2096921,2096921,162266,677315,0
2096921,2096921,162425,677237,0
2096921,2096921,162203,677144,0
2096921,2096921,162265,677244,0
2096921,2096921,162099,677131,0
2096921,2096921,162174,677214,0
2096921,2096921,161979,677005,0
2096921,2096921,162357,677042,0
2096921,2096921,162340,676897,0
2096921,2096921,162098,677320,0
2096921,2096921,161897,677365,0
2096921,2096921,161903,676724,0
2096921,2096921,161979,676922,0
2096921,2096921,161866,676906,0
2096921,2096921,161964,676822,0
2096921,2096921,161977,676965,0
2096921,2096921,162073,676788,0
2096921,2096921,162167,676645,0
2096921,2096921,161986,676929,0
2096921,2096921,161910,676669,0
2096921,2096921,161925,676519,0
2096921,2096921,161541,676589,0
2096921,2096921,161986,676559,0
2096921,2096921,162032,676230,0
2096921,2096921,161891,676252,0
2096921,2096921,162110,676418,0
2096921,2096921,161835,676222,0
2096921,2096921,161791,676291,0
2096921,2096921,162068,676176,0
2096921,2096921,161950,676155,0
2096921,2096921,162002,676153,0
2096921,2096921,161900,676109,0
2096921,2096921,161901,675702,0
2096921,2096921,161809,675813,0
2096921,2096921,161971,675751,0
2096921,2096921,161770,675843,0
2096921,2096921,161389,675464,0
2096921,2096921,161814,675644,0
2096921,2096921,161600,675575,0
2096921,2096921,161940,675637,0
2096921,2096921,161747,675261,0
2096921,2096921,161678,675420,0
2096921,2096921,161593,675304,0
2096921,2096921,161873,675293,0
2096921,2096921,161772,675271,0
2096921,2096921,162062,675533,0
2096921,2096921,161698,675151,0
2096921,2096921,161749,675063,0
2096921,2096921,161654,675068,0
2096921,2096921,161757,675115,0
2096921,2096921,161575,675004,0
2096921,2096921,161526,674793,0
2096921,2096921,161520,674782,0
2096921,2096921,161377,674909,0
2096921,2096921,161236,674864,0
2096921,2096921,161566,674527,0
2096921,2096921,161771,674320,0
2096921,2096921,161709,674646,0
2096921,2096921,161626,674493,0
2096921,2096921,161745,674550,0
2096921,2096921,161481,674737,0
2096921,2096921,161491,674181,0
2096921,2096921,161494,674083,0
2096921,2096921,161411,674178,0
2096921,2096921,161420,674289,0
2096921,2096921,161485,674282,0
2096921,2096921,161339,673924,0
2096921,2096921,161420,673887,0
2096921,2096921,161322,674159,0
2096921,2096921,161213,673832,0
2096921,2096921,161259,673896,0
2096921,2096921,161129,673525,0
2096921,2096921,161271,673629,0
2096921,2096921,161179,673569,0
2096921,2096921,161168,673485,0
2096921,2096921,161486,673893,0
2096921,2096921,161161,673288,0
2096921,2096921,161233,673491,0
2096921,2096921,161084,673407,0
2096921,2096921,161195,673398,0
2096921,2096921,161064,673408,0
2096921,2096921,161276,672947,0
2096921,2096921,160979,672925,0
2096921,2096921,161298,673093,0
2096921,2096921,161115,672937,0
2096921,2096921,160815,672740,0
2096921,2096921,160784,672674,0
2096921,2096921,161160,672742,0
2096921,2096921,161097,672832,0
2096921,2096921,161131,672693,0
2096921,2096921,160987,672598,0
2096921,2096921,160771,672427,0
2096921,2096921,161004,672512,0
2096921,2096921,160834,672488,0
2096921,2096921,160942,672514,0
2096921,2096921,160764,672276,0
2096921,2096921,161012,671932,0
2096921,2096921,160866,671898,0
2096921,2096921,160902,671996,0
2096921,2096921,160874,672120,0
2096921,2096921,160970,672305,0
2096921,2096921,160955,671684,0
2096921,2096921,160827,671828,0
2096921,2096921,160817,671590,0
2096921,2096921,160554,671598,0
2096921,2096921,160701,671434,0
2096921,2096921,160868,671321,0
2096921,2096921,160640,671469,0
2096921,2096921,161084,671364,0
2096921,2096921,160726,671350,0
2096921,2096921,160762,671466,0
2096921,2096921,160342,671204,0
2096921,2096921,160779,671116,0
2096921,2096921,160636,670939,0
2096921,2096921,160663,670751,0
2096921,2096921,160587,670971,0
2096921,2096921,160397,670590,0
2096921,2096921,160459,670592,0
2096921,2096921,160538,670660,0
2096921,2096921,160477,670667,0
2096921,2096921,160214,670481,0
2096921,2096921,160118,670529,0
2096921,2096921,160254,670247,0
2096921,2096921,160456,670034,0
2096921,2096921,160737,670175,0
2096921,2096921,160461,669897,0
2096921,2096921,160534,670047,0
2096921,2096921,160537,670155,0
2096921,2096921,160428,669948,0
2096921,2096921,160580,669866,0
2096921,2096921,160355,669908,0
2096921,2096921,160102,669407,0
2096921,2096921,160381,669449,0
2096921,2096921,160532,669217,0
2096921,2096921,160375,669634,0
2096921,2096921,160095,669433,0
2096921,2096921,160231,669025,0
2096921,2096921,160378,669126,0
2096921,2096921,160373,668841,0
2096921,2096921,160298,668878,0
2096921,2096921,160174,669064,0
2096921,2096921,160451,668871,0
2096921,2096921,160055,668481,0
2096921,2096921,159844,668591,0
2096921,2096921,159946,668504,0
2096921,2096921,160035,668527,0
2096921,2096921,159929,668362,0
2096921,2096921,159958,668027,0
2096921,2096921,159930,668306,0
2096921,2096921,159734,668164,0
2096921,2096921,159672,668023,0
2096921,2096921,159563,667798,0
2096921,2096921,159916,667651,0
2096921,2096921,159848,667752,0
2096921,2096921,159816,668079,0
2096921,2096921,159778,667868,0
2096921,2096921,159725,667447,0
2096921,2096921,159756,667452,0
2096921,2096921,159692,667519,0
2096921,2096921,159600,667528,0
2096921,2096921,159505,667292,0
2096921,2096921,159535,666389,0
2096921,2096921,159472,666261,0
2096921,2096921,159473,666150,0
2096921,2096921,159399,666262,0
2096921,2096921,159143,666135,0
2096921,2096921,159248,665617,0
2096921,2096921,159184,665582,0
2096921,2096921,158982,665708,0
2096921,2096921,159446,665640,0
2096921,2096921,158929,665446,0
2096921,2096921,159068,664540,0
2096921,2096921,158640,664255,0
2096921,2096921,158808,664253,0
2096921,2096921,158752,664281,0
2096921,2096921,158661,664247,0
2096921,2096921,158448,663114,0
2096921,2096921,158615,662699,0
2096921,2096921,158377,662848,0
2096921,2096921,158367,662609,0
2096921,2096921,158313,662494,0
2096921,2096921,158054,661186,0
2096921,2096921,158450,660907,0
2096921,2096921,158347,660714,0
2096921,2096921,158052,660992,0
2096921,2096921,157454,660763,0
2096921,2096921,157197,658281,0
2096921,2096921,157309,657935,0
2096921,2096921,157257,657343,0
2096921,2096921,157377,657371,0
2096921,2096921,156514,657652,0
2096921,2096921,156378,654208,0
2096921,2096921,156317,653507,0
2096921,2096921,156304,653459,0
2096921,2096921,156034,653447,0
2096921,2096921,155658,653384,0
2096921,2096921,155723,650604,0
2096921,2096921,155612,650426,0
2096921,2096921,155697,650075,0
2096921,2096921,155355,650232,0
2096921,2096921,154992,650312,0
2096921,2096921,154848,648175,0
2096921,2096921,154748,647677,0
2096921,2096921,154725,647765,0
2096921,2096921,154866,647646,0
2096921,2096921,154364,647764,0
2096921,2096921,154574,646263,0
2096921,2096921,154284,646552,0
2096921,2096921,154615,645889,0
2096921,2096921,154163,645950,0
2096921,2096921,154236,645789,0
2096921,2096921,154302,644941,0
2096921,2096921,154055,644793,0
2096921,2096921,154174,644317,0
2096921,2096921,153998,644327,0
2096921,2096921,153829,644453,0
2096921,2096921,153788,643464,0
2096921,2096921,153859,643550,0
2096921,2096921,153634,643461,0
2096921,2096921,153709,643551,0
2096921,2096921,153620,643197,0
2096921,2096921,153753,642613,0
2096921,2096921,153551,642438,0
2096921,2096921,153452,642439,0
2096921,2096921,153654,642703,0
2096921,2096921,153270,642503,0
2096921,2096921,153585,642131,0
2096921,2096921,153648,642136,0
2096921,2096921,153295,642309,0
2096921,2096921,153461,642228,0
2096921,2096921,153568,642155,0
2096921,2096921,153324,641903,0
2096921,2096921,153330,641885,0
2096921,2096921,153294,642040,0
2096921,2096921,153472,641840,0
2096921,2096921,153225,641826,0
2096921,2096921,153224,642021,0
2096921,2096921,153410,641993,0
2096921,2096921,153427,642057,0
2096921,2096921,153350,642079,0
2096921,2096921,153394,642038,0
2096921,2096921,153406,642201,0
2096921,2096921,153423,642012,0
2096921,2096921,153393,642002,0
2096921,2096921,153242,641773,0
2096921,2096921,153365,641936,0
2096921,2096921,153275,641730,0
2096921,2096921,153440,642107,0
2096921,2096921,153465,641912,0
2096921,2096921,153564,642105,0
2096921,2096921,153586,641971,0
2096921,2096921,153614,642259,0
2096921,2096921,153555,642266,0
2096921,2096921,153540,642418,0
2096921,2096921,153370,642403,0
2096921,2096921,153548,642283,0
2096921,2096921,153415,642650,0
2096921,2096921,153923,642992,0
2096921,2096921,153635,642556,0
2096921,2096921,153691,642524,0
2096921,2096921,153329,642580,0
2096921,2096921,153494,643046,0
2096921,2096921,153482,643027,0
2096921,2096921,153835,643034,0
2096921,2096921,153790,643107,0
2096921,2096921,153746,643203,0
2096921,2096921,153879,643670,0
2096921,2096921,153954,643406,0
2096921,2096921,153602,643728,0
2096921,2096921,153711,643352,0
2096921,2096921,153967,643623,0
2096921,2096921,154123,643911,0
2096921,2096921,154015,644127,0
2096921,2096921,153827,643992,0
2096921,2096921,153990,644122,0
2096921,2096921,153833,643682,0
2096921,2096921,153924,644327,0
2096921,2096921,153951,644475,0
2096921,2096921,154266,644631,0
2096921,2096921,154035,644384,0
2096921,2096921,154049,644760,0
2096921,2096921,154112,644771,0
2096921,2096921,154188,644684,0
2096921,2096921,154070,644700,0
2096921,2096921,154422,644941,0
2096921,2096921,154331,644538,0
2096921,2096921,154265,645297,0
2096921,2096921,154314,645327,0
2096921,2096921,154271,645349,0
2096921,2096921,154398,645333,0
2096921,2096921,154217,645495,0
2096921,2096921,154263,645817,0
2096921,2096921,154452,645646,0
2096921,2096921,154484,645961,0
2096921,2096921,154537,645868,0
2096921,2096921,154291,645890,0
2096921,2096921,154464,646528,0
2096921,2096921,154587,646562,0
2096921,2096921,154866,646441,0
2096921,2096921,154622,646324,0
2096921,2096921,154674,646390,0
2096921,2096921,154503,646866,0
2096921,2096921,154456,646946,0
2096921,2096921,154616,646589,0
2096921,2096921,154373,646719,0
2096921,2096921,154959,647027,0
2096921,2096921,154897,647610,0
2096921,2096921,154758,647419,0
2096921,2096921,154809,647528,0
2096921,2096921,154808,647408,0
2096921,2096921,154897,647583,0
2096921,2096921,154753,647667,0
2096921,2096921,154901,647750,0
2096921,2096921,155107,647839,0
2096921,2096921,154794,647860,0
2096921,2096921,154945,647716,0
2096921,2096921,154986,648351,0
2096921,2096921,154941,648205,0
2096921,2096921,154975,648627,0
2096921,2096921,154946,648603,0
2096921,2096921,155161,648296,0
2096921,2096921,155134,648700,0
2096921,2096921,154905,648582,0
2096921,2096921,155043,648484,0
2096921,2096921,154857,648636,0
2096921,2096921,154952,648579,0
2096921,2096921,154876,648551,0
2096921,2096921,154969,648531,0
2096921,2096921,155146,648997,0
2096921,2096921,155039,649223,0
2096921,2096921,155412,648812,0
2096921,2096921,155334,648870,0
2096921,2096921,155073,648955,0
2096921,2096921,155128,648925,0
2096921,2096921,155243,648726,0
2096921,2096921,155024,649088,0
2096921,2096921,154922,648622,0
2096921,2096921,155128,648716,0
2096921,2096921,155082,648967,0
2096921,2096921,155121,648831,0
2096921,2096921,154844,648970,0
2096921,2096921,155229,648859,0
2096921,2096921,154997,648857,0
2096921,2096921,155106,648914,0
2096921,2096921,155225,648895,0
2096921,2096921,155072,648617,0
2096921,2096921,154937,648669,0
2096921,2096921,154956,648700,0
2096921,2096921,155093,648659,0
2096921,2096921,155341,648509,0
2096921,2096921,155281,648512,0
2096921,2096921,155204,648204,0
2096921,2096921,155059,648469,0
2096921,2096921,154766,648329,0
2096921,2096921,154873,648072,0
2096921,2096921,154836,648228,0
2096921,2096921,154626,648269,0
2096921,2096921,154712,647893,0
2096921,2096921,155108,648000,0
2096921,2096921,155110,648228,0
2096921,2096921,154767,648034,0
2096921,2096921,154938,648111,0
2096921,2096921,155203,648016,0
2096921,2096921,154906,648007,0
2096921,2096921,154947,648133,0
2096921,2096921,154660,648027,0
2096921,2096921,155007,647666,0
2096921,2096921,154436,647815,0
2096921,2096921,154609,647547,0
2096921,2096921,154650,647850,0
2096921,2096921,154920,647493,0
2096921,2096921,154806,647647,0
2096921,2096921,154872,647336,0
2096921,2096921,154968,647775,0
2096921,2096921,154833,647328,0
2096921,2096921,154818,647619,0
2096921,2096921,154886,647577,0
2096921,2096921,154768,647587,0
2096921,2096921,154679,647587,0
2096921,2096921,154696,647712,0
2096921,2096921,154801,647869,0
2096921,2096921,154910,647784,0
2096921,2096921,154761,647579,0
2096921,2096921,154956,647797,0
2096921,2096921,154776,648026,0
2096921,2096921,154706,647820,0
2096921,2096921,155118,647727,0
2096921,2096921,155047,647730,0
2096921,2096921,154948,647925,0
2096921,2096921,154763,647815,0
2096921,2096921,154890,648071,0
2096921,2096921,155090,648282,0
2096921,2096921,154949,648056,0
2096921,2096921,154948,647885,0
2096921,2096921,154917,648154,0
2096921,2096921,154925,648064,0
2096921,2096921,155001,648501,0
2096921,2096921,154883,648071,0
2096921,2096921,154889,648705,0
2096921,2096921,155297,648403,0
2096921,2096921,155241,648594,0
2096921,2096921,155175,648979,0
2096921,2096921,155242,648821,0
2096921,2096921,154978,649043,0
2096921,2096921,155162,649199,0
2096921,2096921,155210,649015,0
2096921,2096921,155320,649367,0
2096921,2096921,155283,649617,0
2096921,2096921,155490,649315,0
2096921,2096921,155371,649699,0
2096921,2096921,155568,649747,0
2096921,2096921,155285,650006,0
2096921,2096921,155482,650027,0
2096921,2096921,155471,650166,0
2096921,2096921,155350,649872,0
2096921,2096921,155258,650031,0
2096921,2096921,155285,649938,0
2096921,2096921,155485,650679,0
2096921,2096921,155642,650485,0
2096921,2096921,155406,650970,0
2096921,2096921,155647,650699,0
2096921,2096921,155914,651075,0
2096921,2096921,155717,650836,0
2096921,2096921,155376,650777,0
2096921,2096921,155491,650876,0
2096921,2096921,155512,650819,0
2096921,2096921,155760,651065,0
2096921,2096921,155700,651329,0
2096921,2096921,155820,651180,0
2096921,2096921,155932,651089,0
2096921,2096921,155552,650955,0
2096921,2096921,155856,651679,0
2096921,2096921,155727,651237,0
2096921,2096921,155701,651493,0
2096921,2096921,155747,651541,0
2096921,2096921,155791,651397,0
2096921,2096921,155822,651891,0
2096921,2096921,156051,652061,0
2096921,2096921,155861,652280,0
2096921,2096921,155808,652078,0
2096921,2096921,156255,652027,0
2096921,2096921,155752,652126,0
2096921,2096921,155913,652329,0
2096921,2096921,156064,652138,0
2096921,2096921,156150,652448,0
2096921,2096921,155965,652021,0
2096921,2096921,156014,652220,0
2096921,2096921,156218,652510,0
2096921,2096921,156064,652496,0
2096921,2096921,156145,652635,0
2096921,2096921,156142,652591,0
2096921,2096921,156184,652809,0
2096921,2096921,156173,653063,0
2096921,2096921,156095,652999,0
2096921,2096921,155999,652933,0
2096921,2096921,156366,652855,0
2096921,2096921,156405,653167,0
2096921,2096921,156541,653713,0
2096921,2096921,156078,653430,0
2096921,2096921,156335,653164,0
2096921,2096921,156064,653432,0
2096921,2096921,156442,653529,0
2096921,2096921,156372,653635,0
2096921,2096921,156139,653744,0
2096921,2096921,156016,653605,0
2096921,2096921,156194,653375,0
2096921,2096921,156262,653938,0
2096921,2096921,156378,653793,0
2096921,2096921,156403,654035,0
2096921,2096921,156209,654174,0
2096921,2096921,156611,653951,0
2096921,2096921,156435,654134,0
2096921,2096921,156434,654396,0
2096921,2096921,156580,654095,0
2096921,2096921,156374,654166,0
2096921,2096921,156636,654225,0
2096921,2096921,156789,654866,0
2096921,2096921,156672,654851,0
2096921,2096921,156594,654954,0
2096921,2096921,156645,654625,0
2096921,2096921,156743,654940,0
2096921,2096921,156762,655006,0
2096921,2096921,156779,654884,0
2096921,2096921,156553,654896,0
2096921,2096921,156647,655030,0
2096921,2096921,156396,654879,0
2096921,2096921,156561,655114,0
2096921,2096921,156585,655281,0
2096921,2096921,156940,655294,0
2096921,2096921,156830,655419,0
2096921,2096921,156901,655197,0
2096921,2096921,156880,655174,0
2096921,2096921,156749,655205,0
2096921,2096921,156591,655673,0
2096921,2096921,156713,655404,0
2096921,2096921,156609,655327,0
2096921,2096921,156544,655748,0
2096921,2096921,156759,655542,0
2096921,2096921,156694,655612,0
2096921,2096921,156702,655901,0
2096921,2096921,156765,655668,0
2096921,2096921,156740,655970,0
2096921,2096921,157048,655976,0
2096921,2096921,156867,655948,0
2096921,2096921,156660,655794,0
2096921,2096921,156687,655968,0
2096921,2096921,156806,656047,0
2096921,2096921,156982,656377,0
2096921,2096921,156856,656409,0
2096921,2096921,157275,656233,0
2096921,2096921,156967,656566,0
2096921,2096921,156825,656510,0
2096921,2096921,156722,656483,0
2096921,2096921,156943,656594,0
2096921,2096921,156970,656740,0
2096921,2096921,157190,656396,0
2096921,2096921,157060,657050,0
2096921,2096921,157455,656502,0
2096921,2096921,157150,656772,0
2096921,2096921,157122,656763,0
2096921,2096921,156920,656954,0
2096921,2096921,156968,656821,0
2096921,2096921,156982,657069,0
2096921,2096921,157105,657174,0
2096921,2096921,157221,656988,0
2096921,2096921,157003,656984,0
2096921,2096921,156959,657617,0
2096921,2096921,157238,657337,0
2096921,2096921,157403,657424,0
2096921,2096921,157020,657415,0
2096921,2096921,157038,657321,0
2096921,2096921,156877,657507,0
2096921,2096921,156882,657516,0
2096921,2096921,157080,657493,0
2096921,2096921,157100,657410,0
2096921,2096921,157278,657446,0
2096921,2096921,157340,657816,0
2096921,2096921,157321,657798,0
2096921,2096921,157393,658029,0
2096921,2096921,157507,657985,0
2096921,2096921,157469,657986,0
2096921,2096921,157295,658016,0
2096921,2096921,157292,658021,0
2096921,2096921,157471,658227,0
2096921,2096921,157599,658092,0
2096921,2096921,157360,658122,0
2096921,2096921,157189,658161,0
2096921,2096921,157268,658335,0
2096921,2096921,157658,658610,0
2096921,2096921,157427,658461,0
2096921,2096921,157695,658361,0
2096921,2096921,157510,658419,0
2096921,2096921,157631,658665,0
2096921,2096921,157527,658702,0
2096921,2096921,157495,658603,0
2096921,2096921,157539,658548,0
2096921,2096921,157577,658808,0
2096921,2096921,157728,658736,0
2096921,2096921,157613,659068,0
2096921,2096921,157669,659154,0
2096921,2096921,157747,658703,0
2096921,2096921,157363,659118,0
2096921,2096921,157369,658917,0
2096921,2096921,157772,659199,0
2096921,2096921,157592,659267,0
2096921,2096921,157613,659231,0
2096921,2096921,157702,659468,0
2096921,2096921,157849,659366,0
2096921,2096921,157860,659302,0
2096921,2096921,157928,659621,0
2096921,2096921,158040,659608,0
2096921,2096921,157770,659873,0
2096921,2096921,157885,660089,0
2096921,2096921,157813,660092,0
2096921,2096921,157774,659725,0
2096921,2096921,158097,659855,0
2096921,2096921,157922,660118,0
2096921,2096921,157762,659967,0
2096921,2096921,158140,659946,0
2096921,2096921,157727,660117,0
2096921,2096921,157987,659961,0
2096921,2096921,157987,661014,0
2096921,2096921,158125,660891,0
2096921,2096921,157982,660721,0
2096921,2096921,157756,660511,0
2096921,2096921,158001,660537,0
2096921,2096921,157936,660740,0
2096921,2096921,157905,660776,0
2096921,2096921,157975,660874,0
2096921,2096921,158106,661099,0
2096921,2096921,158156,660887,0
2096921,2096921,158131,660968,0
2096921,2096921,157932,660853,0
2096921,2096921,158161,660912,0
2096921,2096921,158155,661019,0
2096921,2096921,158370,660835,0
2096921,2096921,158267,661163,0
2096921,2096921,158348,661359,0
2096921,2096921,158223,661666,0
2096921,2096921,158069,661543,0
2096921,2096921,158203,661509,0
2096921,2096921,157970,661638,0
2096921,2096921,158248,661528,0
2096921,2096921,158231,661538,0
2096921,2096921,158195,661690,0
2096921,2096921,158108,661524,0
2096921,2096921,158305,661934,0
2096921,2096921,158254,662246,0
2096921,2096921,158260,661997,0
2096921,2096921,158340,662002,0
2096921,2096921,158529,662074,0
2096921,2096921,158434,662425,0
2096921,2096921,158638,662322,0
2096921,2096921,158384,662436,0
2096921,2096921,158430,662229,0
2096921,2096921,158303,662358,0
2096921,2096921,158457,662566,0
2096921,2096921,158643,662916,0
2096921,2096921,158448,662594,0
2096921,2096921,158428,662593,0
2096921,2096921,158787,662734,0
2096921,2096921,158673,662789,0
2096921,2096921,158643,662776,0
2096921,2096921,158625,662898,0
2096921,2096921,158528,662797,0
2096921,2096921,158597,662926,0
2096921,2096921,158425,663044,0
2096921,2096921,158368,663165,0
2096921,2096921,158619,663173,0
2096921,2096921,158809,663223,0
2096921,2096921,158772,663068,0
2096921,2096921,158548,663615,0
2096921,2096921,158651,663751,0
2096921,2096921,158657,663413,0
2096921,2096921,158686,663265,0
2096921,2096921,158880,663304,0
2096921,2096921,158520,663608,0
2096921,2096921,158813,663724,0
2096921,2096921,158718,663911,0
2096921,2096921,158822,663766,0
2096921,2096921,158812,663582,0
2096921,2096921,159049,663759,0
2096921,2096921,158943,664306,0
2096921,2096921,158992,664172,0
2096921,2096921,158899,664326,0
2096921,2096921,158967,663857,0
2096921,2096921,158846,664524,0
2096921,2096921,158981,664051,0
2096921,2096921,158826,664405,0
2096921,2096921,159003,664171,0
2096921,2096921,158982,664246,0
2096921,2096921,158941,664575,0
2096921,2096921,159196,664660,0
2096921,2096921,159230,664654,0
2096921,2096921,158946,664637,0
2096921,2096921,159064,664677,0
2096921,2096921,159108,664987,0
2096921,2096921,159124,664772,0
2096921,2096921,159104,665000,0
2096921,2096921,159087,664865,0
2096921,2096921,159200,665193,0
2096921,2096921,159059,664699,0
2096921,2096921,158925,664776,0
2096921,2096921,158775,664593,0
2096921,2096921,158823,664612,0
2096921,2096921,159010,664669,0
2096921,2096921,158616,664528,0
2096921,2096921,159070,664306,0
2096921,2096921,158956,664449,0
2096921,2096921,159057,664613,0
2096921,2096921,158802,664415,0
2096921,2096921,158487,663733,0
2096921,2096921,158602,663751,0
2096921,2096921,158768,663775,0
2096921,2096921,158453,663926,0
2096921,2096921,158298,663901,0
2096921,2096921,158302,662914,0
2096921,2096921,158557,662934,0
2096921,2096921,158240,663029,0
2096921,2096921,158408,662833,0
2096921,2096921,158368,662859,0
2096921,2096921,158387,662301,0
2096921,2096921,158280,662207,0
2096921,2096921,158234,662161,0
2096921,2096921,158212,662028,0
2096921,2096921,157890,662055,0
2096921,2096921,157751,659540,0
2096921,2096921,157688,659070,0
2096921,2096921,157766,659187,0
2096921,2096921,157599,658856,0
2096921,2096921,157000,659494,0
2096921,2096921,156784,656591,0
2096921,2096921,156728,655925,0
2096921,2096921,156898,655825,0
2096921,2096921,157065,655532,0
2096921,2096921,156273,655754,0
2096921,2096921,156495,653814,0
2096921,2096921,156315,653350,0
2096921,2096921,156349,653546,0
2096921,2096921,156165,653020,0
2096921,2096921,156148,653436,0
2096921,2096921,155680,651937,0
2096921,2096921,155855,651501,0
2096921,2096921,155773,651375,0
2096921,2096921,155845,651288,0
2096921,2096921,155674,651475,0
2096921,2096921,155651,650504,0
2096921,2096921,155520,650448,0
2096921,2096921,155313,650376,0
2096921,2096921,155463,650244,0
2096921,2096921,155407,650406,0
2096921,2096921,155531,649730,0
2096921,2096921,155367,649579,0
2096921,2096921,155329,649382,0
2096921,2096921,155456,649471,0
2096921,2096921,155257,649546,0
2096921,2096921,155235,649197,0
2096921,2096921,155221,649172,0
2096921,2096921,155543,649083,0
2096921,2096921,155192,648946,0
2096921,2096921,155401,649188,0
2096921,2096921,155153,649033,0
2096921,2096921,155319,648968,0
2096921,2096921,155077,648987,0
2096921,2096921,155084,648593,0
2096921,2096921,155067,648995,0
2096921,2096921,154931,649217,0
2096921,2096921,155200,649264,0
2096921,2096921,155309,649304,0
2096921,2096921,155271,649358,0
2096921,2096921,155411,649272,0
2096921,2096921,155185,649286,0
2096921,2096921,155315,649675,0
2096921,2096921,155730,649422,0
2096921,2096921,155330,649385,0
2096921,2096921,155364,649632,0
2096921,2096921,155462,649945,0
2096921,2096921,155512,650163,0
2096921,2096921,155453,650108,0
2096921,2096921,155482,650499,0
2096921,2096921,155430,650611,0
2096921,2096921,155771,650560,0
2096921,2096921,155904,650553,0
2096921,2096921,155549,650679,0
2096921,2096921,155543,650316,0
2096921,2096921,155725,650564,0
2096921,2096921,155793,651166,0
2096921,2096921,155831,651076,0
2096921,2096921,155679,650920,0
2096921,2096921,155402,651165,0
2096921,2096921,155770,651446,0
2096921,2096921,155885,651852,0
2096921,2096921,155907,652276,0
2096921,2096921,155829,652342,0
2096921,2096921,156022,652194,0
2096921,2096921,156235,652098,0
2096921,2096921,156440,653071,0
2096921,2096921,156115,653238,0
2096921,2096921,156247,653320,0
2096921,2096921,156246,653069,0
2096921,2096921,156480,653157,0
2096921,2096921,156685,654050,0
2096921,2096921,156621,654241,0
2096921,2096921,156667,654135,0
2096921,2096921,156297,654293,0
2096921,2096921,156763,653945,0
2096921,2096921,156675,655281,0
2096921,2096921,156695,655197,0
2096921,2096921,156844,655459,0
2096921,2096921,156909,655336,0
2096921,2096921,157191,655317,0
2096921,2096921,156962,656221,0
2096921,2096921,157271,656500,0
2096921,2096921,157045,656352,0
2096921,2096921,156886,656590,0
2096921,2096921,156946,656226,0
2096921,2096921,157326,657257,0
2096921,2096921,157413,657508,0
2096921,2096921,157586,657652,0
2096921,2096921,157721,657620,0
2096921,2096921,157735,657361,0
2096921,2096921,157663,658387,0
2096921,2096921,157750,658241,0
2096921,2096921,157602,658404,0
2096921,2096921,157486,658536,0
2096921,2096921,157613,658454,0
2096921,2096921,157555,659184,0
2096921,2096921,157680,659780,0
2096921,2096921,157768,659955,0
2096921,2096921,157685,659712,0
2096921,2096921,157960,659695,0
2096921,2096921,157915,660494,0
2096921,2096921,158046,660472,0
2096921,2096921,158222,660920,0
2096921,2096921,158282,660724,0
2096921,2096921,158468,660548,0
2096921,2096921,158206,661562,0
2096921,2096921,158689,661483,0
2096921,2096921,158478,661657,0
2096921,2096921,158471,661688,0
2096921,2096921,158593,661569,0
2096921,2096921,158619,662760,0
2096921,2096921,158556,663221,0
2096921,2096921,158559,663046,0
2096921,2096921,158720,663093,0
2096921,2096921,159082,662966,0
2096921,2096921,159201,663785,0
2096921,2096921,159028,664113,0
2096921,2096921,158974,664019,0
2096921,2096921,158764,664034,0
2096921,2096921,159188,663968,0
2096921,2096921,159320,664679,0
2096921,2096921,158999,664995,0
2096921,2096921,159013,664847,0
2096921,2096921,159200,664767,0
2096921,2096921,159398,664779,0
2096921,2096921,159441,665729,0
2096921,2096921,159513,665916,0
2096921,2096921,159617,665835,0
2096921,2096921,159588,666160,0
2096921,2096921,159457,665925,0
2096921,2096921,159463,666544,0
2096921,2096921,159391,666489,0
2096921,2096921,159508,666834,0
2096921,2096921,159506,666589,0
2096921,2096921,159768,666505,0
2096921,2096921,159777,666919,0
2096921,2096921,159577,667310,0
2096921,2096921,159609,667280,0
2096921,2096921,159744,667298,0
2096921,2096921,160003,667422,0
2096921,2096921,159987,667858,0
2096921,2096921,160020,667916,0
2096921,2096921,159824,667930,0
2096921,2096921,159941,668037,0
2096921,2096921,160050,668028,0
2096921,2096921,159848,668083,0
2096921,2096921,160027,668346,0
2096921,2096921,160021,668227,0
2096921,2096921,160099,668487,0
2096921,2096921,160108,668512,0
2096921,2096921,160040,668669,0
2096921,2096921,160082,668726,0
2096921,2096921,160019,668821,0
2096921,2096921,159830,668640,0
2096921,2096921,159981,668654,0
2096921,2096921,160052,668807,0
2096921,2096921,160104,669086,0
2096921,2096921,159883,669174,0
2096921,2096921,160264,668941,0
2096921,2096921,160120,669155,0
2096921,2096921,160405,669215,0
2096921,2096921,160015,669081,0
2096921,2096921,160247,669165,0
2096921,2096921,160192,669235,0
2096921,2096921,160204,669083,0
2096921,2096921,160462,669400,0
2096921,2096921,160363,669532,0
2096921,2096921,160610,669245,0
2096921,2096921,160414,669403,0
2096921,2096921,160323,669336,0
2096921,2096921,160117,669808,0
2096921,2096921,160046,669530,0
2096921,2096921,160129,669619,0
2096921,2096921,160129,669513,0
2096921,2096921,160375,669978,0
2096921,2096921,160131,669887,0
2096921,2096921,160455,670049,0
2096921,2096921,160211,669881,0
2096921,2096921,160285,669930,0
2096921,2096921,160209,669950,0
2096921,2096921,160526,670191,0
2096921,2096921,160728,669785,0
2096921,2096921,160779,670106,0
2096921,2096921,160468,669964,0
2096921,2096921,160475,670169,0
2096921,2096921,160592,670341,0
2096921,2096921,160487,670599,0
2096921,2096921,160572,670510,0
2096921,2096921,160286,670455,0
2096921,2096921,160546,670439,0
2096921,2096921,160950,670942,0
2096921,2096921,160771,670994,0
2096921,2096921,160925,670884,0
2096921,2096921,160755,670860,0
2096921,2096921,161033,671120,0
2096921,2096921,160654,671538,0
2096921,2096921,160850,671724,0
2096921,2096921,160768,671867,0
2096921,2096921,160885,671728,0
2096921,2096921,161181,671977,0
2096921,2096921,161031,672025,0
2096921,2096921,160769,672223,0
2096921,2096921,160848,672071,0
2096921,2096921,160892,672487,0
2096921,2096921,161064,671983,0
2096921,2096921,161101,672742,0
2096921,2096921,161124,673077,0
2096921,2096921,161100,673179,0
2096921,2096921,161251,673099,0
2096921,2096921,161550,673034,0
2096921,2096921,161110,673826,0
2096921,2096921,161208,673952,0
2096921,2096921,161199,674032,0
2096921,2096921,161301,673589,0
2096921,2096921,161259,673772,0
2096921,2096921,161459,674596,0
2096921,2096921,161527,674817,0
2096921,2096921,161547,674833,0
2096921,2096921,161669,675005,0
2096921,2096921,161848,674979,0
2096921,2096921,161650,675453,0
2096921,2096921,161631,675384,0
2096921,2096921,161959,675682,0
2096921,2096921,161827,675619,0
2096921,2096921,162031,675872,0
2096921,2096921,161917,676296,0
2096921,2096921,162174,676776,0
2096921,2096921,162188,676285,0
2096921,2096921,162257,676381,0
2096921,2096921,162137,676531,0
2096921,2096921,162334,676890,0
2096921,2096921,162193,677057,0
2096921,2096921,162097,677296,0
2096921,2096921,162200,677047,0
2096921,2096921,162266,677133,0
2096921,2096921,161993,677732,0
2096921,2096921,162374,677917,0
2096921,2096921,162631,677765,0
2096921,2096921,162525,677940,0
2096921,2096921,162458,677493,0
2096921,2096921,162583,678239,0
2096921,2096921,162540,678718,0
2096921,2096921,162510,678658,0
2096921,2096921,162324,678903,0
2096921,2096921,162807,678665,0
2096921,2096921,162693,679313,0
2096921,2096921,162637,679480,0
2096921,2096921,162725,679370,0
2096921,2096921,162920,679531,0
2096921,2096921,162915,679434,0
2096921,2096921,163067,679813,0
2096921,2096921,162978,680131,0
2096921,2096921,163056,680142,0
2096921,2096921,163156,680020,0
2096921,2096921,163188,680427,0
2096921,2096921,163028,680661,0
2096921,2096921,163007,680975,0
2096921,2096921,163127,681030,0
2096921,2096921,163145,680973,0
2096921,2096921,163222,681086,0
2096921,2096921,163431,681724,0
2096921,2096921,163148,681394,0
2096921,2096921,163379,681767,0
2096921,2096921,163419,681664,0
2096921,2096921,163619,681586,0
2096921,2096921,163565,681979,0
2096921,2096921,163613,682384,0
2096921,2096921,163501,682145,0
2096921,2096921,163465,682315,0
2096921,2096921,163756,682450,0
2096921,2096921,163868,682920,0
2096921,2096921,163465,682934,0
2096921,2096921,163806,682940,0
2096921,2096921,163377,683020,0
2096921,2096921,163501,682926,0
2096921,2096921,163817,683279,0
2096921,2096921,163722,683562,0
2096921,2096921,163523,683328,0
2096921,2096921,163875,683581,0
2096921,2096921,163878,683779,0
2096921,2096921,163909,684547,0
2096921,2096921,163955,684160,0
2096921,2096921,163746,684326,0
2096921,2096921,164219,684114,0
2096921,2096921,164261,683862,0
2096921,2096921,164134,684893,0
2096921,2096921,164352,684798,0
2096921,2096921,164167,684863,0
2096921,2096921,164441,684948,0
2096921,2096921,164294,684901,0
2096921,2096921,164166,685522,0
2096921,2096921,164298,685478,0
2096921,2096921,163950,685635,0
2096921,2096921,164080,685356,0
2096921,2096921,164477,685187,0
2096921,2096921,164599,685884,0
2096921,2096921,164409,685921,0
2096921,2096921,164488,685970,0
2096921,2096921,164422,685783,0
2096921,2096921,164610,686055,0
2096921,2096921,164512,686393,0
2096921,2096921,164606,686378,0
2096921,2096921,164336,686490,0
2096921,2096921,164581,686299,0
2096921,2096921,164711,686500,0
2096921,2096921,164742,686992,0
2096921,2096921,164736,687218,0
2096921,2096921,164783,687057,0
2096921,2096921,164421,687141,0
2096921,2096921,164733,687134,0
2096921,2096921,164727,687294,0
2096921,2096921,164727,687586,0
2096921,2096921,164831,687612,0
2096921,2096921,164653,687664,0
2096921,2096921,164860,687477,0
2096921,2096921,164806,687806,0
2096921,2096921,164918,688084,0
2096921,2096921,164777,687905,0
2096921,2096921,165107,688191,0
2096921,2096921,164875,687905,0
2096921,2096921,165155,688463,0
2096921,2096921,164761,688636,0
2096921,2096921,165000,688549,0
2096921,2096921,165002,688492,0
2096921,2096921,165001,688234,0
2096921,2096921,165265,688902,0
2096921,2096921,165131,688877,0
2096921,2096921,164970,688871,0
2096921,2096921,165259,688847,0
2096921,2096921,164889,688866,0
2096921,2096921,165207,689248,0
2096921,2096921,165065,689384,0
2096921,2096921,165111,689019,0
2096921,2096921,165117,689081,0
2096921,2096921,165405,689097,0
2096921,2096921,165295,689361,0
2096921,2096921,165068,689585,0
2096921,2096921,165209,689931,0
2096921,2096921,165677,689762,0
2096921,2096921,165465,689630,0
2096921,2096921,165115,689797,0
2096921,2096921,165137,690042,0
2096921,2096921,165381,689935,0
2096921,2096921,165350,690046,0
2096921,2096921,165365,690168,0
2096921,2096921,165241,690004,0
2096921,2096921,165497,690095,0
2096921,2096921,165552,690510,0
2096921,2096921,165824,690686,0
2096921,2096921,165821,690583,0
2096921,2096921,165689,690589,0
2096921,2096921,165772,690492,0
2096921,2096921,165598,690529,0
2096921,2096921,165585,690708,0
2096921,2096921,165905,690729,0
2096921,2096921,165566,691018,0
2096921,2096921,165612,691074,0
2096921,2096921,165446,691130,0
2096921,2096921,165719,690911,0
2096921,2096921,165462,690854,0
2096921,2096921,165765,691118,0
2096921,2096921,165426,690826,0
2096921,2096921,165477,691270,0
2096921,2096921,165566,691160,0
2096921,2096921,165776,691255,0
2096921,2096921,165850,691646,0
2096921,2096921,165859,691684,0
2096921,2096921,165764,691395,0
2096921,2096921,165840,691460,0
2096921,2096921,165758,691834,0
2096921,2096921,166008,691787,0
2096921,2096921,165743,692027,0
2096921,2096921,165862,691621,0
2096921,2096921,165875,691596,0
2096921,2096921,165865,691766,0
2096921,2096921,165921,691877,0
2096921,2096921,165917,692058,0
2096921,2096921,166060,692044,0
2096921,2096921,165950,692081,0
2096921,2096921,165899,691757,0
2096921,2096921,166031,692128,0
2096921,2096921,165840,692163,0
2096921,2096921,165953,692239,0
2096921,2096921,165818,691940,0
2096921,2096921,165920,691992,0
2096921,2096921,165922,692228,0
2096921,2096921,166117,692672,0
2096921,2096921,165899,692387,0
2096921,2096921,166008,692256,0
2096921,2096921,165859,692680,0
2096921,2096921,166055,692671,0
2096921,2096921,165979,692633,0
2096921,2096921,165819,692619,0
2096921,2096921,166342,692549,0
2096921,2096921,166276,692495,0
2096921,2096921,166032,692750,0
2096921,2096921,166235,692966,0
2096921,2096921,166096,692782,0
2096921,2096921,166406,692915,0
2096921,2096921,166269,692914,0
2096921,2096921,166332,693241,0
2096921,2096921,166217,693320,0
2096921,2096921,165981,693120,0
2096921,2096921,166124,693405,0
2096921,2096921,166173,693239,0
2096921,2096921,166208,693003,0
2096921,2096921,166163,693471,0
2096921,2096921,166178,693232,0
2096921,2096921,166001,693226,0
2096921,2096921,166313,693117,0
2096921,2096921,166107,693085,0
2096921,2096921,166169,693308,0
2096921,2096921,166131,693157,0
2096921,2096921,166163,693279,0
2096921,2096921,166261,693325,0
2096921,2096921,166435,693633,0
2096921,2096921,166207,693679,0
2096921,2096921,166438,693611,0
2096921,2096921,166259,693557,0
2096921,2096921,166469,693460,0
2096921,2096921,166292,693582,0
2096921,2096921,166300,693254,0
2096921,2096921,166180,693104,0
2096921,2096921,166264,693376,0
2096921,2096921,166435,693553,0
2096921,2096921,166249,693469,0
2096921,2096921,166387,693540,0
2096921,2096921,166456,693532,0
2096921,2096921,166243,693563,0
2096921,2096921,166461,693416,0
2096921,2096921,166457,693443,0
2096921,2096921,166418,693605,0
2096921,2096921,166547,693540,0
2096921,2096921,166414,693653,0
2096921,2096921,166601,693565,0
2096921,2096921,166297,693536,0
2096921,2096921,165822,693648,0
2096921,2096921,166374,693569,0
2096921,2096921,166185,693431,0
2096921,2096921,166116,693683,0
2096921,2096921,166143,693442,0
2096921,2096921,166128,693413,0
2096921,2096921,166188,693468,0
2096921,2096921,166135,693570,0
2096921,2096921,166530,693496,0
2096921,2096921,166266,693341,0
2096921,2096921,166472,693652,0
2096921,2096921,166312,693645,0
2096921,2096921,166229,693614,0
2096921,2096921,166505,693804,0
2096921,2096921,166206,693544,0
2096921,2096921,166008,693448,0
2096921,2096921,166074,693597,0
2096921,2096921,166229,693707,0
2096921,2096921,166222,693713,0
2096921,2096921,166331,693889,0
2096921,2096921,166432,693687,0
2096921,2096921,166457,693703,0
2096921,2096921,166276,693815,0
2096921,2096921,166556,693637,0
2096921,2096921,166125,693365,0
2096921,2096921,166246,693507,0
2096921,2096921,166260,693262,0
2096921,2096921,166314,693383,0
2096921,2096921,166172,693388,0
2096921,2096921,166344,693159,0
2096921,2096921,166447,693513,0
2096921,2096921,166207,693588,0
2096921,2096921,166311,693486,0
2096921,2096921,166066,693458,0
2096921,2096921,165870,692999,0
2096921,2096921,165993,693015,0
2096921,2096921,166044,692884,0
2096921,2096921,166185,692895,0
2096921,2096921,166262,693010,0
2096921,2096921,166090,692663,0
2096921,2096921,166128,692572,0
2096921,2096921,165835,692475,0
2096921,2096921,166117,692284,0
2096921,2096921,165470,692408,0
2096921,2096921,165757,691536,0
2096921,2096921,165690,691526,0
2096921,2096921,165745,691380,0
2096921,2096921,165950,691162,0
2096921,2096921,165265,691176,0
2096921,2096921,165253,690062,0
2096921,2096921,165457,689959,0
2096921,2096921,165350,690345,0
2096921,2096921,165052,689973,0
2096921,2096921,165211,690258,0
2096921,2096921,165180,688883,0
2096921,2096921,164949,688748,0
2096921,2096921,165045,688458,0
2096921,2096921,165053,688349,0
2096921,2096921,164429,688437,0
2096921,2096921,164607,686091,0
2096921,2096921,164360,685639,0
2096921,2096921,164217,685508,0
2096921,2096921,164405,685035,0
2096921,2096921,163822,685700,0
2096921,2096921,163331,682322,0
2096921,2096921,163296,681566,0
2096921,2096921,162923,681379,0
2096921,2096921,163311,681391,0
2096921,2096921,162610,681243,0
2096921,2096921,162783,679114,0
2096921,2096921,162856,678620,0
2096921,2096921,162751,678431,0
2096921,2096921,162681,678610,0
2096921,2096921,162203,678314,0
2096921,2096921,162039,676772,0
2096921,2096921,161886,676459,0
2096921,2096921,162172,676416,0
2096921,2096921,161981,676126,0
2096921,2096921,161686,675985,0
2096921,2096921,161674,674679,0
2096921,2096921,161725,674393,0
2096921,2096921,161755,674503,0
2096921,2096921,161834,674311,0
2096921,2096921,161480,674557,0
2096921,2096921,161395,673648,0
2096921,2096921,161122,673281,0
2096921,2096921,161634,673479,0
2096921,2096921,161391,673225,0
2096921,2096921,161267,673247,0
2096921,2096921,160993,672716,0
2096921,2096921,160975,672649,0
2096921,2096921,161132,672473,0
2096921,2096921,161028,672522,0
2096921,2096921,161118,672960,0
2096921,2096921,161238,672209,0
2096921,2096921,160969,672123,0
2096921,2096921,160713,672140,0
2096921,2096921,160785,671912,0
2096921,2096921,160920,671839,0
2096921,2096921,160925,671782,0
2096921,2096921,161170,671704,0
2096921,2096921,161212,672066,0
2096921,2096921,161053,671819,0
2096921,2096921,161026,671680,0
2096921,2096921,161014,671922,0
2096921,2096921,161130,671969,0
2096921,2096921,161066,671936,0
2096921,2096921,161213,672089,0
2096921,2096921,161134,671909,0
2096921,2096921,161339,672024,0
2096921,2096921,161308,672425,0
2096921,2096921,161218,672351,0
2096921,2096921,161074,672331,0
2096921,2096921,160980,672465,0
2096921,2096921,161152,672350,0
2096921,2096921,160895,672265,0
2096921,2096921,160985,672288,0
2096921,2096921,160939,671960,0
2096921,2096921,161182,672446,0
2096921,2096921,161061,672706,0
2096921,2096921,161085,672685,0
2096921,2096921,161223,672839,0
2096921,2096921,161348,672811,0
2096921,2096921,161166,672798,0
2096921,2096921,161338,673001,0
2096921,2096921,161106,673189,0
2096921,2096921,161369,673209,0
2096921,2096921,161306,673351,0
2096921,2096921,161442,673230,0
2096921,2096921,161531,673650,0
2096921,2096921,161466,673559,0
2096921,2096921,161221,673987,0
2096921,2096921,161611,673901,0
2096921,2096921,161726,673738,0
2096921,2096921,161541,674289,0
2096921,2096921,161575,674490,0
2096921,2096921,161646,674584,0
2096921,2096921,161631,674529,0
2096921,2096921,161718,674465,0
2096921,2096921,161559,675026,0
2096921,2096921,161950,674757,0
2096921,2096921,161897,675176,0
2096921,2096921,161760,674954,0
2096921,2096921,162268,675367,0
2096921,2096921,162151,675693,0
2096921,2096921,162048,675574,0
2096921,2096921,161855,675812,0
2096921,2096921,161913,675683,0
2096921,2096921,162022,675745,0
2096921,2096921,162197,676287,0
2096921,2096921,161982,676353,0
2096921,2096921,162386,676454,0
2096921,2096921,161861,676290,0
2096921,2096921,162305,676455,0
2096921,2096921,162213,676872,0
2096921,2096921,162525,676870,0
2096921,2096921,162202,677001,0
2096921,2096921,161968,676866,0
2096921,2096921,162149,676816,0
2096921,2096921,162313,677183,0
2096921,2096921,162066,677392,0
2096921,2096921,162317,677456,0
2096921,2096921,162234,677464,0
2096921,2096921,162557,677466,0
2096921,2096921,162089,677783,0
2096921,2096921,162239,677923,0
2096921,2096921,162294,677959,0
2096921,2096921,162363,678039,0
2096921,2096921,162259,677979,0
2096921,2096921,162458,678268,0
2096921,2096921,162562,678741,0
2096921,2096921,162636,678691,0
2096921,2096921,163087,678917,0
2096921,2096921,162937,678380,0
2096921,2096921,162504,679140,0
2096921,2096921,162666,679276,0
2096921,2096921,162588,679310,0
2096921,2096921,162645,679599,0
2096921,2096921,162810,679272,0
2096921,2096921,162783,679636,0
2096921,2096921,162827,679819,0
2096921,2096921,162965,679712,0
2096921,2096921,163032,679975,0
2096921,2096921,162836,680072,0
2096921,2096921,162966,679906,0
2096921,2096921,163212,680137,0
2096921,2096921,162811,680283,0
2096921,2096921,163176,680175,0
2096921,2096921,163227,680101,0
2096921,2096921,163186,680339,0
2096921,2096921,163027,680584,0
2096921,2096921,163035,680693,0
2096921,2096921,162917,680765,0
2096921,2096921,163286,680733,0
2096921,2096921,163146,681037,0
2096921,2096921,163534,681002,0
2096921,2096921,163279,680785,0
2096921,2096921,163180,680812,0
2096921,2096921,163334,680842,0
2096921,2096921,163241,680991,0
2096921,2096921,162939,681183,0
2096921,2096921,163060,680803,0
2096921,2096921,163080,680866,0
2096921,2096921,163251,680870,0
2096921,2096921,163376,680718,0
2096921,2096921,163149,680900,0
2096921,2096921,162999,681213,0
2096921,2096921,163234,681003,0
2096921,2096921,163262,680908,0
2096921,2096921,163046,680698,0
2096921,2096921,162955,680867,0
2096921,2096921,163017,680810,0
2096921,2096921,163162,680759,0
2096921,2096921,163132,680406,0
2096921,2096921,163021,680629,0
2096921,2096921,163149,680573,0
2096921,2096921,163071,680599,0
2096921,2096921,162977,680547,0
2096921,2096921,162839,680697,0
2096921,2096921,162899,680175,0
2096921,2096921,162960,680198,0
2096921,2096921,162954,680131,0
2096921,2096921,162853,680268,0
2096921,2096921,162984,680227,0
2096921,2096921,162892,679728,0
2096921,2096921,162596,679613,0
2096921,2096921,162635,679860,0
2096921,2096921,162856,679600,0
2096921,2096921,162907,679648,0
2096921,2096921,162799,679597,0
2096921,2096921,162533,679531,0
2096921,2096921,162831,679340,0
2096921,2096921,162667,679215,0
2096921,2096921,162559,679534,0
2096921,2096921,162431,678995,0
2096921,2096921,162535,678770,0
2096921,2096921,162523,678856,0
2096921,2096921,162687,678814,0
2096921,2096921,162667,678980,0
2096921,2096921,162475,678585,0
2096921,2096921,162396,678564,0
2096921,2096921,162693,678340,0
2096921,2096921,162491,678530,0
2096921,2096921,162681,678311,0
2096921,2096921,162668,678210,0
2096921,2096921,162453,678293,0
2096921,2096921,162700,678305,0
2096921,2096921,162274,677915,0
2096921,2096921,162170,677956,0
2096921,2096921,162471,677924,0
2096921,2096921,162692,677650,0
2096921,2096921,162506,678086,0
2096921,2096921,162476,677707,0
2096921,2096921,162209,677918,0
2096921,2096921,162476,677906,0
2096921,2096921,162275,677604,0
2096921,2096921,162214,677536,0
2096921,2096921,162308,677635,0
2096921,2096921,162313,677783,0
2096921,2096921,162329,677566,0
2096921,2096921,162173,677609,0
2096921,2096921,162317,677790,0
2096921,2096921,162303,677469,0
2096921,2096921,162361,677680,0
2096921,2096921,161943,677597,0
2096921,2096921,162203,677122,0
2096921,2096921,162374,677422,0
2096921,2096921,162383,677249,0
2096921,2096921,162242,677198,0
2096921,2096921,162561,677506,0
2096921,2096921,162586,677603,0
2096921,2096921,162428,677422,0
2096921,2096921,162462,677628,0
2096921,2096921,162562,677663,0
2096921,2096921,162417,678051,0
2096921,2096921,162417,677796,0
2096921,2096921,162394,677946,0
2096921,2096921,162446,677452,0
2096921,2096921,162541,677824,0
2096921,2096921,162440,677828,0
2096921,2096921,162342,678298,0
2096921,2096921,162506,678042,0
2096921,2096921,162634,678249,0
2096921,2096921,162384,678282,0
2096921,2096921,162200,678347,0
2096921,2096921,162562,677944,0
2096921,2096921,162725,677927,0
2096921,2096921,162516,677803,0
2096921,2096921,162791,677781,0
2096921,2096921,162630,678103,0
2096921,2096921,162777,678524,0
2096921,2096921,162315,678551,0
2096921,2096921,162402,678229,0
2096921,2096921,162528,678478,0
2096921,2096921,162667,678053,0
2096921,2096921,162344,678177,0
2096921,2096921,162446,678313,0
2096921,2096921,162622,677964,0
2096921,2096921,162622,678402,0
2096921,2096921,162325,678507,0
2096921,2096921,162900,678370,0
2096921,2096921,162477,678249,0
2096921,2096921,162346,678437,0
2096921,2096921,162680,678538,0
2096921,2096921,162661,678164,0
2096921,2096921,162236,678395,0
2096921,2096921,162467,678188,0
2096921,2096921,162530,678322,0
2096921,2096921,162650,678517,0
2096921,2096921,162512,678359,0
2096921,2096921,162172,678541,0
2096921,2096921,162601,678693,0
2096921,2096921,162657,678494,0
2096921,2096921,162379,678314,0
2096921,2096921,162330,678433,0
2096921,2096921,162438,678495,0
2096921,2096921,162305,678478,0
2096921,2096921,162641,678601,0
2096921,2096921,162709,678627,0
2096921,2096921,162506,678418,0
2096921,2096921,162694,678824,0
2096921,2096921,162531,678499,0
2096921,2096921,162530,678569,0
2096921,2096921,162632,678391,0
2096921,2096921,162563,678710,0
2096921,2096921,162781,678394,0
2096921,2096921,162419,678706,0
2096921,2096921,162782,678584,0
2096921,2096921,162914,678397,0
2096921,2096921,162428,678448,0
2096921,2096921,162657,678346,0
2096921,2096921,162292,678310,0
2096921,2096921,162448,678698,0
2096921,2096921,162799,678533,0
2096921,2096921,162565,678559,0
2096921,2096921,162545,678468,0
2096921,2096921,162505,678076,0
2096921,2096921,162446,678490,0
2096921,2096921,162459,678402,0
2096921,2096921,162518,678299,0
2096921,2096921,162582,678235,0
2096921,2096921,162671,678546,0
2096921,2096921,162829,678470,0
2096921,2096921,162492,678595,0
2096921,2096921,162933,678391,0
2096921,2096921,162514,678439,0
2096921,2096921,162681,678304,0
2096921,2096921,162500,678507,0
2096921,2096921,162481,678516,0
2096921,2096921,162039,678325,0
2096921,2096921,162344,678444,0
2096921,2096921,162494,678396,0
2096921,2096921,162488,678528,0
2096921,2096921,162503,678452,0
2096921,2096921,162555,678236,0
2096921,2096921,162518,678291,0
2096921,2096921,162487,678376,0
2096921,2096921,162535,678112,0
2096921,2096921,162571,678501,0
2096921,2096921,162241,678497,0
2096921,2096921,162446,678516,0
2096921,2096921,162623,677992,0
2096921,2096921,162612,678065,0
2096921,2096921,162380,678234,0
2096921,2096921,162384,678135,0
2096921,2096921,162282,678099,0
2096921,2096921,162313,677998,0
2096921,2096921,162488,677948,0
2096921,2096921,162236,677765,0
2096921,2096921,162094,677883,0
2096921,2096921,162461,677877,0
2096921,2096921,162221,677962,0
2096921,2096921,162316,677647,0
2096921,2096921,162288,677815,0
2096921,2096921,162375,677833,0
2096921,2096921,162278,677676,0
2096921,2096921,162341,677702,0
2096921,2096921,162392,677692,0
2096921,2096921,162244,677235,0
2096921,2096921,162082,677811,0
