2096921,2096921,158286,657455,0
2096921,2096921,158340,657904,0
2096921,2096921,158521,657964,0
2096921,2096921,158208,657961,0
2096921,2096921,158428,657960,0
2096921,2096921,158826,657865,0
2096921,2096921,158603,657550,0
2096921,2096921,158490,658072,0
2096921,2096921,158539,658544,0
2096921,2096921,158486,658170,0
2096921,2096921,158470,658244,0
2096921,2096921,158768,658179,0
2096921,2096921,158512,658558,0
2096921,2096921,158358,658588,0
2096921,2096921,159073,658770,0
2096921,2096921,158500,658476,0
2096921,2096921,158668,658493,0
2096921,2096921,158916,658836,0
2096921,2096921,159078,658716,0
2096921,2096921,158971,658746,0
2096921,2096921,158983,659161,0
2096921,2096921,158726,658710,0
2096921,2096921,159213,659075,0
2096921,2096921,159266,659146,0
2096921,2096921,158829,659279,0
2096921,2096921,158977,659291,0
2096921,2096921,158905,659477,0
2096921,2096921,159162,659201,0
2096921,2096921,159225,659596,0
2096921,2096921,159159,659534,0
2096921,2096921,159300,659330,0
2096921,2096921,159125,659359,0
2096921,2096921,159133,659421,0
2096921,2096921,158858,659590,0
2096921,2096921,159057,659454,0
2096921,2096921,158950,659522,0
2096921,2096921,159281,659546,0
2096921,2096921,158948,659564,0
2096921,2096921,159265,659314,0
2096921,2096921,159331,659366,0
2096921,2096921,159104,659088,0
2096921,2096921,159246,659244,0
2096921,2096921,159054,659368,0
2096921,2096921,159159,659425,0
2096921,2096921,159000,659120,0
2096921,2096921,158893,659357,0
2096921,2096921,159181,659289,0
2096921,2096921,159212,659626,0
2096921,2096921,158996,659300,0
2096921,2096921,159363,659387,0
2096921,2096921,159222,659616,0
2096921,2096921,159028,659510,0
2096921,2096921,159274,659408,0
2096921,2096921,159031,659391,0
2096921,2096921,158873,659269,0
2096921,2096921,159000,659134,0
2096921,2096921,159130,659418,0
2096921,2096921,159118,659319,0
2096921,2096921,158932,659154,0
2096921,2096921,158893,659222,0
2096921,2096921,158886,658902,0
2096921,2096921,159111,658819,0
2096921,2096921,159000,659189,0
2096921,2096921,159149,658877,0
2096921,2096921,158808,658721,0
2096921,2096921,158823,658909,0
2096921,2096921,158898,658846,0
2096921,2096921,159144,659040,0
2096921,2096921,158796,658860,0
2096921,2096921,158888,658698,0
2096921,2096921,158977,658678,0
2096921,2096921,158776,658910,0
2096921,2096921,158615,658712,0
2096921,2096921,158851,658687,0
2096921,2096921,158751,658681,0
2096921,2096921,158959,658344,0
2096921,2096921,158817,658343,0
2096921,2096921,159003,658741,0
2096921,2096921,158783,658532,0
2096921,2096921,158615,658516,0
2096921,2096921,158812,658588,0
2096921,2096921,158974,658563,0
2096921,2096921,159000,658767,0
2096921,2096921,158700,658291,0
2096921,2096921,158727,658013,0
2096921,2096921,158572,658275,0
2096921,2096921,158699,658248,0
2096921,2096921,158710,658484,0
2096921,2096921,158877,658686,0
2096921,2096921,158544,658691,0
2096921,2096921,158678,658667,0
2096921,2096921,158544,658686,0
2096921,2096921,158655,658454,0
2096921,2096921,158704,658419,0
2096921,2096921,158776,658806,0
2096921,2096921,158820,658755,0
2096921,2096921,158962,658837,0
2096921,2096921,158863,659042,0
2096921,2096921,158914,658943,0
2096921,2096921,158678,658655,0
2096921,2096921,158952,659086,0
2096921,2096921,158994,659074,0
2096921,2096921,158983,659172,0
2096921,2096921,159030,659087,0
2096921,2096921,159253,659110,0
2096921,2096921,159474,658970,0
2096921,2096921,159292,658883,0
2096921,2096921,159437,659301,0
2096921,2096921,159363,659185,0
2096921,2096921,159210,659410,0
2096921,2096921,159161,659924,0
2096921,2096921,159183,659760,0
2096921,2096921,159179,659729,0
2096921,2096921,159247,659831,0
2096921,2096921,159250,659533,0
2096921,2096921,159643,659858,0
2096921,2096921,159219,659668,0
2096921,2096921,159354,660216,0
2096921,2096921,159529,660485,0
2096921,2096921,159370,660325,0
2096921,2096921,159281,660234,0
2096921,2096921,159222,660414,0
2096921,2096921,159392,660336,0
2096921,2096921,159383,660468,0
2096921,2096921,159768,660325,0
2096921,2096921,159292,660341,0
2096921,2096921,159498,660226,0
2096921,2096921,159936,660497,0
2096921,2096921,159769,660669,0
2096921,2096921,159847,660752,0
2096921,2096921,159590,660750,0
2096921,2096921,159553,660696,0
2096921,2096921,159822,660642,0
2096921,2096921,159696,660773,0
2096921,2096921,159470,660890,0
2096921,2096921,159490,660967,0
2096921,2096921,159798,660972,0
2096921,2096921,159679,661062,0
2096921,2096921,159847,661244,0
2096921,2096921,159902,660889,0
2096921,2096921,159555,661018,0
2096921,2096921,160014,660737,0
2096921,2096921,160018,661449,0
2096921,2096921,159834,661578,0
2096921,2096921,159827,661182,0
2096921,2096921,159757,661575,0
2096921,2096921,159624,661489,0
2096921,2096921,159895,661434,0
2096921,2096921,159957,661439,0
2096921,2096921,159886,661378,0
2096921,2096921,159743,661611,0
2096921,2096921,159991,661436,0
2096921,2096921,159982,661796,0
2096921,2096921,160042,661584,0
2096921,2096921,159808,661535,0
2096921,2096921,160027,661686,0
2096921,2096921,160027,661738,0
2096921,2096921,160135,661924,0
2096921,2096921,159830,661789,0
2096921,2096921,159722,662169,0
2096921,2096921,160119,661923,0
2096921,2096921,160178,662144,0
2096921,2096921,160376,662144,0
2096921,2096921,160161,662169,0
2096921,2096921,160287,662059,0
2096921,2096921,160404,661953,0
2096921,2096921,160616,662516,0
2096921,2096921,160155,662664,0
2096921,2096921,160482,662456,0
2096921,2096921,160035,662313,0
2096921,2096921,160136,661973,0
2096921,2096921,160017,662248,0
2096921,2096921,160306,662851,0
2096921,2096921,160052,662580,0
2096921,2096921,160319,662493,0
2096921,2096921,160282,662420,0
2096921,2096921,160422,662691,0
2096921,2096921,160426,663003,0
2096921,2096921,160347,662892,0
2096921,2096921,160173,662989,0
2096921,2096921,160344,662854,0
2096921,2096921,160149,663006,0
2096921,2096921,160359,663031,0
2096921,2096921,160711,663196,0
2096921,2096921,160670,663398,0
2096921,2096921,160469,663285,0
2096921,2096921,160373,663110,0
2096921,2096921,160829,663510,0
2096921,2096921,160792,663513,0
2096921,2096921,160804,663212,0
2096921,2096921,160807,663179,0
2096921,2096921,160533,663466,0
2096921,2096921,160800,663499,0
2096921,2096921,160919,663639,0
2096921,2096921,160662,663377,0
2096921,2096921,160640,663626,0
2096921,2096921,160606,663731,0
2096921,2096921,160763,663514,0
2096921,2096921,160959,663757,0
2096921,2096921,161123,663562,0
2096921,2096921,160972,663647,0
2096921,2096921,160550,663891,0
2096921,2096921,160836,663979,0
2096921,2096921,160822,663851,0
2096921,2096921,160767,663590,0
2096921,2096921,160979,663811,0
2096921,2096921,160788,663816,0
2096921,2096921,160834,663848,0
2096921,2096921,160828,663801,0
2096921,2096921,160801,663735,0
2096921,2096921,160888,663990,0
2096921,2096921,160758,664217,0
2096921,2096921,160839,664307,0
2096921,2096921,160973,664002,0
2096921,2096921,161172,664262,0
2096921,2096921,161046,664283,0
2096921,2096921,160980,664210,0
2096921,2096921,161135,664420,0
2096921,2096921,161023,664569,0
2096921,2096921,160826,664569,0
2096921,2096921,160929,664260,0
2096921,2096921,160950,664437,0
2096921,2096921,160927,664289,0
2096921,2096921,161018,664496,0
2096921,2096921,160918,664376,0
2096921,2096921,161157,664517,0
2096921,2096921,161395,664459,0
2096921,2096921,161100,664801,0
2096921,2096921,161241,664787,0
2096921,2096921,161337,664898,0
2096921,2096921,160958,664967,0
2096921,2096921,160897,664721,0
2096921,2096921,161233,664995,0
2096921,2096921,160773,664896,0
2096921,2096921,161067,664929,0
2096921,2096921,160984,664951,0
2096921,2096921,161350,665001,0
2096921,2096921,161157,664990,0
2096921,2096921,161331,665322,0
2096921,2096921,161213,665060,0
2096921,2096921,161212,665141,0
2096921,2096921,161316,665004,0
2096921,2096921,161337,665494,0
2096921,2096921,161270,665239,0
2096921,2096921,161076,665253,0
2096921,2096921,161229,665093,0
2096921,2096921,161454,664935,0
2096921,2096921,161637,665134,0
2096921,2096921,161329,665202,0
2096921,2096921,161140,665364,0
2096921,2096921,161661,665753,0
2096921,2096921,161246,665227,0
2096921,2096921,161325,665557,0
2096921,2096921,161488,665655,0
2096921,2096921,161479,665707,0
2096921,2096921,161624,665833,0
2096921,2096921,161453,665611,0
2096921,2096921,161544,665690,0
2096921,2096921,161754,665706,0
2096921,2096921,161531,665771,0
2096921,2096921,161315,665799,0
2096921,2096921,161462,665945,0
2096921,2096921,161441,665902,0
2096921,2096921,161491,665869,0
2096921,2096921,161610,665791,0
2096921,2096921,161653,665817,0
2096921,2096921,161668,665925,0
2096921,2096921,161775,666157,0
2096921,2096921,161817,666335,0
2096921,2096921,161464,666329,0
2096921,2096921,161712,666405,0
2096921,2096921,161564,666156,0
2096921,2096921,161464,666235,0
2096921,2096921,161508,666324,0
2096921,2096921,161953,666233,0
2096921,2096921,161733,666531,0
2096921,2096921,161908,666449,0
2096921,2096921,161453,666470,0
2096921,2096921,161506,666529,0
2096921,2096921,161936,666595,0
2096921,2096921,161895,666905,0
2096921,2096921,161782,666654,0
2096921,2096921,162090,666552,0
2096921,2096921,162012,666899,0
2096921,2096921,161625,666815,0
2096921,2096921,161776,666619,0
2096921,2096921,161838,666820,0
2096921,2096921,161585,666967,0
2096921,2096921,162005,667053,0
2096921,2096921,161880,666998,0
2096921,2096921,161789,666905,0
2096921,2096921,162168,666919,0
2096921,2096921,162074,667407,0
2096921,2096921,161929,666994,0
2096921,2096921,162027,667109,0
2096921,2096921,161962,667281,0
2096921,2096921,161941,667367,0
2096921,2096921,162158,667276,0
2096921,2096921,162074,667453,0
2096921,2096921,161962,667557,0
2096921,2096921,162148,667672,0
2096921,2096921,161882,667229,0
2096921,2096921,162005,667280,0
2096921,2096921,162351,667462,0
2096921,2096921,162356,667592,0
2096921,2096921,162224,667858,0
2096921,2096921,161904,667796,0
2096921,2096921,162149,667861,0
2096921,2096921,162373,667938,0
2096921,2096921,162268,668357,0
2096921,2096921,161994,667833,0
2096921,2096921,162168,667547,0
2096921,2096921,162220,667748,0
2096921,2096921,162117,667890,0
2096921,2096921,162300,668063,0
2096921,2096921,162113,668551,0
2096921,2096921,162356,668286,0
2096921,2096921,162467,668231,0
2096921,2096921,162295,668348,0
2096921,2096921,162220,668590,0
2096921,2096921,162216,668412,0
2096921,2096921,162237,668529,0
2096921,2096921,162065,668665,0
2096921,2096921,162318,668445,0
2096921,2096921,162379,668523,0
2096921,2096921,162273,668582,0
2096921,2096921,162508,668506,0
2096921,2096921,162283,668518,0
2096921,2096921,162214,668818,0
2096921,2096921,162296,668768,0
2096921,2096921,162252,668863,0
2096921,2096921,162535,668913,0
2096921,2096921,162544,669055,0
2096921,2096921,162238,668967,0
2096921,2096921,162335,668785,0
2096921,2096921,162291,669013,0
2096921,2096921,162089,669026,0
2096921,2096921,162269,669107,0
2096921,2096921,162376,669174,0
2096921,2096921,162151,669314,0
2096921,2096921,162670,669291,0
2096921,2096921,162351,669331,0
2096921,2096921,162252,669304,0
2096921,2096921,162658,669494,0
2096921,2096921,162552,669284,0
2096921,2096921,162209,669149,0
2096921,2096921,162194,669478,0
2096921,2096921,162260,669628,0
2096921,2096921,162305,669506,0
2096921,2096921,162375,669502,0
2096921,2096921,162541,669704,0
2096921,2096921,162586,669613,0
2096921,2096921,162851,669642,0
2096921,2096921,162812,669741,0
2096921,2096921,162528,669976,0
2096921,2096921,162494,670078,0
2096921,2096921,162430,670126,0
2096921,2096921,162722,669977,0
2096921,2096921,162624,669918,0
2096921,2096921,162624,669971,0
2096921,2096921,162347,669949,0
2096921,2096921,162766,670215,0
2096921,2096921,163028,670003,0
2096921,2096921,162781,670189,0
2096921,2096921,162793,670107,0
2096921,2096921,162550,670005,0
2096921,2096921,162528,670357,0
2096921,2096921,162403,669825,0
2096921,2096921,162561,669845,0
2096921,2096921,162646,669789,0
2096921,2096921,162462,669724,0
2096921,2096921,162639,669886,0
2096921,2096921,162354,669848,0
2096921,2096921,162480,669948,0
2096921,2096921,162243,669854,0
2096921,2096921,162080,669901,0
2096921,2096921,162154,669950,0
2096921,2096921,162273,669561,0
2096921,2096921,162333,669562,0
2096921,2096921,162695,669663,0
2096921,2096921,162338,669479,0
2096921,2096921,162265,669424,0
2096921,2096921,162347,668981,0
2096921,2096921,162249,668911,0
2096921,2096921,162223,668420,0
2096921,2096921,162162,668958,0
2096921,2096921,162441,668723,0
2096921,2096921,161779,668525,0
2096921,2096921,162013,668218,0
2096921,2096921,161686,667982,0
2096921,2096921,161672,667992,0
2096921,2096921,161740,668129,0
2096921,2096921,161208,667039,0
2096921,2096921,160855,666548,0
2096921,2096921,160954,666211,0
2096921,2096921,160828,666208,0
2096921,2096921,160790,666448,0
2096921,2096921,160458,664935,0
2096921,2096921,160400,664286,0
2096921,2096921,160390,664155,0
2096921,2096921,160143,664375,0
2096921,2096921,160276,664248,0
2096921,2096921,159564,663370,0
2096921,2096921,159694,662471,0
2096921,2096921,159490,662496,0
2096921,2096921,159610,662278,0
2096921,2096921,159705,662584,0
2096921,2096921,159284,661616,0
2096921,2096921,159056,661451,0
2096921,2096921,158977,661435,0
2096921,2096921,159263,661453,0
2096921,2096921,159134,661503,0
2096921,2096921,158993,661368,0
2096921,2096921,158643,660828,0
2096921,2096921,158849,660674,0
2096921,2096921,159018,660401,0
2096921,2096921,158525,660507,0
2096921,2096921,158443,660269,0
2096921,2096921,158593,660255,0
2096921,2096921,158521,660402,0
2096921,2096921,158609,660093,0
2096921,2096921,158781,660085,0
2096921,2096921,158414,660029,0
2096921,2096921,158451,660008,0
2096921,2096921,158446,659510,0
2096921,2096921,158291,659809,0
2096921,2096921,158417,660080,0
2096921,2096921,158276,660026,0
2096921,2096921,158599,660018,0
2096921,2096921,158538,660322,0
2096921,2096921,158499,659914,0
2096921,2096921,158323,660020,0
2096921,2096921,158507,660457,0
2096921,2096921,158397,660160,0
2096921,2096921,158561,660052,0
2096921,2096921,158558,659964,0
2096921,2096921,158620,660090,0
2096921,2096921,158760,660219,0
2096921,2096921,158340,660594,0
2096921,2096921,158317,660466,0
2096921,2096921,158330,660496,0
2096921,2096921,158377,660586,0
2096921,2096921,158627,661004,0
2096921,2096921,158778,660842,0
2096921,2096921,158927,660885,0
2096921,2096921,158671,661073,0
2096921,2096921,158694,661104,0
2096921,2096921,158938,661317,0
2096921,2096921,158815,661424,0
2096921,2096921,159049,661471,0
2096921,2096921,158716,661821,0
2096921,2096921,158801,661491,0
2096921,2096921,158636,661380,0
2096921,2096921,158525,661882,0
2096921,2096921,158262,661440,0
2096921,2096921,159019,661557,0
2096921,2096921,159168,662053,0
2096921,2096921,159092,662312,0
2096921,2096921,159416,662316,0
2096921,2096921,159275,662639,0
2096921,2096921,159008,662402,0
2096921,2096921,159169,662328,0
2096921,2096921,159310,663034,0
2096921,2096921,159399,663078,0
2096921,2096921,159490,663267,0
2096921,2096921,159274,663260,0
2096921,2096921,159285,663499,0
2096921,2096921,159691,663909,0
2096921,2096921,159643,664426,0
2096921,2096921,159636,664285,0
2096921,2096921,159579,663882,0
2096921,2096921,159518,663973,0
2096921,2096921,159958,664147,0
2096921,2096921,159787,664573,0
2096921,2096921,160246,664842,0
2096921,2096921,159983,664729,0
2096921,2096921,159950,664615,0
2096921,2096921,160406,665065,0
2096921,2096921,159953,665644,0
2096921,2096921,159983,665855,0
2096921,2096921,160053,665761,0
2096921,2096921,160112,665288,0
2096921,2096921,160581,665850,0
2096921,2096921,160606,666262,0
2096921,2096921,160383,666468,0
2096921,2096921,160272,666103,0
2096921,2096921,160516,666763,0
2096921,2096921,160645,666883,0
2096921,2096921,160575,667025,0
2096921,2096921,160952,667232,0
2096921,2096921,160931,667163,0
2096921,2096921,160656,667214,0
2096921,2096921,160860,667566,0
2096921,2096921,160850,667839,0
2096921,2096921,160674,667861,0
2096921,2096921,160985,667958,0
2096921,2096921,160984,668066,0
2096921,2096921,161221,668561,0
2096921,2096921,160924,668690,0
2096921,2096921,161056,668716,0
2096921,2096921,161230,668793,0
2096921,2096921,161349,668638,0
2096921,2096921,161357,669404,0
2096921,2096921,161330,669590,0
2096921,2096921,161701,669257,0
2096921,2096921,161523,669682,0
2096921,2096921,161323,669449,0
2096921,2096921,161600,669934,0
2096921,2096921,161550,669991,0
2096921,2096921,162000,670233,0
2096921,2096921,161964,670340,0
2096921,2096921,161570,670301,0
2096921,2096921,162165,670701,0
2096921,2096921,162131,671055,0
2096921,2096921,161837,671054,0
2096921,2096921,161766,671020,0
2096921,2096921,161994,671242,0
2096921,2096921,162124,671484,0
2096921,2096921,162055,671674,0
2096921,2096921,161975,671842,0
2096921,2096921,161965,671526,0
2096921,2096921,161741,671624,0
2096921,2096921,162152,671949,0
2096921,2096921,162411,672243,0
2096921,2096921,162309,672257,0
2096921,2096921,162457,672434,0
2096921,2096921,162228,672137,0
2096921,2096921,162679,672723,0
2096921,2096921,162569,672877,0
2096921,2096921,162559,673091,0
2096921,2096921,162558,672857,0
2096921,2096921,162464,673102,0
2096921,2096921,162571,673064,0
2096921,2096921,162755,673308,0
2096921,2096921,162845,673218,0
2096921,2096921,162651,673388,0
2096921,2096921,162658,673600,0
2096921,2096921,162817,673806,0
2096921,2096921,162793,674085,0
2096921,2096921,162830,673970,0
2096921,2096921,163176,673864,0
2096921,2096921,162734,673974,0
2096921,2096921,162855,674116,0
2096921,2096921,163035,674267,0
2096921,2096921,163164,674154,0
2096921,2096921,162943,674167,0
2096921,2096921,163051,674224,0
2096921,2096921,163026,674344,0
2096921,2096921,163185,674498,0
2096921,2096921,163114,674798,0
2096921,2096921,162914,675057,0
2096921,2096921,163028,674642,0
2096921,2096921,163254,674732,0
2096921,2096921,163016,674814,0
2096921,2096921,163128,674678,0
2096921,2096921,163096,674911,0
2096921,2096921,162978,674915,0
2096921,2096921,163220,674922,0
2096921,2096921,163073,675266,0
2096921,2096921,163049,675034,0
2096921,2096921,163247,675086,0
2096921,2096921,163104,675363,0
2096921,2096921,163008,675170,0
2096921,2096921,163268,675269,0
2096921,2096921,163215,675527,0
2096921,2096921,163325,675222,0
2096921,2096921,163214,675258,0
2096921,2096921,163507,675569,0
2096921,2096921,163225,675364,0
2096921,2096921,163473,675489,0
2096921,2096921,163290,675680,0
2096921,2096921,163241,675694,0
2096921,2096921,163149,675574,0
2096921,2096921,163318,676087,0
2096921,2096921,163223,675802,0
2096921,2096921,163180,675476,0
2096921,2096921,163347,675479,0
2096921,2096921,163163,675933,0
2096921,2096921,163223,675734,0
2096921,2096921,163316,676199,0
2096921,2096921,163361,675880,0
2096921,2096921,163307,675879,0
2096921,2096921,163362,676079,0
2096921,2096921,163517,676210,0
2096921,2096921,163502,676464,0
2096921,2096921,163189,676584,0
2096921,2096921,163036,676275,0
2096921,2096921,163236,676827,0
2096921,2096921,163357,676768,0
2096921,2096921,163557,676716,0
2096921,2096921,163656,676744,0
2096921,2096921,163437,676977,0
2096921,2096921,163496,677122,0
2096921,2096921,163473,677139,0
2096921,2096921,163625,677315,0
2096921,2096921,163634,677135,0
2096921,2096921,163623,677003,0
2096921,2096921,163890,677572,0
2096921,2096921,163503,677587,0
2096921,2096921,164024,677422,0
2096921,2096921,163826,677597,0
2096921,2096921,163570,677732,0
2096921,2096921,163806,678068,0
2096921,2096921,163841,678561,0
2096921,2096921,163718,678334,0
2096921,2096921,163844,678200,0
2096921,2096921,163882,678430,0
2096921,2096921,163906,679174,0
2096921,2096921,164240,678945,0
2096921,2096921,163961,679251,0
2096921,2096921,163745,678940,0
2096921,2096921,164060,678729,0
2096921,2096921,164292,679306,0
2096921,2096921,163614,679446,0
2096921,2096921,164069,679718,0
2096921,2096921,164134,679745,0
2096921,2096921,164319,679596,0
2096921,2096921,164466,680032,0
2096921,2096921,164452,680321,0
2096921,2096921,164420,680026,0
2096921,2096921,164621,680109,0
2096921,2096921,164364,680169,0
2096921,2096921,164605,680331,0
2096921,2096921,164607,680634,0
2096921,2096921,164352,680728,0
2096921,2096921,164797,680625,0
2096921,2096921,164632,680786,0
2096921,2096921,164816,680950,0
2096921,2096921,164894,681348,0
2096921,2096921,164734,681411,0
2096921,2096921,164836,681443,0
2096921,2096921,164733,680852,0
2096921,2096921,164707,681546,0
2096921,2096921,164744,681783,0
2096921,2096921,164666,681682,0
2096921,2096921,164938,681682,0
2096921,2096921,164730,681537,0
2096921,2096921,165055,681919,0
2096921,2096921,165125,682544,0
2096921,2096921,165120,682541,0
2096921,2096921,165089,682118,0
2096921,2096921,165201,682565,0
2096921,2096921,165234,682554,0
2096921,2096921,165338,682877,0
2096921,2096921,165431,683227,0
2096921,2096921,165304,683302,0
2096921,2096921,165696,682866,0
2096921,2096921,165714,683529,0
2096921,2096921,165460,683650,0
2096921,2096921,165613,683548,0
2096921,2096921,165545,683705,0
2096921,2096921,165509,683721,0
2096921,2096921,165637,683689,0
2096921,2096921,165662,683828,0
2096921,2096921,165883,684063,0
2096921,2096921,165601,684190,0
2096921,2096921,165711,684270,0
2096921,2096921,165865,684131,0
2096921,2096921,166003,684333,0
2096921,2096921,166013,684497,0
2096921,2096921,165851,684532,0
2096921,2096921,165842,684625,0
2096921,2096921,165940,684935,0
2096921,2096921,165804,684843,0
2096921,2096921,165935,685115,0
2096921,2096921,166010,684678,0
2096921,2096921,165766,684816,0
2096921,2096921,166103,685134,0
2096921,2096921,165934,685495,0
2096921,2096921,166007,685371,0
2096921,2096921,166225,685868,0
2096921,2096921,166522,685414,0
2096921,2096921,166407,685837,0
2096921,2096921,166141,686209,0
2096921,2096921,166005,686156,0
2096921,2096921,166363,685773,0
2096921,2096921,166374,686114,0
2096921,2096921,166182,686352,0
2096921,2096921,166385,686317,0
2096921,2096921,166258,686545,0
2096921,2096921,166440,686414,0
2096921,2096921,166451,686536,0
2096921,2096921,166759,686529,0
2096921,2096921,166783,686873,0
2096921,2096921,166574,686818,0
2096921,2096921,166436,686825,0
2096921,2096921,166419,686900,0
2096921,2096921,166496,687417,0
2096921,2096921,166632,687589,0
2096921,2096921,166740,687475,0
2096921,2096921,166909,687426,0
2096921,2096921,166826,687286,0
2096921,2096921,166900,687452,0
2096921,2096921,166804,687864,0
2096921,2096921,166848,687967,0
2096921,2096921,166456,687661,0
2096921,2096921,166759,687746,0
2096921,2096921,166901,687844,0
2096921,2096921,167082,688104,0
2096921,2096921,166970,688092,0
2096921,2096921,166914,688104,0
2096921,2096921,166935,688386,0
2096921,2096921,167229,688422,0
2096921,2096921,167488,688593,0
2096921,2096921,167445,688744,0
2096921,2096921,167025,688252,0
2096921,2096921,167170,688701,0
2096921,2096921,167197,688725,0
2096921,2096921,167283,688831,0
2096921,2096921,167271,689049,0
2096921,2096921,167037,689163,0
2096921,2096921,167386,689331,0
2096921,2096921,167321,689501,0
2096921,2096921,166971,689350,0
2096921,2096921,167090,689366,0
2096921,2096921,167304,689507,0
2096921,2096921,167186,689262,0
2096921,2096921,167508,689406,0
2096921,2096921,167238,689507,0
2096921,2096921,167437,689599,0
2096921,2096921,167353,689634,0
2096921,2096921,167666,689847,0
2096921,2096921,167493,689805,0
2096921,2096921,167392,690054,0
2096921,2096921,167562,689884,0
2096921,2096921,167579,690148,0
2096921,2096921,167550,690019,0
2096921,2096921,167479,690293,0
2096921,2096921,167776,690059,0
2096921,2096921,167466,690215,0
2096921,2096921,167608,690145,0
2096921,2096921,167387,690193,0
2096921,2096921,167624,690248,0
2096921,2096921,167685,690594,0
2096921,2096921,167580,690524,0
2096921,2096921,167339,690500,0
2096921,2096921,167534,690352,0
2096921,2096921,167674,690729,0
2096921,2096921,167677,690816,0
2096921,2096921,167596,690771,0
2096921,2096921,167558,690685,0
2096921,2096921,167974,690902,0
2096921,2096921,168011,690683,0
2096921,2096921,167761,691051,0
2096921,2096921,167829,691184,0
2096921,2096921,167510,691160,0
2096921,2096921,168066,690983,0
2096921,2096921,168068,691116,0
2096921,2096921,167665,691179,0
2096921,2096921,168083,691432,0
2096921,2096921,168130,691209,0
2096921,2096921,167940,691375,0
2096921,2096921,168130,691366,0
2096921,2096921,168046,691720,0
2096921,2096921,167769,691557,0
2096921,2096921,167983,691664,0
2096921,2096921,167956,691540,0
2096921,2096921,168294,691654,0
2096921,2096921,168229,691948,0
2096921,2096921,168044,691884,0
2096921,2096921,167993,691803,0
2096921,2096921,168133,691902,0
2096921,2096921,168136,692050,0
2096921,2096921,168245,692005,0
2096921,2096921,168173,692192,0
2096921,2096921,168217,692100,0
2096921,2096921,168062,691664,0
2096921,2096921,168137,692219,0
2096921,2096921,168032,692110,0
2096921,2096921,168215,692270,0
2096921,2096921,168425,692496,0
2096921,2096921,168250,692257,0
2096921,2096921,168359,692167,0
2096921,2096921,168415,692552,0
2096921,2096921,168427,692347,0
2096921,2096921,168009,692342,0
2096921,2096921,168207,692625,0
2096921,2096921,168192,692698,0
2096921,2096921,168230,692421,0
2096921,2096921,168378,692641,0
2096921,2096921,168248,692458,0
2096921,2096921,168297,692898,0
2096921,2096921,168137,693113,0
2096921,2096921,168194,692740,0
2096921,2096921,168312,692640,0
2096921,2096921,168450,692509,0
2096921,2096921,168283,692701,0
2096921,2096921,168281,692768,0
2096921,2096921,168530,693054,0
2096921,2096921,168492,693127,0
2096921,2096921,168480,693267,0
2096921,2096921,168227,693103,0
2096921,2096921,168530,693227,0
2096921,2096921,168675,692763,0
2096921,2096921,168510,693162,0
2096921,2096921,168336,693256,0
2096921,2096921,168444,693212,0
2096921,2096921,168425,693288,0
2096921,2096921,168558,693144,0
2096921,2096921,168653,693314,0
2096921,2096921,168635,693117,0
2096921,2096921,168369,693352,0
2096921,2096921,168523,693438,0
2096921,2096921,168239,693435,0
2096921,2096921,168300,693411,0
2096921,2096921,168777,693442,0
2096921,2096921,168680,693187,0
2096921,2096921,168660,693476,0
2096921,2096921,168813,693689,0
2096921,2096921,168277,693717,0
2096921,2096921,168680,693678,0
2096921,2096921,168280,693516,0
2096921,2096921,168434,693851,0
2096921,2096921,168533,693601,0
2096921,2096921,168560,693596,0
2096921,2096921,168541,693722,0
2096921,2096921,168561,693563,0
2096921,2096921,168540,693868,0
2096921,2096921,168805,693861,0
2096921,2096921,168971,693785,0
2096921,2096921,168569,693646,0
2096921,2096921,168387,693658,0
2096921,2096921,168534,693552,0
2096921,2096921,168458,693749,0
2096921,2096921,168546,693394,0
2096921,2096921,168854,693838,0
2096921,2096921,168381,693737,0
2096921,2096921,168614,693533,0
2096921,2096921,168658,693523,0
2096921,2096921,168662,693642,0
2096921,2096921,168580,693683,0
2096921,2096921,168617,693664,0
2096921,2096921,168451,693783,0
2096921,2096921,168888,693865,0
2096921,2096921,168751,693771,0
2096921,2096921,168909,693765,0
2096921,2096921,168954,693895,0
2096921,2096921,168706,693994,0
2096921,2096921,168912,693744,0
2096921,2096921,168674,693771,0
2096921,2096921,168521,693946,0
2096921,2096921,168739,694091,0
2096921,2096921,168782,693910,0
2096921,2096921,168960,693742,0
2096921,2096921,168867,693536,0
2096921,2096921,168640,693630,0
2096921,2096921,168556,693759,0
2096921,2096921,168533,693718,0
2096921,2096921,168698,693850,0
2096921,2096921,168793,693884,0
2096921,2096921,168666,693570,0
2096921,2096921,168601,693885,0
2096921,2096921,168647,693805,0
2096921,2096921,168773,693633,0
2096921,2096921,168928,693831,0
2096921,2096921,168553,693739,0
2096921,2096921,168632,693890,0
2096921,2096921,168597,693884,0
2096921,2096921,168783,694061,0
2096921,2096921,168786,693724,0
2096921,2096921,168753,693724,0
2096921,2096921,168742,693658,0
2096921,2096921,168640,693972,0
2096921,2096921,168496,693815,0
2096921,2096921,168385,693703,0
2096921,2096921,168637,693581,0
2096921,2096921,168632,693846,0
2096921,2096921,168628,693725,0
2096921,2096921,168510,693327,0
2096921,2096921,168344,693442,0
2096921,2096921,168319,693466,0
2096921,2096921,168293,693251,0
2096921,2096921,168431,693028,0
2096921,2096921,168611,692689,0
2096921,2096921,168472,692749,0
2096921,2096921,168500,692984,0
2096921,2096921,168353,692727,0
2096921,2096921,168195,692507,0
2096921,2096921,168072,692504,0
2096921,2096921,168112,692195,0
2096921,2096921,168222,692235,0
2096921,2096921,168077,692217,0
2096921,2096921,167903,691572,0
2096921,2096921,167690,691139,0
2096921,2096921,167676,691238,0
2096921,2096921,167667,691225,0
2096921,2096921,167729,691158,0
2096921,2096921,167307,690934,0
2096921,2096921,167122,690662,0
2096921,2096921,167555,690553,0
2096921,2096921,167317,690736,0
2096921,2096921,167356,690461,0
2096921,2096921,167137,689118,0
2096921,2096921,166522,688533,0
2096921,2096921,166678,688216,0
2096921,2096921,166793,688087,0
2096921,2096921,166581,688346,0
2096921,2096921,165852,686786,0
2096921,2096921,165630,685950,0
2096921,2096921,165532,685721,0
2096921,2096921,165546,685730,0
2096921,2096921,165861,686004,0
2096921,2096921,164835,684604,0
2096921,2096921,164746,684151,0
2096921,2096921,164869,684012,0
2096921,2096921,164594,683893,0
2096921,2096921,164905,683606,0
2096921,2096921,164311,682870,0
2096921,2096921,164129,682701,0
2096921,2096921,164331,682747,0
2096921,2096921,164422,682423,0
2096921,2096921,164415,682526,0
2096921,2096921,163985,681790,0
2096921,2096921,164161,681586,0
2096921,2096921,163857,681228,0
2096921,2096921,164080,681312,0
2096921,2096921,164093,681135,0
2096921,2096921,163669,681350,0
2096921,2096921,163574,680668,0
2096921,2096921,163668,680663,0
2096921,2096921,163455,680537,0
2096921,2096921,163310,680773,0
2096921,2096921,163561,680188,0
2096921,2096921,163382,679954,0
2096921,2096921,163214,679930,0
2096921,2096921,163297,679698,0
2096921,2096921,163520,679614,0
2096921,2096921,163585,679541,0
2096921,2096921,163329,679688,0
2096921,2096921,163388,679771,0
2096921,2096921,163280,679610,0
2096921,2096921,163391,679760,0
2096921,2096921,163327,679620,0
2096921,2096921,163398,679699,0
2096921,2096921,163324,679539,0
2096921,2096921,163291,679351,0
2096921,2096921,163165,679351,0
2096921,2096921,163183,679335,0
2096921,2096921,163448,679503,0
2096921,2096921,163643,679636,0
2096921,2096921,163484,679409,0
2096921,2096921,163284,679458,0
2096921,2096921,163277,679310,0
2096921,2096921,163562,679767,0
2096921,2096921,163442,679559,0
2096921,2096921,163296,679275,0
2096921,2096921,163174,679681,0
2096921,2096921,163395,679588,0
2096921,2096921,163191,679851,0
2096921,2096921,163523,679654,0
2096921,2096921,163324,679827,0
2096921,2096921,163505,679522,0
2096921,2096921,163434,679681,0
2096921,2096921,163349,679978,0
2096921,2096921,163433,679684,0
2096921,2096921,163448,679874,0
2096921,2096921,163277,680021,0
2096921,2096921,163441,680292,0
2096921,2096921,163819,680584,0
2096921,2096921,163801,680592,0
2096921,2096921,163580,680368,0
2096921,2096921,163589,680206,0
2096921,2096921,163571,680381,0
2096921,2096921,163660,680342,0
2096921,2096921,163913,680849,0
2096921,2096921,163654,680911,0
2096921,2096921,163870,680425,0
2096921,2096921,164015,680928,0
2096921,2096921,163863,681110,0
2096921,2096921,164046,680898,0
2096921,2096921,163973,681149,0
2096921,2096921,163919,680975,0
2096921,2096921,163973,681462,0
2096921,2096921,164048,681506,0
2096921,2096921,164368,681791,0
2096921,2096921,164154,681174,0
2096921,2096921,164046,681668,0
2096921,2096921,164318,682067,0
2096921,2096921,164030,682263,0
2096921,2096921,164556,682523,0
2096921,2096921,164340,682210,0
2096921,2096921,164038,681937,0
2096921,2096921,164547,682145,0
2096921,2096921,164591,682422,0
2096921,2096921,164164,682228,0
2096921,2096921,164715,682585,0
2096921,2096921,164637,682671,0
2096921,2096921,164811,682615,0
2096921,2096921,164827,682777,0
2096921,2096921,164466,682808,0
2096921,2096921,164691,682578,0
2096921,2096921,164572,682833,0
2096921,2096921,164574,682914,0
2096921,2096921,164650,682999,0
2096921,2096921,164776,683047,0
2096921,2096921,164662,683350,0
2096921,2096921,164620,683097,0
2096921,2096921,164693,683316,0
2096921,2096921,164683,683889,0
2096921,2096921,164886,683750,0
2096921,2096921,165059,683791,0
2096921,2096921,164946,683603,0
2096921,2096921,164998,683519,0
2096921,2096921,165236,684006,0
2096921,2096921,164944,683917,0
2096921,2096921,164946,683883,0
2096921,2096921,165072,684269,0
2096921,2096921,165280,684169,0
2096921,2096921,165039,684365,0
2096921,2096921,165193,684460,0
2096921,2096921,165244,684416,0
2096921,2096921,165260,684559,0
2096921,2096921,165392,684756,0
2096921,2096921,165338,684741,0
2096921,2096921,165496,684687,0
2096921,2096921,165669,684545,0
2096921,2096921,165403,684915,0
2096921,2096921,165568,684909,0
2096921,2096921,165414,685087,0
2096921,2096921,165175,684776,0
2096921,2096921,165424,684965,0
2096921,2096921,165568,685106,0
2096921,2096921,165357,685175,0
2096921,2096921,165785,685362,0
2096921,2096921,165558,685265,0
2096921,2096921,165531,685179,0
2096921,2096921,165712,685148,0
2096921,2096921,165697,685557,0
2096921,2096921,165668,685364,0
2096921,2096921,165745,685554,0
2096921,2096921,165618,685576,0
2096921,2096921,165547,685486,0
2096921,2096921,165845,685446,0
2096921,2096921,165552,685542,0
2096921,2096921,165487,685623,0
2096921,2096921,165570,685371,0
2096921,2096921,165756,685555,0
2096921,2096921,165542,685488,0
2096921,2096921,165888,685577,0
2096921,2096921,166020,685589,0
2096921,2096921,165468,685414,0
2096921,2096921,165783,685383,0
2096921,2096921,166016,685364,0
2096921,2096921,165645,685558,0
2096921,2096921,166060,685385,0
2096921,2096921,165985,685256,0
2096921,2096921,165430,685064,0
2096921,2096921,165459,685002,0
2096921,2096921,165740,685340,0
2096921,2096921,165662,685455,0
2096921,2096921,165570,685639,0
2096921,2096921,165686,685412,0
2096921,2096921,165524,685102,0
2096921,2096921,165546,684880,0
2096921,2096921,165415,685137,0
2096921,2096921,165892,684950,0
2096921,2096921,165637,685039,0
2096921,2096921,165613,684916,0
2096921,2096921,165130,684625,0
2096921,2096921,165434,684695,0
2096921,2096921,165397,684817,0
2096921,2096921,165502,684829,0
2096921,2096921,165612,684670,0
2096921,2096921,165304,684526,0
2096921,2096921,165383,684407,0
2096921,2096921,165365,684235,0
2096921,2096921,165574,684514,0
2096921,2096921,165278,684122,0
2096921,2096921,165221,684086,0
2096921,2096921,165380,684077,0
2096921,2096921,165392,683936,0
2096921,2096921,165394,683997,0
2096921,2096921,165155,683878,0
2096921,2096921,165196,683786,0
2096921,2096921,165245,683709,0
2096921,2096921,165267,683621,0
2096921,2096921,165571,683715,0
2096921,2096921,165268,683872,0
2096921,2096921,165229,683724,0
2096921,2096921,164762,683310,0
2096921,2096921,165243,683295,0
2096921,2096921,165035,683230,0
2096921,2096921,165461,683090,0
2096921,2096921,165363,683013,0
2096921,2096921,165106,682825,0
2096921,2096921,165046,683016,0
2096921,2096921,165126,683499,0
2096921,2096921,165204,683390,0
2096921,2096921,165106,683191,0
2096921,2096921,164844,683277,0
2096921,2096921,165008,683140,0
2096921,2096921,165041,683248,0
2096921,2096921,165059,683102,0
2096921,2096921,165108,682997,0
2096921,2096921,164895,683025,0
2096921,2096921,165169,683022,0
2096921,2096921,164795,683061,0
2096921,2096921,165260,683131,0
2096921,2096921,165178,682983,0
2096921,2096921,165048,682964,0
2096921,2096921,165030,683129,0
2096921,2096921,164741,683023,0
2096921,2096921,164944,682766,0
2096921,2096921,165130,683061,0
2096921,2096921,165149,683131,0
2096921,2096921,165107,683007,0
2096921,2096921,165210,683005,0
2096921,2096921,165035,683197,0
2096921,2096921,164945,683223,0
2096921,2096921,165012,683515,0
2096921,2096921,165038,683551,0
2096921,2096921,164999,683564,0
2096921,2096921,165382,683184,0
2096921,2096921,165131,683212,0
2096921,2096921,165065,683510,0
2096921,2096921,165196,683288,0
2096921,2096921,165161,683263,0
2096921,2096921,165014,683152,0
2096921,2096921,165447,683288,0
2096921,2096921,165076,683299,0
2096921,2096921,165128,683163,0
2096921,2096921,165019,683431,0
2096921,2096921,165021,683569,0
2096921,2096921,165228,682989,0
2096921,2096921,165119,682990,0
2096921,2096921,165075,683151,0
2096921,2096921,165213,683088,0
2096921,2096921,165552,683366,0
2096921,2096921,165180,682816,0
2096921,2096921,165256,682815,0
2096921,2096921,165259,683291,0
2096921,2096921,165291,683260,0
2096921,2096921,164910,683400,0
2096921,2096921,165235,683282,0
2096921,2096921,165321,683123,0
2096921,2096921,165547,683109,0
2096921,2096921,165277,683002,0
2096921,2096921,165233,683128,0
2096921,2096921,165439,683336,0
2096921,2096921,165470,683207,0
2096921,2096921,165199,683278,0
2096921,2096921,165470,683159,0
2096921,2096921,165321,683227,0
2096921,2096921,165281,683233,0
2096921,2096921,165371,683153,0
2096921,2096921,165328,683124,0
2096921,2096921,165428,682786,0
2096921,2096921,165483,683358,0
2096921,2096921,165432,683504,0
2096921,2096921,165357,683001,0
2096921,2096921,165462,683328,0
2096921,2096921,165319,683312,0
2096921,2096921,165354,683159,0
2096921,2096921,165359,683273,0
2096921,2096921,165346,683383,0
2096921,2096921,165622,683508,0
2096921,2096921,165448,683213,0
2096921,2096921,165465,683294,0
2096921,2096921,165703,683325,0
2096921,2096921,165525,683291,0
2096921,2096921,165250,683427,0
2096921,2096921,165400,682984,0
2096921,2096921,165310,683166,0
2096921,2096921,165538,682898,0
2096921,2096921,165472,682938,0
2096921,2096921,165457,683048,0
2096921,2096921,165586,683219,0
2096921,2096921,165483,682869,0
2096921,2096921,165530,682804,0
2096921,2096921,165596,683056,0
2096921,2096921,165694,683003,0
2096921,2096921,165549,683102,0
2096921,2096921,165126,683013,0
2096921,2096921,165382,682538,0
2096921,2096921,165527,682995,0
2096921,2096921,165503,683084,0
2096921,2096921,165462,682853,0
2096921,2096921,165450,682899,0
2096921,2096921,165626,682784,0
2096921,2096921,165711,682586,0
2096921,2096921,165468,682761,0
2096921,2096921,165654,682821,0
2096921,2096921,165708,682962,0
2096921,2096921,165511,683183,0
2096921,2096921,165450,683046,0
2096921,2096921,165574,682800,0
2096921,2096921,165560,683171,0
2096921,2096921,165387,682995,0
2096921,2096921,165586,683222,0
2096921,2096921,165766,683267,0
2096921,2096921,165693,683054,0
2096921,2096921,165519,683161,0
2096921,2096921,165750,682927,0
2096921,2096921,165622,682561,0
2096921,2096921,165570,682803,0
2096921,2096921,165344,682851,0
2096921,2096921,165599,682735,0
2096921,2096921,165335,682831,0
2096921,2096921,165714,682759,0
2096921,2096921,165483,682604,0
2096921,2096921,165584,682534,0
2096921,2096921,165767,682419,0
2096921,2096921,165263,682660,0
2096921,2096921,165636,682450,0
2096921,2096921,165252,682455,0
2096921,2096921,165604,682460,0
2096921,2096921,165612,682588,0
2096921,2096921,165962,682705,0
2096921,2096921,165533,682428,0
2096921,2096921,165661,682548,0
2096921,2096921,165275,682514,0
2096921,2096921,165252,682378,0
2096921,2096921,165288,682287,0
2096921,2096921,165375,682202,0
2096921,2096921,165265,682216,0
2096921,2096921,165241,682171,0
2096921,2096921,165525,682121,0
2096921,2096921,165346,682181,0
2096921,2096921,165582,681994,0
2096921,2096921,165809,682355,0
2096921,2096921,165653,682150,0
2096921,2096921,165431,682295,0
2096921,2096921,165615,682137,0
2096921,2096921,165290,681421,0
2096921,2096921,165507,681420,0
2096921,2096921,165234,681690,0
2096921,2096921,165491,681720,0
2096921,2096921,165435,681900,0
2096921,2096921,165188,681456,0
2096921,2096921,165151,681493,0
2096921,2096921,165418,681620,0
2096921,2096921,165270,681500,0
2096921,2096921,165477,681585,0
2096921,2096921,165415,681559,0
2096921,2096921,165245,681493,0
2096921,2096921,165297,681279,0
2096921,2096921,165406,681481,0
2096921,2096921,165177,681339,0
2096921,2096921,165390,680858,0
2096921,2096921,165434,680952,0
2096921,2096921,165231,681186,0
2096921,2096921,165220,681083,0
2096921,2096921,165015,680981,0
2096921,2096921,165167,680547,0
2096921,2096921,165379,680717,0
2096921,2096921,165327,680845,0
2096921,2096921,165094,680703,0
2096921,2096921,165098,680766,0
2096921,2096921,165250,680549,0
2096921,2096921,165040,680586,0
2096921,2096921,165125,680543,0
2096921,2096921,165320,680454,0
2096921,2096921,164887,680611,0
2096921,2096921,164885,680669,0
2096921,2096921,164710,680412,0
2096921,2096921,165017,679928,0
2096921,2096921,165139,680134,0
2096921,2096921,165241,680387,0
2096921,2096921,164960,680344,0
2096921,2096921,165140,680318,0
2096921,2096921,165025,680113,0
2096921,2096921,164833,680312,0
2096921,2096921,165134,680168,0
2096921,2096921,165066,679896,0
2096921,2096921,165152,679818,0
2096921,2096921,165002,679935,0
2096921,2096921,165094,679783,0
2096921,2096921,164895,679656,0
2096921,2096921,165243,679645,0
2096921,2096921,164866,679498,0
2096921,2096921,165063,679324,0
2096921,2096921,165156,679696,0
2096921,2096921,164998,679438,0
2096921,2096921,164972,679527,0
2096921,2096921,165068,679494,0
2096921,2096921,165074,679098,0
2096921,2096921,165233,679231,0
2096921,2096921,164845,679312,0
2096921,2096921,164871,679174,0
2096921,2096921,164945,679276,0
2096921,2096921,164983,679252,0
2096921,2096921,164633,679199,0
2096921,2096921,164882,679283,0
2096921,2096921,164962,678983,0
2096921,2096921,164960,678908,0
2096921,2096921,164973,679032,0
2096921,2096921,164776,678928,0
2096921,2096921,164520,678663,0
2096921,2096921,164591,678561,0
2096921,2096921,165047,678611,0
2096921,2096921,164946,678612,0
2096921,2096921,164889,678771,0
2096921,2096921,165024,678689,0
2096921,2096921,164552,678456,0
2096921,2096921,164473,678533,0
2096921,2096921,164642,678420,0
2096921,2096921,164488,678191,0
2096921,2096921,164621,678197,0
2096921,2096921,164441,678188,0
2096921,2096921,164647,678145,0
2096921,2096921,164597,678056,0
2096921,2096921,164450,678013,0
2096921,2096921,164510,677966,0
2096921,2096921,164682,677724,0
2096921,2096921,164328,677654,0
2096921,2096921,164621,677645,0
2096921,2096921,164760,677848,0
2096921,2096921,164384,677752,0
2096921,2096921,164390,677698,0
2096921,2096921,164782,677861,0
2096921,2096921,164453,677646,0
2096921,2096921,164675,677375,0
2096921,2096921,164858,677577,0
2096921,2096921,164218,676960,0
2096921,2096921,164351,677042,0
2096921,2096921,164497,677220,0
2096921,2096921,164534,677314,0
2096921,2096921,164258,677032,0
2096921,2096921,164168,677076,0
2096921,2096921,164399,676847,0
2096921,2096921,164427,677062,0
2096921,2096921,164601,676875,0
2096921,2096921,164280,676803,0
2096921,2096921,164398,676514,0
2096921,2096921,164266,676572,0
2096921,2096921,164387,676592,0
2096921,2096921,164260,676489,0
2096921,2096921,164170,676616,0
2096921,2096921,164482,676235,0
2096921,2096921,164271,676232,0
2096921,2096921,164301,676084,0
2096921,2096921,164593,676321,0
2096921,2096921,164357,675914,0
2096921,2096921,163904,675746,0
2096921,2096921,164255,675800,0
2096921,2096921,164269,675774,0
2096921,2096921,164203,675977,0
2096921,2096921,164184,675822,0
2096921,2096921,164239,675915,0
2096921,2096921,163945,675761,0
2096921,2096921,164204,675761,0
2096921,2096921,163795,675565,0
2096921,2096921,163624,675170,0
2096921,2096921,163788,675101,0
2096921,2096921,164030,675313,0
2096921,2096921,164029,675294,0
2096921,2096921,163983,675030,0
2096921,2096921,163873,674726,0
2096921,2096921,163962,674692,0
2096921,2096921,164015,674996,0
2096921,2096921,163824,675065,0
2096921,2096921,163721,675185,0
2096921,2096921,163828,674788,0
2096921,2096921,163802,674561,0
2096921,2096921,163752,674612,0
2096921,2096921,163929,674318,0
2096921,2096921,163733,674644,0
2096921,2096921,164006,674562,0
2096921,2096921,163669,674499,0
2096921,2096921,163641,674410,0
2096921,2096921,163519,674119,0
2096921,2096921,163661,674242,0
2096921,2096921,163561,674467,0
2096921,2096921,163471,673806,0
2096921,2096921,163348,673958,0
2096921,2096921,163451,673872,0
2096921,2096921,163735,673911,0
2096921,2096921,163605,673505,0
2096921,2096921,163610,673555,0
2096921,2096921,163510,673191,0
2096921,2096921,163479,673031,0
2096921,2096921,163343,673188,0
2096921,2096921,163029,672690,0
2096921,2096921,163272,672775,0
2096921,2096921,163012,672625,0
2096921,2096921,162902,672730,0
2096921,2096921,163153,672727,0
2096921,2096921,162906,671859,0
2096921,2096921,162991,671640,0
2096921,2096921,162895,671701,0
2096921,2096921,162835,671583,0
2096921,2096921,162847,671360,0
2096921,2096921,162777,670900,0
2096921,2096921,162381,670414,0
2096921,2096921,162549,670605,0
2096921,2096921,162394,670492,0
2096921,2096921,162484,670292,0
2096921,2096921,162316,669739,0
2096921,2096921,162167,669348,0
2096921,2096921,161842,669165,0
2096921,2096921,162059,669222,0
2096921,2096921,161949,669286,0
2096921,2096921,161493,667958,0
2096921,2096921,161369,666764,0
2096921,2096921,161312,666788,0
2096921,2096921,161397,666947,0
2096921,2096921,161331,666991,0
2096921,2096921,160721,665471,0
2096921,2096921,159990,664230,0
2096921,2096921,160132,664301,0
2096921,2096921,160288,664179,0
2096921,2096921,159972,664169,0
2096921,2096921,159588,662819,0
2096921,2096921,159439,662218,0
2096921,2096921,159285,661996,0
2096921,2096921,159262,662001,0
2096921,2096921,159683,662055,0
2096921,2096921,159077,660886,0
2096921,2096921,159001,660341,0
2096921,2096921,158934,660492,0
2096921,2096921,159071,660396,0
2096921,2096921,158832,660057,0
2096921,2096921,158718,659590,0
2096921,2096921,158460,659104,0
2096921,2096921,158446,658739,0
2096921,2096921,158503,659161,0
2096921,2096921,158199,659025,0
2096921,2096921,157904,658213,0
2096921,2096921,157979,658042,0
2096921,2096921,157715,658045,0
2096921,2096921,158211,658095,0
2096921,2096921,158149,658074,0
2096921,2096921,157917,657985,0
2096921,2096921,157508,657063,0
2096921,2096921,158127,657202,0
2096921,2096921,157976,657065,0
2096921,2096921,158055,656914,0
2096921,2096921,157829,656841,0
2096921,2096921,157561,656882,0
2096921,2096921,157623,656267,0
2096921,2096921,157444,656386,0
2096921,2096921,157589,656686,0
2096921,2096921,157491,656288,0
2096921,2096921,157490,656142,0
2096921,2096921,157389,656462,0
2096921,2096921,157198,656277,0
2096921,2096921,157601,656324,0
2096921,2096921,157438,656227,0
2096921,2096921,157487,656021,0
2096921,2096921,157602,655951,0
2096921,2096921,157564,656006,0
2096921,2096921,157490,655912,0
2096921,2096921,157553,655834,0
2096921,2096921,157507,655884,0
2096921,2096921,157568,655685,0
2096921,2096921,157598,655844,0
2096921,2096921,157462,655588,0
2096921,2096921,157261,655945,0
2096921,2096921,157570,655735,0
2096921,2096921,157539,656136,0
2096921,2096921,157378,655736,0
2096921,2096921,157472,655433,0
2096921,2096921,157582,655547,0
2096921,2096921,157410,655786,0
2096921,2096921,157652,655554,0
2096921,2096921,157437,655317,0
2096921,2096921,157706,655488,0
2096921,2096921,157617,655800,0
2096921,2096921,157708,655912,0
2096921,2096921,157576,655773,0
2096921,2096921,157419,656071,0
2096921,2096921,157628,656224,0
2096921,2096921,157506,656127,0
2096921,2096921,157600,655931,0
2096921,2096921,157488,656201,0
2096921,2096921,157357,656060,0
2096921,2096921,157662,656185,0
2096921,2096921,157682,656287,0
2096921,2096921,157424,656124,0
2096921,2096921,157578,656399,0
2096921,2096921,157511,656711,0
2096921,2096921,157534,656390,0
2096921,2096921,157754,656636,0
2096921,2096921,157892,656780,0
2096921,2096921,157705,656586,0
2096921,2096921,157986,656569,0
2096921,2096921,157796,656713,0
2096921,2096921,157667,657081,0
2096921,2096921,158042,656723,0
2096921,2096921,157754,656900,0
2096921,2096921,158152,656657,0
2096921,2096921,158344,656965,0
2096921,2096921,157948,657111,0
2096921,2096921,157876,657098,0
2096921,2096921,158173,657069,0
2096921,2096921,158086,657112,0
2096921,2096921,157854,657108,0
2096921,2096921,158193,657335,0
2096921,2096921,158562,657209,0
2096921,2096921,158040,657332,0
2096921,2096921,158150,657346,0
2096921,2096921,158442,657028,0
2096921,2096921,158779,657158,0
2096921,2096921,158258,657446,0
2096921,2096921,158308,657532,0
2096921,2096921,158408,657483,0
2096921,2096921,158666,657435,0
2096921,2096921,158379,657635,0
2096921,2096921,158461,657709,0
2096921,2096921,158551,657859,0
2096921,2096921,158405,657829,0
2096921,2096921,158226,657723,0
2096921,2096921,158224,658405,0
2096921,2096921,158479,658111,0
2096921,2096921,158563,658002,0
2096921,2096921,158477,658220,0
2096921,2096921,158183,658217,0
2096921,2096921,158397,658431,0
2096921,2096921,158613,658638,0
2096921,2096921,158712,658749,0
2096921,2096921,158540,658512,0
2096921,2096921,158522,658718,0
2096921,2096921,158675,658598,0
2096921,2096921,158851,658390,0
2096921,2096921,158923,658702,0
2096921,2096921,158946,658681,0
2096921,2096921,158567,659179,0
2096921,2096921,158778,659049,0
2096921,2096921,158623,658966,0
2096921,2096921,158802,658749,0
2096921,2096921,158711,658792,0
2096921,2096921,158723,659005,0
2096921,2096921,158803,658997,0
2096921,2096921,159207,659197,0
2096921,2096921,158895,659074,0
2096921,2096921,158945,659237,0
2096921,2096921,159218,659245,0
2096921,2096921,158746,659285,0
2096921,2096921,159035,659340,0
2096921,2096921,159282,659274,0
2096921,2096921,159421,659247,0
2096921,2096921,158880,659186,0
2096921,2096921,159133,659366,0
2096921,2096921,159071,659490,0
2096921,2096921,158872,659265,0
2096921,2096921,159039,659381,0
2096921,2096921,159091,659753,0
2096921,2096921,159132,659700,0
2096921,2096921,159099,659490,0
2096921,2096921,159059,659704,0
2096921,2096921,159223,659537,0
2096921,2096921,158989,659583,0
2096921,2096921,159080,659628,0
2096921,2096921,159141,659374,0
2096921,2096921,159084,659340,0
2096921,2096921,159201,659384,0
2096921,2096921,158911,659661,0
2096921,2096921,159335,659489,0
2096921,2096921,159137,659480,0
2096921,2096921,159090,659591,0
2096921,2096921,159032,659610,0
2096921,2096921,159112,659688,0
2096921,2096921,159000,659283,0
2096921,2096921,159121,659332,0
2096921,2096921,159172,659110,0
2096921,2096921,158995,659238,0
2096921,2096921,159138,659087,0
2096921,2096921,159238,659412,0
2096921,2096921,159065,659051,0
2096921,2096921,158946,659205,0
2096921,2096921,159037,659279,0
2096921,2096921,158759,659245,0
2096921,2096921,158994,659048,0
2096921,2096921,158911,659143,0
2096921,2096921,158956,658996,0
2096921,2096921,159063,659042,0
2096921,2096921,158992,658925,0
2096921,2096921,158741,658756,0
2096921,2096921,159255,658633,0
2096921,2096921,158750,658507,0
2096921,2096921,158791,658614,0
2096921,2096921,158915,658685,0
2096921,2096921,158553,658620,0
2096921,2096921,158837,658402,0
2096921,2096921,159180,658250,0
2096921,2096921,158753,658339,0
2096921,2096921,158675,658195,0
2096921,2096921,158789,658451,0
2096921,2096921,158690,658503,0
2096921,2096921,158559,657978,0
2096921,2096921,159025,658470,0
2096921,2096921,158758,658302,0
2096921,2096921,158712,658210,0
2096921,2096921,158732,658261,0
2096921,2096921,158736,658251,0
2096921,2096921,158801,657974,0
2096921,2096921,159078,658381,0
2096921,2096921,158849,658169,0
2096921,2096921,158667,658104,0
2096921,2096921,159030,658394,0
2096921,2096921,158809,658352,0
2096921,2096921,158513,658266,0
2096921,2096921,158541,658632,0
2096921,2096921,158430,658592,0
2096921,2096921,158496,658334,0
2096921,2096921,158777,658331,0
2096921,2096921,158887,658371,0
2096921,2096921,159109,658514,0
2096921,2096921,159068,658800,0
2096921,2096921,158951,659022,0
2096921,2096921,158734,658505,0
2096921,2096921,158859,658834,0
2096921,2096921,158900,658955,0
2096921,2096921,158875,658955,0
2096921,2096921,158795,659069,0
2096921,2096921,158810,658810,0
2096921,2096921,158925,658716,0
2096921,2096921,159015,659138,0
2096921,2096921,159071,659373,0
2096921,2096921,159270,659494,0
2096921,2096921,159151,659680,0
2096921,2096921,158853,659290,0
2096921,2096921,159184,659390,0
2096921,2096921,159015,659479,0
2096921,2096921,159142,659496,0
2096921,2096921,158781,659821,0
2096921,2096921,159129,659778,0
2096921,2096921,159264,659843,0
2096921,2096921,159006,659679,0
2096921,2096921,159399,659649,0
2096921,2096921,159423,660019,0
2096921,2096921,159322,659972,0
2096921,2096921,159382,660103,0
2096921,2096921,159569,660084,0
2096921,2096921,159382,660191,0
2096921,2096921,159613,660219,0
2096921,2096921,159384,660335,0
2096921,2096921,159454,660329,0
2096921,2096921,159327,660428,0
2096921,2096921,159471,660372,0
2096921,2096921,159481,660340,0
2096921,2096921,159374,660436,0
2096921,2096921,159494,660554,0
2096921,2096921,159530,660481,0
2096921,2096921,159611,660448,0
2096921,2096921,159714,660697,0
2096921,2096921,159552,660387,0
2096921,2096921,159688,661057,0
2096921,2096921,159758,660819,0
2096921,2096921,159940,660864,0
2096921,2096921,160017,661101,0
2096921,2096921,159742,660854,0
2096921,2096921,160031,661253,0
2096921,2096921,159654,661276,0
2096921,2096921,159767,661138,0
2096921,2096921,159915,661229,0
2096921,2096921,159989,660905,0
2096921,2096921,160021,661559,0
2096921,2096921,159876,661889,0
2096921,2096921,159993,661930,0
2096921,2096921,159899,661832,0
2096921,2096921,160109,661688,0
2096921,2096921,160003,661747,0
2096921,2096921,159898,661446,0
2096921,2096921,160003,661820,0
2096921,2096921,159943,661533,0
2096921,2096921,159984,661757,0
2096921,2096921,160199,661940,0
2096921,2096921,160266,662406,0
2096921,2096921,160006,662049,0
2096921,2096921,160127,662031,0
2096921,2096921,160183,662277,0
2096921,2096921,160031,662106,0
2096921,2096921,160358,662378,0
2096921,2096921,160402,662428,0
2096921,2096921,160365,662218,0
2096921,2096921,160180,662369,0
2096921,2096921,160408,662578,0
2096921,2096921,160256,662447,0
2096921,2096921,160515,662400,0
2096921,2096921,160254,662676,0
2096921,2096921,160218,662429,0
2096921,2096921,160516,662453,0
2096921,2096921,160362,662491,0
2096921,2096921,160337,662345,0
2096921,2096921,160288,662640,0
2096921,2096921,160292,662651,0
2096921,2096921,160208,662955,0
2096921,2096921,160654,662874,0
2096921,2096921,160706,663014,0
2096921,2096921,160579,663163,0
2096921,2096921,160368,662968,0
2096921,2096921,160349,662944,0
2096921,2096921,160637,663083,0
2096921,2096921,160737,663010,0
2096921,2096921,160737,663149,0
2096921,2096921,160680,662975,0
2096921,2096921,160820,663309,0
2096921,2096921,160615,663412,0
2096921,2096921,160630,663321,0
2096921,2096921,160553,663653,0
2096921,2096921,160456,663278,0
2096921,2096921,160476,663383,0
2096921,2096921,160275,663604,0
2096921,2096921,160533,663419,0
2096921,2096921,160601,663444,0
2096921,2096921,160906,663623,0
2096921,2096921,160879,663793,0
2096921,2096921,160617,663890,0
2096921,2096921,160905,663851,0
2096921,2096921,160550,663857,0
2096921,2096921,160870,663603,0
2096921,2096921,160660,663854,0
2096921,2096921,161009,663908,0
2096921,2096921,160916,663758,0
2096921,2096921,161108,663714,0
2096921,2096921,160618,663780,0
2096921,2096921,160868,663754,0
2096921,2096921,161022,664235,0
2096921,2096921,161055,664414,0
2096921,2096921,160838,664075,0
2096921,2096921,160968,664073,0
2096921,2096921,160976,664188,0
2096921,2096921,160888,664177,0
2096921,2096921,160790,664089,0
2096921,2096921,160839,664308,0
2096921,2096921,160800,664595,0
2096921,2096921,160842,664303,0
2096921,2096921,160785,664381,0
2096921,2096921,160620,664240,0
2096921,2096921,160968,664354,0
2096921,2096921,160863,664335,0
2096921,2096921,160892,664545,0
2096921,2096921,160978,664435,0
2096921,2096921,161110,664364,0
2096921,2096921,160990,664271,0
2096921,2096921,161025,664466,0
2096921,2096921,160755,664781,0
2096921,2096921,161293,665060,0
2096921,2096921,161185,664916,0
2096921,2096921,161232,664716,0
2096921,2096921,161106,664581,0
2096921,2096921,161060,664985,0
2096921,2096921,160872,664727,0
2096921,2096921,161097,664838,0
2096921,2096921,161295,664931,0
2096921,2096921,160927,664930,0
2096921,2096921,161122,665199,0
2096921,2096921,161442,664952,0
2096921,2096921,160986,665147,0
2096921,2096921,161409,664928,0
2096921,2096921,161382,665111,0
2096921,2096921,161237,664760,0
2096921,2096921,161207,665028,0
2096921,2096921,161334,665190,0
2096921,2096921,161226,665222,0
2096921,2096921,161464,665238,0
2096921,2096921,161330,665578,0
2096921,2096921,161253,665199,0
2096921,2096921,161173,665391,0
2096921,2096921,161241,665465,0
2096921,2096921,161335,665410,0
2096921,2096921,161395,665348,0
2096921,2096921,161467,665600,0
2096921,2096921,161409,665365,0
2096921,2096921,161652,665494,0
2096921,2096921,161654,665431,0
2096921,2096921,161355,665660,0
2096921,2096921,161525,665744,0
2096921,2096921,161438,665708,0
2096921,2096921,161292,665717,0
2096921,2096921,161476,665539,0
2096921,2096921,161677,665542,0
2096921,2096921,161509,665297,0
2096921,2096921,161492,665610,0
2096921,2096921,161511,665798,0
2096921,2096921,161459,666031,0
2096921,2096921,161432,665893,0
2096921,2096921,161314,666046,0
2096921,2096921,161412,665901,0
2096921,2096921,161678,665878,0
2096921,2096921,161566,665763,0
2096921,2096921,161350,665774,0
2096921,2096921,161423,666108,0
2096921,2096921,161545,666122,0
2096921,2096921,161564,666108,0
2096921,2096921,161620,665970,0
2096921,2096921,161598,666342,0
2096921,2096921,161417,666064,0
2096921,2096921,161829,666278,0
2096921,2096921,161521,666584,0
2096921,2096921,161803,666322,0
2096921,2096921,161852,666640,0
2096921,2096921,161587,666299,0
2096921,2096921,161521,666379,0
2096921,2096921,161681,666352,0
2096921,2096921,161793,666475,0
2096921,2096921,161467,666432,0
2096921,2096921,161521,666707,0
2096921,2096921,161502,666412,0
2096921,2096921,161656,666346,0
2096921,2096921,161665,666769,0
2096921,2096921,161454,666598,0
2096921,2096921,161842,666691,0
2096921,2096921,161900,667034,0
2096921,2096921,161547,666811,0
2096921,2096921,161943,666866,0
2096921,2096921,161792,666967,0
2096921,2096921,161904,666881,0
2096921,2096921,161884,667083,0
2096921,2096921,161810,667454,0
2096921,2096921,162064,666951,0
2096921,2096921,161827,667140,0
2096921,2096921,161788,667332,0
2096921,2096921,161665,667107,0
2096921,2096921,161773,667260,0
2096921,2096921,161829,667270,0
2096921,2096921,161960,667286,0
2096921,2096921,161983,667508,0
2096921,2096921,162015,667659,0
2096921,2096921,161898,667677,0
2096921,2096921,162412,667939,0
2096921,2096921,161976,667999,0
2096921,2096921,162098,667784,0
2096921,2096921,162045,667794,0
2096921,2096921,161927,667801,0
2096921,2096921,162029,667750,0
2096921,2096921,162044,668080,0
2096921,2096921,161861,667929,0
2096921,2096921,162128,667759,0
2096921,2096921,162286,667747,0
2096921,2096921,162242,667908,0
2096921,2096921,162358,668318,0
2096921,2096921,162049,668212,0
2096921,2096921,161967,667928,0
2096921,2096921,162096,668086,0
2096921,2096921,161995,668394,0
2096921,2096921,162200,668333,0
2096921,2096921,162320,668451,0
2096921,2096921,162159,668193,0
2096921,2096921,162338,668592,0
2096921,2096921,162255,668453,0
2096921,2096921,162089,668455,0
2096921,2096921,162071,668233,0
2096921,2096921,162247,668450,0
2096921,2096921,161975,668276,0
2096921,2096921,162106,668194,0
2096921,2096921,162206,668519,0
2096921,2096921,162158,668642,0
2096921,2096921,162523,668629,0
2096921,2096921,162555,668871,0
2096921,2096921,162338,668722,0
2096921,2096921,162352,668756,0
2096921,2096921,162071,668480,0
2096921,2096921,162053,668963,0
2096921,2096921,162340,669129,0
2096921,2096921,162254,669256,0
2096921,2096921,162286,668944,0
2096921,2096921,162326,668984,0
2096921,2096921,162607,669110,0
2096921,2096921,162509,669138,0
2096921,2096921,162381,669113,0
2096921,2096921,162129,669349,0
2096921,2096921,162140,669487,0
2096921,2096921,162450,669222,0
2096921,2096921,162515,669167,0
2096921,2096921,162703,669380,0
2096921,2096921,162668,669506,0
2096921,2096921,162488,669714,0
2096921,2096921,162295,669558,0
2096921,2096921,162475,669597,0
2096921,2096921,162241,669663,0
2096921,2096921,162338,669790,0
2096921,2096921,162845,669878,0
2096921,2096921,162310,669696,0
2096921,2096921,162556,669502,0
2096921,2096921,162584,669784,0
2096921,2096921,162182,669775,0
2096921,2096921,162403,669533,0
2096921,2096921,162597,669666,0
2096921,2096921,162455,669611,0
2096921,2096921,162202,669356,0
2096921,2096921,162634,669378,0
2096921,2096921,162132,669322,0
2096921,2096921,162444,668976,0
2096921,2096921,162420,669327,0
2096921,2096921,162301,669683,0
2096921,2096921,162220,669177,0
2096921,2096921,162334,669265,0
2096921,2096921,162172,669293,0
2096921,2096921,162312,669235,0
2096921,2096921,162488,668907,0
2096921,2096921,162147,668827,0
2096921,2096921,162214,668152,0
2096921,2096921,162401,668618,0
2096921,2096921,162200,668474,0
2096921,2096921,162071,668444,0
2096921,2096921,161894,668056,0
2096921,2096921,161643,667580,0
2096921,2096921,161758,667786,0
2096921,2096921,161545,668046,0
2096921,2096921,161703,667965,0
2096921,2096921,160934,666620,0
2096921,2096921,161313,666335,0
2096921,2096921,160972,666031,0
2096921,2096921,161050,666014,0
2096921,2096921,161047,666056,0
2096921,2096921,160227,664844,0
2096921,2096921,159807,664066,0
2096921,2096921,160134,663759,0
2096921,2096921,160017,663794,0
2096921,2096921,160001,664030,0
2096921,2096921,159587,662765,0
2096921,2096921,159437,662444,0
2096921,2096921,159240,661979,0
2096921,2096921,159580,662305,0
2096921,2096921,159591,662333,0
2096921,2096921,159257,661752,0
2096921,2096921,159147,661301,0
2096921,2096921,159110,661201,0
2096921,2096921,158999,661026,0
2096921,2096921,158998,660903,0
2096921,2096921,158642,660560,0
2096921,2096921,158450,660623,0
2096921,2096921,158990,660365,0
2096921,2096921,158772,660107,0
2096921,2096921,158745,660173,0
2096921,2096921,158701,659918,0
2096921,2096921,158384,660020,0
2096921,2096921,158314,659599,0
2096921,2096921,158266,659827,0
2096921,2096921,158353,659848,0
2096921,2096921,158462,659783,0
2096921,2096921,158408,659454,0
2096921,2096921,158209,659691,0
2096921,2096921,158363,659265,0
2096921,2096921,158092,659381,0
2096921,2096921,158292,659304,0
2096921,2096921,158143,659619,0
2096921,2096921,158178,659734,0
2096921,2096921,158445,659675,0
2096921,2096921,158433,659527,0
2096921,2096921,158630,659651,0
2096921,2096921,158279,659681,0
2096921,2096921,158292,659680,0
2096921,2096921,158042,659729,0
2096921,2096921,158350,659622,0
2096921,2096921,158437,659910,0
2096921,2096921,158405,659860,0
2096921,2096921,158487,660151,0
2096921,2096921,158669,660086,0
2096921,2096921,158385,660041,0
2096921,2096921,158661,660685,0
2096921,2096921,158488,660723,0
2096921,2096921,158795,660667,0
2096921,2096921,158766,660647,0
2096921,2096921,158556,660799,0
2096921,2096921,158580,660928,0
2096921,2096921,158772,661027,0
2096921,2096921,158666,661024,0
2096921,2096921,158752,660952,0
2096921,2096921,158480,661127,0
2096921,2096921,158715,661304,0
2096921,2096921,158949,661485,0
2096921,2096921,158746,661635,0
2096921,2096921,158735,661421,0
2096921,2096921,158911,661305,0
2096921,2096921,159066,661975,0
2096921,2096921,159014,662127,0
2096921,2096921,159091,662145,0
2096921,2096921,159047,662221,0
2096921,2096921,158900,662328,0
2096921,2096921,159120,662395,0
2096921,2096921,159238,662827,0
2096921,2096921,159136,663004,0
2096921,2096921,159296,663245,0
2096921,2096921,159254,663066,0
2096921,2096921,159394,663449,0
2096921,2096921,159636,663770,0
2096921,2096921,159947,663828,0
2096921,2096921,159710,664033,0
2096921,2096921,159834,663868,0
2096921,2096921,159804,664152,0
2096921,2096921,159892,664472,0
2096921,2096921,159785,664285,0
2096921,2096921,159971,664538,0
2096921,2096921,159663,664358,0
2096921,2096921,159995,664866,0
2096921,2096921,160085,665315,0
2096921,2096921,159869,665584,0
2096921,2096921,160321,665584,0
2096921,2096921,160004,665245,0
2096921,2096921,160245,665632,0
2096921,2096921,160118,666167,0
2096921,2096921,160430,666109,0
2096921,2096921,160162,666049,0
2096921,2096921,160165,666064,0
2096921,2096921,160360,666407,0
2096921,2096921,160556,666635,0
2096921,2096921,160654,666823,0
2096921,2096921,160561,666824,0
2096921,2096921,160597,666586,0
2096921,2096921,160800,667298,0
2096921,2096921,160568,667459,0
2096921,2096921,160839,667450,0
2096921,2096921,160855,667332,0
2096921,2096921,160893,667515,0
2096921,2096921,161094,668074,0
2096921,2096921,161189,668170,0
2096921,2096921,161231,668544,0
2096921,2096921,161141,668502,0
2096921,2096921,161117,668359,0
2096921,2096921,161381,668790,0
2096921,2096921,161386,668846,0
2096921,2096921,161381,669194,0
2096921,2096921,161274,669158,0
2096921,2096921,161453,669340,0
2096921,2096921,161663,669779,0
2096921,2096921,161664,670116,0
2096921,2096921,161729,670024,0
2096921,2096921,161610,670129,0
2096921,2096921,161567,670245,0
2096921,2096921,161744,670520,0
2096921,2096921,161670,670852,0
2096921,2096921,162026,670591,0
2096921,2096921,161687,670586,0
2096921,2096921,161880,670916,0
2096921,2096921,161807,671133,0
2096921,2096921,162101,671517,0
2096921,2096921,162142,671606,0
2096921,2096921,162245,671866,0
2096921,2096921,162028,671383,0
2096921,2096921,162205,671760,0
2096921,2096921,162124,671794,0
2096921,2096921,162163,671789,0
2096921,2096921,162182,671745,0
2096921,2096921,162493,671878,0
2096921,2096921,162362,672018,0
2096921,2096921,162353,672319,0
2096921,2096921,162181,672254,0
2096921,2096921,162313,672575,0
2096921,2096921,162302,672369,0
2096921,2096921,162696,672658,0
2096921,2096921,162559,672499,0
2096921,2096921,162493,672902,0
2096921,2096921,162402,672832,0
2096921,2096921,162350,672938,0
2096921,2096921,162742,673202,0
2096921,2096921,162440,673228,0
2096921,2096921,162801,673396,0
2096921,2096921,162663,673258,0
2096921,2096921,162205,673338,0
2096921,2096921,162649,673608,0
2096921,2096921,162627,673565,0
2096921,2096921,162640,673545,0
2096921,2096921,162952,673794,0
2096921,2096921,162719,673686,0
2096921,2096921,162678,673641,0
2096921,2096921,162893,673788,0
2096921,2096921,162830,673983,0
2096921,2096921,163142,673894,0
2096921,2096921,163007,673979,0
2096921,2096921,162960,674169,0
2096921,2096921,162966,674312,0
2096921,2096921,162864,674230,0
2096921,2096921,162700,674310,0
2096921,2096921,162614,674161,0
2096921,2096921,162903,674292,0
2096921,2096921,162888,674298,0
2096921,2096921,162721,674591,0
2096921,2096921,162895,674648,0
2096921,2096921,162972,674654,0
2096921,2096921,163181,674280,0
2096921,2096921,163212,674766,0
2096921,2096921,162774,674466,0
2096921,2096921,163062,674654,0
2096921,2096921,163378,674910,0
2096921,2096921,162695,674438,0
2096921,2096921,162984,674714,0
2096921,2096921,162870,674878,0
2096921,2096921,163104,674905,0
2096921,2096921,162886,674743,0
2096921,2096921,163124,675214,0
2096921,2096921,163123,675139,0
2096921,2096921,162942,674953,0
2096921,2096921,163030,674993,0
2096921,2096921,163023,674881,0
2096921,2096921,162804,675046,0
2096921,2096921,163022,675233,0
2096921,2096921,162929,675108,0
2096921,2096921,162939,675074,0
2096921,2096921,163173,675395,0
2096921,2096921,163215,675304,0
2096921,2096921,163178,675594,0
2096921,2096921,163437,675866,0
2096921,2096921,163165,675740,0
2096921,2096921,163173,675743,0
2096921,2096921,163094,676197,0
2096921,2096921,163159,676090,0
2096921,2096921,163480,676118,0
2096921,2096921,163067,675954,0
2096921,2096921,163041,676135,0
2096921,2096921,163451,676559,0
2096921,2096921,163462,676528,0
2096921,2096921,163469,676265,0
2096921,2096921,163383,676679,0
2096921,2096921,163418,676746,0
2096921,2096921,163490,676654,0
2096921,2096921,163768,677103,0
2096921,2096921,163516,677152,0
2096921,2096921,163714,676904,0
2096921,2096921,163797,676994,0
2096921,2096921,163824,677551,0
2096921,2096921,163715,677463,0
2096921,2096921,163957,677554,0
2096921,2096921,164036,677547,0
2096921,2096921,163558,677771,0
2096921,2096921,163957,677953,0
2096921,2096921,163735,678340,0
2096921,2096921,163889,678229,0
2096921,2096921,163762,678603,0
2096921,2096921,163887,678463,0
2096921,2096921,163920,678871,0
2096921,2096921,164224,678800,0
2096921,2096921,164041,679158,0
2096921,2096921,163997,679015,0
2096921,2096921,163954,679033,0
2096921,2096921,164372,679056,0
2096921,2096921,164245,679536,0
2096921,2096921,164277,679538,0
2096921,2096921,164056,679578,0
2096921,2096921,164426,679568,0
2096921,2096921,164442,679875,0
2096921,2096921,164492,679946,0
2096921,2096921,164687,680170,0
2096921,2096921,164300,680031,0
2096921,2096921,164454,679738,0
2096921,2096921,164863,680347,0
2096921,2096921,164691,680547,0
2096921,2096921,164536,680896,0
2096921,2096921,164630,680497,0
2096921,2096921,164340,680501,0
2096921,2096921,164708,681051,0
2096921,2096921,164530,681109,0
2096921,2096921,164615,681215,0
2096921,2096921,164780,680903,0
2096921,2096921,164852,681295,0
2096921,2096921,164954,681595,0
2096921,2096921,165206,681603,0
2096921,2096921,164965,681925,0
2096921,2096921,164734,681682,0
2096921,2096921,164660,681587,0
2096921,2096921,165050,681812,0
2096921,2096921,165031,682105,0
2096921,2096921,164920,682039,0
2096921,2096921,164997,681879,0
2096921,2096921,165171,682149,0
2096921,2096921,165213,682299,0
2096921,2096921,165085,682902,0
2096921,2096921,165083,682860,0
2096921,2096921,165388,683103,0
2096921,2096921,165358,682968,0
2096921,2096921,165502,683424,0
2096921,2096921,165659,683268,0
2096921,2096921,165459,683347,0
2096921,2096921,165599,683533,0
2096921,2096921,165695,683393,0
2096921,2096921,165666,683764,0
2096921,2096921,165741,684125,0
2096921,2096921,165861,684201,0
2096921,2096921,165608,683975,0
2096921,2096921,165478,683981,0
2096921,2096921,165753,684294,0
2096921,2096921,165864,684272,0
2096921,2096921,165884,684148,0
2096921,2096921,165826,684368,0
2096921,2096921,165858,684244,0
2096921,2096921,166033,684693,0
2096921,2096921,165958,685153,0
2096921,2096921,165833,684989,0
2096921,2096921,166063,684884,0
2096921,2096921,165787,685360,0
2096921,2096921,165749,685353,0
2096921,2096921,165842,685335,0
2096921,2096921,166097,685285,0
2096921,2096921,165873,685232,0
2096921,2096921,166124,685218,0
2096921,2096921,166398,685539,0
2096921,2096921,166218,685773,0
2096921,2096921,166711,685673,0
2096921,2096921,166487,685825,0
2096921,2096921,166399,685807,0
2096921,2096921,166407,685992,0
2096921,2096921,166317,686489,0
2096921,2096921,166284,686415,0
2096921,2096921,166466,686358,0
2096921,2096921,166287,686678,0
2096921,2096921,166649,686817,0
2096921,2096921,166820,686938,0
2096921,2096921,166364,687147,0
2096921,2096921,166530,686856,0
2096921,2096921,166402,687035,0
2096921,2096921,166575,687268,0
2096921,2096921,166469,687137,0
2096921,2096921,166595,687134,0
2096921,2096921,166865,687038,0
2096921,2096921,166706,687347,0
2096921,2096921,167070,687641,0
2096921,2096921,166869,687728,0
2096921,2096921,167058,687575,0
2096921,2096921,166757,687547,0
2096921,2096921,166525,687690,0
2096921,2096921,166787,687925,0
2096921,2096921,166839,688158,0
2096921,2096921,166828,687699,0
2096921,2096921,166837,687828,0
2096921,2096921,166720,687931,0
2096921,2096921,166863,688257,0
2096921,2096921,167055,688462,0
2096921,2096921,166949,688676,0
2096921,2096921,166866,688602,0
2096921,2096921,166828,688281,0
2096921,2096921,167011,688185,0
2096921,2096921,167168,688703,0
2096921,2096921,167322,688708,0
2096921,2096921,167072,688698,0
2096921,2096921,167136,688629,0
2096921,2096921,167069,688991,0
2096921,2096921,167284,689334,0
2096921,2096921,167266,688998,0
2096921,2096921,167435,689304,0
2096921,2096921,167244,689381,0
2096921,2096921,167146,689555,0
2096921,2096921,167337,689311,0
2096921,2096921,167500,689655,0
2096921,2096921,167308,689516,0
2096921,2096921,167447,689828,0
2096921,2096921,167602,689620,0
2096921,2096921,167155,689754,0
2096921,2096921,167427,689973,0
2096921,2096921,167236,689781,0
2096921,2096921,167283,689654,0
2096921,2096921,167530,690242,0
2096921,2096921,167815,690119,0
2096921,2096921,167649,689788,0
2096921,2096921,167666,689963,0
2096921,2096921,167380,690195,0
2096921,2096921,167805,690209,0
2096921,2096921,167628,690641,0
2096921,2096921,167670,690308,0
2096921,2096921,167661,690337,0
2096921,2096921,168042,690424,0
2096921,2096921,167874,690392,0
2096921,2096921,167794,690401,0
2096921,2096921,167702,690728,0
2096921,2096921,167680,690833,0
2096921,2096921,167813,690497,0
2096921,2096921,167687,691088,0
2096921,2096921,167868,691093,0
2096921,2096921,167818,691062,0
2096921,2096921,167970,690841,0
2096921,2096921,167827,690870,0
2096921,2096921,168335,691283,0
2096921,2096921,168146,691498,0
2096921,2096921,167971,691118,0
2096921,2096921,168045,691343,0
2096921,2096921,168215,691191,0
2096921,2096921,168093,691257,0
2096921,2096921,168057,691441,0
2096921,2096921,168110,691273,0
2096921,2096921,168005,691283,0
2096921,2096921,168002,691568,0
2096921,2096921,168108,691927,0
2096921,2096921,167784,691853,0
2096921,2096921,167942,691905,0
2096921,2096921,167995,692029,0
2096921,2096921,167988,691704,0
2096921,2096921,168335,691847,0
2096921,2096921,168224,691722,0
2096921,2096921,168077,691895,0
2096921,2096921,168430,691944,0
2096921,2096921,168225,691991,0
2096921,2096921,167822,692212,0
2096921,2096921,168211,692453,0
2096921,2096921,168229,692390,0
2096921,2096921,167927,692217,0
2096921,2096921,168138,692245,0
2096921,2096921,168241,692297,0
2096921,2096921,168250,692434,0
2096921,2096921,168460,692680,0
2096921,2096921,168188,692244,0
2096921,2096921,168228,692674,0
2096921,2096921,168455,692502,0
2096921,2096921,168373,692657,0
2096921,2096921,168299,692366,0
2096921,2096921,168215,692876,0
2096921,2096921,168318,692568,0
2096921,2096921,168279,692798,0
2096921,2096921,168382,692996,0
2096921,2096921,168332,692716,0
2096921,2096921,168466,692602,0
2096921,2096921,168448,692671,0
2096921,2096921,168293,692695,0
2096921,2096921,168122,692799,0
2096921,2096921,168551,693037,0
2096921,2096921,168268,693061,0
2096921,2096921,168512,693291,0
2096921,2096921,168346,693013,0
2096921,2096921,168441,693416,0
2096921,2096921,168633,693396,0
2096921,2096921,168567,693287,0
2096921,2096921,168479,693033,0
2096921,2096921,168376,693323,0
2096921,2096921,168445,693314,0
2096921,2096921,168351,693109,0
2096921,2096921,168554,693164,0
2096921,2096921,168251,693295,0
2096921,2096921,168528,693460,0
2096921,2096921,168707,693545,0
2096921,2096921,168855,693592,0
2096921,2096921,168585,693491,0
2096921,2096921,168746,693294,0
2096921,2096921,168534,693534,0
2096921,2096921,168720,693432,0
2096921,2096921,168501,693101,0
2096921,2096921,168273,693437,0
2096921,2096921,168575,693485,0
2096921,2096921,168913,693736,0
2096921,2096921,168612,693717,0
2096921,2096921,168688,693650,0
2096921,2096921,168687,693510,0
2096921,2096921,168538,693700,0
2096921,2096921,168794,693458,0
2096921,2096921,168590,693618,0
2096921,2096921,168567,693498,0
2096921,2096921,168591,693439,0
2096921,2096921,168701,693627,0
2096921,2096921,168733,693570,0
2096921,2096921,168829,693658,0
2096921,2096921,168801,693496,0
2096921,2096921,168826,693624,0
2096921,2096921,168584,693664,0
2096921,2096921,168896,693448,0
2096921,2096921,168577,693202,0
2096921,2096921,168628,693380,0
2096921,2096921,168547,693228,0
2096921,2096921,168647,693624,0
2096921,2096921,168677,693399,0
2096921,2096921,168419,693920,0
2096921,2096921,168689,693771,0
2096921,2096921,168749,693761,0
2096921,2096921,168409,693619,0
2096921,2096921,168411,693618,0
2096921,2096921,168623,693373,0
2096921,2096921,168471,693620,0
2096921,2096921,168609,693611,0
2096921,2096921,168359,693613,0
2096921,2096921,168600,693545,0
2096921,2096921,168638,693783,0
2096921,2096921,168801,693426,0
2096921,2096921,168622,693895,0
2096921,2096921,168528,693505,0
2096921,2096921,168752,693639,0
2096921,2096921,168598,693920,0
2096921,2096921,168572,693693,0
2096921,2096921,168941,693365,0
2096921,2096921,168959,693405,0
2096921,2096921,168588,693646,0
2096921,2096921,168497,693578,0
2096921,2096921,168635,693689,0
2096921,2096921,168659,693740,0
2096921,2096921,168562,693892,0
2096921,2096921,168534,693812,0
2096921,2096921,168744,693715,0
2096921,2096921,168665,693810,0
2096921,2096921,168672,693671,0
2096921,2096921,168797,693586,0
2096921,2096921,168545,693406,0
2096921,2096921,168814,693260,0
2096921,2096921,168592,693284,0
2096921,2096921,168612,693259,0
2096921,2096921,168612,693108,0
2096921,2096921,168386,692984,0
2096921,2096921,168533,692562,0
2096921,2096921,168290,692798,0
2096921,2096921,168232,692515,0
2096921,2096921,168424,692997,0
2096921,2096921,168185,692537,0
2096921,2096921,168281,692584,0
2096921,2096921,168352,692349,0
2096921,2096921,167932,692082,0
2096921,2096921,167694,692487,0
2096921,2096921,167650,691517,0
2096921,2096921,167772,691434,0
2096921,2096921,167830,691362,0
2096921,2096921,167843,691292,0
2096921,2096921,167948,691238,0
2096921,2096921,167717,690733,0
2096921,2096921,167403,690402,0
2096921,2096921,167822,690491,0
2096921,2096921,167168,690138,0
2096921,2096921,167547,690183,0
2096921,2096921,166695,688718,0
2096921,2096921,166547,688307,0
2096921,2096921,166711,688328,0
2096921,2096921,166383,688236,0
2096921,2096921,166476,688080,0
2096921,2096921,165827,686341,0
2096921,2096921,165614,685825,0
2096921,2096921,165606,685495,0
2096921,2096921,165555,685949,0
2096921,2096921,165271,685683,0
2096921,2096921,165028,684049,0
2096921,2096921,165123,683631,0
2096921,2096921,164719,683900,0
2096921,2096921,164862,683903,0
2096921,2096921,164815,683647,0
2096921,2096921,164370,682531,0
2096921,2096921,164402,682202,0
2096921,2096921,164238,682556,0
2096921,2096921,164252,682267,0
2096921,2096921,164176,682132,0
2096921,2096921,163973,681388,0
2096921,2096921,163998,681257,0
2096921,2096921,164053,680649,0
2096921,2096921,163953,680821,0
2096921,2096921,163976,681273,0
2096921,2096921,163912,680617,0
2096921,2096921,163792,680351,0
2096921,2096921,163800,680574,0
2096921,2096921,163565,680163,0
2096921,2096921,163637,680375,0
2096921,2096921,163297,680123,0
2096921,2096921,163736,679840,0
2096921,2096921,163418,680079,0
2096921,2096921,163421,679748,0
2096921,2096921,163573,679574,0
2096921,2096921,163454,679340,0
2096921,2096921,163400,679413,0
2096921,2096921,163371,679567,0
2096921,2096921,163286,679488,0
2096921,2096921,163113,679384,0
2096921,2096921,163520,679415,0
2096921,2096921,163403,679491,0
2096921,2096921,163141,679252,0
2096921,2096921,163216,679314,0
2096921,2096921,163391,679195,0
2096921,2096921,163633,679602,0
2096921,2096921,163354,679428,0
2096921,2096921,163320,679309,0
2096921,2096921,163305,679616,0
2096921,2096921,163127,679433,0
2096921,2096921,163331,679456,0
2096921,2096921,163091,679806,0
2096921,2096921,163405,679548,0
2096921,2096921,163359,679571,0
2096921,2096921,163224,679653,0
2096921,2096921,163156,679731,0
2096921,2096921,163351,679806,0
2096921,2096921,163701,679839,0
2096921,2096921,163562,679396,0
2096921,2096921,163772,679869,0
2096921,2096921,163432,679893,0
2096921,2096921,163591,679791,0
2096921,2096921,163624,680026,0
2096921,2096921,163391,679846,0
2096921,2096921,163705,679765,0
2096921,2096921,163858,680247,0
2096921,2096921,163558,680197,0
2096921,2096921,163670,680143,0
2096921,2096921,163699,680565,0
2096921,2096921,163728,680367,0
2096921,2096921,163881,680582,0
2096921,2096921,164134,680744,0
2096921,2096921,163655,680716,0
2096921,2096921,163834,680621,0
2096921,2096921,164027,680803,0
2096921,2096921,164052,680986,0
2096921,2096921,164105,680976,0
2096921,2096921,163820,681448,0
2096921,2096921,163917,680988,0
2096921,2096921,163941,681160,0
2096921,2096921,164266,681502,0
2096921,2096921,163955,681559,0
2096921,2096921,164291,681757,0
2096921,2096921,164092,681756,0
2096921,2096921,164085,681589,0
2096921,2096921,163909,681716,0
2096921,2096921,164148,681931,0
2096921,2096921,163891,681718,0
2096921,2096921,164334,682139,0
2096921,2096921,164270,682083,0
2096921,2096921,164530,682246,0
2096921,2096921,164196,682377,0
2096921,2096921,164490,682528,0
2096921,2096921,164082,682400,0
2096921,2096921,164244,682355,0
2096921,2096921,164355,682434,0
2096921,2096921,164247,682763,0
2096921,2096921,164478,682727,0
2096921,2096921,164793,682995,0
2096921,2096921,164374,682564,0
2096921,2096921,164443,683007,0
2096921,2096921,164845,683186,0
2096921,2096921,164453,683277,0
2096921,2096921,164536,683068,0
2096921,2096921,164667,683009,0
2096921,2096921,164748,683378,0
2096921,2096921,164794,683149,0
2096921,2096921,165153,683414,0
2096921,2096921,164872,683615,0
2096921,2096921,164740,683476,0
2096921,2096921,165202,683753,0
2096921,2096921,165007,683867,0
2096921,2096921,164961,684012,0
2096921,2096921,165252,684184,0
2096921,2096921,164817,683918,0
2096921,2096921,165217,684381,0
2096921,2096921,165543,684327,0
2096921,2096921,165432,684523,0
2096921,2096921,165381,684522,0
2096921,2096921,165259,684658,0
2096921,2096921,165065,684649,0
2096921,2096921,165319,684838,0
2096921,2096921,165208,684863,0
2096921,2096921,165081,684744,0
2096921,2096921,165527,684922,0
2096921,2096921,165358,685129,0
2096921,2096921,165620,685225,0
2096921,2096921,165455,684890,0
2096921,2096921,165747,685061,0
2096921,2096921,165302,684927,0
2096921,2096921,165414,685391,0
2096921,2096921,165430,685114,0
2096921,2096921,165202,685214,0
2096921,2096921,165390,685272,0
2096921,2096921,165676,685492,0
2096921,2096921,165748,685292,0
2096921,2096921,165857,685561,0
2096921,2096921,165833,685423,0
2096921,2096921,165585,685597,0
2096921,2096921,165455,685349,0
2096921,2096921,165536,685892,0
2096921,2096921,165713,685611,0
2096921,2096921,165596,685380,0
2096921,2096921,165670,685329,0
2096921,2096921,165634,685293,0
2096921,2096921,165926,685480,0
2096921,2096921,165535,685779,0
2096921,2096921,165602,685620,0
2096921,2096921,165690,685543,0
2096921,2096921,165720,685748,0
2096921,2096921,165502,685254,0
2096921,2096921,165719,685080,0
2096921,2096921,165635,685354,0
2096921,2096921,165849,685652,0
2096921,2096921,165570,685530,0
2096921,2096921,165586,685451,0
2096921,2096921,165450,685108,0
2096921,2096921,165697,685470,0
2096921,2096921,165713,685421,0
2096921,2096921,165758,685268,0
2096921,2096921,165625,685123,0
2096921,2096921,165496,684992,0
2096921,2096921,165843,684907,0
2096921,2096921,165683,685085,0
2096921,2096921,165841,685232,0
2096921,2096921,165373,684814,0
2096921,2096921,165737,684712,0
2096921,2096921,165404,684920,0
2096921,2096921,165646,685267,0
2096921,2096921,165616,685001,0
2096921,2096921,165355,684576,0
2096921,2096921,165614,684308,0
2096921,2096921,165274,684328,0
2096921,2096921,165655,684198,0
2096921,2096921,165383,684430,0
2096921,2096921,165398,684134,0
2096921,2096921,165143,684255,0
2096921,2096921,165203,684278,0
2096921,2096921,165141,684150,0
2096921,2096921,165045,683985,0
2096921,2096921,165052,684059,0
2096921,2096921,165022,683777,0
2096921,2096921,164974,683953,0
2096921,2096921,165259,683775,0
2096921,2096921,165102,683726,0
2096921,2096921,165091,683838,0
2096921,2096921,165415,683975,0
2096921,2096921,165220,683770,0
2096921,2096921,165041,683541,0
2096921,2096921,165264,683543,0
2096921,2096921,165077,683507,0
2096921,2096921,165099,683492,0
2096921,2096921,165029,683237,0
2096921,2096921,165133,683408,0
2096921,2096921,164810,683307,0
2096921,2096921,164957,683464,0
2096921,2096921,164982,683093,0
2096921,2096921,165145,683507,0
2096921,2096921,165057,683407,0
2096921,2096921,164982,683269,0
2096921,2096921,165000,683585,0
2096921,2096921,165076,683402,0
2096921,2096921,165296,683211,0
2096921,2096921,165067,683032,0
2096921,2096921,165264,683282,0
2096921,2096921,165076,683108,0
2096921,2096921,165261,683063,0
2096921,2096921,165008,683350,0
2096921,2096921,164786,683058,0
2096921,2096921,165194,682917,0
2096921,2096921,165110,683031,0
2096921,2096921,165259,683124,0
2096921,2096921,165047,683427,0
2096921,2096921,164864,683345,0
2096921,2096921,164923,683464,0
2096921,2096921,165036,683587,0
2096921,2096921,165019,683477,0
2096921,2096921,165212,683692,0
2096921,2096921,165311,683936,0
2096921,2096921,164937,683333,0
2096921,2096921,165088,683081,0
2096921,2096921,165409,683686,0
2096921,2096921,165144,683461,0
2096921,2096921,165401,683551,0
2096921,2096921,165328,683481,0
2096921,2096921,165458,683557,0
2096921,2096921,165418,683368,0
2096921,2096921,165652,683498,0
2096921,2096921,165318,683490,0
2096921,2096921,165668,683635,0
2096921,2096921,165319,683073,0
2096921,2096921,165369,683481,0
2096921,2096921,165535,683594,0
2096921,2096921,165260,683656,0
2096921,2096921,165275,683442,0
2096921,2096921,165545,683798,0
2096921,2096921,165349,683850,0
2096921,2096921,165344,683737,0
2096921,2096921,165369,683557,0
2096921,2096921,165515,683456,0
2096921,2096921,165371,683553,0
2096921,2096921,165377,683718,0
2096921,2096921,165244,683292,0
2096921,2096921,165201,683560,0
2096921,2096921,165521,683502,0
2096921,2096921,165662,683673,0
2096921,2096921,165578,683664,0
2096921,2096921,165633,683518,0
2096921,2096921,165606,683493,0
2096921,2096921,165182,683380,0
2096921,2096921,165143,683816,0
2096921,2096921,165256,683977,0
2096921,2096921,165479,683628,0
2096921,2096921,165395,683563,0
2096921,2096921,165574,683827,0
2096921,2096921,165680,683700,0
2096921,2096921,165407,683806,0
2096921,2096921,165623,683862,0
2096921,2096921,165628,683871,0
2096921,2096921,165623,683647,0
2096921,2096921,165347,683941,0
2096921,2096921,165449,683677,0
2096921,2096921,165430,683393,0
2096921,2096921,165589,683577,0
2096921,2096921,165420,683256,0
2096921,2096921,165423,683793,0
2096921,2096921,165646,683825,0
2096921,2096921,165698,684025,0
2096921,2096921,165526,683816,0
2096921,2096921,165451,683800,0
2096921,2096921,165930,683410,0
2096921,2096921,165494,683486,0
2096921,2096921,165370,683361,0
2096921,2096921,165530,683758,0
2096921,2096921,165446,683503,0
2096921,2096921,165404,683564,0
2096921,2096921,165729,683643,0
2096921,2096921,165485,683773,0
2096921,2096921,165566,683691,0
2096921,2096921,165548,683543,0
2096921,2096921,165595,683467,0
2096921,2096921,165662,683185,0
2096921,2096921,165431,683327,0
2096921,2096921,165394,683238,0
2096921,2096921,165767,683104,0
2096921,2096921,165631,683313,0
2096921,2096921,165578,683518,0
2096921,2096921,165667,683473,0
2096921,2096921,165308,683565,0
2096921,2096921,165838,683478,0
2096921,2096921,165557,683651,0
2096921,2096921,165564,683199,0
2096921,2096921,165572,682963,0
2096921,2096921,165604,683064,0
2096921,2096921,165459,683054,0
2096921,2096921,165410,683070,0
2096921,2096921,165747,683356,0
2096921,2096921,165574,683241,0
2096921,2096921,165581,682919,0
2096921,2096921,165550,683163,0
2096921,2096921,165213,683169,0
2096921,2096921,165771,682937,0
2096921,2096921,165939,682796,0
2096921,2096921,165517,682542,0
2096921,2096921,165752,682627,0
2096921,2096921,165584,683025,0
2096921,2096921,165680,682807,0
2096921,2096921,165408,682907,0
2096921,2096921,165331,683034,0
2096921,2096921,165615,683031,0
2096921,2096921,165593,682960,0
2096921,2096921,165448,682690,0
2096921,2096921,165462,682508,0
2096921,2096921,165458,682494,0
2096921,2096921,165605,682672,0
2096921,2096921,165356,682520,0
2096921,2096921,165752,682555,0
2096921,2096921,165765,682820,0
2096921,2096921,165703,682411,0
2096921,2096921,165807,682477,0
2096921,2096921,165537,682608,0
2096921,2096921,165501,682476,0
2096921,2096921,165442,682342,0
2096921,2096921,165479,682268,0
2096921,2096921,165648,682371,0
2096921,2096921,165845,682409,0
2096921,2096921,165681,682445,0
2096921,2096921,165482,682304,0
2096921,2096921,165536,682339,0
2096921,2096921,165507,682517,0
2096921,2096921,165481,682231,0
2096921,2096921,165804,682107,0
2096921,2096921,165568,682175,0
2096921,2096921,165570,681989,0
2096921,2096921,165639,682264,0
2096921,2096921,165444,682094,0
2096921,2096921,165336,682012,0
2096921,2096921,165669,681962,0
2096921,2096921,165297,682077,0
2096921,2096921,165388,682016,0
2096921,2096921,165713,681755,0
2096921,2096921,165632,681569,0
2096921,2096921,165389,681635,0
2096921,2096921,165420,681903,0
2096921,2096921,165405,681875,0
2096921,2096921,165767,681593,0
2096921,2096921,165571,681614,0
2096921,2096921,165390,681521,0
2096921,2096921,165382,681402,0
2096921,2096921,165660,681538,0
2096921,2096921,165219,681392,0
2096921,2096921,165274,681288,0
2096921,2096921,165142,681212,0
2096921,2096921,165192,681317,0
2096921,2096921,165313,681349,0
2096921,2096921,165001,681144,0
2096921,2096921,165225,681000,0
2096921,2096921,165281,680882,0
2096921,2096921,165277,680840,0
2096921,2096921,165020,680765,0
2096921,2096921,165191,680882,0
2096921,2096921,165074,680598,0
2096921,2096921,165272,680659,0
2096921,2096921,165090,680875,0
2096921,2096921,165222,680695,0
2096921,2096921,165009,680374,0
2096921,2096921,165216,680795,0
2096921,2096921,165069,680247,0
2096921,2096921,165364,680512,0
2096921,2096921,165428,680155,0
2096921,2096921,165009,680348,0
2096921,2096921,165285,680310,0
2096921,2096921,165179,680082,0
2096921,2096921,164826,680261,0
2096921,2096921,165248,680218,0
2096921,2096921,165391,680106,0
2096921,2096921,165007,680010,0
2096921,2096921,165265,679989,0
2096921,2096921,164991,679712,0
2096921,2096921,165056,680005,0
2096921,2096921,164991,679873,0
2096921,2096921,164706,679627,0
2096921,2096921,164888,679616,0
2096921,2096921,165085,679691,0
2096921,2096921,164991,679230,0
2096921,2096921,165118,679430,0
2096921,2096921,164919,679382,0
2096921,2096921,164792,679351,0
2096921,2096921,164790,679369,0
2096921,2096921,164708,679487,0
2096921,2096921,164910,679224,0
2096921,2096921,165062,679045,0
2096921,2096921,165135,679073,0
2096921,2096921,164670,679244,0
2096921,2096921,165246,679261,0
2096921,2096921,164837,679309,0
2096921,2096921,164493,678692,0
2096921,2096921,165169,678926,0
2096921,2096921,164539,679042,0
2096921,2096921,164661,679124,0
2096921,2096921,165077,679106,0
2096921,2096921,164759,679115,0
2096921,2096921,164723,678661,0
2096921,2096921,164786,678758,0
2096921,2096921,164698,678611,0
2096921,2096921,164701,678505,0
2096921,2096921,164924,678345,0
2096921,2096921,164758,678623,0
2096921,2096921,164796,678599,0
2096921,2096921,164774,678653,0
2096921,2096921,164326,678619,0
2096921,2096921,164483,678255,0
2096921,2096921,164701,678141,0
2096921,2096921,164645,678384,0
2096921,2096921,164542,678198,0
2096921,2096921,164723,678157,0
2096921,2096921,164625,677902,0
2096921,2096921,164712,678022,0
2096921,2096921,164691,677900,0
2096921,2096921,164902,677768,0
2096921,2096921,164745,677600,0
2096921,2096921,164621,677730,0
2096921,2096921,164307,677624,0
2096921,2096921,164539,677450,0
2096921,2096921,164373,677308,0
2096921,2096921,164699,677354,0
2096921,2096921,164606,677068,0
2096921,2096921,164675,676999,0
2096921,2096921,164400,677441,0
2096921,2096921,164449,677402,0
2096921,2096921,164341,677121,0
2096921,2096921,164330,677060,0
2096921,2096921,164432,676966,0
2096921,2096921,164158,676810,0
2096921,2096921,164395,677028,0
2096921,2096921,164064,676900,0
2096921,2096921,164439,676376,0
2096921,2096921,164278,676727,0
2096921,2096921,164238,676740,0
2096921,2096921,164316,676559,0
2096921,2096921,164309,676463,0
2096921,2096921,164100,676334,0
2096921,2096921,164177,676273,0
2096921,2096921,164130,676325,0
2096921,2096921,164316,676466,0
2096921,2096921,164093,676287,0
2096921,2096921,164087,675940,0
2096921,2096921,164204,675689,0
2096921,2096921,164209,675978,0
2096921,2096921,164162,676006,0
2096921,2096921,163971,675771,0
2096921,2096921,163829,675345,0
2096921,2096921,164069,675635,0
2096921,2096921,163859,675446,0
2096921,2096921,163919,675601,0
2096921,2096921,164080,675715,0
2096921,2096921,163898,675487,0
2096921,2096921,164084,675683,0
2096921,2096921,164198,675652,0
2096921,2096921,164182,675655,0
2096921,2096921,164273,675341,0
2096921,2096921,163840,675271,0
2096921,2096921,163913,675323,0
2096921,2096921,164113,675208,0
2096921,2096921,163860,675261,0
2096921,2096921,163887,675160,0
2096921,2096921,163875,675325,0
2096921,2096921,163905,674904,0
2096921,2096921,163861,674945,0
2096921,2096921,164070,674892,0
2096921,2096921,164113,674964,0
2096921,2096921,163903,674623,0
2096921,2096921,163563,674492,0
2096921,2096921,163513,674594,0
2096921,2096921,163982,674661,0
2096921,2096921,163819,674049,0
2096921,2096921,163470,673997,0
2096921,2096921,163757,674213,0
2096921,2096921,163652,673987,0
2096921,2096921,163688,673658,0
2096921,2096921,163322,673380,0
2096921,2096921,163171,673089,0
2096921,2096921,163077,673027,0
2096921,2096921,163209,673084,0
2096921,2096921,162965,673310,0
2096921,2096921,162948,672289,0
2096921,2096921,163040,672236,0
2096921,2096921,163034,672318,0
2096921,2096921,162935,672258,0
2096921,2096921,163007,672109,0
2096921,2096921,162691,671555,0
2096921,2096921,162567,671061,0
2096921,2096921,162652,671004,0
2096921,2096921,162427,671023,0
2096921,2096921,162588,670727,0
2096921,2096921,162112,670219,0
2096921,2096921,162425,669964,0
2096921,2096921,162176,669718,0
2096921,2096921,162055,669712,0
2096921,2096921,162372,670151,0
2096921,2096921,161719,668334,0
2096921,2096921,161487,667325,0
2096921,2096921,161354,667538,0
2096921,2096921,161184,667338,0
2096921,2096921,161394,667323,0
2096921,2096921,160330,665769,0
2096921,2096921,160296,664865,0
2096921,2096921,160060,664590,0
2096921,2096921,160101,665011,0
2096921,2096921,160225,664814,0
2096921,2096921,159633,663153,0
2096921,2096921,159382,662493,0
2096921,2096921,159497,662321,0
2096921,2096921,159700,662033,0
2096921,2096921,159649,662419,0
2096921,2096921,159142,661281,0
2096921,2096921,159101,660787,0
2096921,2096921,158989,660635,0
2096921,2096921,158701,660806,0
2096921,2096921,158998,660723,0
2096921,2096921,158284,660050,0
2096921,2096921,158207,659534,0
2096921,2096921,158276,659354,0
2096921,2096921,158640,659502,0
2096921,2096921,158203,659482,0
2096921,2096921,158317,658709,0
2096921,2096921,158129,658717,0
2096921,2096921,157934,658269,0
2096921,2096921,157905,658383,0
2096921,2096921,158158,658525,0
2096921,2096921,157853,658009,0
2096921,2096921,157709,657757,0
2096921,2096921,157960,657298,0
2096921,2096921,157849,657452,0
2096921,2096921,157715,657283,0
2096921,2096921,157647,657302,0
2096921,2096921,157467,656959,0
2096921,2096921,157790,657495,0
2096921,2096921,157492,656999,0
2096921,2096921,157558,656978,0
2096921,2096921,157523,656815,0
2096921,2096921,157365,656680,0
2096921,2096921,157360,657000,0
2096921,2096921,157527,656497,0
2096921,2096921,157572,656944,0
2096921,2096921,157692,656570,0
2096921,2096921,157436,656158,0
2096921,2096921,157472,656198,0
2096921,2096921,157408,656443,0
2096921,2096921,157361,656173,0
2096921,2096921,157575,656286,0
2096921,2096921,157693,656348,0
2096921,2096921,157569,656510,0
2096921,2096921,157587,656416,0
2096921,2096921,157578,656373,0
2096921,2096921,157743,656161,0
2096921,2096921,157462,656255,0
2096921,2096921,157615,655946,0
2096921,2096921,157124,656315,0
2096921,2096921,157630,656174,0
2096921,2096921,157560,656067,0
2096921,2096921,157322,656057,0
2096921,2096921,157486,656198,0
2096921,2096921,157422,656306,0
2096921,2096921,157498,656159,0
2096921,2096921,157644,656348,0
2096921,2096921,157218,656251,0
2096921,2096921,157698,656209,0
2096921,2096921,157721,656453,0
2096921,2096921,157717,656315,0
2096921,2096921,157907,656447,0
2096921,2096921,157823,656608,0
2096921,2096921,157645,656586,0
2096921,2096921,157665,656558,0
2096921,2096921,157683,656759,0
2096921,2096921,157586,656760,0
2096921,2096921,157782,656800,0
2096921,2096921,157568,656726,0
2096921,2096921,157718,656786,0
2096921,2096921,157821,656702,0
2096921,2096921,158034,656817,0
2096921,2096921,157837,657013,0
2096921,2096921,158085,657093,0
2096921,2096921,158024,656852,0
2096921,2096921,157913,656685,0
2096921,2096921,157845,657049,0
2096921,2096921,157897,657320,0
2096921,2096921,157864,657038,0
2096921,2096921,157903,657156,0
2096921,2096921,157978,657242,0
2096921,2096921,158057,657323,0
2096921,2096921,158379,657201,0
2096921,2096921,158405,657301,0
2096921,2096921,158140,657338,0
2096921,2096921,157969,657332,0
2096921,2096921,158192,657394,0
2096921,2096921,158054,657841,0
2096921,2096921,158317,657760,0
2096921,2096921,158337,657627,0
2096921,2096921,158418,657732,0
2096921,2096921,158419,657903,0
2096921,2096921,158308,658020,0
2096921,2096921,158363,657881,0
2096921,2096921,158054,658056,0
2096921,2096921,158419,657820,0
2096921,2096921,158386,657999,0
2096921,2096921,158415,658345,0
2096921,2096921,158439,658278,0
2096921,2096921,158713,658311,0
2096921,2096921,158286,658299,0
2096921,2096921,158650,658384,0
2096921,2096921,158575,658545,0
2096921,2096921,158592,658595,0
2096921,2096921,158536,658483,0
2096921,2096921,158662,658437,0
2096921,2096921,158693,658908,0
2096921,2096921,158847,658654,0
2096921,2096921,159006,658764,0
2096921,2096921,158979,658810,0
2096921,2096921,158487,658582,0
2096921,2096921,158863,659051,0
2096921,2096921,158887,659164,0
2096921,2096921,159057,658857,0
2096921,2096921,158737,658941,0
2096921,2096921,158861,658795,0
2096921,2096921,158770,659030,0
2096921,2096921,158956,658978,0
2096921,2096921,159205,659075,0
2096921,2096921,158855,659428,0
2096921,2096921,158854,659466,0
2096921,2096921,159007,659691,0
2096921,2096921,159194,659514,0
2096921,2096921,159257,659401,0
2096921,2096921,159113,659524,0
2096921,2096921,159147,659471,0
2096921,2096921,159397,659638,0
2096921,2096921,159225,659916,0
2096921,2096921,159232,659701,0
2096921,2096921,159130,659374,0
2096921,2096921,159167,659674,0
2096921,2096921,159090,659688,0
2096921,2096921,159349,659735,0
2096921,2096921,159304,659744,0
2096921,2096921,159102,659563,0
2096921,2096921,159087,659637,0
2096921,2096921,159112,659792,0
2096921,2096921,159063,659731,0
2096921,2096921,159193,659782,0
2096921,2096921,159064,659753,0
2096921,2096921,159193,659751,0
2096921,2096921,159025,659677,0
2096921,2096921,158840,659512,0
2096921,2096921,159095,659398,0
2096921,2096921,159026,659296,0
2096921,2096921,159325,659596,0
2096921,2096921,159230,659255,0
2096921,2096921,159240,659248,0
2096921,2096921,159003,659428,0
2096921,2096921,159132,659576,0
2096921,2096921,159289,659705,0
2096921,2096921,159334,659462,0
2096921,2096921,159058,659405,0
2096921,2096921,159336,659349,0
2096921,2096921,158942,659439,0
2096921,2096921,158959,659234,0
2096921,2096921,159080,659064,0
2096921,2096921,158915,659083,0
2096921,2096921,158993,659178,0
2096921,2096921,158907,659267,0
2096921,2096921,158568,659121,0
2096921,2096921,158892,658848,0
2096921,2096921,158769,658687,0
2096921,2096921,158839,658721,0
2096921,2096921,158750,658673,0
2096921,2096921,158846,658997,0
2096921,2096921,158959,658834,0
2096921,2096921,158843,658485,0
2096921,2096921,159348,659066,0
2096921,2096921,158994,658871,0
2096921,2096921,158917,658672,0
2096921,2096921,158860,658573,0
2096921,2096921,158805,658519,0
2096921,2096921,158690,658322,0
2096921,2096921,158862,658383,0
2096921,2096921,158658,658220,0
2096921,2096921,158374,658324,0
2096921,2096921,158792,658602,0
2096921,2096921,158590,658497,0
2096921,2096921,158724,658255,0
2096921,2096921,159057,658463,0
2096921,2096921,158681,658226,0
2096921,2096921,158586,658726,0
2096921,2096921,158915,658496,0
2096921,2096921,158732,658307,0
2096921,2096921,158894,658309,0
2096921,2096921,158801,658656,0
2096921,2096921,158824,658443,0
2096921,2096921,158747,658293,0
2096921,2096921,158689,658139,0
2096921,2096921,158753,658382,0
2096921,2096921,158757,658642,0
2096921,2096921,158582,658746,0
2096921,2096921,158555,658454,0
2096921,2096921,158647,658718,0
2096921,2096921,158524,658789,0
2096921,2096921,158812,658854,0
2096921,2096921,159060,658756,0
2096921,2096921,158871,658854,0
2096921,2096921,158632,658899,0
2096921,2096921,158683,658557,0
2096921,2096921,159012,658989,0
2096921,2096921,158768,659083,0
2096921,2096921,159182,659027,0
2096921,2096921,159108,658874,0
2096921,2096921,158968,659079,0
2096921,2096921,159159,659314,0
2096921,2096921,159111,659490,0
2096921,2096921,159051,659354,0
2096921,2096921,159246,659564,0
2096921,2096921,159067,659392,0
2096921,2096921,159050,659482,0
2096921,2096921,159139,659494,0
2096921,2096921,159247,659386,0
2096921,2096921,159084,659561,0
2096921,2096921,159346,659764,0
2096921,2096921,159281,660097,0
2096921,2096921,159269,660007,0
2096921,2096921,159195,659794,0
2096921,2096921,159254,659905,0
2096921,2096921,159199,660048,0
2096921,2096921,159184,660285,0
2096921,2096921,159240,660260,0
2096921,2096921,159227,659986,0
2096921,2096921,159442,660194,0
2096921,2096921,159323,660340,0
2096921,2096921,159314,660458,0
2096921,2096921,159494,660682,0
2096921,2096921,159332,660411,0
2096921,2096921,159490,660238,0
2096921,2096921,159473,660649,0
2096921,2096921,159330,660625,0
2096921,2096921,159473,660312,0
2096921,2096921,159576,660756,0
2096921,2096921,159320,660660,0
2096921,2096921,159706,660705,0
2096921,2096921,159974,660810,0
2096921,2096921,159679,661046,0
2096921,2096921,159612,660926,0
2096921,2096921,159547,660704,0
2096921,2096921,159818,660781,0
2096921,2096921,159864,661032,0
2096921,2096921,159723,661326,0
2096921,2096921,159653,661291,0
2096921,2096921,159568,660944,0
2096921,2096921,159826,661064,0
2096921,2096921,159819,661178,0
2096921,2096921,159944,661432,0
2096921,2096921,159913,661281,0
2096921,2096921,159688,661349,0
2096921,2096921,159834,661325,0
2096921,2096921,159964,661683,0
2096921,2096921,159841,661762,0
2096921,2096921,159828,661613,0
2096921,2096921,160054,661726,0
2096921,2096921,160111,661535,0
2096921,2096921,160140,661804,0
2096921,2096921,160119,661705,0
2096921,2096921,160237,661945,0
2096921,2096921,160415,662097,0
2096921,2096921,160014,662303,0
2096921,2096921,160141,661984,0
2096921,2096921,159998,662182,0
2096921,2096921,159953,662344,0
2096921,2096921,160091,662145,0
2096921,2096921,160320,662085,0
2096921,2096921,160290,662095,0
2096921,2096921,160177,662373,0
2096921,2096921,160644,662269,0
2096921,2096921,160491,662436,0
2096921,2096921,160475,662530,0
2096921,2096921,160541,662510,0
2096921,2096921,160368,662643,0
2096921,2096921,160203,662543,0
2096921,2096921,160203,662562,0
2096921,2096921,160093,662462,0
2096921,2096921,160356,662729,0
2096921,2096921,160331,662881,0
2096921,2096921,160359,662827,0
2096921,2096921,160555,662956,0
2096921,2096921,160426,663113,0
2096921,2096921,160434,663155,0
2096921,2096921,160623,663214,0
2096921,2096921,160626,662933,0
2096921,2096921,160479,663009,0
2096921,2096921,160551,662929,0
2096921,2096921,160552,663381,0
2096921,2096921,160610,663433,0
2096921,2096921,160645,663376,0
2096921,2096921,160714,663376,0
2096921,2096921,160579,663125,0
2096921,2096921,160700,663207,0
2096921,2096921,160588,663592,0
2096921,2096921,160205,663149,0
2096921,2096921,160413,663480,0
2096921,2096921,160580,663526,0
2096921,2096921,160356,663725,0
2096921,2096921,160786,663690,0
2096921,2096921,160720,663638,0
2096921,2096921,160694,663701,0
2096921,2096921,160722,663616,0
2096921,2096921,160814,663622,0
2096921,2096921,160917,663634,0
2096921,2096921,160890,663886,0
2096921,2096921,160783,663667,0
2096921,2096921,160453,663672,0
2096921,2096921,160909,663946,0
2096921,2096921,161008,664100,0
2096921,2096921,160909,663638,0
2096921,2096921,160917,664138,0
2096921,2096921,161117,664074,0
2096921,2096921,160826,663877,0
2096921,2096921,160963,664150,0
2096921,2096921,160956,664154,0
2096921,2096921,160897,664000,0
2096921,2096921,160880,664068,0
2096921,2096921,160925,664064,0
2096921,2096921,160741,664217,0
2096921,2096921,160965,664303,0
2096921,2096921,160986,664334,0
2096921,2096921,160770,664126,0
2096921,2096921,160821,664152,0
2096921,2096921,160748,664342,0
2096921,2096921,160748,664170,0
2096921,2096921,161180,664337,0
2096921,2096921,160953,664087,0
2096921,2096921,161229,664248,0
2096921,2096921,161418,664311,0
2096921,2096921,161140,664662,0
2096921,2096921,161145,664420,0
2096921,2096921,161226,664717,0
2096921,2096921,160857,664742,0
2096921,2096921,161003,664427,0
2096921,2096921,161254,664213,0
2096921,2096921,160943,664399,0
2096921,2096921,161235,664829,0
2096921,2096921,161153,664928,0
2096921,2096921,161248,664730,0
2096921,2096921,161125,664793,0
2096921,2096921,161260,665100,0
2096921,2096921,161088,664747,0
2096921,2096921,161021,664680,0
2096921,2096921,161067,664801,0
2096921,2096921,161370,665067,0
2096921,2096921,161456,664910,0
2096921,2096921,161279,664961,0
2096921,2096921,161243,664832,0
2096921,2096921,161246,665291,0
2096921,2096921,161161,665190,0
2096921,2096921,161176,665167,0
2096921,2096921,161280,665096,0
2096921,2096921,161242,665333,0
2096921,2096921,161121,665277,0
2096921,2096921,161241,665312,0
2096921,2096921,161150,665072,0
2096921,2096921,161180,665226,0
2096921,2096921,161397,665207,0
2096921,2096921,161101,665824,0
2096921,2096921,161041,665268,0
2096921,2096921,161284,665065,0
2096921,2096921,161319,665388,0
2096921,2096921,161314,665381,0
2096921,2096921,161470,665459,0
2096921,2096921,161244,665422,0
2096921,2096921,161357,665431,0
2096921,2096921,161111,665494,0
2096921,2096921,161420,665421,0
2096921,2096921,161445,665348,0
2096921,2096921,161350,665731,0
2096921,2096921,161486,665616,0
2096921,2096921,161396,665649,0
2096921,2096921,161377,665491,0
2096921,2096921,161191,665631,0
2096921,2096921,161303,665751,0
2096921,2096921,161250,665866,0
2096921,2096921,161467,665886,0
2096921,2096921,161667,665518,0
2096921,2096921,161735,665763,0
2096921,2096921,161288,665915,0
2096921,2096921,161510,666076,0
2096921,2096921,161241,666158,0
2096921,2096921,161334,666046,0
2096921,2096921,161515,666089,0
2096921,2096921,161806,666256,0
2096921,2096921,161500,666046,0
2096921,2096921,161530,666223,0
2096921,2096921,161552,666295,0
2096921,2096921,161327,666225,0
2096921,2096921,161705,665964,0
2096921,2096921,161796,666290,0
2096921,2096921,161391,666375,0
2096921,2096921,161771,666466,0
2096921,2096921,162009,666504,0
2096921,2096921,161643,666451,0
2096921,2096921,161758,666564,0
2096921,2096921,161496,666470,0
2096921,2096921,161760,666452,0
2096921,2096921,161849,666451,0
2096921,2096921,161670,666648,0
2096921,2096921,161533,666578,0
2096921,2096921,161872,666663,0
2096921,2096921,161835,666964,0
2096921,2096921,161564,666736,0
2096921,2096921,161682,666821,0
2096921,2096921,161988,666951,0
2096921,2096921,162051,666899,0
2096921,2096921,161976,667107,0
2096921,2096921,161569,666889,0
2096921,2096921,161571,667063,0
2096921,2096921,161766,667069,0
2096921,2096921,161713,667050,0
2096921,2096921,161964,667168,0
2096921,2096921,162032,667350,0
2096921,2096921,161942,666993,0
2096921,2096921,161951,667274,0
2096921,2096921,162029,667203,0
2096921,2096921,161782,667164,0
2096921,2096921,162078,667303,0
2096921,2096921,161860,667467,0
2096921,2096921,162188,667468,0
2096921,2096921,162153,667560,0
2096921,2096921,162116,667883,0
2096921,2096921,161953,667579,0
2096921,2096921,162096,667878,0
2096921,2096921,161959,667593,0
2096921,2096921,161998,667493,0
2096921,2096921,162296,667766,0
2096921,2096921,162018,667912,0
2096921,2096921,161818,667835,0
2096921,2096921,161985,667894,0
2096921,2096921,162141,667958,0
2096921,2096921,162097,667814,0
2096921,2096921,162084,667642,0
2096921,2096921,162270,667673,0
2096921,2096921,162300,667889,0
2096921,2096921,161845,667897,0
2096921,2096921,162121,668038,0
2096921,2096921,162255,668220,0
2096921,2096921,162392,668463,0
2096921,2096921,162100,668286,0
2096921,2096921,162025,668257,0
2096921,2096921,162123,668390,0
2096921,2096921,161993,668506,0
2096921,2096921,162362,668596,0
2096921,2096921,162196,668543,0
2096921,2096921,162272,668480,0
2096921,2096921,162102,668735,0
2096921,2096921,162244,668634,0
2096921,2096921,162238,668266,0
2096921,2096921,162065,668378,0
2096921,2096921,161868,668770,0
2096921,2096921,161937,668881,0
2096921,2096921,162410,668923,0
2096921,2096921,162301,668864,0
2096921,2096921,162300,668663,0
2096921,2096921,162283,668619,0
2096921,2096921,162210,669097,0
2096921,2096921,162441,668744,0
2096921,2096921,162135,668948,0
2096921,2096921,162569,668930,0
2096921,2096921,162559,668903,0
2096921,2096921,162506,669247,0
2096921,2096921,162443,668980,0
2096921,2096921,162404,669419,0
2096921,2096921,162340,669259,0
2096921,2096921,162458,669305,0
2096921,2096921,162276,668815,0
2096921,2096921,162554,669120,0
2096921,2096921,162520,668893,0
2096921,2096921,162204,668684,0
2096921,2096921,162609,668980,0
2096921,2096921,162025,668995,0
2096921,2096921,162153,668670,0
2096921,2096921,162159,669057,0
2096921,2096921,162053,668705,0
2096921,2096921,162259,668933,0
2096921,2096921,162247,668642,0
2096921,2096921,162372,668657,0
2096921,2096921,162344,668494,0
2096921,2096921,162444,668523,0
2096921,2096921,162370,668703,0
2096921,2096921,162084,668162,0
2096921,2096921,161938,668141,0
2096921,2096921,161650,668033,0
2096921,2096921,162059,667939,0
2096921,2096921,161809,667789,0
2096921,2096921,161558,667407,0
2096921,2096921,161616,667009,0
2096921,2096921,161496,667169,0
2096921,2096921,161554,667207,0
2096921,2096921,161475,666994,0
2096921,2096921,160918,666038,0
2096921,2096921,160745,665560,0
2096921,2096921,160563,665463,0
2096921,2096921,160612,665142,0
2096921,2096921,160745,665235,0
2096921,2096921,160051,664062,0
2096921,2096921,159998,663482,0
2096921,2096921,159876,663395,0
2096921,2096921,159619,663509,0
2096921,2096921,159832,663188,0
2096921,2096921,159374,661968,0
2096921,2096921,159347,661376,0
2096921,2096921,159188,661560,0
2096921,2096921,159210,661577,0
2096921,2096921,159242,661915,0
2096921,2096921,158901,660799,0
2096921,2096921,159034,660633,0
2096921,2096921,158933,660436,0
2096921,2096921,158947,660345,0
2096921,2096921,158592,660239,0
2096921,2096921,158596,659775,0
2096921,2096921,158469,659725,0
2096921,2096921,158498,659836,0
2096921,2096921,158551,659605,0
2096921,2096921,158457,659816,0
2096921,2096921,158349,659041,0
2096921,2096921,158341,659099,0
2096921,2096921,158047,659428,0
2096921,2096921,158220,659390,0
2096921,2096921,158396,659282,0
2096921,2096921,158198,659149,0
2096921,2096921,158354,658938,0
2096921,2096921,157956,658882,0
2096921,2096921,158068,659238,0
2096921,2096921,158221,658955,0
2096921,2096921,158271,658912,0
2096921,2096921,158244,659076,0
2096921,2096921,157833,659030,0
2096921,2096921,158028,658988,0
2096921,2096921,157842,659168,0
2096921,2096921,158137,658914,0
2096921,2096921,158016,659082,0
2096921,2096921,158292,658960,0
2096921,2096921,158239,658724,0
2096921,2096921,158244,659152,0
2096921,2096921,158186,659448,0
2096921,2096921,158243,659152,0
2096921,2096921,158496,659425,0
2096921,2096921,158455,659678,0
2096921,2096921,158280,659453,0
2096921,2096921,158007,659347,0
2096921,2096921,158482,659704,0
2096921,2096921,158107,660006,0
2096921,2096921,158274,659950,0
2096921,2096921,158372,659892,0
2096921,2096921,158471,659923,0
2096921,2096921,158547,659923,0
2096921,2096921,158278,660369,0
2096921,2096921,158227,660204,0
2096921,2096921,158391,660303,0
2096921,2096921,158678,660567,0
2096921,2096921,158549,660899,0
2096921,2096921,158527,660941,0
2096921,2096921,158587,660878,0
2096921,2096921,158449,660819,0
2096921,2096921,158846,661282,0
2096921,2096921,158973,661365,0
2096921,2096921,158642,661793,0
2096921,2096921,158808,661903,0
2096921,2096921,158737,661684,0
2096921,2096921,159018,661896,0
2096921,2096921,159173,662246,0
2096921,2096921,159042,662307,0
2096921,2096921,159191,662130,0
2096921,2096921,159069,662302,0
2096921,2096921,159307,662884,0
2096921,2096921,159320,662968,0
2096921,2096921,159335,662873,0
2096921,2096921,159344,662867,0
2096921,2096921,159566,662917,0
2096921,2096921,159787,663592,0
2096921,2096921,159493,663622,0
2096921,2096921,159284,663526,0
2096921,2096921,159886,663358,0
2096921,2096921,159785,663556,0
2096921,2096921,160154,663925,0
2096921,2096921,159949,664614,0
2096921,2096921,160084,664765,0
2096921,2096921,159781,664294,0
2096921,2096921,159937,664709,0
2096921,2096921,159907,665312,0
2096921,2096921,160081,665302,0
2096921,2096921,160351,665160,0
2096921,2096921,160038,665285,0
2096921,2096921,160356,665200,0
2096921,2096921,160423,665678,0
2096921,2096921,160486,665954,0
2096921,2096921,160699,666140,0
2096921,2096921,160605,665976,0
2096921,2096921,160298,666185,0
2096921,2096921,160677,666514,0
2096921,2096921,160554,666914,0
2096921,2096921,160595,667026,0
2096921,2096921,160749,667008,0
2096921,2096921,160600,666689,0
2096921,2096921,160620,667474,0
2096921,2096921,160857,667337,0
2096921,2096921,160791,667604,0
2096921,2096921,160811,667589,0
2096921,2096921,160827,667725,0
2096921,2096921,160959,668249,0
2096921,2096921,161211,668353,0
2096921,2096921,161024,668416,0
2096921,2096921,161123,668375,0
2096921,2096921,160897,668202,0
2096921,2096921,161333,669008,0
2096921,2096921,161470,669255,0
2096921,2096921,161486,669116,0
2096921,2096921,161756,669485,0
2096921,2096921,161367,669349,0
2096921,2096921,161613,669995,0
2096921,2096921,161434,669716,0
2096921,2096921,161591,669861,0
2096921,2096921,161343,669859,0
2096921,2096921,161566,670037,0
2096921,2096921,161835,670439,0
2096921,2096921,161866,670577,0
2096921,2096921,162042,670855,0
2096921,2096921,161798,670716,0
2096921,2096921,161564,670495,0
2096921,2096921,161942,671081,0
2096921,2096921,162004,671085,0
2096921,2096921,161892,671356,0
2096921,2096921,161975,671539,0
2096921,2096921,161868,671648,0
2096921,2096921,161966,671680,0
2096921,2096921,162059,672216,0
2096921,2096921,162487,672209,0
2096921,2096921,162191,671837,0
2096921,2096921,162299,671927,0
2096921,2096921,162315,672361,0
2096921,2096921,162154,672457,0
2096921,2096921,162518,672487,0
2096921,2096921,162363,672385,0
2096921,2096921,162261,672049,0
2096921,2096921,162450,672584,0
2096921,2096921,162495,672684,0
2096921,2096921,162486,673099,0
2096921,2096921,162636,672893,0
2096921,2096921,162486,672594,0
2096921,2096921,162422,672962,0
2096921,2096921,162597,673381,0
2096921,2096921,162425,673101,0
2096921,2096921,162509,673272,0
2096921,2096921,162517,673321,0
2096921,2096921,162441,673552,0
2096921,2096921,162585,673461,0
2096921,2096921,162669,673768,0
2096921,2096921,162610,673669,0
2096921,2096921,162596,673504,0
2096921,2096921,162459,673743,0
2096921,2096921,162642,673417,0
2096921,2096921,162767,673670,0
2096921,2096921,162740,673622,0
2096921,2096921,162342,673718,0
2096921,2096921,162777,673873,0
2096921,2096921,162516,673878,0
2096921,2096921,162652,673683,0
2096921,2096921,162851,674061,0
2096921,2096921,162602,673939,0
2096921,2096921,162613,674096,0
2096921,2096921,162678,674230,0
2096921,2096921,162778,674051,0
2096921,2096921,162750,674089,0
2096921,2096921,162870,674639,0
2096921,2096921,162831,674261,0
2096921,2096921,162545,674541,0
2096921,2096921,162700,674340,0
2096921,2096921,162459,674311,0
2096921,2096921,162896,674142,0
2096921,2096921,162977,674355,0
2096921,2096921,162906,674678,0
2096921,2096921,163112,674696,0
2096921,2096921,162936,674575,0
2096921,2096921,162777,674533,0
2096921,2096921,162970,675070,0
2096921,2096921,162924,675051,0
2096921,2096921,162778,674941,0
2096921,2096921,162855,674934,0
2096921,2096921,162942,674944,0
2096921,2096921,163126,675134,0
2096921,2096921,163064,675210,0
2096921,2096921,163074,675111,0
2096921,2096921,162998,674903,0
2096921,2096921,163112,675105,0
2096921,2096921,162987,675302,0
2096921,2096921,163060,675460,0
2096921,2096921,163178,675825,0
2096921,2096921,162951,675652,0
2096921,2096921,163152,675629,0
2096921,2096921,163103,676040,0
2096921,2096921,163171,675883,0
2096921,2096921,163166,675953,0
2096921,2096921,162955,676232,0
2096921,2096921,163297,676108,0
2096921,2096921,163512,676387,0
2096921,2096921,163462,676676,0
2096921,2096921,163587,676388,0
2096921,2096921,163503,676439,0
2096921,2096921,163464,676658,0
2096921,2096921,163417,677074,0
2096921,2096921,163434,677310,0
2096921,2096921,163626,677093,0
2096921,2096921,163519,677283,0
2096921,2096921,163687,677237,0
2096921,2096921,163975,677692,0
2096921,2096921,163722,678039,0
2096921,2096921,163784,678262,0
2096921,2096921,163806,677848,0
2096921,2096921,163839,678112,0
2096921,2096921,163776,678371,0
2096921,2096921,163796,678791,0
2096921,2096921,164027,678672,0
2096921,2096921,164211,678597,0
2096921,2096921,164062,678805,0
2096921,2096921,164331,678936,0
2096921,2096921,164127,679351,0
2096921,2096921,164179,679269,0
2096921,2096921,164299,679243,0
2096921,2096921,164147,678939,0
2096921,2096921,164456,679728,0
2096921,2096921,164450,680182,0
2096921,2096921,164420,680320,0
2096921,2096921,164192,679891,0
2096921,2096921,164768,679887,0
2096921,2096921,164457,680083,0
2096921,2096921,164499,680211,0
2096921,2096921,164648,680340,0
2096921,2096921,164728,680188,0
2096921,2096921,164622,680079,0
2096921,2096921,164601,680665,0
2096921,2096921,164905,680785,0
2096921,2096921,164616,680803,0
2096921,2096921,164701,680954,0
2096921,2096921,164716,680936,0
2096921,2096921,164746,680908,0
2096921,2096921,165036,681463,0
2096921,2096921,165005,681331,0
2096921,2096921,164631,681462,0
2096921,2096921,165037,681625,0
2096921,2096921,165025,681804,0
2096921,2096921,165426,681814,0
2096921,2096921,165042,682066,0
2096921,2096921,164878,682024,0
2096921,2096921,164926,681823,0
2096921,2096921,165303,682540,0
2096921,2096921,164915,682649,0
2096921,2096921,165425,682767,0
2096921,2096921,165299,682944,0
2096921,2096921,165298,682632,0
2096921,2096921,165570,682858,0
2096921,2096921,165560,683157,0
2096921,2096921,165430,683029,0
2096921,2096921,165601,683379,0
2096921,2096921,165440,682957,0
2096921,2096921,165327,683460,0
2096921,2096921,165680,683574,0
2096921,2096921,165424,683774,0
2096921,2096921,165633,683569,0
2096921,2096921,165717,683763,0
2096921,2096921,165729,683777,0
2096921,2096921,165566,683754,0
2096921,2096921,165774,684070,0
2096921,2096921,165469,684148,0
2096921,2096921,165843,684230,0
2096921,2096921,165971,684560,0
2096921,2096921,166069,684616,0
2096921,2096921,166030,684430,0
2096921,2096921,166099,685050,0
2096921,2096921,165816,684704,0
2096921,2096921,166316,684995,0
2096921,2096921,166104,684976,0
2096921,2096921,165743,685133,0
2096921,2096921,165990,685080,0
2096921,2096921,166022,685494,0
2096921,2096921,165864,685079,0
2096921,2096921,166023,685166,0
2096921,2096921,166164,685393,0
2096921,2096921,166154,685430,0
2096921,2096921,166373,685759,0
2096921,2096921,166586,685783,0
2096921,2096921,166357,685738,0
2096921,2096921,166428,685717,0
2096921,2096921,166422,685767,0
2096921,2096921,166548,685743,0
2096921,2096921,166447,686170,0
2096921,2096921,166352,686261,0
2096921,2096921,166407,686419,0
2096921,2096921,166463,686266,0
2096921,2096921,166347,686604,0
2096921,2096921,166618,686661,0
2096921,2096921,166701,686913,0
2096921,2096921,166492,686703,0
2096921,2096921,166589,686638,0
2096921,2096921,166773,686760,0
2096921,2096921,166540,686822,0
2096921,2096921,166676,686863,0
2096921,2096921,166796,687008,0
2096921,2096921,166661,687284,0
2096921,2096921,166588,686958,0
2096921,2096921,166953,687379,0
2096921,2096921,166596,687795,0
2096921,2096921,166911,687506,0
2096921,2096921,166854,687588,0
2096921,2096921,166945,687405,0
2096921,2096921,166702,687741,0
2096921,2096921,166797,688161,0
2096921,2096921,166905,688141,0
2096921,2096921,167098,687913,0
2096921,2096921,167078,688165,0
2096921,2096921,166994,688207,0
2096921,2096921,166988,688383,0
2096921,2096921,166855,688545,0
2096921,2096921,166931,688268,0
2096921,2096921,166833,688582,0
2096921,2096921,166999,688927,0
2096921,2096921,167258,688781,0
2096921,2096921,167291,688987,0
2096921,2096921,167163,689135,0
2096921,2096921,167178,688784,0
2096921,2096921,167335,689018,0
2096921,2096921,167366,689135,0
2096921,2096921,167265,688990,0
2096921,2096921,167317,689450,0
2096921,2096921,167115,689077,0
2096921,2096921,167257,689326,0
2096921,2096921,167383,689322,0
2096921,2096921,167458,689434,0
2096921,2096921,167372,689576,0
2096921,2096921,167383,689864,0
2096921,2096921,167352,689898,0
2096921,2096921,167526,689829,0
2096921,2096921,167454,689669,0
2096921,2096921,167380,689645,0
2096921,2096921,167582,689996,0
2096921,2096921,167761,690124,0
2096921,2096921,167558,690072,0
2096921,2096921,167426,690237,0
2096921,2096921,167151,690093,0
2096921,2096921,167187,690272,0
2096921,2096921,167742,690430,0
2096921,2096921,167422,690276,0
2096921,2096921,167605,690236,0
2096921,2096921,167942,690305,0
2096921,2096921,167647,690582,0
2096921,2096921,167376,690503,0
2096921,2096921,167409,690773,0
2096921,2096921,167831,690573,0
