2096921,2096921,195525,626924,0
2096921,2096921,195146,627005,0
2096921,2096921,195242,626999,0
2096921,2096921,195186,627091,0
2096921,2096921,195355,627093,0
2096921,2096921,195469,627166,0
2096921,2096921,195509,627206,0
2096921,2096921,195323,627205,0
2096921,2096921,195033,627082,0
2096921,2096921,195164,627042,0
2096921,2096921,195443,627083,0
2096921,2096921,195272,626842,0
2096921,2096921,195647,626845,0
2096921,2096921,195532,627077,0
2096921,2096921,195585,627110,0
2096921,2096921,195303,627355,0
2096921,2096921,195342,627474,0
2096921,2096921,195252,627436,0
2096921,2096921,195310,626867,0
2096921,2096921,195253,627180,0
2096921,2096921,195362,626940,0
2096921,2096921,195404,626948,0
2096921,2096921,195562,627134,0
2096921,2096921,195558,627220,0
2096921,2096921,195352,627003,0
2096921,2096921,195497,627236,0
2096921,2096921,195396,627063,0
2096921,2096921,195015,626827,0
2096921,2096921,195103,627143,0
2096921,2096921,195247,626889,0
2096921,2096921,195409,627040,0
2096921,2096921,195312,626972,0
2096921,2096921,195293,626997,0
2096921,2096921,195314,627176,0
2096921,2096921,195595,627354,0
2096921,2096921,195430,626930,0
2096921,2096921,195500,627279,0
2096921,2096921,195434,627224,0
2096921,2096921,195160,627138,0
2096921,2096921,195388,627130,0
2096921,2096921,195173,627063,0
2096921,2096921,195243,627141,0
2096921,2096921,195205,627231,0
2096921,2096921,195422,627052,0
2096921,2096921,195632,627230,0
2096921,2096921,195267,627162,0
2096921,2096921,195486,627051,0
2096921,2096921,195246,626981,0
2096921,2096921,195532,626647,0
2096921,2096921,195533,626850,0
2096921,2096921,195881,627029,0
2096921,2096921,195403,627048,0
2096921,2096921,195376,627010,0
2096921,2096921,195520,627006,0
2096921,2096921,195581,627074,0
2096921,2096921,195273,627383,0
2096921,2096921,195278,627305,0
2096921,2096921,195418,627121,0
2096921,2096921,195370,627272,0
2096921,2096921,194982,627214,0
2096921,2096921,195229,627367,0
2096921,2096921,195589,627227,0
2096921,2096921,195418,627289,0
2096921,2096921,195406,627447,0
2096921,2096921,195183,626933,0
2096921,2096921,195157,627015,0
2096921,2096921,195273,626862,0
2096921,2096921,195395,626762,0
2096921,2096921,194982,626774,0
2096921,2096921,195061,626407,0
2096921,2096921,194974,626496,0
2096921,2096921,194808,626545,0
2096921,2096921,195209,626406,0
2096921,2096921,194822,626456,0
2096921,2096921,194917,626387,0
2096921,2096921,194770,626088,0
2096921,2096921,194804,626121,0
2096921,2096921,194732,626110,0
2096921,2096921,194465,625946,0
2096921,2096921,194100,625236,0
2096921,2096921,194190,625228,0
2096921,2096921,194098,625464,0
2096921,2096921,194268,625434,0
2096921,2096921,194022,625509,0
2096921,2096921,194009,624756,0
2096921,2096921,194182,624436,0
2096921,2096921,194014,624695,0
2096921,2096921,193913,624880,0
2096921,2096921,193133,624312,0
2096921,2096921,192721,622759,0
2096921,2096921,193059,623047,0
2096921,2096921,193202,622974,0
2096921,2096921,193206,622875,0
2096921,2096921,192221,622913,0
2096921,2096921,191914,621461,0
2096921,2096921,192165,620868,0
2096921,2096921,192032,620803,0
2096921,2096921,191836,621262,0
2096921,2096921,191292,620703,0
2096921,2096921,191263,619545,0
2096921,2096921,191166,619263,0
2096921,2096921,191177,618937,0
2096921,2096921,191350,619459,0
2096921,2096921,190646,619745,0
2096921,2096921,190417,618694,0
2096921,2096921,190368,618286,0
2096921,2096921,190653,618552,0
2096921,2096921,190544,618308,0
2096921,2096921,190050,618092,0
2096921,2096921,190068,617453,0
2096921,2096921,190020,617453,0
2096921,2096921,189931,617255,0
2096921,2096921,190118,617293,0
2096921,2096921,189858,617427,0
2096921,2096921,189832,617102,0
2096921,2096921,189628,616916,0
2096921,2096921,189664,617120,0
2096921,2096921,189827,616875,0
2096921,2096921,189352,616759,0
2096921,2096921,189394,616326,0
2096921,2096921,189369,616480,0
2096921,2096921,189415,616507,0
2096921,2096921,189287,616642,0
2096921,2096921,189405,616207,0
2096921,2096921,189390,615991,0
2096921,2096921,189390,616122,0
2096921,2096921,189422,616002,0
2096921,2096921,189267,616240,0
2096921,2096921,189497,616123,0
2096921,2096921,189535,616049,0
2096921,2096921,189219,615627,0
2096921,2096921,189192,615967,0
2096921,2096921,189412,615994,0
2096921,2096921,189124,615945,0
2096921,2096921,189423,615785,0
2096921,2096921,189439,616102,0
2096921,2096921,189278,616206,0
2096921,2096921,189070,616093,0
2096921,2096921,189654,616029,0
2096921,2096921,189352,616105,0
2096921,2096921,189207,616336,0
2096921,2096921,189342,616053,0
2096921,2096921,189820,616127,0
2096921,2096921,189705,616225,0
2096921,2096921,189660,616256,0
2096921,2096921,189248,616144,0
2096921,2096921,189447,616423,0
2096921,2096921,189439,616621,0
2096921,2096921,189404,616015,0
2096921,2096921,189318,616240,0
2096921,2096921,189471,616357,0
2096921,2096921,189218,616357,0
2096921,2096921,189497,616549,0
2096921,2096921,189513,616567,0
2096921,2096921,189914,616653,0
2096921,2096921,189647,616784,0
2096921,2096921,189657,616560,0
2096921,2096921,189434,616666,0
2096921,2096921,190045,616836,0
2096921,2096921,189758,616925,0
2096921,2096921,189901,616738,0
2096921,2096921,189698,617213,0
2096921,2096921,189999,616879,0
2096921,2096921,190020,617302,0
2096921,2096921,189798,617452,0
2096921,2096921,190047,617766,0
2096921,2096921,190073,617416,0
2096921,2096921,190055,617416,0
2096921,2096921,190222,617267,0
2096921,2096921,190305,617370,0
2096921,2096921,190286,617421,0
2096921,2096921,190076,617684,0
2096921,2096921,190352,617710,0
2096921,2096921,190187,617700,0
2096921,2096921,190357,618005,0
2096921,2096921,190498,618499,0
2096921,2096921,190560,617826,0
2096921,2096921,190235,618026,0
2096921,2096921,190364,618150,0
2096921,2096921,190420,618043,0
2096921,2096921,190453,618485,0
2096921,2096921,190476,618510,0
2096921,2096921,190746,618439,0
2096921,2096921,190960,618696,0
2096921,2096921,190927,618717,0
2096921,2096921,190869,618841,0
2096921,2096921,190867,618705,0
2096921,2096921,190683,618683,0
2096921,2096921,190560,618638,0
2096921,2096921,190927,618628,0
2096921,2096921,190947,618727,0
2096921,2096921,191007,618880,0
2096921,2096921,191052,618933,0
2096921,2096921,191288,619154,0
2096921,2096921,191066,619461,0
2096921,2096921,191333,619650,0
2096921,2096921,191330,619466,0
2096921,2096921,191239,619465,0
2096921,2096921,191268,619826,0
2096921,2096921,191154,619885,0
2096921,2096921,191298,619631,0
2096921,2096921,191215,619859,0
2096921,2096921,191546,619801,0
2096921,2096921,191397,619745,0
2096921,2096921,191799,620216,0
2096921,2096921,191605,620547,0
2096921,2096921,191464,620842,0
2096921,2096921,191695,620398,0
2096921,2096921,191940,620083,0
2096921,2096921,191668,620501,0
2096921,2096921,191915,620604,0
2096921,2096921,192038,620403,0
2096921,2096921,192085,620452,0
2096921,2096921,192256,621026,0
2096921,2096921,191933,621026,0
2096921,2096921,192058,620947,0
2096921,2096921,191882,620883,0
2096921,2096921,191946,620605,0
2096921,2096921,192315,620858,0
2096921,2096921,191894,620989,0
2096921,2096921,192251,621349,0
2096921,2096921,191939,621109,0
2096921,2096921,192123,621032,0
2096921,2096921,192157,621232,0
2096921,2096921,192487,621508,0
2096921,2096921,192209,621123,0
2096921,2096921,192164,621250,0
2096921,2096921,192150,621467,0
2096921,2096921,192133,621066,0
2096921,2096921,192211,621303,0
2096921,2096921,191914,621472,0
2096921,2096921,192360,621453,0
2096921,2096921,192354,621443,0
2096921,2096921,192337,621566,0
2096921,2096921,192248,621657,0
2096921,2096921,192292,621529,0
2096921,2096921,192284,621707,0
2096921,2096921,192637,621555,0
2096921,2096921,192558,621457,0
2096921,2096921,192269,621292,0
2096921,2096921,192295,621785,0
2096921,2096921,192301,621811,0
2096921,2096921,192367,621843,0
2096921,2096921,192098,621369,0
2096921,2096921,192434,621599,0
2096921,2096921,192552,621744,0
2096921,2096921,192418,621782,0
2096921,2096921,192296,621976,0
2096921,2096921,192221,621683,0
2096921,2096921,192301,621448,0
2096921,2096921,192046,621333,0
2096921,2096921,191963,621617,0
2096921,2096921,192384,621470,0
2096921,2096921,192374,621850,0
2096921,2096921,192420,621666,0
2096921,2096921,192320,621675,0
2096921,2096921,192517,621209,0
2096921,2096921,192100,621190,0
2096921,2096921,192030,621378,0
2096921,2096921,192072,621411,0
2096921,2096921,192069,621356,0
2096921,2096921,192252,621360,0
2096921,2096921,192253,621027,0
2096921,2096921,192199,621198,0
2096921,2096921,192095,621454,0
2096921,2096921,192340,621004,0
2096921,2096921,192150,621075,0
2096921,2096921,192026,621034,0
2096921,2096921,192273,620797,0
2096921,2096921,192131,621080,0
2096921,2096921,192303,621118,0
2096921,2096921,192203,621040,0
2096921,2096921,192434,621302,0
2096921,2096921,191937,621105,0
2096921,2096921,191903,620998,0
2096921,2096921,191857,621177,0
2096921,2096921,192195,621290,0
2096921,2096921,192111,621034,0
2096921,2096921,191868,621135,0
2096921,2096921,191961,621166,0
2096921,2096921,192078,621245,0
2096921,2096921,192151,620959,0
2096921,2096921,191995,620707,0
2096921,2096921,192087,621126,0
2096921,2096921,192500,621234,0
2096921,2096921,192154,621214,0
2096921,2096921,191972,621407,0
2096921,2096921,191978,621075,0
2096921,2096921,192218,620904,0
2096921,2096921,191688,621464,0
2096921,2096921,192335,621051,0
2096921,2096921,192099,621147,0
2096921,2096921,192460,621392,0
2096921,2096921,192268,621143,0
2096921,2096921,192270,621194,0
2096921,2096921,192106,621488,0
2096921,2096921,192034,621389,0
2096921,2096921,192169,621196,0
2096921,2096921,192352,621326,0
2096921,2096921,192207,621548,0
2096921,2096921,192522,621235,0
2096921,2096921,192227,621572,0
2096921,2096921,192636,621362,0
2096921,2096921,192442,621493,0
2096921,2096921,192622,621983,0
2096921,2096921,192738,621693,0
2096921,2096921,192769,621614,0
2096921,2096921,192658,621967,0
2096921,2096921,192885,621729,0
2096921,2096921,192357,621994,0
2096921,2096921,192522,621990,0
2096921,2096921,192659,621793,0
2096921,2096921,192745,622137,0
2096921,2096921,192908,622015,0
2096921,2096921,192841,622295,0
2096921,2096921,192976,622610,0
2096921,2096921,192932,622471,0
2096921,2096921,192605,622294,0
2096921,2096921,192877,622267,0
2096921,2096921,192657,622523,0
2096921,2096921,193000,622489,0
2096921,2096921,192999,622450,0
2096921,2096921,193052,622291,0
2096921,2096921,192962,622287,0
2096921,2096921,193020,622624,0
2096921,2096921,192825,622730,0
2096921,2096921,193062,622718,0
2096921,2096921,192779,622846,0
2096921,2096921,193048,622802,0
2096921,2096921,193007,622773,0
2096921,2096921,192979,622808,0
2096921,2096921,193186,622843,0
2096921,2096921,193099,623030,0
2096921,2096921,193189,622986,0
2096921,2096921,193203,623094,0
2096921,2096921,193360,623449,0
2096921,2096921,193235,623444,0
2096921,2096921,192948,623329,0
2096921,2096921,193319,623395,0
2096921,2096921,193191,623248,0
2096921,2096921,193516,622633,0
2096921,2096921,193171,623207,0
2096921,2096921,193154,623647,0
2096921,2096921,193405,623345,0
2096921,2096921,193625,623720,0
2096921,2096921,193405,623529,0
2096921,2096921,193482,623259,0
2096921,2096921,193516,623602,0
2096921,2096921,193557,623498,0
2096921,2096921,193439,623642,0
2096921,2096921,193329,623807,0
2096921,2096921,193130,623817,0
2096921,2096921,193427,624082,0
2096921,2096921,193599,623510,0
2096921,2096921,193497,623913,0
2096921,2096921,193415,624237,0
2096921,2096921,193985,623621,0
2096921,2096921,193861,623649,0
2096921,2096921,193820,623589,0
2096921,2096921,193853,623886,0
2096921,2096921,193957,624267,0
2096921,2096921,193997,624150,0
2096921,2096921,193732,623846,0
2096921,2096921,193823,624062,0
2096921,2096921,194239,624373,0
2096921,2096921,193879,624372,0
2096921,2096921,194055,624252,0
2096921,2096921,193911,624362,0
2096921,2096921,193917,624388,0
2096921,2096921,193716,624506,0
2096921,2096921,194117,624271,0
2096921,2096921,193888,624354,0
2096921,2096921,193992,624484,0
2096921,2096921,194075,624567,0
2096921,2096921,194088,624626,0
2096921,2096921,193885,624847,0
2096921,2096921,194107,624709,0
2096921,2096921,193919,624721,0
2096921,2096921,193892,624781,0
2096921,2096921,194054,624995,0
2096921,2096921,194389,624942,0
2096921,2096921,194457,624771,0
2096921,2096921,194208,624710,0
2096921,2096921,194297,625103,0
2096921,2096921,194103,625173,0
2096921,2096921,194377,625304,0
2096921,2096921,194354,625194,0
2096921,2096921,194236,624991,0
2096921,2096921,194325,624637,0
2096921,2096921,194301,624688,0
2096921,2096921,194185,624993,0
2096921,2096921,194011,625071,0
2096921,2096921,194025,625056,0
2096921,2096921,194408,625410,0
2096921,2096921,194593,625273,0
2096921,2096921,194413,625348,0
2096921,2096921,194276,625294,0
2096921,2096921,194641,625048,0
2096921,2096921,194327,625363,0
2096921,2096921,194176,625197,0
2096921,2096921,194110,625260,0
2096921,2096921,194506,625470,0
2096921,2096921,194382,625445,0
2096921,2096921,194224,625480,0
2096921,2096921,194624,625349,0
2096921,2096921,194614,625588,0
2096921,2096921,194406,625382,0
2096921,2096921,194417,625546,0
2096921,2096921,194655,625488,0
2096921,2096921,194722,625695,0
2096921,2096921,194617,625828,0
2096921,2096921,194730,625621,0
2096921,2096921,194715,625712,0
2096921,2096921,194778,625938,0
2096921,2096921,194681,625744,0
2096921,2096921,194713,625672,0
2096921,2096921,194659,625778,0
2096921,2096921,194554,625962,0
2096921,2096921,194943,625613,0
2096921,2096921,194571,625787,0
2096921,2096921,194534,625957,0
2096921,2096921,194566,625588,0
2096921,2096921,194629,625641,0
2096921,2096921,195130,625989,0
2096921,2096921,194609,625878,0
2096921,2096921,194679,626112,0
2096921,2096921,194819,626125,0
2096921,2096921,194785,626249,0
2096921,2096921,194760,625882,0
2096921,2096921,194772,625850,0
2096921,2096921,194751,625882,0
2096921,2096921,194690,626123,0
2096921,2096921,194677,626032,0
2096921,2096921,194788,626172,0
2096921,2096921,194766,626338,0
2096921,2096921,195073,626415,0
2096921,2096921,194939,626287,0
2096921,2096921,194420,626469,0
2096921,2096921,194865,625983,0
2096921,2096921,194769,626050,0
2096921,2096921,194906,626247,0
2096921,2096921,194849,626296,0
2096921,2096921,194885,626294,0
2096921,2096921,195077,626269,0
2096921,2096921,194840,626102,0
2096921,2096921,195059,626426,0
2096921,2096921,195025,625892,0
2096921,2096921,195018,626293,0
2096921,2096921,194904,626428,0
2096921,2096921,194978,626352,0
2096921,2096921,195114,626324,0
2096921,2096921,194894,626530,0
2096921,2096921,195195,626487,0
2096921,2096921,195255,626559,0
2096921,2096921,195293,626583,0
2096921,2096921,195096,626575,0
2096921,2096921,194929,626458,0
2096921,2096921,194778,626464,0
2096921,2096921,194902,626501,0
2096921,2096921,194947,626234,0
2096921,2096921,195009,626239,0
2096921,2096921,194844,626403,0
2096921,2096921,195247,626611,0
2096921,2096921,195202,626468,0
2096921,2096921,195129,626717,0
2096921,2096921,195257,626728,0
2096921,2096921,195165,626622,0
2096921,2096921,195139,626489,0
2096921,2096921,195145,626365,0
2096921,2096921,195045,626472,0
2096921,2096921,195066,626467,0
2096921,2096921,195110,626732,0
2096921,2096921,195295,626740,0
2096921,2096921,195351,626743,0
2096921,2096921,195258,626665,0
2096921,2096921,195306,626855,0
2096921,2096921,195123,626952,0
2096921,2096921,195239,626727,0
2096921,2096921,194958,626495,0
2096921,2096921,194904,626761,0
2096921,2096921,195083,626939,0
2096921,2096921,195117,627002,0
2096921,2096921,195197,626893,0
2096921,2096921,195014,627091,0
2096921,2096921,195378,627036,0
2096921,2096921,195463,627163,0
2096921,2096921,195255,626634,0
2096921,2096921,195080,627049,0
2096921,2096921,195072,626649,0
2096921,2096921,195136,627022,0
2096921,2096921,195127,627245,0
2096921,2096921,195267,627177,0
2096921,2096921,195374,626666,0
2096921,2096921,195553,627135,0
2096921,2096921,195082,626827,0
2096921,2096921,195602,626998,0
2096921,2096921,195513,627116,0
2096921,2096921,195278,627458,0
2096921,2096921,195162,626925,0
2096921,2096921,195613,626614,0
2096921,2096921,195422,626964,0
2096921,2096921,195393,627270,0
2096921,2096921,195275,627104,0
2096921,2096921,195225,627212,0
2096921,2096921,195366,627132,0
2096921,2096921,195550,627243,0
2096921,2096921,195359,627110,0
2096921,2096921,195511,627112,0
2096921,2096921,195455,627200,0
2096921,2096921,195504,627168,0
2096921,2096921,195589,627023,0
2096921,2096921,195298,627485,0
2096921,2096921,195267,627331,0
2096921,2096921,195694,627125,0
2096921,2096921,195275,627180,0
2096921,2096921,195344,627373,0
2096921,2096921,195424,627002,0
2096921,2096921,195324,627085,0
2096921,2096921,195130,627087,0
2096921,2096921,195376,627414,0
2096921,2096921,195511,627192,0
2096921,2096921,195451,627265,0
2096921,2096921,195263,627202,0
2096921,2096921,195191,627706,0
2096921,2096921,195655,627230,0
2096921,2096921,195678,627234,0
2096921,2096921,195393,627093,0
2096921,2096921,195619,627156,0
2096921,2096921,195566,626863,0
2096921,2096921,195421,626947,0
2096921,2096921,195134,627065,0
2096921,2096921,195800,627105,0
2096921,2096921,195343,627183,0
2096921,2096921,195492,627197,0
2096921,2096921,195463,627258,0
2096921,2096921,195832,627292,0
2096921,2096921,195438,627027,0
2096921,2096921,195254,627288,0
2096921,2096921,195611,626953,0
2096921,2096921,195434,627035,0
2096921,2096921,195457,626874,0
2096921,2096921,195596,627139,0
2096921,2096921,195595,626851,0
2096921,2096921,195653,627096,0
2096921,2096921,195517,627495,0
2096921,2096921,195598,627204,0
2096921,2096921,195512,627437,0
2096921,2096921,195165,626995,0
2096921,2096921,195237,627178,0
2096921,2096921,195219,627469,0
2096921,2096921,195310,627412,0
2096921,2096921,195085,627313,0
2096921,2096921,195116,627299,0
2096921,2096921,195496,627238,0
2096921,2096921,195768,627192,0
2096921,2096921,195434,627052,0
2096921,2096921,195425,627087,0
2096921,2096921,195383,627155,0
2096921,2096921,195183,627285,0
2096921,2096921,195214,627185,0
2096921,2096921,195178,627328,0
2096921,2096921,195520,627081,0
2096921,2096921,195565,627170,0
2096921,2096921,195579,627285,0
2096921,2096921,195315,627111,0
2096921,2096921,195474,626766,0
2096921,2096921,195485,626736,0
2096921,2096921,195433,626667,0
2096921,2096921,194844,626630,0
2096921,2096921,195004,626306,0
2096921,2096921,194932,626274,0
2096921,2096921,194807,626544,0
2096921,2096921,195147,626283,0
2096921,2096921,194833,626470,0
2096921,2096921,194853,626030,0
2096921,2096921,194911,625992,0
2096921,2096921,194898,625726,0
2096921,2096921,195043,626169,0
2096921,2096921,194661,625876,0
2096921,2096921,194557,625528,0
2096921,2096921,194546,625464,0
2096921,2096921,194364,625456,0
2096921,2096921,194368,624991,0
2096921,2096921,193971,625289,0
2096921,2096921,194151,624667,0
2096921,2096921,194107,624480,0
2096921,2096921,193899,624374,0
2096921,2096921,193902,624484,0
2096921,2096921,193360,624370,0
2096921,2096921,192870,623132,0
2096921,2096921,192904,623135,0
2096921,2096921,192930,623256,0
2096921,2096921,193012,622777,0
2096921,2096921,192179,622684,0
2096921,2096921,192151,621195,0
2096921,2096921,192337,621059,0
2096921,2096921,191975,620981,0
2096921,2096921,192178,621187,0
2096921,2096921,191104,620739,0
2096921,2096921,191145,619620,0
2096921,2096921,191175,619560,0
2096921,2096921,191075,619399,0
2096921,2096921,191309,619424,0
2096921,2096921,190777,619468,0
2096921,2096921,190653,618592,0
2096921,2096921,190693,618405,0
2096921,2096921,190599,618283,0
2096921,2096921,190659,618406,0
2096921,2096921,190226,618394,0
2096921,2096921,189776,617402,0
2096921,2096921,189909,617170,0
2096921,2096921,189756,617522,0
2096921,2096921,190038,617203,0
2096921,2096921,189923,617536,0
2096921,2096921,189891,616853,0
2096921,2096921,189878,616869,0
2096921,2096921,189756,616477,0
2096921,2096921,189550,616716,0
2096921,2096921,189474,617229,0
2096921,2096921,189650,616468,0
2096921,2096921,189425,616436,0
2096921,2096921,189305,616607,0
2096921,2096921,189175,616173,0
2096921,2096921,189360,616264,0
2096921,2096921,189640,616104,0
2096921,2096921,189125,616146,0
2096921,2096921,189285,616143,0
2096921,2096921,189508,616118,0
2096921,2096921,189359,616093,0
2096921,2096921,189343,616146,0
2096921,2096921,189291,615870,0
2096921,2096921,189269,615865,0
2096921,2096921,189398,616011,0
2096921,2096921,189437,615927,0
2096921,2096921,189134,615998,0
2096921,2096921,189298,616073,0
2096921,2096921,189470,615765,0
2096921,2096921,189049,615829,0
2096921,2096921,188977,615979,0
2096921,2096921,189308,616171,0
2096921,2096921,189364,616063,0
2096921,2096921,189243,616222,0
2096921,2096921,189394,616226,0
2096921,2096921,189863,616230,0
2096921,2096921,189342,616161,0
2096921,2096921,189317,616149,0
2096921,2096921,189384,616180,0
2096921,2096921,189616,616128,0
2096921,2096921,189417,616418,0
2096921,2096921,189469,616717,0
2096921,2096921,189709,616314,0
2096921,2096921,189207,616575,0
2096921,2096921,189663,616167,0
2096921,2096921,189448,616361,0
2096921,2096921,189706,616538,0
2096921,2096921,189728,617016,0
2096921,2096921,189752,616832,0
2096921,2096921,189535,616759,0
2096921,2096921,189931,616615,0
2096921,2096921,189725,616918,0
2096921,2096921,189841,616766,0
2096921,2096921,189629,617199,0
2096921,2096921,189532,617140,0
2096921,2096921,189788,617051,0
2096921,2096921,190240,617433,0
2096921,2096921,190156,617481,0
2096921,2096921,190168,617393,0
2096921,2096921,189984,617117,0
2096921,2096921,190181,617377,0
2096921,2096921,190159,617776,0
2096921,2096921,190419,617805,0
2096921,2096921,190504,617756,0
2096921,2096921,190119,617665,0
2096921,2096921,190390,617755,0
2096921,2096921,190364,617629,0
2096921,2096921,190816,618112,0
2096921,2096921,190704,618072,0
2096921,2096921,190457,618150,0
2096921,2096921,190346,617857,0
2096921,2096921,190528,618386,0
2096921,2096921,190462,618402,0
2096921,2096921,190711,618413,0
2096921,2096921,190618,618476,0
2096921,2096921,190837,618780,0
2096921,2096921,190625,618986,0
2096921,2096921,190929,618626,0
2096921,2096921,190613,618540,0
2096921,2096921,190816,618797,0
2096921,2096921,190898,618507,0
2096921,2096921,190831,619133,0
2096921,2096921,190827,619092,0
2096921,2096921,190912,619049,0
2096921,2096921,190936,618984,0
2096921,2096921,191078,619045,0
2096921,2096921,191230,619424,0
2096921,2096921,191277,619339,0
2096921,2096921,191071,619649,0
2096921,2096921,191281,619672,0
2096921,2096921,191317,619611,0
2096921,2096921,191198,619697,0
2096921,2096921,191597,619960,0
2096921,2096921,191479,619754,0
2096921,2096921,191350,619793,0
2096921,2096921,191573,619822,0
2096921,2096921,191693,620422,0
2096921,2096921,192010,620343,0
2096921,2096921,191853,619918,0
2096921,2096921,191650,620177,0
2096921,2096921,191611,620092,0
2096921,2096921,191739,620457,0
2096921,2096921,191830,620622,0
2096921,2096921,191864,620619,0
2096921,2096921,192162,620463,0
2096921,2096921,192048,620590,0
2096921,2096921,192063,620844,0
2096921,2096921,192032,621245,0
2096921,2096921,192110,620808,0
2096921,2096921,191861,621006,0
2096921,2096921,191961,621173,0
2096921,2096921,191875,620959,0
2096921,2096921,192051,621034,0
2096921,2096921,192205,620918,0
2096921,2096921,191989,621114,0
2096921,2096921,192167,621061,0
2096921,2096921,192404,621592,0
2096921,2096921,192376,621559,0
2096921,2096921,192262,621305,0
2096921,2096921,192137,620985,0
2096921,2096921,192326,621135,0
2096921,2096921,192408,621351,0
2096921,2096921,192502,621300,0
2096921,2096921,192236,621203,0
2096921,2096921,191953,621543,0
2096921,2096921,192324,621492,0
2096921,2096921,192560,621518,0
2096921,2096921,192274,621848,0
2096921,2096921,192053,621795,0
2096921,2096921,192631,621853,0
2096921,2096921,192404,621642,0
2096921,2096921,192237,621777,0
2096921,2096921,192448,621539,0
2096921,2096921,192348,621378,0
2096921,2096921,192217,621641,0
2096921,2096921,192494,621758,0
2096921,2096921,192313,621748,0
2096921,2096921,192450,621888,0
2096921,2096921,192207,621488,0
2096921,2096921,192610,621737,0
2096921,2096921,192466,621719,0
2096921,2096921,192411,621437,0
2096921,2096921,192300,621446,0
2096921,2096921,192377,621461,0
2096921,2096921,192282,621589,0
2096921,2096921,192416,621690,0
2096921,2096921,192403,621173,0
2096921,2096921,192379,621506,0
2096921,2096921,192229,621468,0
2096921,2096921,192170,621576,0
2096921,2096921,192257,621076,0
2096921,2096921,191950,621186,0
2096921,2096921,192026,620891,0
2096921,2096921,192585,621283,0
2096921,2096921,192311,621535,0
2096921,2096921,192211,621482,0
2096921,2096921,192157,621576,0
2096921,2096921,192204,621384,0
2096921,2096921,192424,621277,0
2096921,2096921,192123,620985,0
2096921,2096921,192133,620880,0
2096921,2096921,192109,620994,0
2096921,2096921,191973,621114,0
2096921,2096921,192166,621127,0
2096921,2096921,191988,621088,0
2096921,2096921,192214,621011,0
2096921,2096921,191973,621053,0
2096921,2096921,192077,620694,0
2096921,2096921,192455,621092,0
2096921,2096921,192364,621304,0
2096921,2096921,192058,621015,0
2096921,2096921,191729,621054,0
2096921,2096921,192002,620865,0
2096921,2096921,192132,620967,0
2096921,2096921,192274,621209,0
2096921,2096921,192079,621370,0
2096921,2096921,192207,621333,0
2096921,2096921,192081,621367,0
2096921,2096921,192241,621147,0
2096921,2096921,192109,620940,0
2096921,2096921,192090,621185,0
2096921,2096921,192104,621192,0
2096921,2096921,192062,621238,0
2096921,2096921,191985,621120,0
2096921,2096921,192076,621328,0
2096921,2096921,192391,621217,0
2096921,2096921,191980,621476,0
2096921,2096921,192171,621479,0
2096921,2096921,192312,621068,0
2096921,2096921,192237,621236,0
2096921,2096921,192385,620786,0
2096921,2096921,192184,621407,0
2096921,2096921,192487,621229,0
2096921,2096921,192068,621310,0
2096921,2096921,192382,621748,0
2096921,2096921,192636,621809,0
2096921,2096921,192556,621874,0
2096921,2096921,192384,622292,0
2096921,2096921,192442,622027,0
2096921,2096921,192338,621971,0
2096921,2096921,192842,622037,0
2096921,2096921,192608,622154,0
2096921,2096921,192721,621907,0
2096921,2096921,192322,621778,0
2096921,2096921,192676,621782,0
2096921,2096921,192745,621761,0
2096921,2096921,192786,622095,0
2096921,2096921,193082,622293,0
2096921,2096921,192782,621946,0
2096921,2096921,192799,622297,0
2096921,2096921,192660,622154,0
2096921,2096921,192860,622662,0
2096921,2096921,192665,622381,0
2096921,2096921,192977,622491,0
2096921,2096921,192614,622417,0
2096921,2096921,192654,622725,0
2096921,2096921,192845,622605,0
2096921,2096921,192866,622544,0
2096921,2096921,193219,622824,0
2096921,2096921,193087,622565,0
2096921,2096921,193226,622483,0
2096921,2096921,192909,622724,0
2096921,2096921,193251,622842,0
2096921,2096921,193275,622884,0
2096921,2096921,193221,622871,0
2096921,2096921,193190,623264,0
2096921,2096921,193345,623132,0
2096921,2096921,193065,623207,0
2096921,2096921,193065,623379,0
2096921,2096921,193062,623239,0
2096921,2096921,193181,622808,0
2096921,2096921,193177,623149,0
2096921,2096921,193434,623110,0
2096921,2096921,193288,623370,0
2096921,2096921,193119,623364,0
2096921,2096921,193511,623219,0
2096921,2096921,193537,623244,0
2096921,2096921,193559,623649,0
2096921,2096921,193476,623727,0
2096921,2096921,193153,623770,0
2096921,2096921,193299,623736,0
2096921,2096921,193475,623597,0
2096921,2096921,193580,623693,0
2096921,2096921,193480,623638,0
2096921,2096921,193601,623569,0
2096921,2096921,193648,623537,0
2096921,2096921,193540,623812,0
2096921,2096921,193329,623996,0
2096921,2096921,193903,623630,0
2096921,2096921,193896,623824,0
2096921,2096921,193765,623538,0
2096921,2096921,193722,623883,0
2096921,2096921,193611,623875,0
2096921,2096921,193728,624288,0
2096921,2096921,193698,624158,0
2096921,2096921,193802,624148,0
2096921,2096921,193792,624242,0
2096921,2096921,193690,624353,0
2096921,2096921,194066,624325,0
2096921,2096921,194058,624263,0
2096921,2096921,193947,624436,0
2096921,2096921,193788,624732,0
2096921,2096921,194120,624338,0
2096921,2096921,194003,624456,0
2096921,2096921,194049,624413,0
2096921,2096921,194218,624634,0
2096921,2096921,193933,624433,0
2096921,2096921,194027,624801,0
2096921,2096921,194022,624729,0
2096921,2096921,193883,624596,0
2096921,2096921,193754,624417,0
2096921,2096921,193747,625008,0
2096921,2096921,193913,624342,0
2096921,2096921,193940,624734,0
2096921,2096921,194042,624748,0
2096921,2096921,194130,624821,0
2096921,2096921,194217,624828,0
2096921,2096921,194015,625199,0
2096921,2096921,194677,624821,0
2096921,2096921,194313,624962,0
2096921,2096921,194004,624874,0
2096921,2096921,194262,624995,0
2096921,2096921,194243,625194,0
2096921,2096921,194339,625420,0
2096921,2096921,194276,625252,0
2096921,2096921,194070,625196,0
2096921,2096921,194522,625185,0
2096921,2096921,194317,625054,0
2096921,2096921,194558,625414,0
2096921,2096921,194396,625075,0
2096921,2096921,194390,624894,0
2096921,2096921,194451,625497,0
2096921,2096921,194339,625290,0
2096921,2096921,194334,625101,0
2096921,2096921,194406,624900,0
2096921,2096921,194453,625125,0
2096921,2096921,194652,625591,0
2096921,2096921,194501,625494,0
2096921,2096921,194412,625329,0
2096921,2096921,194387,625273,0
2096921,2096921,194459,625248,0
2096921,2096921,194403,625292,0
2096921,2096921,194634,625486,0
2096921,2096921,194828,625589,0
2096921,2096921,194849,625626,0
2096921,2096921,194871,625827,0
2096921,2096921,194815,625866,0
2096921,2096921,194859,625947,0
2096921,2096921,194516,625665,0
2096921,2096921,194607,625835,0
2096921,2096921,194510,625886,0
2096921,2096921,194636,625881,0
2096921,2096921,194725,625891,0
2096921,2096921,194484,626040,0
2096921,2096921,194915,625698,0
2096921,2096921,194823,625535,0
2096921,2096921,194723,626304,0
2096921,2096921,194751,625925,0
2096921,2096921,194950,625878,0
2096921,2096921,194742,626163,0
2096921,2096921,194697,626081,0
2096921,2096921,194858,625822,0
2096921,2096921,194807,625823,0
2096921,2096921,194632,625944,0
2096921,2096921,194887,625731,0
2096921,2096921,194899,625759,0
2096921,2096921,194940,626272,0
2096921,2096921,194940,626144,0
2096921,2096921,194708,625933,0
2096921,2096921,194807,626112,0
2096921,2096921,194893,626267,0
2096921,2096921,194690,626247,0
2096921,2096921,194893,626031,0
2096921,2096921,195015,626335,0
2096921,2096921,195158,626208,0
2096921,2096921,195053,626251,0
2096921,2096921,194990,626362,0
2096921,2096921,195216,626532,0
2096921,2096921,194953,626238,0
2096921,2096921,194904,626318,0
2096921,2096921,194757,626185,0
2096921,2096921,194439,626422,0
2096921,2096921,194725,626449,0
2096921,2096921,194705,626483,0
2096921,2096921,194789,626556,0
2096921,2096921,194877,626418,0
2096921,2096921,195331,626345,0
2096921,2096921,195450,626539,0
2096921,2096921,195092,626982,0
2096921,2096921,195129,626683,0
2096921,2096921,195059,626301,0
2096921,2096921,194889,626439,0
2096921,2096921,195137,626645,0
2096921,2096921,195155,626486,0
2096921,2096921,194764,626368,0
2096921,2096921,195047,626655,0
2096921,2096921,195249,626816,0
2096921,2096921,195280,626651,0
2096921,2096921,194979,626865,0
2096921,2096921,195174,626840,0
2096921,2096921,195280,626476,0
2096921,2096921,195171,626804,0
2096921,2096921,195288,626655,0
2096921,2096921,195340,626706,0
2096921,2096921,195175,626186,0
2096921,2096921,195163,626439,0
2096921,2096921,195276,626708,0
2096921,2096921,195361,626899,0
2096921,2096921,195476,626891,0
2096921,2096921,195462,627117,0
2096921,2096921,195302,626783,0
2096921,2096921,195026,626896,0
2096921,2096921,195358,626986,0
2096921,2096921,195152,626791,0
2096921,2096921,195226,627046,0
2096921,2096921,195649,626756,0
2096921,2096921,195331,626852,0
2096921,2096921,195241,626968,0
2096921,2096921,195317,626866,0
2096921,2096921,195206,626915,0
2096921,2096921,195440,626897,0
2096921,2096921,195500,626787,0
2096921,2096921,194997,626651,0
2096921,2096921,195274,626650,0
2096921,2096921,195115,626917,0
2096921,2096921,195255,626825,0
2096921,2096921,195180,627136,0
2096921,2096921,195599,626929,0
2096921,2096921,195113,627032,0
2096921,2096921,195285,626803,0
2096921,2096921,195209,627084,0
2096921,2096921,195293,627130,0
2096921,2096921,195655,627010,0
2096921,2096921,195562,627005,0
2096921,2096921,195086,626880,0
2096921,2096921,195573,627264,0
2096921,2096921,195818,627289,0
2096921,2096921,195655,627442,0
2096921,2096921,195787,627282,0
2096921,2096921,195422,627014,0
2096921,2096921,195755,627133,0
2096921,2096921,195101,627415,0
2096921,2096921,195343,627341,0
2096921,2096921,195683,627273,0
2096921,2096921,195377,627137,0
2096921,2096921,195605,627198,0
2096921,2096921,195485,627391,0
2096921,2096921,195720,627299,0
2096921,2096921,195554,627249,0
2096921,2096921,195311,627313,0
2096921,2096921,195606,626997,0
2096921,2096921,195542,627123,0
2096921,2096921,195404,627366,0
2096921,2096921,195570,627328,0
2096921,2096921,195546,627299,0
2096921,2096921,195541,627350,0
2096921,2096921,195522,627436,0
2096921,2096921,195738,627158,0
2096921,2096921,195207,626979,0
2096921,2096921,195039,627173,0
2096921,2096921,195221,627276,0
2096921,2096921,195351,626993,0
2096921,2096921,195180,626929,0
2096921,2096921,195564,627002,0
2096921,2096921,195582,626881,0
2096921,2096921,195510,627053,0
2096921,2096921,195157,627171,0
2096921,2096921,195614,627561,0
2096921,2096921,195446,627217,0
2096921,2096921,195267,627273,0
2096921,2096921,195223,627201,0
2096921,2096921,195332,627016,0
2096921,2096921,195526,627003,0
2096921,2096921,195680,627266,0
2096921,2096921,195534,627026,0
2096921,2096921,195699,627420,0
2096921,2096921,195565,627024,0
2096921,2096921,195510,627320,0
2096921,2096921,195724,627171,0
2096921,2096921,195863,627072,0
2096921,2096921,195396,627464,0
2096921,2096921,195434,627598,0
2096921,2096921,195123,627215,0
2096921,2096921,195289,627050,0
2096921,2096921,195517,627399,0
2096921,2096921,195539,627371,0
2096921,2096921,195618,627162,0
2096921,2096921,195476,627068,0
2096921,2096921,195435,627036,0
2096921,2096921,195580,626933,0
2096921,2096921,195551,627040,0
2096921,2096921,195741,627257,0
2096921,2096921,195267,627218,0
2096921,2096921,195827,627212,0
2096921,2096921,195588,627026,0
2096921,2096921,195527,627188,0
2096921,2096921,195521,627136,0
2096921,2096921,195496,626803,0
2096921,2096921,195338,626505,0
2096921,2096921,195255,627055,0
2096921,2096921,195144,626692,0
2096921,2096921,194856,626365,0
2096921,2096921,194864,626580,0
2096921,2096921,195363,626801,0
2096921,2096921,195117,626617,0
2096921,2096921,194877,626473,0
2096921,2096921,195080,626028,0
2096921,2096921,194866,626125,0
2096921,2096921,194827,626195,0
2096921,2096921,194724,626205,0
2096921,2096921,194180,626156,0
2096921,2096921,194213,625318,0
2096921,2096921,194190,625274,0
2096921,2096921,193992,625216,0
2096921,2096921,194269,625021,0
2096921,2096921,193856,625277,0
2096921,2096921,194256,624374,0
2096921,2096921,194429,624446,0
2096921,2096921,193988,624619,0
2096921,2096921,193798,624606,0
2096921,2096921,192998,624575,0
2096921,2096921,193179,623213,0
2096921,2096921,192840,622891,0
2096921,2096921,192933,622739,0
2096921,2096921,193034,622879,0
2096921,2096921,192300,623028,0
2096921,2096921,192082,621239,0
2096921,2096921,192033,621055,0
2096921,2096921,191967,620748,0
2096921,2096921,191789,620770,0
2096921,2096921,191366,620824,0
2096921,2096921,191439,619635,0
2096921,2096921,191309,619359,0
2096921,2096921,191279,619461,0
2096921,2096921,191120,619359,0
2096921,2096921,190524,619437,0
2096921,2096921,190602,618460,0
2096921,2096921,190321,618492,0
2096921,2096921,190452,618280,0
2096921,2096921,190598,618505,0
2096921,2096921,189981,618314,0
2096921,2096921,189812,617249,0
2096921,2096921,190137,616986,0
2096921,2096921,190067,617452,0
2096921,2096921,190036,617477,0
2096921,2096921,189863,617390,0
2096921,2096921,189818,616917,0
2096921,2096921,190027,616617,0
2096921,2096921,189925,616780,0
2096921,2096921,189561,616803,0
2096921,2096921,189620,616882,0
2096921,2096921,189459,616377,0
2096921,2096921,189606,616358,0
2096921,2096921,189533,616405,0
2096921,2096921,189634,616092,0
2096921,2096921,189342,616001,0
2096921,2096921,189432,615937,0
2096921,2096921,189372,616202,0
2096921,2096921,189182,616251,0
2096921,2096921,189389,616291,0
2096921,2096921,189167,616185,0
2096921,2096921,189255,615981,0
2096921,2096921,189362,616077,0
2096921,2096921,188896,616022,0
2096921,2096921,188855,616218,0
2096921,2096921,189356,616021,0
2096921,2096921,189258,616011,0
2096921,2096921,189246,616153,0
2096921,2096921,189275,616068,0
2096921,2096921,189181,615609,0
2096921,2096921,188888,615896,0
2096921,2096921,189396,615740,0
2096921,2096921,189578,615751,0
2096921,2096921,189584,615971,0
2096921,2096921,189551,616376,0
2096921,2096921,189608,616395,0
2096921,2096921,189497,616166,0
2096921,2096921,189112,616349,0
2096921,2096921,189298,616184,0
2096921,2096921,189867,616273,0
2096921,2096921,189317,616320,0
2096921,2096921,189468,616572,0
2096921,2096921,189521,616239,0
2096921,2096921,189326,616122,0
2096921,2096921,189359,616436,0
2096921,2096921,189732,616135,0
2096921,2096921,189608,616734,0
2096921,2096921,189655,616890,0
2096921,2096921,190019,616872,0
2096921,2096921,189924,616725,0
2096921,2096921,189829,616686,0
2096921,2096921,189747,616959,0
2096921,2096921,189878,617386,0
2096921,2096921,190052,617061,0
2096921,2096921,189871,616902,0
2096921,2096921,189621,617042,0
2096921,2096921,189917,617317,0
2096921,2096921,190123,617614,0
2096921,2096921,189988,617411,0
2096921,2096921,190137,617779,0
2096921,2096921,190179,617319,0
2096921,2096921,190183,617609,0
2096921,2096921,190437,617805,0
2096921,2096921,190368,617584,0
2096921,2096921,190227,617563,0
2096921,2096921,190458,618039,0
2096921,2096921,190550,617920,0
2096921,2096921,190643,618148,0
2096921,2096921,190413,618337,0
2096921,2096921,190378,618324,0
2096921,2096921,190636,618209,0
2096921,2096921,190670,618507,0
2096921,2096921,190687,618577,0
2096921,2096921,190821,618299,0
2096921,2096921,190686,618298,0
2096921,2096921,190677,618426,0
2096921,2096921,190688,618803,0
2096921,2096921,190869,618733,0
2096921,2096921,190857,618877,0
2096921,2096921,190885,618843,0
2096921,2096921,190961,618773,0
2096921,2096921,191086,618955,0
2096921,2096921,191019,618836,0
2096921,2096921,190886,618981,0
2096921,2096921,190715,618962,0
2096921,2096921,191065,619037,0
2096921,2096921,191349,619408,0
2096921,2096921,191433,619509,0
2096921,2096921,191522,619541,0
2096921,2096921,191462,619584,0
2096921,2096921,191250,619644,0
2096921,2096921,191279,619900,0
2096921,2096921,191349,619724,0
2096921,2096921,191716,619745,0
2096921,2096921,191402,619865,0
2096921,2096921,191604,619986,0
2096921,2096921,191819,620335,0
2096921,2096921,191927,620165,0
2096921,2096921,192015,620093,0
2096921,2096921,191632,620140,0
2096921,2096921,191414,620449,0
2096921,2096921,191639,620411,0
2096921,2096921,191720,620279,0
2096921,2096921,191635,620468,0
2096921,2096921,192107,620605,0
2096921,2096921,191980,620609,0
2096921,2096921,191739,620714,0
2096921,2096921,191938,620918,0
2096921,2096921,192157,620765,0
2096921,2096921,191572,620994,0
2096921,2096921,191912,620864,0
2096921,2096921,192186,621332,0
2096921,2096921,192240,621190,0
2096921,2096921,192045,621076,0
2096921,2096921,191787,621134,0
2096921,2096921,191993,621207,0
2096921,2096921,192285,621431,0
2096921,2096921,192337,621239,0
2096921,2096921,192004,621361,0
2096921,2096921,192001,621641,0
2096921,2096921,192076,621473,0
2096921,2096921,192372,621753,0
2096921,2096921,192346,621421,0
2096921,2096921,192496,621164,0
2096921,2096921,191999,621541,0
2096921,2096921,192288,621538,0
2096921,2096921,192356,621795,0
2096921,2096921,192301,621900,0
2096921,2096921,192491,621877,0
2096921,2096921,192567,621747,0
2096921,2096921,192223,621463,0
2096921,2096921,192218,621719,0
2096921,2096921,192130,621792,0
2096921,2096921,192413,621615,0
2096921,2096921,192380,621396,0
2096921,2096921,192570,621622,0
2096921,2096921,192563,621728,0
2096921,2096921,192436,621666,0
2096921,2096921,192487,621699,0
2096921,2096921,192401,621626,0
2096921,2096921,192005,621424,0
2096921,2096921,192253,621326,0
2096921,2096921,191960,621367,0
2096921,2096921,192386,621363,0
2096921,2096921,192372,621351,0
2096921,2096921,192244,621356,0
2096921,2096921,192223,621598,0
2096921,2096921,192462,621537,0
2096921,2096921,192271,621528,0
2096921,2096921,192302,621314,0
2096921,2096921,192334,621324,0
2096921,2096921,192129,621315,0
2096921,2096921,191954,621214,0
2096921,2096921,192341,621532,0
2096921,2096921,192314,621402,0
2096921,2096921,192250,621475,0
2096921,2096921,192090,621164,0
2096921,2096921,192104,621034,0
2096921,2096921,192442,620906,0
2096921,2096921,192207,621262,0
2096921,2096921,192197,621040,0
2096921,2096921,192199,620747,0
2096921,2096921,191962,620898,0
2096921,2096921,192086,620831,0
2096921,2096921,191947,620805,0
2096921,2096921,191851,620744,0
2096921,2096921,192194,621054,0
2096921,2096921,192228,620933,0
2096921,2096921,191989,621145,0
2096921,2096921,191835,621128,0
2096921,2096921,191728,621253,0
2096921,2096921,191903,620737,0
2096921,2096921,191783,620938,0
2096921,2096921,192278,621179,0
2096921,2096921,192019,621072,0
2096921,2096921,192189,620887,0
2096921,2096921,191896,620945,0
2096921,2096921,191972,621077,0
2096921,2096921,191863,620982,0
2096921,2096921,192263,620799,0
2096921,2096921,191955,621100,0
2096921,2096921,191925,621282,0
2096921,2096921,192085,620919,0
2096921,2096921,192164,620947,0
2096921,2096921,191976,621119,0
2096921,2096921,192207,621262,0
2096921,2096921,192313,621241,0
2096921,2096921,192335,621130,0
2096921,2096921,192183,621338,0
2096921,2096921,192168,621050,0
2096921,2096921,192185,621214,0
2096921,2096921,192233,621437,0
2096921,2096921,192417,621646,0
2096921,2096921,192120,621470,0
2096921,2096921,192300,621519,0
2096921,2096921,192994,621384,0
2096921,2096921,192835,621586,0
2096921,2096921,192448,621832,0
2096921,2096921,192585,622102,0
2096921,2096921,192538,621973,0
2096921,2096921,192578,621992,0
2096921,2096921,192543,621908,0
2096921,2096921,192633,622107,0
2096921,2096921,192826,622070,0
2096921,2096921,192561,622075,0
2096921,2096921,192695,622073,0
2096921,2096921,192883,622190,0
2096921,2096921,192812,622206,0
2096921,2096921,192613,622621,0
2096921,2096921,192878,622397,0
2096921,2096921,192902,622124,0
2096921,2096921,192618,622342,0
2096921,2096921,192969,622401,0
2096921,2096921,193071,622427,0
2096921,2096921,192699,622372,0
2096921,2096921,193159,622707,0
2096921,2096921,193212,623066,0
2096921,2096921,193314,622686,0
2096921,2096921,193237,622868,0
2096921,2096921,193057,622787,0
2096921,2096921,193390,622531,0
2096921,2096921,193194,622928,0
2096921,2096921,192951,622648,0
2096921,2096921,193242,622577,0
2096921,2096921,193238,622870,0
2096921,2096921,193217,622884,0
2096921,2096921,193013,623152,0
2096921,2096921,193386,622988,0
2096921,2096921,193437,623083,0
2096921,2096921,193206,623460,0
2096921,2096921,193116,623181,0
2096921,2096921,193272,623101,0
2096921,2096921,193403,623198,0
2096921,2096921,193634,623276,0
2096921,2096921,193324,623460,0
2096921,2096921,193473,623356,0
2096921,2096921,193392,623448,0
2096921,2096921,193645,623674,0
2096921,2096921,193629,623627,0
2096921,2096921,193432,623648,0
2096921,2096921,193323,623609,0
2096921,2096921,193363,623617,0
2096921,2096921,193359,623678,0
2096921,2096921,193326,623719,0
2096921,2096921,193460,623810,0
2096921,2096921,193871,623388,0
2096921,2096921,193670,623698,0
2096921,2096921,193706,624095,0
2096921,2096921,193637,623841,0
2096921,2096921,193650,623848,0
2096921,2096921,193847,623975,0
2096921,2096921,193744,623708,0
2096921,2096921,193697,623799,0
2096921,2096921,193593,623985,0
2096921,2096921,193674,624261,0
2096921,2096921,193966,624176,0
2096921,2096921,193870,624597,0
2096921,2096921,193928,624265,0
2096921,2096921,193975,624135,0
2096921,2096921,193916,624149,0
2096921,2096921,193881,624132,0
2096921,2096921,194018,624347,0
2096921,2096921,194174,624368,0
2096921,2096921,194077,624141,0
2096921,2096921,194000,624465,0
2096921,2096921,194072,624228,0
2096921,2096921,194121,624494,0
2096921,2096921,193885,624600,0
2096921,2096921,194076,624781,0
2096921,2096921,194178,624626,0
2096921,2096921,194184,624988,0
2096921,2096921,194171,624802,0
2096921,2096921,194039,624903,0
2096921,2096921,194139,624662,0
2096921,2096921,194269,624646,0
2096921,2096921,194213,624974,0
2096921,2096921,194442,624983,0
2096921,2096921,194480,624938,0
2096921,2096921,194193,625080,0
2096921,2096921,194303,625004,0
2096921,2096921,194371,624483,0
2096921,2096921,194484,625041,0
2096921,2096921,194282,625163,0
2096921,2096921,194295,625197,0
2096921,2096921,194058,625102,0
2096921,2096921,194307,625178,0
2096921,2096921,194214,625164,0
2096921,2096921,194463,624996,0
2096921,2096921,194779,625180,0
2096921,2096921,194329,625495,0
2096921,2096921,194604,625351,0
2096921,2096921,194676,625233,0
2096921,2096921,194263,625327,0
2096921,2096921,194666,625185,0
2096921,2096921,194553,625048,0
2096921,2096921,194402,625332,0
2096921,2096921,194565,625497,0
2096921,2096921,194768,625400,0
2096921,2096921,194559,625095,0
2096921,2096921,194404,625492,0
2096921,2096921,194308,625529,0
2096921,2096921,194798,625489,0
2096921,2096921,194509,625652,0
2096921,2096921,194796,625939,0
2096921,2096921,194758,625824,0
2096921,2096921,194793,625308,0
2096921,2096921,194673,625653,0
2096921,2096921,195084,625758,0
2096921,2096921,194909,625648,0
2096921,2096921,194563,625564,0
2096921,2096921,194615,625772,0
2096921,2096921,194983,625989,0
2096921,2096921,194654,625737,0
2096921,2096921,194661,625847,0
2096921,2096921,194729,625768,0
2096921,2096921,194786,625938,0
2096921,2096921,194726,626055,0
2096921,2096921,194927,625950,0
2096921,2096921,194912,625939,0
2096921,2096921,194896,625797,0
2096921,2096921,194785,625654,0
2096921,2096921,194862,625712,0
2096921,2096921,194942,625942,0
2096921,2096921,195052,625843,0
2096921,2096921,194764,626016,0
2096921,2096921,195095,625899,0
2096921,2096921,194907,626114,0
2096921,2096921,194638,626299,0
2096921,2096921,194745,626254,0
2096921,2096921,194775,626317,0
2096921,2096921,194881,626168,0
2096921,2096921,194720,625891,0
2096921,2096921,195064,626042,0
2096921,2096921,195084,626147,0
2096921,2096921,194867,626340,0
2096921,2096921,195064,626235,0
2096921,2096921,194982,626118,0
2096921,2096921,194991,626277,0
2096921,2096921,194819,626449,0
2096921,2096921,194907,626274,0
2096921,2096921,194805,626147,0
2096921,2096921,194950,626331,0
2096921,2096921,194974,626493,0
2096921,2096921,195284,626583,0
2096921,2096921,195192,626617,0
2096921,2096921,195157,626406,0
2096921,2096921,195098,626567,0
2096921,2096921,195000,626337,0
2096921,2096921,195025,626424,0
2096921,2096921,195289,626783,0
2096921,2096921,195242,626461,0
2096921,2096921,195254,626368,0
2096921,2096921,194977,626439,0
2096921,2096921,195086,626428,0
2096921,2096921,194875,626313,0
2096921,2096921,195181,626350,0
2096921,2096921,194893,626251,0
2096921,2096921,194956,626774,0
2096921,2096921,194983,626640,0
2096921,2096921,195247,626729,0
2096921,2096921,195206,626725,0
2096921,2096921,195405,626777,0
2096921,2096921,195217,626786,0
2096921,2096921,194978,626743,0
2096921,2096921,195130,626556,0
2096921,2096921,195413,626649,0
2096921,2096921,195426,626852,0
2096921,2096921,195368,627016,0
2096921,2096921,195554,626911,0
2096921,2096921,195071,626797,0
2096921,2096921,195018,626969,0
2096921,2096921,195259,626911,0
2096921,2096921,195281,626963,0
2096921,2096921,195344,626583,0
2096921,2096921,195241,626699,0
2096921,2096921,195558,626762,0
2096921,2096921,195589,626801,0
2096921,2096921,195248,626831,0
2096921,2096921,195287,627056,0
2096921,2096921,195418,626773,0
2096921,2096921,195315,626847,0
2096921,2096921,194877,626983,0
2096921,2096921,195203,626979,0
2096921,2096921,195160,626812,0
2096921,2096921,195490,626848,0
2096921,2096921,195390,626753,0
2096921,2096921,195456,627056,0
2096921,2096921,195374,627039,0
2096921,2096921,195064,627260,0
2096921,2096921,195407,627138,0
2096921,2096921,195291,626865,0
2096921,2096921,195565,626827,0
2096921,2096921,195237,626928,0
2096921,2096921,195306,626655,0
2096921,2096921,195225,626652,0
2096921,2096921,195388,627059,0
2096921,2096921,195427,627126,0
2096921,2096921,195674,627501,0
2096921,2096921,195656,627013,0
2096921,2096921,195497,627192,0
2096921,2096921,195204,627043,0
2096921,2096921,195287,626779,0
2096921,2096921,195374,627070,0
2096921,2096921,195426,627155,0
2096921,2096921,195405,627304,0
2096921,2096921,195566,627220,0
2096921,2096921,195331,626958,0
2096921,2096921,195455,627329,0
2096921,2096921,195372,626961,0
2096921,2096921,195520,627049,0
2096921,2096921,195617,627213,0
2096921,2096921,195468,627237,0
2096921,2096921,195307,627162,0
2096921,2096921,195405,627190,0
2096921,2096921,195052,626993,0
2096921,2096921,195408,627150,0
2096921,2096921,195787,627291,0
2096921,2096921,195852,627354,0
2096921,2096921,195183,626915,0
2096921,2096921,195650,627412,0
2096921,2096921,195473,627317,0
2096921,2096921,195396,627065,0
2096921,2096921,195318,627025,0
2096921,2096921,195390,627210,0
2096921,2096921,195393,627413,0
2096921,2096921,195652,627501,0
2096921,2096921,195699,627374,0
2096921,2096921,195645,627276,0
2096921,2096921,195405,627127,0
2096921,2096921,195287,627341,0
2096921,2096921,195165,627163,0
2096921,2096921,195397,627015,0
2096921,2096921,195266,626958,0
2096921,2096921,195434,627499,0
2096921,2096921,195469,627001,0
2096921,2096921,195541,626930,0
2096921,2096921,195271,627194,0
2096921,2096921,195464,627207,0
2096921,2096921,195429,627358,0
2096921,2096921,195227,627154,0
2096921,2096921,195370,627317,0
2096921,2096921,195532,627287,0
2096921,2096921,195470,627117,0
2096921,2096921,195332,627029,0
2096921,2096921,195382,626948,0
2096921,2096921,195540,627086,0
2096921,2096921,195685,627244,0
2096921,2096921,195425,627187,0
2096921,2096921,195402,627201,0
2096921,2096921,195498,627282,0
2096921,2096921,195405,627338,0
2096921,2096921,195220,627332,0
2096921,2096921,195394,627116,0
2096921,2096921,195589,627073,0
2096921,2096921,195493,626831,0
2096921,2096921,195649,627405,0
2096921,2096921,195174,627078,0
2096921,2096921,195133,627066,0
2096921,2096921,195327,626955,0
2096921,2096921,195186,627169,0
2096921,2096921,195079,626888,0
2096921,2096921,194986,626325,0
2096921,2096921,195046,626627,0
2096921,2096921,195318,626539,0
2096921,2096921,195187,626170,0
2096921,2096921,195063,626210,0
2096921,2096921,194778,626040,0
2096921,2096921,194959,625733,0
2096921,2096921,194718,625794,0
2096921,2096921,194902,626230,0
2096921,2096921,194406,626009,0
2096921,2096921,194315,625814,0
2096921,2096921,194271,625465,0
2096921,2096921,194305,625451,0
2096921,2096921,194402,625179,0
2096921,2096921,194028,625130,0
2096921,2096921,194281,624901,0
2096921,2096921,194454,624956,0
2096921,2096921,194226,624620,0
2096921,2096921,193990,624642,0
2096921,2096921,193028,624398,0
2096921,2096921,193017,623040,0
2096921,2096921,192997,623210,0
2096921,2096921,193233,623157,0
2096921,2096921,193269,623013,0
2096921,2096921,192350,622741,0
2096921,2096921,192039,621469,0
2096921,2096921,192063,621291,0
2096921,2096921,191899,621038,0
2096921,2096921,192186,620824,0
2096921,2096921,191391,621025,0
2096921,2096921,191238,619757,0
2096921,2096921,191348,619334,0
2096921,2096921,191169,619353,0
2096921,2096921,191402,619523,0
2096921,2096921,190865,619137,0
2096921,2096921,190688,618669,0
2096921,2096921,190682,618837,0
2096921,2096921,190398,618481,0
2096921,2096921,190664,618611,0
2096921,2096921,190149,618544,0
2096921,2096921,190312,617573,0
2096921,2096921,190108,617720,0
2096921,2096921,190415,617247,0
2096921,2096921,189952,617176,0
2096921,2096921,190439,617271,0
2096921,2096921,189769,617040,0
2096921,2096921,189744,616912,0
2096921,2096921,189828,616644,0
2096921,2096921,190090,616614,0
2096921,2096921,189377,616958,0
2096921,2096921,189304,616488,0
2096921,2096921,189450,616487,0
2096921,2096921,189360,616568,0
2096921,2096921,189319,616565,0
2096921,2096921,189457,616505,0
2096921,2096921,189387,616327,0
2096921,2096921,189320,616095,0
2096921,2096921,189398,616101,0
2096921,2096921,189419,616216,0
2096921,2096921,189217,616251,0
2096921,2096921,189373,615863,0
2096921,2096921,189172,615713,0
2096921,2096921,189103,615817,0
2096921,2096921,189268,616192,0
2096921,2096921,189432,615990,0
2096921,2096921,189292,616090,0
2096921,2096921,189475,616030,0
2096921,2096921,189363,615998,0
2096921,2096921,189151,616148,0
2096921,2096921,189418,616256,0
2096921,2096921,189344,615500,0
2096921,2096921,189376,615967,0
2096921,2096921,189370,616149,0
2096921,2096921,189373,616329,0
2096921,2096921,189406,616334,0
2096921,2096921,189508,616345,0
2096921,2096921,189558,616217,0
2096921,2096921,189482,616227,0
2096921,2096921,189377,616171,0
2096921,2096921,189212,616281,0
2096921,2096921,189405,616319,0
2096921,2096921,189433,616417,0
2096921,2096921,189268,616199,0
2096921,2096921,189285,616235,0
2096921,2096921,189724,616289,0
2096921,2096921,189996,616591,0
2096921,2096921,189886,616729,0
2096921,2096921,189667,616792,0
2096921,2096921,189710,616776,0
2096921,2096921,189779,616610,0
2096921,2096921,189932,616906,0
2096921,2096921,189712,616711,0
2096921,2096921,189780,616871,0
2096921,2096921,189883,617223,0
2096921,2096921,189686,617327,0
2096921,2096921,189920,617220,0
2096921,2096921,190039,617283,0
2096921,2096921,189985,617138,0
2096921,2096921,190178,617541,0
2096921,2096921,190038,617341,0
2096921,2096921,189943,617500,0
2096921,2096921,190295,617831,0
2096921,2096921,190068,617735,0
2096921,2096921,190151,617614,0
2096921,2096921,190223,617842,0
2096921,2096921,190606,618427,0
2096921,2096921,190732,618094,0
2096921,2096921,190680,618221,0
2096921,2096921,190511,618231,0
2096921,2096921,190468,618047,0
2096921,2096921,190565,618254,0
2096921,2096921,190499,618301,0
2096921,2096921,190716,618079,0
2096921,2096921,190815,618408,0
2096921,2096921,190760,618143,0
2096921,2096921,190862,619150,0
2096921,2096921,190836,618885,0
2096921,2096921,190562,618876,0
2096921,2096921,190754,618854,0
2096921,2096921,191021,619073,0
2096921,2096921,190980,618925,0
2096921,2096921,190784,619059,0
2096921,2096921,190901,619317,0
2096921,2096921,190893,618877,0
2096921,2096921,191282,619025,0
2096921,2096921,191391,619512,0
2096921,2096921,191426,619688,0
2096921,2096921,191319,619522,0
2096921,2096921,191431,619569,0
2096921,2096921,191600,619528,0
2096921,2096921,191432,619613,0
2096921,2096921,191392,619559,0
2096921,2096921,191137,619556,0
2096921,2096921,191400,619666,0
2096921,2096921,191641,619740,0
2096921,2096921,191543,620249,0
2096921,2096921,191779,620275,0
2096921,2096921,191752,620292,0
2096921,2096921,191780,619986,0
2096921,2096921,191697,620406,0
2096921,2096921,191939,620440,0
2096921,2096921,191960,620411,0
2096921,2096921,191885,620345,0
2096921,2096921,191828,620554,0
2096921,2096921,191929,620572,0
2096921,2096921,191987,620968,0
2096921,2096921,191987,621021,0
2096921,2096921,192099,621174,0
2096921,2096921,192301,621153,0
2096921,2096921,192033,620959,0
2096921,2096921,191863,620814,0
2096921,2096921,191898,621166,0
2096921,2096921,191914,620924,0
2096921,2096921,191992,621078,0
2096921,2096921,192314,621214,0
2096921,2096921,192207,621179,0
2096921,2096921,192197,621516,0
2096921,2096921,192241,621767,0
2096921,2096921,192381,621593,0
2096921,2096921,192450,621348,0
2096921,2096921,192001,621298,0
2096921,2096921,192254,621418,0
2096921,2096921,192308,621361,0
2096921,2096921,192161,621622,0
2096921,2096921,192118,621658,0
2096921,2096921,192428,621682,0
2096921,2096921,192611,621408,0
2096921,2096921,192239,621696,0
2096921,2096921,192302,621985,0
2096921,2096921,192423,621699,0
2096921,2096921,192431,621643,0
2096921,2096921,192076,621506,0
2096921,2096921,192121,621529,0
2096921,2096921,192422,621656,0
2096921,2096921,192419,621979,0
2096921,2096921,192381,621992,0
2096921,2096921,192454,621600,0
2096921,2096921,192397,621567,0
2096921,2096921,192283,621793,0
2096921,2096921,192184,621804,0
2096921,2096921,192186,621684,0
2096921,2096921,192211,621298,0
2096921,2096921,192373,621422,0
2096921,2096921,192759,621663,0
2096921,2096921,192652,621652,0
2096921,2096921,192560,621592,0
2096921,2096921,192372,621679,0
2096921,2096921,192576,621382,0
2096921,2096921,192271,621338,0
2096921,2096921,192042,621512,0
2096921,2096921,192282,621370,0
2096921,2096921,192315,621324,0
2096921,2096921,192010,621225,0
2096921,2096921,192205,621321,0
2096921,2096921,192198,621185,0
2096921,2096921,192364,621482,0
2096921,2096921,192306,621443,0
2096921,2096921,192391,621687,0
2096921,2096921,192069,621305,0
2096921,2096921,192053,621178,0
2096921,2096921,191997,621041,0
2096921,2096921,192255,621071,0
2096921,2096921,191885,620933,0
2096921,2096921,191925,621282,0
2096921,2096921,192263,621128,0
2096921,2096921,192271,621077,0
2096921,2096921,192184,621077,0
2096921,2096921,192296,621289,0
2096921,2096921,192026,621112,0
2096921,2096921,191915,621189,0
2096921,2096921,191978,620706,0
2096921,2096921,191874,621004,0
2096921,2096921,192175,620882,0
2096921,2096921,191946,621151,0
2096921,2096921,191991,621393,0
2096921,2096921,192280,621511,0
2096921,2096921,191842,621275,0
2096921,2096921,192124,621455,0
2096921,2096921,191873,621528,0
2096921,2096921,191996,621201,0
2096921,2096921,191823,621354,0
2096921,2096921,192007,621667,0
2096921,2096921,192140,621499,0
2096921,2096921,192266,621250,0
2096921,2096921,192277,621300,0
2096921,2096921,192388,621539,0
2096921,2096921,192203,621095,0
2096921,2096921,192165,621357,0
2096921,2096921,192342,621511,0
2096921,2096921,192093,621272,0
2096921,2096921,192194,621469,0
2096921,2096921,192340,621380,0
2096921,2096921,192288,621442,0
2096921,2096921,192406,621341,0
2096921,2096921,192587,621366,0
2096921,2096921,192641,622121,0
2096921,2096921,192640,621942,0
2096921,2096921,192695,621908,0
2096921,2096921,192484,622121,0
2096921,2096921,192417,622066,0
2096921,2096921,192533,622164,0
2096921,2096921,192616,622311,0
2096921,2096921,192544,622016,0
2096921,2096921,192687,622061,0
2096921,2096921,192716,622087,0
2096921,2096921,192813,622477,0
2096921,2096921,193006,622538,0
2096921,2096921,193036,622307,0
2096921,2096921,192858,622345,0
2096921,2096921,192858,622528,0
2096921,2096921,192874,622703,0
2096921,2096921,192631,622544,0
2096921,2096921,192611,622560,0
2096921,2096921,192816,622695,0
2096921,2096921,193071,622230,0
2096921,2096921,192930,622576,0
2096921,2096921,193174,622689,0
2096921,2096921,193210,622758,0
2096921,2096921,193077,622722,0
2096921,2096921,193054,622947,0
2096921,2096921,192753,622960,0
2096921,2096921,192829,622717,0
2096921,2096921,193155,622827,0
2096921,2096921,193166,622757,0
2096921,2096921,193371,622468,0
2096921,2096921,193386,622828,0
2096921,2096921,193075,623076,0
2096921,2096921,193222,623461,0
2096921,2096921,193310,623031,0
2096921,2096921,193230,623246,0
2096921,2096921,193099,623194,0
2096921,2096921,193316,623246,0
2096921,2096921,193388,622910,0
2096921,2096921,193362,623037,0
2096921,2096921,193626,623370,0
2096921,2096921,193471,623459,0
2096921,2096921,193693,623636,0
2096921,2096921,193587,623725,0
2096921,2096921,193700,623539,0
2096921,2096921,193648,623798,0
2096921,2096921,193366,623755,0
2096921,2096921,193359,623797,0
2096921,2096921,193653,623950,0
2096921,2096921,193593,623601,0
2096921,2096921,193375,623691,0
2096921,2096921,193631,623980,0
2096921,2096921,193705,623826,0
2096921,2096921,193717,623766,0
2096921,2096921,193432,623635,0
2096921,2096921,193774,623833,0
2096921,2096921,193812,623836,0
2096921,2096921,193733,623884,0
2096921,2096921,193766,623955,0
2096921,2096921,193893,624037,0
2096921,2096921,194163,624045,0
2096921,2096921,193953,624249,0
2096921,2096921,193958,624285,0
2096921,2096921,194061,624348,0
2096921,2096921,193840,624082,0
2096921,2096921,193900,624482,0
2096921,2096921,194002,624421,0
2096921,2096921,194064,624585,0
2096921,2096921,193824,624557,0
2096921,2096921,193843,624809,0
2096921,2096921,193875,624497,0
2096921,2096921,193917,624618,0
2096921,2096921,193969,624962,0
2096921,2096921,194303,625156,0
2096921,2096921,194098,625067,0
2096921,2096921,194104,624731,0
2096921,2096921,194091,624893,0
2096921,2096921,194059,624600,0
2096921,2096921,194105,624604,0
2096921,2096921,193646,624888,0
2096921,2096921,194112,625045,0
2096921,2096921,194466,624886,0
2096921,2096921,194439,624908,0
2096921,2096921,194388,625147,0
2096921,2096921,194277,624818,0
2096921,2096921,194266,624675,0
2096921,2096921,194124,625313,0
2096921,2096921,194481,625230,0
2096921,2096921,194372,624922,0
2096921,2096921,194449,625454,0
2096921,2096921,194469,625328,0
2096921,2096921,194398,625196,0
2096921,2096921,194581,625272,0
2096921,2096921,194424,625475,0
2096921,2096921,194219,625330,0
2096921,2096921,194471,625182,0
2096921,2096921,194425,625257,0
2096921,2096921,194697,625469,0
2096921,2096921,194432,625406,0
2096921,2096921,194315,625224,0
2096921,2096921,194563,625611,0
2096921,2096921,194602,625613,0
2096921,2096921,194597,625504,0
2096921,2096921,194582,625666,0
2096921,2096921,194394,625614,0
2096921,2096921,194520,625420,0
2096921,2096921,194747,625557,0
2096921,2096921,194227,625440,0
2096921,2096921,194442,625777,0
2096921,2096921,194382,625888,0
2096921,2096921,194769,625505,0
2096921,2096921,194778,626077,0
2096921,2096921,194666,625551,0
2096921,2096921,194828,625786,0
2096921,2096921,194833,625569,0
2096921,2096921,194740,625838,0
2096921,2096921,194831,625761,0
2096921,2096921,194582,625884,0
2096921,2096921,194587,625944,0
2096921,2096921,194891,625815,0
2096921,2096921,194943,625555,0
2096921,2096921,194837,625975,0
2096921,2096921,194847,626059,0
2096921,2096921,194845,625965,0
2096921,2096921,195041,625983,0
2096921,2096921,194825,626135,0
2096921,2096921,194928,625853,0
2096921,2096921,194797,625944,0
2096921,2096921,194764,626126,0
2096921,2096921,194848,626198,0
2096921,2096921,195170,625857,0
2096921,2096921,194840,626059,0
2096921,2096921,194536,626072,0
2096921,2096921,194908,626176,0
2096921,2096921,195331,625985,0
2096921,2096921,194918,626058,0
2096921,2096921,194703,626248,0
2096921,2096921,195099,626318,0
2096921,2096921,195032,626351,0
2096921,2096921,194691,626573,0
2096921,2096921,194957,626157,0
2096921,2096921,195109,626091,0
2096921,2096921,195086,626110,0
2096921,2096921,194949,626240,0
2096921,2096921,195016,626197,0
2096921,2096921,194948,626394,0
2096921,2096921,194676,626497,0
2096921,2096921,194998,626521,0
2096921,2096921,195042,626205,0
2096921,2096921,194831,626247,0
2096921,2096921,195051,626327,0
2096921,2096921,195361,626781,0
2096921,2096921,195132,626642,0
2096921,2096921,195678,626320,0
2096921,2096921,195081,626355,0
2096921,2096921,195015,626571,0
2096921,2096921,194900,626265,0
2096921,2096921,195013,626386,0
2096921,2096921,195116,626427,0
2096921,2096921,194656,626475,0
2096921,2096921,194997,626512,0
2096921,2096921,195174,626728,0
2096921,2096921,194988,626603,0
2096921,2096921,195225,627068,0
2096921,2096921,195018,626734,0
2096921,2096921,195102,626622,0
2096921,2096921,194894,626479,0
2096921,2096921,195093,626673,0
2096921,2096921,194956,626432,0
2096921,2096921,195106,626745,0
2096921,2096921,195162,626228,0
2096921,2096921,195081,626706,0
2096921,2096921,195318,626774,0
2096921,2096921,195487,626838,0
2096921,2096921,195446,626688,0
2096921,2096921,195354,627026,0
2096921,2096921,195271,626729,0
2096921,2096921,195370,626461,0
2096921,2096921,195225,626744,0
2096921,2096921,195362,626823,0
2096921,2096921,195265,626714,0
2096921,2096921,195206,627034,0
2096921,2096921,195464,627161,0
2096921,2096921,195482,626983,0
2096921,2096921,195256,626726,0
2096921,2096921,194859,626810,0
2096921,2096921,194963,626680,0
2096921,2096921,195131,626940,0
2096921,2096921,195126,626682,0
2096921,2096921,195300,627123,0
2096921,2096921,195327,626982,0
2096921,2096921,195375,627090,0
2096921,2096921,195345,626857,0
2096921,2096921,195220,627056,0
2096921,2096921,195557,626953,0
2096921,2096921,195554,627106,0
2096921,2096921,195423,627159,0
2096921,2096921,195178,626777,0
2096921,2096921,195186,626692,0
2096921,2096921,195278,627059,0
2096921,2096921,195290,626954,0
2096921,2096921,195541,627252,0
2096921,2096921,195386,627178,0
2096921,2096921,195503,627181,0
2096921,2096921,195513,627125,0
2096921,2096921,195827,627312,0
2096921,2096921,195456,627054,0
2096921,2096921,195155,627297,0
2096921,2096921,195445,627105,0
2096921,2096921,195778,627102,0
2096921,2096921,195352,627124,0
2096921,2096921,195607,627516,0
2096921,2096921,195768,627195,0
2096921,2096921,195657,627153,0
2096921,2096921,195233,627321,0
2096921,2096921,195418,627443,0
2096921,2096921,195522,627276,0
2096921,2096921,195660,627173,0
2096921,2096921,195639,627276,0
2096921,2096921,195551,627372,0
2096921,2096921,195372,626879,0
2096921,2096921,195439,627207,0
2096921,2096921,195584,627089,0
2096921,2096921,195843,627208,0
2096921,2096921,195464,626940,0
2096921,2096921,195283,627351,0
2096921,2096921,195481,627310,0
2096921,2096921,195226,627034,0
2096921,2096921,195412,627101,0
2096921,2096921,195366,627170,0
2096921,2096921,195718,627119,0
2096921,2096921,195594,627243,0
2096921,2096921,195465,627481,0
2096921,2096921,195371,627433,0
2096921,2096921,195840,627220,0
2096921,2096921,195498,627203,0
2096921,2096921,195332,627032,0
2096921,2096921,195650,626949,0
2096921,2096921,195598,626931,0
2096921,2096921,195528,627475,0
2096921,2096921,195366,627239,0
2096921,2096921,195373,627094,0
2096921,2096921,195481,627162,0
2096921,2096921,195425,627271,0
2096921,2096921,195940,627120,0
2096921,2096921,195864,626980,0
2096921,2096921,195726,626996,0
2096921,2096921,195401,626856,0
2096921,2096921,195359,626950,0
2096921,2096921,195440,627017,0
2096921,2096921,195351,627073,0
2096921,2096921,195684,627287,0
2096921,2096921,195751,627161,0
2096921,2096921,195503,627271,0
2096921,2096921,195217,627306,0
2096921,2096921,195579,627138,0
2096921,2096921,195529,626787,0
2096921,2096921,195007,627012,0
2096921,2096921,195256,627252,0
2096921,2096921,195073,627406,0
2096921,2096921,195034,627180,0
2096921,2096921,195238,627051,0
2096921,2096921,195344,626840,0
2096921,2096921,195234,627003,0
2096921,2096921,195399,626936,0
2096921,2096921,195123,626808,0
2096921,2096921,195231,626479,0
2096921,2096921,195161,626677,0
2096921,2096921,194905,626596,0
2096921,2096921,195319,626693,0
2096921,2096921,195295,626188,0
2096921,2096921,194842,626123,0
2096921,2096921,194945,626167,0
2096921,2096921,195037,626034,0
2096921,2096921,195090,626010,0
2096921,2096921,194412,626423,0
2096921,2096921,194138,625589,0
2096921,2096921,194249,625353,0
2096921,2096921,194077,625682,0
2096921,2096921,194265,625411,0
2096921,2096921,193923,625045,0
2096921,2096921,193833,625008,0
2096921,2096921,194189,624676,0
2096921,2096921,194342,624550,0
2096921,2096921,193891,624269,0
2096921,2096921,193173,624626,0
2096921,2096921,193119,623213,0
2096921,2096921,193133,623159,0
2096921,2096921,192989,623168,0
2096921,2096921,193075,623149,0
2096921,2096921,192355,622921,0
2096921,2096921,192108,621471,0
2096921,2096921,191850,621025,0
2096921,2096921,192114,620636,0
2096921,2096921,192260,620618,0
2096921,2096921,191293,621040,0
2096921,2096921,190981,619556,0
2096921,2096921,191023,619411,0
2096921,2096921,191083,619212,0
2096921,2096921,191578,619472,0
2096921,2096921,190942,619266,0
2096921,2096921,190708,618733,0
2096921,2096921,190746,618276,0
2096921,2096921,190562,618546,0
2096921,2096921,190858,618456,0
2096921,2096921,190628,618384,0
2096921,2096921,190148,617802,0
2096921,2096921,190322,617481,0
2096921,2096921,190130,617171,0
2096921,2096921,189792,617302,0
2096921,2096921,189725,617219,0
2096921,2096921,189942,617197,0
2096921,2096921,189844,616994,0
2096921,2096921,189829,616826,0
2096921,2096921,189735,617044,0
2096921,2096921,189602,616886,0
2096921,2096921,189470,616485,0
2096921,2096921,189271,616270,0
2096921,2096921,189504,615967,0
2096921,2096921,189159,616305,0
2096921,2096921,189338,616521,0
2096921,2096921,189218,616179,0
2096921,2096921,189489,616181,0
2096921,2096921,189381,616112,0
2096921,2096921,189294,615902,0
2096921,2096921,189231,616084,0
2096921,2096921,188961,616199,0
2096921,2096921,189055,615797,0
2096921,2096921,189427,616105,0
2096921,2096921,189219,615997,0
2096921,2096921,189164,615873,0
2096921,2096921,189470,616013,0
2096921,2096921,189466,616015,0
2096921,2096921,189567,616153,0
2096921,2096921,189227,616104,0
2096921,2096921,189498,616180,0
2096921,2096921,189366,616009,0
2096921,2096921,189343,616541,0
2096921,2096921,189655,616355,0
2096921,2096921,189265,616434,0
2096921,2096921,189218,616251,0
2096921,2096921,189231,616507,0
2096921,2096921,189864,616419,0
2096921,2096921,189750,616284,0
2096921,2096921,189559,616281,0
2096921,2096921,189690,616476,0
2096921,2096921,189531,615930,0
2096921,2096921,189359,616332,0
2096921,2096921,189310,616425,0
2096921,2096921,189712,616311,0
2096921,2096921,189766,616066,0
2096921,2096921,190135,616686,0
2096921,2096921,190186,616616,0
2096921,2096921,190028,616852,0
2096921,2096921,189792,617021,0
2096921,2096921,189903,616725,0
2096921,2096921,189964,616844,0
2096921,2096921,189866,616850,0
2096921,2096921,190096,617241,0
2096921,2096921,190028,617137,0
2096921,2096921,189952,617209,0
2096921,2096921,190014,617323,0
2096921,2096921,190030,617427,0
2096921,2096921,190192,617489,0
2096921,2096921,190165,617238,0
2096921,2096921,190050,617479,0
2096921,2096921,190232,617907,0
2096921,2096921,190355,617964,0
2096921,2096921,190428,617814,0
2096921,2096921,190172,617687,0
2096921,2096921,190549,617744,0
2096921,2096921,190658,617971,0
2096921,2096921,190361,618005,0
2096921,2096921,190698,618257,0
2096921,2096921,190634,618138,0
2096921,2096921,190362,618430,0
2096921,2096921,190387,618398,0
2096921,2096921,190178,618126,0
2096921,2096921,190291,618306,0
2096921,2096921,190599,618318,0
2096921,2096921,190739,618427,0
2096921,2096921,190901,618763,0
2096921,2096921,190799,618732,0
2096921,2096921,190668,618578,0
2096921,2096921,190657,618523,0
2096921,2096921,190564,618750,0
2096921,2096921,190806,619029,0
2096921,2096921,190705,619108,0
2096921,2096921,190923,619150,0
2096921,2096921,190862,619230,0
2096921,2096921,191082,619132,0
2096921,2096921,191179,619306,0
2096921,2096921,191629,619556,0
2096921,2096921,191280,619744,0
2096921,2096921,191225,619768,0
2096921,2096921,191330,619710,0
2096921,2096921,191480,619952,0
2096921,2096921,191489,619818,0
2096921,2096921,191402,619927,0
2096921,2096921,191297,619906,0
2096921,2096921,191666,620095,0
2096921,2096921,191571,620174,0
2096921,2096921,191837,620258,0
2096921,2096921,191919,620387,0
2096921,2096921,191719,620284,0
2096921,2096921,191898,620134,0
2096921,2096921,191928,620311,0
2096921,2096921,191769,620423,0
2096921,2096921,191885,620781,0
2096921,2096921,191647,620663,0
2096921,2096921,192087,620542,0
2096921,2096921,191879,620892,0
2096921,2096921,191920,620654,0
2096921,2096921,192055,620961,0
2096921,2096921,191624,620795,0
2096921,2096921,192046,620693,0
2096921,2096921,191927,620927,0
2096921,2096921,192007,620645,0
2096921,2096921,191999,621290,0
2096921,2096921,192220,621165,0
2096921,2096921,192279,621348,0
2096921,2096921,192282,621461,0
2096921,2096921,192638,621610,0
2096921,2096921,192550,621368,0
2096921,2096921,192045,621524,0
2096921,2096921,192527,621677,0
2096921,2096921,192287,621533,0
2096921,2096921,192011,621172,0
2096921,2096921,192405,621549,0
2096921,2096921,192138,621458,0
2096921,2096921,192304,621260,0
2096921,2096921,192267,621681,0
2096921,2096921,192392,621531,0
2096921,2096921,192489,621855,0
2096921,2096921,192393,621587,0
2096921,2096921,192540,621603,0
2096921,2096921,192093,621409,0
2096921,2096921,192426,621409,0
2096921,2096921,192465,621699,0
2096921,2096921,192313,621610,0
2096921,2096921,192282,621498,0
2096921,2096921,192582,621606,0
2096921,2096921,192159,621765,0
2096921,2096921,192369,621681,0
2096921,2096921,192407,621663,0
2096921,2096921,192294,621511,0
2096921,2096921,192192,621431,0
2096921,2096921,191906,621342,0
2096921,2096921,192077,621693,0
2096921,2096921,192237,621369,0
2096921,2096921,192174,621464,0
2096921,2096921,192388,621506,0
2096921,2096921,192404,621409,0
2096921,2096921,192195,621711,0
2096921,2096921,192340,621516,0
2096921,2096921,192551,621338,0
2096921,2096921,192090,621215,0
2096921,2096921,192375,621315,0
2096921,2096921,191892,621195,0
2096921,2096921,192394,621308,0
2096921,2096921,192201,621390,0
2096921,2096921,192419,621282,0
2096921,2096921,192048,621361,0
2096921,2096921,192170,621162,0
2096921,2096921,192326,621137,0
2096921,2096921,192132,621186,0
2096921,2096921,192048,620814,0
2096921,2096921,191941,621161,0
2096921,2096921,192194,620979,0
2096921,2096921,192305,620876,0
2096921,2096921,192079,621059,0
2096921,2096921,192240,621018,0
2096921,2096921,192172,621007,0
2096921,2096921,192116,621200,0
2096921,2096921,192178,621376,0
2096921,2096921,192455,621160,0
2096921,2096921,191899,620888,0
2096921,2096921,192102,621087,0
2096921,2096921,192421,620997,0
2096921,2096921,192275,621414,0
2096921,2096921,191975,621243,0
2096921,2096921,192219,621336,0
2096921,2096921,192074,621165,0
2096921,2096921,192267,621199,0
2096921,2096921,192146,621305,0
2096921,2096921,192405,621046,0
2096921,2096921,192238,621422,0
2096921,2096921,191641,621249,0
2096921,2096921,191846,621668,0
2096921,2096921,192202,621299,0
2096921,2096921,192136,620948,0
2096921,2096921,192265,621375,0
2096921,2096921,192534,621160,0
2096921,2096921,192598,621284,0
2096921,2096921,192336,621271,0
2096921,2096921,192345,621522,0
2096921,2096921,192292,621422,0
2096921,2096921,192265,621313,0
2096921,2096921,192154,621433,0
2096921,2096921,192207,621468,0
2096921,2096921,192518,621477,0
2096921,2096921,192677,621828,0
2096921,2096921,192546,621687,0
2096921,2096921,192766,621589,0
2096921,2096921,192683,621714,0
2096921,2096921,192338,621772,0
2096921,2096921,192525,621862,0
2096921,2096921,192470,622067,0
2096921,2096921,192812,622084,0
2096921,2096921,192679,622127,0
2096921,2096921,192898,622197,0
2096921,2096921,192701,622212,0
2096921,2096921,192770,622228,0
2096921,2096921,192664,622244,0
2096921,2096921,192476,622206,0
2096921,2096921,192700,622382,0
2096921,2096921,192586,622386,0
2096921,2096921,192664,622443,0
2096921,2096921,192688,622484,0
2096921,2096921,192729,622409,0
2096921,2096921,193033,622308,0
2096921,2096921,193174,622802,0
2096921,2096921,193137,622703,0
2096921,2096921,193152,622803,0
2096921,2096921,192972,622872,0
2096921,2096921,192706,622900,0
2096921,2096921,192826,622614,0
2096921,2096921,193322,622834,0
2096921,2096921,192988,622909,0
2096921,2096921,193237,622864,0
2096921,2096921,193306,622981,0
2096921,2096921,192965,623062,0
2096921,2096921,192919,623248,0
2096921,2096921,193315,623465,0
2096921,2096921,193150,622894,0
2096921,2096921,193542,623219,0
2096921,2096921,193210,623054,0
2096921,2096921,193382,623021,0
2096921,2096921,193131,623195,0
2096921,2096921,193150,623311,0
2096921,2096921,193455,623068,0
2096921,2096921,193227,623654,0
2096921,2096921,193132,623859,0
2096921,2096921,193404,623598,0
2096921,2096921,193456,623666,0
2096921,2096921,193695,623518,0
2096921,2096921,193383,623550,0
2096921,2096921,193598,623626,0
2096921,2096921,193397,623744,0
2096921,2096921,193501,623674,0
2096921,2096921,193596,623523,0
2096921,2096921,193866,623702,0
2096921,2096921,193769,623913,0
2096921,2096921,193714,623665,0
2096921,2096921,193701,623764,0
2096921,2096921,193557,624037,0
2096921,2096921,193338,624150,0
2096921,2096921,193570,624055,0
2096921,2096921,193686,624121,0
2096921,2096921,193895,624431,0
2096921,2096921,193728,624326,0
2096921,2096921,193847,624400,0
2096921,2096921,193711,624505,0
2096921,2096921,193679,624157,0
2096921,2096921,193835,624125,0
2096921,2096921,194266,624133,0
2096921,2096921,193904,624337,0
2096921,2096921,194337,624361,0
2096921,2096921,193975,624518,0
2096921,2096921,193945,624442,0
2096921,2096921,193913,624195,0
2096921,2096921,193942,624718,0
2096921,2096921,194040,624614,0
2096921,2096921,194248,624904,0
2096921,2096921,194166,624755,0
2096921,2096921,194246,624676,0
2096921,2096921,194215,624986,0
2096921,2096921,194408,624699,0
2096921,2096921,194026,624789,0
2096921,2096921,194156,624770,0
2096921,2096921,194297,624659,0
2096921,2096921,194361,624669,0
2096921,2096921,194448,625211,0
2096921,2096921,194472,624847,0
2096921,2096921,194182,624879,0
2096921,2096921,194150,624903,0
2096921,2096921,194257,625088,0
2096921,2096921,194388,625152,0
2096921,2096921,194472,625041,0
2096921,2096921,194436,625073,0
2096921,2096921,194492,625092,0
2096921,2096921,194482,625209,0
2096921,2096921,194312,625348,0
2096921,2096921,194586,625279,0
2096921,2096921,194653,625301,0
2096921,2096921,194984,625070,0
2096921,2096921,194320,625380,0
2096921,2096921,194260,625141,0
2096921,2096921,194490,625214,0
2096921,2096921,194606,625389,0
2096921,2096921,194431,625453,0
2096921,2096921,194428,625675,0
2096921,2096921,194350,625515,0
2096921,2096921,194889,625627,0
2096921,2096921,194659,625474,0
2096921,2096921,194436,625599,0
2096921,2096921,194563,625604,0
2096921,2096921,194710,625558,0
2096921,2096921,194796,625632,0
2096921,2096921,194770,625361,0
2096921,2096921,194775,625563,0
2096921,2096921,194698,625831,0
2096921,2096921,195037,625867,0
2096921,2096921,194708,625812,0
2096921,2096921,194865,625899,0
2096921,2096921,194885,626173,0
2096921,2096921,194868,625781,0
2096921,2096921,194715,625728,0
2096921,2096921,194475,625905,0
2096921,2096921,194964,625903,0
2096921,2096921,194797,625955,0
2096921,2096921,195015,626040,0
2096921,2096921,194882,626054,0
2096921,2096921,194984,625889,0
2096921,2096921,194862,626196,0
2096921,2096921,194726,625905,0
2096921,2096921,194803,625740,0
2096921,2096921,194731,625879,0
2096921,2096921,194769,626043,0
2096921,2096921,194587,625966,0
2096921,2096921,194454,626013,0
2096921,2096921,194769,626405,0
2096921,2096921,194914,626249,0
2096921,2096921,194875,626213,0
2096921,2096921,195014,626102,0
2096921,2096921,195163,626176,0
2096921,2096921,195028,626358,0
2096921,2096921,195095,625990,0
2096921,2096921,194844,626053,0
2096921,2096921,194743,626183,0
2096921,2096921,194982,626440,0
2096921,2096921,194816,626296,0
2096921,2096921,194987,626252,0
2096921,2096921,194830,626301,0
2096921,2096921,195132,626319,0
2096921,2096921,195141,626624,0
2096921,2096921,194736,626401,0
2096921,2096921,194823,626291,0
2096921,2096921,194601,626335,0
2096921,2096921,194948,626408,0
2096921,2096921,194933,626683,0
2096921,2096921,195059,626442,0
2096921,2096921,195308,626595,0
2096921,2096921,195218,626537,0
2096921,2096921,195284,626377,0
2096921,2096921,195253,626406,0
2096921,2096921,194940,626443,0
2096921,2096921,195013,626439,0
2096921,2096921,195016,626405,0
2096921,2096921,195087,626501,0
2096921,2096921,195222,626286,0
2096921,2096921,195368,626629,0
2096921,2096921,195419,626438,0
2096921,2096921,195259,626627,0
2096921,2096921,195461,626481,0
2096921,2096921,195246,626428,0
2096921,2096921,195105,626879,0
2096921,2096921,194928,626671,0
2096921,2096921,195144,626785,0
2096921,2096921,195372,626654,0
2096921,2096921,195039,626740,0
2096921,2096921,195337,627100,0
2096921,2096921,195181,627065,0
2096921,2096921,195135,626881,0
2096921,2096921,194999,626902,0
2096921,2096921,195318,626737,0
2096921,2096921,195104,626866,0
2096921,2096921,195037,626799,0
2096921,2096921,195166,626893,0
2096921,2096921,195273,626814,0
2096921,2096921,195310,626980,0
2096921,2096921,195455,627089,0
2096921,2096921,195440,627050,0
2096921,2096921,195720,626946,0
2096921,2096921,195290,626575,0
2096921,2096921,195377,626996,0
2096921,2096921,195081,626985,0
2096921,2096921,195565,626722,0
2096921,2096921,195164,626736,0
2096921,2096921,195336,626792,0
2096921,2096921,195612,626964,0
2096921,2096921,195656,626844,0
2096921,2096921,195461,627101,0
2096921,2096921,195496,626799,0
2096921,2096921,195763,626961,0
2096921,2096921,195771,626949,0
2096921,2096921,195577,627155,0
2096921,2096921,195274,626896,0
2096921,2096921,195350,626829,0
2096921,2096921,195516,626724,0
2096921,2096921,195412,626749,0
2096921,2096921,195640,626931,0
2096921,2096921,195295,627147,0
2096921,2096921,195257,627203,0
2096921,2096921,195443,627198,0
2096921,2096921,195627,626964,0
2096921,2096921,195344,626700,0
2096921,2096921,195240,626959,0
2096921,2096921,195418,627059,0
2096921,2096921,195635,627144,0
2096921,2096921,195596,627314,0
2096921,2096921,195492,627292,0
2096921,2096921,195675,627156,0
2096921,2096921,195517,627105,0
2096921,2096921,195476,627023,0
2096921,2096921,195345,627362,0
2096921,2096921,195107,627266,0
2096921,2096921,195404,626951,0
2096921,2096921,195368,627518,0
2096921,2096921,195366,627351,0
2096921,2096921,195394,627240,0
2096921,2096921,195489,627139,0
2096921,2096921,195534,627304,0
2096921,2096921,195593,627223,0
2096921,2096921,195698,627187,0
2096921,2096921,195504,627042,0
2096921,2096921,195531,627061,0
2096921,2096921,195692,626794,0
2096921,2096921,195479,627032,0
2096921,2096921,195203,627147,0
2096921,2096921,195240,626927,0
2096921,2096921,195759,627334,0
2096921,2096921,195405,627645,0
2096921,2096921,195553,627454,0
2096921,2096921,195602,627337,0
2096921,2096921,195546,627123,0
2096921,2096921,195387,626992,0
2096921,2096921,195287,627018,0
2096921,2096921,195561,626933,0
2096921,2096921,195562,626757,0
2096921,2096921,195302,627064,0
2096921,2096921,195536,627346,0
2096921,2096921,195465,627413,0
2096921,2096921,195458,627023,0
2096921,2096921,195357,627293,0
2096921,2096921,195402,626992,0
2096921,2096921,195300,627052,0
2096921,2096921,195564,627159,0
2096921,2096921,195282,627071,0
2096921,2096921,195400,626957,0
2096921,2096921,195445,627008,0
2096921,2096921,195252,627101,0
2096921,2096921,195355,627104,0
2096921,2096921,195526,627360,0
2096921,2096921,195517,627189,0
2096921,2096921,195662,627498,0
2096921,2096921,195346,627018,0
2096921,2096921,195268,627098,0
2096921,2096921,195205,626761,0
2096921,2096921,195558,627469,0
2096921,2096921,195385,627300,0
2096921,2096921,195277,627015,0
2096921,2096921,195192,626834,0
2096921,2096921,195346,626707,0
2096921,2096921,195391,627050,0
2096921,2096921,195290,627057,0
2096921,2096921,195133,626911,0
2096921,2096921,195258,626438,0
2096921,2096921,194862,626500,0
2096921,2096921,195227,626282,0
2096921,2096921,195039,626394,0
2096921,2096921,194979,626254,0
2096921,2096921,194540,626336,0
2096921,2096921,194999,626106,0
2096921,2096921,194810,626203,0
2096921,2096921,194937,626200,0
2096921,2096921,194192,625485,0
2096921,2096921,194280,625512,0
2096921,2096921,194462,625212,0
2096921,2096921,194726,625667,0
2096921,2096921,194025,625251,0
2096921,2096921,194058,625034,0
2096921,2096921,193907,624808,0
2096921,2096921,193705,624522,0
2096921,2096921,193921,624507,0
2096921,2096921,193497,624637,0
2096921,2096921,193330,623274,0
2096921,2096921,192872,622725,0
2096921,2096921,192776,622957,0
2096921,2096921,193089,622883,0
2096921,2096921,192035,623062,0
2096921,2096921,192093,621507,0
2096921,2096921,192204,621110,0
2096921,2096921,191903,620923,0
2096921,2096921,191877,620855,0
2096921,2096921,191500,621136,0
2096921,2096921,191258,619974,0
2096921,2096921,191165,619361,0
2096921,2096921,191009,619588,0
2096921,2096921,191019,619468,0
2096921,2096921,190777,619284,0
2096921,2096921,190730,618667,0
2096921,2096921,190727,618436,0
2096921,2096921,190868,618500,0
2096921,2096921,190830,618403,0
2096921,2096921,190313,618478,0
2096921,2096921,190206,617561,0
2096921,2096921,190134,617418,0
2096921,2096921,189983,617180,0
2096921,2096921,190230,617262,0
2096921,2096921,189585,617469,0
2096921,2096921,189846,617063,0
2096921,2096921,189807,616920,0
2096921,2096921,189815,616414,0
2096921,2096921,189609,616852,0
2096921,2096921,189389,616784,0
2096921,2096921,189330,616271,0
2096921,2096921,189462,616167,0
2096921,2096921,189576,616202,0
2096921,2096921,189592,616282,0
2096921,2096921,189453,616201,0
2096921,2096921,189283,616193,0
2096921,2096921,189306,616266,0
2096921,2096921,189421,616053,0
2096921,2096921,189405,616101,0
2096921,2096921,189252,616032,0
2096921,2096921,189390,615944,0
2096921,2096921,189538,615900,0
2096921,2096921,189101,615911,0
2096921,2096921,189508,616008,0
2096921,2096921,189471,615937,0
2096921,2096921,189384,616082,0
2096921,2096921,189059,616119,0
2096921,2096921,189393,616229,0
2096921,2096921,189172,616238,0
2096921,2096921,189283,616210,0
2096921,2096921,189351,616222,0
2096921,2096921,189373,616345,0
2096921,2096921,189347,616143,0
2096921,2096921,189600,616191,0
2096921,2096921,189139,615967,0
2096921,2096921,189556,616185,0
2096921,2096921,189325,616385,0
2096921,2096921,189300,616140,0
2096921,2096921,189525,616173,0
2096921,2096921,189678,616237,0
2096921,2096921,189530,616469,0
2096921,2096921,189491,616604,0
2096921,2096921,189284,616273,0
2096921,2096921,189477,616089,0
2096921,2096921,189367,616443,0
2096921,2096921,189864,616680,0
2096921,2096921,189824,616778,0
2096921,2096921,189981,617167,0
2096921,2096921,190051,616939,0
2096921,2096921,189934,616633,0
2096921,2096921,189561,616901,0
2096921,2096921,189690,617036,0
2096921,2096921,189632,617188,0
2096921,2096921,189764,616819,0
2096921,2096921,189854,616955,0
2096921,2096921,189952,617526,0
2096921,2096921,189937,617773,0
2096921,2096921,189902,617151,0
2096921,2096921,189713,617478,0
2096921,2096921,190274,617562,0
2096921,2096921,189993,617418,0
2096921,2096921,190452,617703,0
2096921,2096921,190390,617862,0
2096921,2096921,190412,617258,0
2096921,2096921,190254,617653,0
2096921,2096921,190441,618227,0
2096921,2096921,190476,618186,0
2096921,2096921,190637,618435,0
2096921,2096921,190286,618274,0
2096921,2096921,190627,618584,0
2096921,2096921,190561,618627,0
2096921,2096921,190498,618535,0
2096921,2096921,190329,618435,0
2096921,2096921,190805,618411,0
2096921,2096921,190729,618680,0
2096921,2096921,190631,619160,0
2096921,2096921,190954,618944,0
2096921,2096921,190890,618879,0
2096921,2096921,190739,618749,0
2096921,2096921,190919,618971,0
2096921,2096921,190817,619084,0
2096921,2096921,191025,619448,0
2096921,2096921,190977,619405,0
2096921,2096921,191155,619378,0
2096921,2096921,191091,619050,0
2096921,2096921,191364,619510,0
2096921,2096921,191084,619563,0
2096921,2096921,191344,619279,0
2096921,2096921,191315,619518,0
2096921,2096921,191399,619496,0
2096921,2096921,191348,619758,0
2096921,2096921,191386,619758,0
2096921,2096921,191131,619899,0
2096921,2096921,191399,619656,0
2096921,2096921,191426,619938,0
2096921,2096921,191390,620241,0
2096921,2096921,191473,620286,0
2096921,2096921,191759,620558,0
2096921,2096921,191895,620564,0
2096921,2096921,191854,620350,0
2096921,2096921,191872,620567,0
2096921,2096921,191996,620572,0
2096921,2096921,191828,620751,0
2096921,2096921,192141,620506,0
2096921,2096921,191823,620501,0
2096921,2096921,192044,620770,0
2096921,2096921,192029,621061,0
2096921,2096921,192401,620968,0
2096921,2096921,192114,621033,0
2096921,2096921,192157,620823,0
2096921,2096921,192258,621262,0
2096921,2096921,191921,621082,0
2096921,2096921,192099,621043,0
2096921,2096921,192286,620994,0
2096921,2096921,192144,621131,0
2096921,2096921,192369,621374,0
2096921,2096921,192192,621457,0
2096921,2096921,192522,621404,0
2096921,2096921,192309,621456,0
2096921,2096921,192472,621711,0
2096921,2096921,192137,621558,0
2096921,2096921,192163,621382,0
2096921,2096921,192341,621380,0
2096921,2096921,192174,621456,0
2096921,2096921,192034,621445,0
2096921,2096921,192295,621512,0
2096921,2096921,192408,621535,0
2096921,2096921,192454,621472,0
2096921,2096921,192563,621752,0
2096921,2096921,192625,621660,0
2096921,2096921,192330,621716,0
2096921,2096921,192468,621389,0
2096921,2096921,192466,621429,0
2096921,2096921,192723,621818,0
2096921,2096921,192229,621499,0
2096921,2096921,192525,621731,0
2096921,2096921,192342,621731,0
2096921,2096921,192598,621727,0
2096921,2096921,192316,622019,0
2096921,2096921,192178,621723,0
2096921,2096921,192101,621588,0
2096921,2096921,191888,621069,0
2096921,2096921,192073,621163,0
2096921,2096921,192616,621610,0
2096921,2096921,192357,621640,0
2096921,2096921,192268,621479,0
2096921,2096921,192241,621441,0
2096921,2096921,192410,621726,0
2096921,2096921,192303,621646,0
2096921,2096921,192098,621545,0
2096921,2096921,192296,621354,0
2096921,2096921,192044,621324,0
2096921,2096921,192165,621221,0
2096921,2096921,192045,621418,0
2096921,2096921,192201,621282,0
2096921,2096921,192393,620853,0
2096921,2096921,192159,621161,0
2096921,2096921,192273,621161,0
2096921,2096921,192204,621121,0
2096921,2096921,192200,621264,0
2096921,2096921,192192,621400,0
2096921,2096921,192414,620995,0
2096921,2096921,192085,620682,0
2096921,2096921,192322,620853,0
2096921,2096921,191828,621144,0
2096921,2096921,192135,621300,0
2096921,2096921,191983,621259,0
2096921,2096921,191992,621178,0
2096921,2096921,192043,621397,0
2096921,2096921,192141,620840,0
2096921,2096921,192098,621062,0
2096921,2096921,191851,621200,0
2096921,2096921,192144,621221,0
2096921,2096921,192243,620735,0
2096921,2096921,191941,621026,0
2096921,2096921,192198,621143,0
2096921,2096921,192393,621060,0
2096921,2096921,192045,621211,0
2096921,2096921,191988,621257,0
2096921,2096921,192222,620880,0
2096921,2096921,191993,621015,0
2096921,2096921,191921,621141,0
2096921,2096921,192200,621298,0
2096921,2096921,192524,621229,0
2096921,2096921,192232,621287,0
2096921,2096921,192405,621717,0
2096921,2096921,192286,621397,0
2096921,2096921,192238,621300,0
2096921,2096921,192462,621163,0
2096921,2096921,192340,621269,0
2096921,2096921,192447,621327,0
2096921,2096921,192462,621270,0
2096921,2096921,192290,621675,0
2096921,2096921,192492,621486,0
2096921,2096921,192485,621658,0
2096921,2096921,192483,621870,0
2096921,2096921,192452,622048,0
2096921,2096921,192706,621994,0
2096921,2096921,192641,622091,0
2096921,2096921,192658,622195,0
2096921,2096921,192643,622303,0
2096921,2096921,192944,621918,0
2096921,2096921,192694,621954,0
2096921,2096921,192458,622277,0
2096921,2096921,192698,622223,0
2096921,2096921,193072,622122,0
2096921,2096921,192435,622517,0
2096921,2096921,192968,622563,0
2096921,2096921,192732,622480,0
2096921,2096921,192903,622545,0
2096921,2096921,192955,622715,0
2096921,2096921,192963,622699,0
2096921,2096921,193038,622546,0
2096921,2096921,193096,622388,0
2096921,2096921,193084,622521,0
2096921,2096921,193303,622699,0
2096921,2096921,192905,622821,0
2096921,2096921,192937,622710,0
2096921,2096921,193008,622741,0
2096921,2096921,193118,622572,0
2096921,2096921,192763,622695,0
2096921,2096921,192793,622619,0
2096921,2096921,193152,622667,0
2096921,2096921,193320,622998,0
2096921,2096921,193286,622952,0
2096921,2096921,193435,622931,0
2096921,2096921,193128,623287,0
2096921,2096921,193123,623142,0
2096921,2096921,193241,623160,0
2096921,2096921,193575,623158,0
2096921,2096921,193537,623058,0
2096921,2096921,193398,623094,0
2096921,2096921,193068,623347,0
2096921,2096921,193520,623246,0
2096921,2096921,193513,623054,0
2096921,2096921,193586,623552,0
2096921,2096921,193737,623576,0
2096921,2096921,193627,623611,0
2096921,2096921,193497,623699,0
2096921,2096921,193920,623795,0
2096921,2096921,193605,623691,0
2096921,2096921,193328,623688,0
2096921,2096921,193459,624027,0
2096921,2096921,193751,623763,0
2096921,2096921,193707,623818,0
2096921,2096921,193596,623900,0
2096921,2096921,193844,624060,0
2096921,2096921,193855,623788,0
2096921,2096921,193632,623488,0
2096921,2096921,193381,623888,0
2096921,2096921,193399,624335,0
2096921,2096921,193673,623997,0
2096921,2096921,193690,624279,0
2096921,2096921,193393,624260,0
2096921,2096921,193765,624404,0
2096921,2096921,193801,624189,0
2096921,2096921,193826,624445,0
2096921,2096921,194049,624177,0
2096921,2096921,193930,624331,0
2096921,2096921,193971,623924,0
2096921,2096921,193799,624739,0
2096921,2096921,194000,624393,0
2096921,2096921,193855,624686,0
2096921,2096921,193734,624519,0
2096921,2096921,193803,624833,0
2096921,2096921,193996,624651,0
2096921,2096921,193891,624780,0
2096921,2096921,194275,624928,0
2096921,2096921,194183,624854,0
2096921,2096921,193976,624919,0
2096921,2096921,193940,625107,0
2096921,2096921,193802,625011,0
2096921,2096921,193946,624598,0
2096921,2096921,194055,624685,0
2096921,2096921,193951,624575,0
2096921,2096921,194244,624922,0
2096921,2096921,194223,624817,0
2096921,2096921,193927,624926,0
2096921,2096921,194186,624853,0
2096921,2096921,194245,624823,0
2096921,2096921,194476,624875,0
2096921,2096921,194040,625273,0
2096921,2096921,194058,625094,0
2096921,2096921,194327,625335,0
2096921,2096921,194425,625133,0
2096921,2096921,194499,625263,0
2096921,2096921,194586,625255,0
2096921,2096921,194319,625027,0
2096921,2096921,194287,625479,0
2096921,2096921,194287,625185,0
2096921,2096921,194737,625735,0
2096921,2096921,194348,625458,0
2096921,2096921,194336,625312,0
2096921,2096921,194538,625199,0
2096921,2096921,194610,625236,0
2096921,2096921,194624,625554,0
2096921,2096921,194565,625545,0
2096921,2096921,194469,625807,0
2096921,2096921,194442,625751,0
2096921,2096921,194513,625558,0
2096921,2096921,194710,625621,0
2096921,2096921,194563,625513,0
2096921,2096921,194623,625465,0
2096921,2096921,194560,625481,0
2096921,2096921,194710,625554,0
2096921,2096921,194700,625934,0
2096921,2096921,194983,626133,0
2096921,2096921,194965,626086,0
2096921,2096921,195054,625890,0
2096921,2096921,194885,625822,0
2096921,2096921,194659,625838,0
2096921,2096921,194532,625665,0
2096921,2096921,194672,625767,0
2096921,2096921,194782,626116,0
2096921,2096921,194830,626093,0
2096921,2096921,194707,625989,0
2096921,2096921,194979,626101,0
2096921,2096921,194548,626255,0
2096921,2096921,195065,625928,0
2096921,2096921,194953,625874,0
2096921,2096921,194512,626263,0
2096921,2096921,194581,626217,0
2096921,2096921,194555,625954,0
2096921,2096921,194672,625935,0
2096921,2096921,194389,625892,0
2096921,2096921,194593,625900,0
2096921,2096921,194943,626083,0
2096921,2096921,194645,626218,0
2096921,2096921,194662,626133,0
2096921,2096921,194813,626211,0
2096921,2096921,194612,626392,0
2096921,2096921,195007,626248,0
2096921,2096921,195160,626290,0
2096921,2096921,194898,626118,0
2096921,2096921,194833,626497,0
2096921,2096921,194988,626273,0
2096921,2096921,195223,626200,0
2096921,2096921,195045,626212,0
2096921,2096921,195070,626575,0
2096921,2096921,195254,626394,0
2096921,2096921,195106,626433,0
2096921,2096921,195000,626415,0
2096921,2096921,194956,626191,0
2096921,2096921,194868,626143,0
2096921,2096921,195049,626402,0
2096921,2096921,195017,626360,0
2096921,2096921,195310,626760,0
2096921,2096921,195264,626425,0
2096921,2096921,195414,626480,0
2096921,2096921,195126,626395,0
2096921,2096921,194937,626788,0
2096921,2096921,195048,626487,0
2096921,2096921,195144,626535,0
2096921,2096921,194943,626842,0
2096921,2096921,195015,626753,0
2096921,2096921,195077,626784,0
2096921,2096921,195092,626784,0
2096921,2096921,195030,626575,0
2096921,2096921,195146,626475,0
2096921,2096921,195047,626566,0
2096921,2096921,194914,627066,0
2096921,2096921,195162,626496,0
2096921,2096921,195189,626498,0
2096921,2096921,195121,626696,0
2096921,2096921,195483,626689,0
2096921,2096921,195476,626759,0
2096921,2096921,195302,626775,0
2096921,2096921,195038,626837,0
2096921,2096921,195152,626856,0
2096921,2096921,194856,626733,0
2096921,2096921,194942,626948,0
2096921,2096921,194874,626731,0
2096921,2096921,195317,626899,0
2096921,2096921,195400,626792,0
2096921,2096921,195576,627042,0
2096921,2096921,195443,626906,0
2096921,2096921,195509,626862,0
2096921,2096921,195475,626915,0
2096921,2096921,195249,626839,0
2096921,2096921,195599,627090,0
2096921,2096921,195417,626967,0
2096921,2096921,195253,626963,0
2096921,2096921,195473,627133,0
2096921,2096921,195482,627046,0
2096921,2096921,195032,626731,0
2096921,2096921,195012,627183,0
2096921,2096921,195355,627476,0
2096921,2096921,195333,627140,0
2096921,2096921,195340,627236,0
2096921,2096921,195452,627295,0
2096921,2096921,195567,627317,0
2096921,2096921,195346,626621,0
2096921,2096921,195076,626735,0
2096921,2096921,195371,626842,0
2096921,2096921,195336,626775,0
2096921,2096921,195206,627009,0
2096921,2096921,195472,627257,0
2096921,2096921,195558,627324,0
2096921,2096921,195678,627215,0
2096921,2096921,195592,627343,0
2096921,2096921,195516,627184,0
2096921,2096921,195442,627189,0
2096921,2096921,195558,627374,0
2096921,2096921,195445,627441,0
2096921,2096921,195332,627369,0
2096921,2096921,195577,627383,0
2096921,2096921,195481,627512,0
2096921,2096921,195373,627582,0
2096921,2096921,195326,627273,0
2096921,2096921,195582,627239,0
2096921,2096921,195292,627130,0
2096921,2096921,195346,627303,0
2096921,2096921,195414,627125,0
2096921,2096921,195452,626805,0
2096921,2096921,195355,627179,0
2096921,2096921,195540,627287,0
2096921,2096921,195664,627246,0
2096921,2096921,195643,627307,0
2096921,2096921,195584,627365,0
2096921,2096921,195450,627534,0
2096921,2096921,195317,627109,0
2096921,2096921,195242,626967,0
2096921,2096921,195008,627240,0
2096921,2096921,195469,627065,0
2096921,2096921,195527,627376,0
2096921,2096921,195548,627147,0
2096921,2096921,195409,627278,0
2096921,2096921,195597,627530,0
2096921,2096921,195574,626882,0
2096921,2096921,195519,627036,0
2096921,2096921,195871,627443,0
2096921,2096921,195500,627190,0
2096921,2096921,195372,627300,0
2096921,2096921,195639,626901,0
2096921,2096921,195399,627170,0
2096921,2096921,195458,626618,0
2096921,2096921,195549,627448,0
2096921,2096921,195549,627368,0
2096921,2096921,195629,627448,0
2096921,2096921,195338,627475,0
2096921,2096921,195563,627306,0
2096921,2096921,195468,627439,0
2096921,2096921,195511,627145,0
2096921,2096921,195437,627235,0
2096921,2096921,195557,627140,0
2096921,2096921,195693,627144,0
2096921,2096921,195594,627406,0
2096921,2096921,195389,627227,0
2096921,2096921,195602,627441,0
2096921,2096921,195528,627015,0
2096921,2096921,195433,626781,0
2096921,2096921,195114,626820,0
2096921,2096921,195367,627000,0
2096921,2096921,195679,627186,0
2096921,2096921,195235,627298,0
2096921,2096921,195293,626745,0
2096921,2096921,195291,626754,0
2096921,2096921,195118,626739,0
2096921,2096921,195319,627018,0
2096921,2096921,195185,626838,0
2096921,2096921,194708,626475,0
2096921,2096921,194969,626389,0
2096921,2096921,195076,626442,0
2096921,2096921,194895,626471,0
2096921,2096921,194962,626661,0
2096921,2096921,195044,625979,0
2096921,2096921,195113,626089,0
2096921,2096921,194848,625860,0
2096921,2096921,194718,626020,0
2096921,2096921,194558,625898,0
2096921,2096921,194394,625547,0
2096921,2096921,194444,625170,0
2096921,2096921,194298,625226,0
2096921,2096921,194302,625286,0
2096921,2096921,194125,625348,0
2096921,2096921,194185,624781,0
2096921,2096921,194161,624596,0
2096921,2096921,194046,624585,0
2096921,2096921,193958,624711,0
2096921,2096921,193099,624450,0
2096921,2096921,193229,623352,0
2096921,2096921,193005,623145,0
2096921,2096921,193150,622999,0
2096921,2096921,193013,623173,0
2096921,2096921,192234,623109,0
2096921,2096921,192060,621132,0
2096921,2096921,191967,621070,0
2096921,2096921,191789,621223,0
2096921,2096921,191964,620955,0
2096921,2096921,191178,620725,0
2096921,2096921,190998,619867,0
2096921,2096921,191225,619618,0
2096921,2096921,190880,619126,0
2096921,2096921,191256,619629,0
2096921,2096921,190542,619621,0
2096921,2096921,190509,618535,0
2096921,2096921,190274,618766,0
2096921,2096921,190461,618421,0
2096921,2096921,190805,618420,0
2096921,2096921,190103,618198,0
2096921,2096921,189851,617549,0
2096921,2096921,189663,617133,0
2096921,2096921,189974,617131,0
2096921,2096921,190200,617188,0
2096921,2096921,189761,617630,0
2096921,2096921,189727,617096,0
2096921,2096921,190050,617072,0
2096921,2096921,189723,617127,0
2096921,2096921,189721,617066,0
2096921,2096921,189417,616882,0
2096921,2096921,189609,616593,0
2096921,2096921,189411,616588,0
2096921,2096921,189118,616263,0
2096921,2096921,189279,616238,0
2096921,2096921,189420,616254,0
2096921,2096921,189390,615946,0
2096921,2096921,189279,616285,0
2096921,2096921,189353,616070,0
2096921,2096921,189415,616377,0
2096921,2096921,189548,616342,0
2096921,2096921,189037,616088,0
2096921,2096921,189133,616033,0
2096921,2096921,189553,615710,0
2096921,2096921,189316,615890,0
2096921,2096921,189220,616224,0
2096921,2096921,189641,616064,0
2096921,2096921,189207,616014,0
2096921,2096921,189241,616043,0
2096921,2096921,189473,616107,0
2096921,2096921,189210,616357,0
2096921,2096921,189481,615945,0
2096921,2096921,189328,616047,0
2096921,2096921,189500,616116,0
2096921,2096921,189352,615982,0
2096921,2096921,189465,616452,0
2096921,2096921,189688,616319,0
2096921,2096921,189421,616158,0
2096921,2096921,189369,616345,0
2096921,2096921,189589,616544,0
2096921,2096921,189637,616575,0
2096921,2096921,189274,616270,0
2096921,2096921,189247,616189,0
2096921,2096921,189603,616329,0
2096921,2096921,189508,616252,0
2096921,2096921,189521,616492,0
2096921,2096921,189600,616737,0
2096921,2096921,189729,616801,0
2096921,2096921,189630,616756,0
2096921,2096921,189861,616971,0
2096921,2096921,189966,616668,0
2096921,2096921,189737,617068,0
2096921,2096921,189610,617071,0
2096921,2096921,189738,617257,0
2096921,2096921,189624,617088,0
2096921,2096921,189646,617194,0
2096921,2096921,189743,617605,0
2096921,2096921,190093,617363,0
2096921,2096921,190043,617294,0
2096921,2096921,190283,617664,0
2096921,2096921,190329,617450,0
2096921,2096921,190390,617743,0
2096921,2096921,190125,617740,0
2096921,2096921,190086,617728,0
2096921,2096921,190243,617572,0
2096921,2096921,190543,617757,0
2096921,2096921,190609,618047,0
2096921,2096921,190660,618411,0
2096921,2096921,190427,618161,0
2096921,2096921,190341,618127,0
2096921,2096921,190660,618165,0
2096921,2096921,190810,618184,0
2096921,2096921,190573,618191,0
2096921,2096921,190523,618557,0
2096921,2096921,190668,618609,0
2096921,2096921,190728,618310,0
2096921,2096921,190929,618513,0
2096921,2096921,190909,618664,0
2096921,2096921,190872,618623,0
2096921,2096921,190870,618842,0
2096921,2096921,191065,618740,0
2096921,2096921,191012,619154,0
2096921,2096921,190829,619093,0
2096921,2096921,190634,618627,0
2096921,2096921,190721,619169,0
2096921,2096921,191087,619301,0
2096921,2096921,191166,619432,0
2096921,2096921,191396,619763,0
2096921,2096921,191478,619554,0
2096921,2096921,191434,619618,0
2096921,2096921,191636,619757,0
2096921,2096921,191462,620171,0
2096921,2096921,191358,619724,0
2096921,2096921,191560,619584,0
2096921,2096921,191347,619833,0
2096921,2096921,191759,619679,0
2096921,2096921,191682,619770,0
2096921,2096921,191692,620192,0
2096921,2096921,191808,620392,0
2096921,2096921,191890,620301,0
2096921,2096921,191749,619914,0
2096921,2096921,191812,620446,0
2096921,2096921,191703,620265,0
2096921,2096921,191681,620672,0
2096921,2096921,191699,620508,0
2096921,2096921,192126,620799,0
2096921,2096921,192419,620777,0
2096921,2096921,192411,620813,0
2096921,2096921,192030,621209,0
2096921,2096921,192250,621457,0
2096921,2096921,192222,621031,0
2096921,2096921,191783,621541,0
2096921,2096921,191794,621644,0
2096921,2096921,192137,621366,0
2096921,2096921,192010,620911,0
2096921,2096921,192140,621184,0
2096921,2096921,192424,621436,0
2096921,2096921,192381,621451,0
2096921,2096921,192087,621218,0
2096921,2096921,192523,621524,0
2096921,2096921,192272,621420,0
2096921,2096921,192143,621473,0
2096921,2096921,191932,621279,0
2096921,2096921,192199,621374,0
2096921,2096921,192334,621118,0
2096921,2096921,192289,621306,0
2096921,2096921,192245,621467,0
2096921,2096921,192389,621605,0
2096921,2096921,192154,621595,0
2096921,2096921,192601,621803,0
2096921,2096921,192373,621768,0
2096921,2096921,192137,621615,0
2096921,2096921,192221,621697,0
2096921,2096921,192272,621443,0
2096921,2096921,192627,621331,0
2096921,2096921,192022,621236,0
2096921,2096921,192365,621375,0
2096921,2096921,192349,621564,0
2096921,2096921,192671,621579,0
2096921,2096921,192432,621659,0
2096921,2096921,192194,621672,0
2096921,2096921,192296,621670,0
2096921,2096921,192148,621184,0
2096921,2096921,192292,621425,0
2096921,2096921,192203,621625,0
2096921,2096921,192372,621668,0
2096921,2096921,192294,621271,0
2096921,2096921,192274,621530,0
2096921,2096921,192315,621435,0
2096921,2096921,192416,621408,0
2096921,2096921,192356,621348,0
2096921,2096921,192443,621490,0
2096921,2096921,192366,621189,0
2096921,2096921,192047,621564,0
2096921,2096921,191830,621573,0
2096921,2096921,192125,621407,0
2096921,2096921,192507,621181,0
2096921,2096921,192140,621380,0
2096921,2096921,192352,621299,0
2096921,2096921,192484,621409,0
2096921,2096921,192394,621070,0
2096921,2096921,192083,621338,0
2096921,2096921,191992,621195,0
2096921,2096921,192108,621038,0
2096921,2096921,191871,621025,0
2096921,2096921,191836,621154,0
2096921,2096921,192025,621057,0
2096921,2096921,192251,621117,0
2096921,2096921,191964,621087,0
2096921,2096921,192092,621424,0
2096921,2096921,191902,621069,0
2096921,2096921,192123,621088,0
2096921,2096921,192012,620968,0
2096921,2096921,192167,621012,0
2096921,2096921,192019,620975,0
2096921,2096921,191897,621205,0
2096921,2096921,192049,621236,0
2096921,2096921,192204,621215,0
2096921,2096921,192082,621075,0
2096921,2096921,192146,621618,0
2096921,2096921,192100,621064,0
2096921,2096921,192125,621249,0
2096921,2096921,191826,621241,0
2096921,2096921,192217,621130,0
2096921,2096921,192200,620982,0
2096921,2096921,192483,621053,0
2096921,2096921,192153,621148,0
2096921,2096921,192437,621452,0
2096921,2096921,192210,621370,0
2096921,2096921,192298,621458,0
2096921,2096921,192235,621337,0
2096921,2096921,192103,621386,0
2096921,2096921,191924,621224,0
2096921,2096921,192171,621529,0
2096921,2096921,192163,621323,0
2096921,2096921,192468,621358,0
2096921,2096921,192398,621814,0
2096921,2096921,192701,621897,0
2096921,2096921,192591,621795,0
2096921,2096921,192541,621428,0
2096921,2096921,192425,621650,0
2096921,2096921,192712,622190,0
2096921,2096921,192987,621750,0
2096921,2096921,192758,621997,0
2096921,2096921,192563,622341,0
2096921,2096921,193006,621965,0
2096921,2096921,192870,622031,0
2096921,2096921,192680,622372,0
2096921,2096921,192759,622361,0
2096921,2096921,192858,622448,0
2096921,2096921,192921,622252,0
2096921,2096921,192599,622627,0
2096921,2096921,192746,622525,0
2096921,2096921,192885,622339,0
2096921,2096921,192629,622351,0
2096921,2096921,192983,622377,0
2096921,2096921,193159,622432,0
2096921,2096921,193221,622690,0
2096921,2096921,192815,622707,0
2096921,2096921,193136,622526,0
2096921,2096921,192995,622488,0
2096921,2096921,192851,622745,0
2096921,2096921,192804,622569,0
2096921,2096921,193327,622796,0
2096921,2096921,193243,622822,0
2096921,2096921,193278,623040,0
2096921,2096921,193430,623370,0
2096921,2096921,193464,623324,0
2096921,2096921,193110,623109,0
2096921,2096921,193394,623090,0
2096921,2096921,193387,622924,0
2096921,2096921,193564,623228,0
2096921,2096921,193386,623279,0
2096921,2096921,193299,623436,0
2096921,2096921,193375,623385,0
2096921,2096921,193306,623245,0
2096921,2096921,193490,623306,0
2096921,2096921,193599,623536,0
2096921,2096921,193344,623542,0
2096921,2096921,193614,623800,0
2096921,2096921,193518,623673,0
2096921,2096921,193824,623602,0
2096921,2096921,193199,623773,0
2096921,2096921,193331,623870,0
2096921,2096921,193559,623734,0
2096921,2096921,193690,623607,0
2096921,2096921,193608,624068,0
2096921,2096921,193841,623943,0
2096921,2096921,193809,624099,0
2096921,2096921,193668,624039,0
2096921,2096921,193290,623880,0
2096921,2096921,193598,624293,0
2096921,2096921,193818,624098,0
2096921,2096921,193825,624354,0
2096921,2096921,193768,624158,0
2096921,2096921,194074,624070,0
2096921,2096921,193966,624266,0
2096921,2096921,193992,624410,0
2096921,2096921,194199,624439,0
2096921,2096921,194429,624304,0
2096921,2096921,193819,624123,0
2096921,2096921,194128,624551,0
2096921,2096921,193905,624615,0
2096921,2096921,193869,624432,0
2096921,2096921,194202,624248,0
2096921,2096921,194232,624612,0
2096921,2096921,194252,624610,0
2096921,2096921,194193,624585,0
2096921,2096921,194393,625155,0
2096921,2096921,194178,625021,0
2096921,2096921,194214,624917,0
2096921,2096921,193899,624539,0
2096921,2096921,193883,625028,0
2096921,2096921,194088,624825,0
2096921,2096921,194139,624907,0
2096921,2096921,194355,625142,0
2096921,2096921,194676,625199,0
2096921,2096921,194452,624988,0
2096921,2096921,194246,624908,0
2096921,2096921,194499,625308,0
2096921,2096921,194513,624900,0
2096921,2096921,194492,625085,0
2096921,2096921,194220,625277,0
2096921,2096921,194241,625489,0
2096921,2096921,194266,625163,0
2096921,2096921,194365,625229,0
2096921,2096921,194508,625301,0
2096921,2096921,194503,625142,0
2096921,2096921,194586,625508,0
2096921,2096921,194447,625559,0
2096921,2096921,194701,625443,0
2096921,2096921,194555,625408,0
2096921,2096921,194398,625374,0
2096921,2096921,194582,625462,0
2096921,2096921,194304,625461,0
2096921,2096921,194442,625599,0
2096921,2096921,194295,625594,0
2096921,2096921,194611,625854,0
2096921,2096921,194599,625733,0
2096921,2096921,194689,625650,0
2096921,2096921,194488,625642,0
2096921,2096921,194571,625478,0
2096921,2096921,194742,625713,0
2096921,2096921,194629,625780,0
2096921,2096921,194564,625777,0
2096921,2096921,194907,625560,0
2096921,2096921,195047,625708,0
2096921,2096921,195103,625824,0
2096921,2096921,194796,625965,0
2096921,2096921,194935,625921,0
2096921,2096921,194911,625739,0
2096921,2096921,194698,625925,0
2096921,2096921,194743,626001,0
2096921,2096921,194635,625608,0
2096921,2096921,194641,625838,0
2096921,2096921,194463,625944,0
2096921,2096921,194706,625836,0
2096921,2096921,195078,626171,0
2096921,2096921,194777,626181,0
2096921,2096921,195143,626101,0
2096921,2096921,194711,626010,0
2096921,2096921,194774,626057,0
2096921,2096921,194786,626200,0
2096921,2096921,194842,626052,0
2096921,2096921,194655,625859,0
2096921,2096921,194693,626264,0
2096921,2096921,194814,626140,0
2096921,2096921,194880,626222,0
2096921,2096921,194950,626031,0
2096921,2096921,194858,625778,0
2096921,2096921,194825,625804,0
2096921,2096921,195174,626198,0
2096921,2096921,194866,626280,0
2096921,2096921,194872,626036,0
2096921,2096921,194726,626406,0
2096921,2096921,195008,626254,0
2096921,2096921,195136,626355,0
2096921,2096921,195404,626317,0
2096921,2096921,194718,626139,0
2096921,2096921,194779,626298,0
2096921,2096921,194911,626288,0
2096921,2096921,195136,626570,0
2096921,2096921,194680,626252,0
2096921,2096921,194867,626539,0
2096921,2096921,194934,626491,0
2096921,2096921,194910,626150,0
2096921,2096921,194931,626528,0
2096921,2096921,195104,626880,0
2096921,2096921,195062,626658,0
2096921,2096921,195076,626356,0
2096921,2096921,194987,626281,0
2096921,2096921,195133,626498,0
2096921,2096921,194720,626500,0
2096921,2096921,194864,626503,0
2096921,2096921,194999,626770,0
2096921,2096921,195056,626538,0
2096921,2096921,195161,626541,0
2096921,2096921,195029,626696,0
2096921,2096921,195042,626846,0
2096921,2096921,195079,626196,0
2096921,2096921,195039,626543,0
2096921,2096921,195231,626778,0
2096921,2096921,195301,626683,0
2096921,2096921,195277,626519,0
2096921,2096921,195133,626607,0
2096921,2096921,195288,626610,0
2096921,2096921,195188,626678,0
2096921,2096921,195299,626663,0
2096921,2096921,195200,627019,0
2096921,2096921,195268,626872,0
2096921,2096921,195332,627013,0
2096921,2096921,195141,626928,0
2096921,2096921,194922,626782,0
2096921,2096921,195195,626934,0
2096921,2096921,195241,626987,0
2096921,2096921,195377,626808,0
2096921,2096921,195285,627020,0
2096921,2096921,195749,626837,0
2096921,2096921,195109,626855,0
2096921,2096921,195207,626739,0
2096921,2096921,195202,626792,0
2096921,2096921,195169,626801,0
2096921,2096921,195113,626751,0
2096921,2096921,195113,626891,0
2096921,2096921,195335,626962,0
2096921,2096921,195423,626958,0
2096921,2096921,195200,626884,0
2096921,2096921,195546,627276,0
2096921,2096921,195400,627049,0
2096921,2096921,195530,627179,0
2096921,2096921,195422,626969,0
2096921,2096921,195708,627016,0
2096921,2096921,195204,626741,0
2096921,2096921,195164,627067,0
2096921,2096921,195405,627111,0
2096921,2096921,195588,627172,0
2096921,2096921,195536,626971,0
2096921,2096921,195368,627225,0
2096921,2096921,195310,627209,0
2096921,2096921,195320,627073,0
2096921,2096921,195455,627214,0
2096921,2096921,195342,627120,0
2096921,2096921,195230,626934,0
2096921,2096921,195437,626870,0
2096921,2096921,195234,627116,0
2096921,2096921,195584,627087,0
2096921,2096921,195948,627026,0
2096921,2096921,195456,627092,0
2096921,2096921,195092,627237,0
2096921,2096921,195474,627255,0
2096921,2096921,195395,627040,0
2096921,2096921,195499,627023,0
2096921,2096921,195419,627142,0
2096921,2096921,195510,627285,0
2096921,2096921,195477,627029,0
2096921,2096921,195571,626970,0
2096921,2096921,195483,627258,0
2096921,2096921,195525,627282,0
2096921,2096921,195700,627322,0
2096921,2096921,195908,627414,0
2096921,2096921,195394,626798,0
2096921,2096921,195590,627132,0
2096921,2096921,195429,626863,0
2096921,2096921,195293,627000,0
2096921,2096921,195272,627060,0
2096921,2096921,195470,627214,0
2096921,2096921,195505,627302,0
2096921,2096921,195524,627383,0
2096921,2096921,195545,627372,0
2096921,2096921,195253,627386,0
2096921,2096921,195293,627298,0
2096921,2096921,195321,627337,0
2096921,2096921,195513,627175,0
2096921,2096921,195650,627120,0
2096921,2096921,195410,627390,0
2096921,2096921,195695,627093,0
2096921,2096921,195413,627156,0
2096921,2096921,195604,627094,0
2096921,2096921,195434,627471,0
2096921,2096921,195338,627238,0
2096921,2096921,195578,627241,0
2096921,2096921,195376,627450,0
2096921,2096921,195359,627393,0
2096921,2096921,195233,626999,0
2096921,2096921,195378,627015,0
2096921,2096921,194929,627281,0
2096921,2096921,195239,627135,0
2096921,2096921,195343,627638,0
2096921,2096921,195470,627310,0
2096921,2096921,195436,627214,0
2096921,2096921,195167,627189,0
2096921,2096921,195551,627189,0
2096921,2096921,195219,627006,0
2096921,2096921,195481,627246,0
2096921,2096921,195561,626978,0
2096921,2096921,195310,627286,0
2096921,2096921,195388,626961,0
2096921,2096921,195419,627007,0
2096921,2096921,195430,626848,0
2096921,2096921,195370,626788,0
2096921,2096921,195061,626751,0
2096921,2096921,194958,626825,0
2096921,2096921,195000,626552,0
2096921,2096921,194879,626613,0
2096921,2096921,194826,626386,0
2096921,2096921,195086,626336,0
2096921,2096921,194807,626042,0
2096921,2096921,194910,626117,0
2096921,2096921,194868,626172,0
2096921,2096921,195017,625948,0
2096921,2096921,194425,625995,0
2096921,2096921,194345,625664,0
2096921,2096921,194198,625427,0
2096921,2096921,194388,625154,0
2096921,2096921,194309,625276,0
2096921,2096921,194161,625120,0
2096921,2096921,194182,624757,0
2096921,2096921,193961,624601,0
2096921,2096921,194210,624647,0
2096921,2096921,194074,624596,0
2096921,2096921,193577,624755,0
2096921,2096921,193171,623368,0
2096921,2096921,193030,623204,0
2096921,2096921,193249,622830,0
2096921,2096921,192974,622958,0
2096921,2096921,192179,623079,0
2096921,2096921,191941,621284,0
2096921,2096921,192131,621263,0
2096921,2096921,192097,621251,0
2096921,2096921,192151,620908,0
2096921,2096921,191561,620946,0
2096921,2096921,191195,619854,0
2096921,2096921,190971,619560,0
2096921,2096921,191237,619117,0
2096921,2096921,191135,619039,0
2096921,2096921,190573,619439,0
2096921,2096921,190686,618415,0
2096921,2096921,190736,618223,0
2096921,2096921,190668,618274,0
2096921,2096921,190461,618397,0
2096921,2096921,190380,618444,0
2096921,2096921,190363,617741,0
2096921,2096921,189948,617091,0
2096921,2096921,189959,617167,0
2096921,2096921,189952,617203,0
2096921,2096921,189838,617432,0
2096921,2096921,189619,616737,0
2096921,2096921,189811,616720,0
2096921,2096921,189703,616556,0
2096921,2096921,189705,616668,0
2096921,2096921,189539,616793,0
2096921,2096921,189530,616337,0
2096921,2096921,189465,616286,0
2096921,2096921,189464,616403,0
2096921,2096921,189489,616391,0
2096921,2096921,189314,616342,0
2096921,2096921,188942,616081,0
2096921,2096921,189612,616170,0
2096921,2096921,189599,616181,0
2096921,2096921,189310,616079,0
2096921,2096921,189160,616178,0
2096921,2096921,189505,616153,0
2096921,2096921,189163,616032,0
2096921,2096921,189350,615940,0
2096921,2096921,189321,616007,0
2096921,2096921,189337,616018,0
2096921,2096921,189109,616247,0
2096921,2096921,189285,616135,0
2096921,2096921,189440,616410,0
2096921,2096921,189599,616288,0
2096921,2096921,189241,616189,0
2096921,2096921,189334,616435,0
2096921,2096921,189196,616435,0
2096921,2096921,189414,615874,0
2096921,2096921,189416,616280,0
2096921,2096921,189749,616225,0
2096921,2096921,189250,616219,0
2096921,2096921,189636,616543,0
2096921,2096921,189603,616649,0
2096921,2096921,189594,616369,0
2096921,2096921,189269,616445,0
2096921,2096921,189342,616373,0
2096921,2096921,189415,615918,0
2096921,2096921,189507,615821,0
2096921,2096921,189292,616154,0
2096921,2096921,189566,616451,0
2096921,2096921,189579,616505,0
2096921,2096921,189788,616532,0
2096921,2096921,189779,616665,0
2096921,2096921,189703,616798,0
2096921,2096921,189918,616709,0
2096921,2096921,189948,617223,0
2096921,2096921,189927,617349,0
2096921,2096921,190123,617036,0
2096921,2096921,190025,616752,0
2096921,2096921,190093,617324,0
2096921,2096921,189899,617365,0
2096921,2096921,190163,617540,0
2096921,2096921,189994,617476,0
2096921,2096921,189995,617558,0
2096921,2096921,190266,617469,0
2096921,2096921,190434,617847,0
2096921,2096921,190205,617710,0
2096921,2096921,190369,617555,0
2096921,2096921,190102,617631,0
2096921,2096921,190313,617693,0
2096921,2096921,190400,618074,0
2096921,2096921,190355,618127,0
2096921,2096921,190221,618112,0
2096921,2096921,190247,617993,0
2096921,2096921,190489,618115,0
2096921,2096921,190639,618130,0
2096921,2096921,190438,618386,0
2096921,2096921,190554,618306,0
2096921,2096921,190545,618209,0
2096921,2096921,190633,618467,0
2096921,2096921,190595,618762,0
2096921,2096921,191125,618657,0
2096921,2096921,191111,618461,0
2096921,2096921,191121,618937,0
2096921,2096921,191023,619019,0
2096921,2096921,191059,619134,0
2096921,2096921,191210,618954,0
2096921,2096921,191200,619034,0
2096921,2096921,190776,619185,0
2096921,2096921,191296,619112,0
2096921,2096921,190994,619362,0
2096921,2096921,191259,619605,0
2096921,2096921,191326,619398,0
2096921,2096921,191192,619599,0
2096921,2096921,191497,619714,0
2096921,2096921,191794,620005,0
2096921,2096921,191612,619737,0
2096921,2096921,191421,619662,0
2096921,2096921,191103,619838,0
2096921,2096921,191909,619562,0
2096921,2096921,191704,619990,0
2096921,2096921,191661,620572,0
2096921,2096921,191964,620330,0
2096921,2096921,191637,620151,0
2096921,2096921,191568,620369,0
2096921,2096921,191796,620133,0
2096921,2096921,192022,620543,0
2096921,2096921,192104,620536,0
2096921,2096921,192009,620538,0
2096921,2096921,192132,620498,0
2096921,2096921,191981,620633,0
2096921,2096921,192028,620709,0
2096921,2096921,191867,621320,0
2096921,2096921,191834,620966,0
2096921,2096921,191922,620694,0
2096921,2096921,192407,621357,0
2096921,2096921,191907,621066,0
2096921,2096921,192102,620925,0
2096921,2096921,191932,620728,0
2096921,2096921,192092,620625,0
2096921,2096921,192282,621189,0
2096921,2096921,192277,621352,0
2096921,2096921,192082,621320,0
2096921,2096921,192174,621411,0
2096921,2096921,192347,621304,0
2096921,2096921,192102,621461,0
2096921,2096921,191949,621338,0
2096921,2096921,192101,621515,0
2096921,2096921,192101,621839,0
2096921,2096921,192434,621611,0
2096921,2096921,192234,621913,0
2096921,2096921,192529,621811,0
2096921,2096921,192461,621701,0
2096921,2096921,192292,621805,0
2096921,2096921,192341,621970,0
2096921,2096921,192159,621561,0
2096921,2096921,192350,621479,0
2096921,2096921,192193,621388,0
2096921,2096921,192411,621311,0
2096921,2096921,192257,621508,0
2096921,2096921,192431,621697,0
2096921,2096921,192401,621529,0
2096921,2096921,192475,621638,0
2096921,2096921,192231,621626,0
2096921,2096921,192343,621737,0
2096921,2096921,192324,621391,0
