2096921,2096921,162193,700127
2096921,2096921,162326,700174
2096921,2096921,162326,700472
2096921,2096921,162467,700993
2096921,2096921,162720,700813
2096921,2096921,162840,700922
2096921,2096921,162800,700812
2096921,2096921,162752,701077
2096921,2096921,162844,701106
2096921,2096921,162909,701152
2096921,2096921,162232,701333
2096921,2096921,162549,701617
2096921,2096921,162931,701688
2096921,2096921,162964,701844
2096921,2096921,163267,701674
2096921,2096921,162973,702083
2096921,2096921,163076,701909
2096921,2096921,163220,702044
2096921,2096921,163343,702201
2096921,2096921,163196,702340
2096921,2096921,163102,702147
2096921,2096921,163086,702211
2096921,2096921,163376,702809
2096921,2096921,163437,703248
2096921,2096921,163386,703121
2096921,2096921,163192,702869
2096921,2096921,162994,702952
2096921,2096921,163219,703013
2096921,2096921,163366,703557
2096921,2096921,163653,703658
2096921,2096921,163573,703518
2096921,2096921,163478,703491
2096921,2096921,163315,703979
2096921,2096921,163927,703643
2096921,2096921,163771,703820
2096921,2096921,163641,703764
2096921,2096921,163428,703919
2096921,2096921,163739,704068
2096921,2096921,163802,704025
2096921,2096921,163643,704497
2096921,2096921,163539,704587
2096921,2096921,163672,704382
2096921,2096921,164115,704226
2096921,2096921,163938,704495
2096921,2096921,164061,704599
2096921,2096921,163984,704887
2096921,2096921,164051,704413
2096921,2096921,163834,704838
2096921,2096921,163762,704932
2096921,2096921,163742,704695
2096921,2096921,163875,704498
2096921,2096921,163978,704722
2096921,2096921,163968,705082
2096921,2096921,164200,705375
2096921,2096921,164064,705235
2096921,2096921,163927,704943
2096921,2096921,164207,704961
2096921,2096921,164101,704876
2096921,2096921,164484,704817
2096921,2096921,164161,704930
2096921,2096921,164217,704963
2096921,2096921,164075,705008
2096921,2096921,164194,705079
2096921,2096921,164129,704725
2096921,2096921,164349,704807
2096921,2096921,163545,705076
2096921,2096921,164209,705010
2096921,2096921,164266,704961
2096921,2096921,164109,704851
2096921,2096921,163756,705037
2096921,2096921,163664,705103
2096921,2096921,164078,704847
2096921,2096921,163847,704777
2096921,2096921,164018,705112
2096921,2096921,163974,705180
2096921,2096921,164027,705053
2096921,2096921,163950,704931
2096921,2096921,163796,704764
2096921,2096921,163635,704985
2096921,2096921,163661,705204
2096921,2096921,163897,704911
2096921,2096921,164143,705227
2096921,2096921,164043,705147
2096921,2096921,163751,704686
2096921,2096921,163944,704573
2096921,2096921,163754,704869
2096921,2096921,163776,704865
2096921,2096921,163650,704619
2096921,2096921,164080,704427
2096921,2096921,164090,704493
2096921,2096921,163932,704452
2096921,2096921,164001,704624
2096921,2096921,163834,704862
2096921,2096921,163862,704866
2096921,2096921,163900,704776
2096921,2096921,163795,704702
2096921,2096921,164067,704934
2096921,2096921,163898,704450
2096921,2096921,163664,704563
2096921,2096921,163758,704715
2096921,2096921,163886,704487
2096921,2096921,164004,704575
2096921,2096921,164349,704687
2096921,2096921,164113,704630
2096921,2096921,163868,704763
2096921,2096921,163960,705071
2096921,2096921,163795,704994
2096921,2096921,163750,705058
2096921,2096921,164008,705373
2096921,2096921,164082,704798
2096921,2096921,164111,704994
2096921,2096921,163827,704922
2096921,2096921,163831,705071
2096921,2096921,163998,705071
2096921,2096921,164036,704982
2096921,2096921,164017,704879
2096921,2096921,163826,705239
2096921,2096921,163818,705397
2096921,2096921,163851,705363
2096921,2096921,164187,705547
2096921,2096921,164038,705432
2096921,2096921,164628,705595
2096921,2096921,164449,705828
2096921,2096921,164508,705599
2096921,2096921,164400,706068
2096921,2096921,164201,706064
2096921,2096921,164172,705917
2096921,2096921,164342,706098
2096921,2096921,164352,706400
2096921,2096921,164359,706245
2096921,2096921,164307,706120
2096921,2096921,164380,706133
2096921,2096921,164689,706660
2096921,2096921,164562,706704
2096921,2096921,164764,706571
2096921,2096921,164512,706575
2096921,2096921,164491,706599
2096921,2096921,164749,706655
2096921,2096921,164637,706885
2096921,2096921,164821,706664
2096921,2096921,164751,706671
2096921,2096921,164283,707125
2096921,2096921,164765,706924
2096921,2096921,164777,706969
2096921,2096921,164867,707119
2096921,2096921,164819,707201
2096921,2096921,164594,707042
2096921,2096921,164902,707234
2096921,2096921,164620,707383
2096921,2096921,164449,707102
2096921,2096921,164932,707600
2096921,2096921,165012,707506
2096921,2096921,164899,707551
2096921,2096921,165052,707659
2096921,2096921,165011,707894
2096921,2096921,165189,707842
2096921,2096921,165281,707729
2096921,2096921,165054,707707
2096921,2096921,165115,708006
2096921,2096921,165062,707850
2096921,2096921,165004,707804
2096921,2096921,165016,707925
2096921,2096921,165007,708177
2096921,2096921,165202,708516
2096921,2096921,165231,708432
2096921,2096921,165126,708317
2096921,2096921,164902,708337
2096921,2096921,165199,708400
2096921,2096921,165230,708336
2096921,2096921,165202,708221
2096921,2096921,165289,708309
2096921,2096921,165018,708412
2096921,2096921,165137,708684
2096921,2096921,165106,708608
2096921,2096921,165253,708878
2096921,2096921,165342,708983
2096921,2096921,165230,708637
2096921,2096921,165350,709127
2096921,2096921,165575,708644
2096921,2096921,165276,709103
2096921,2096921,165686,708924
2096921,2096921,165449,708784
2096921,2096921,165615,709072
2096921,2096921,165354,709497
2096921,2096921,165656,709438
2096921,2096921,165532,709162
2096921,2096921,165407,709111
2096921,2096921,165340,709272
2096921,2096921,165758,709421
2096921,2096921,165446,709141
2096921,2096921,165348,709200
2096921,2096921,165602,708947
2096921,2096921,165704,709472
2096921,2096921,165605,709599
2096921,2096921,165657,709955
2096921,2096921,165740,710025
2096921,2096921,165611,709814
2096921,2096921,165602,709524
2096921,2096921,165737,709845
2096921,2096921,165364,709890
2096921,2096921,165903,710007
2096921,2096921,165970,709832
2096921,2096921,165804,709831
2096921,2096921,166104,710009
2096921,2096921,166018,710006
2096921,2096921,165921,710212
2096921,2096921,165853,709897
2096921,2096921,165640,709970
2096921,2096921,165446,710090
2096921,2096921,165776,710133
2096921,2096921,165943,710224
2096921,2096921,165845,710238
2096921,2096921,166011,710238
2096921,2096921,166182,710347
2096921,2096921,166183,710302
2096921,2096921,166097,710503
2096921,2096921,165848,710526
2096921,2096921,165623,710531
2096921,2096921,165961,710472
2096921,2096921,165842,710334
2096921,2096921,166052,710433
2096921,2096921,165871,710610
2096921,2096921,166184,710588
2096921,2096921,166193,710798
2096921,2096921,166201,711073
2096921,2096921,166181,710827
2096921,2096921,166072,710937
2096921,2096921,166267,710763
2096921,2096921,166217,710524
2096921,2096921,165620,710705
2096921,2096921,165656,710732
2096921,2096921,166152,710903
2096921,2096921,166059,711063
2096921,2096921,166061,711083
2096921,2096921,166154,711225
2096921,2096921,166370,711134
2096921,2096921,166316,711159
2096921,2096921,166351,710955
2096921,2096921,166050,710894
2096921,2096921,166310,710997
2096921,2096921,166140,710868
2096921,2096921,166091,711049
2096921,2096921,166386,711512
2096921,2096921,166121,711490
2096921,2096921,166233,711589
2096921,2096921,166251,711431
2096921,2096921,166323,711382
2096921,2096921,166487,711262
2096921,2096921,166351,711367
2096921,2096921,166108,711292
2096921,2096921,166142,711243
2096921,2096921,166408,711394
2096921,2096921,166243,711672
2096921,2096921,166312,711510
2096921,2096921,166581,711499
2096921,2096921,166355,711684
2096921,2096921,166337,711285
2096921,2096921,166458,711676
2096921,2096921,166482,711445
2096921,2096921,166280,711655
2096921,2096921,166515,711571
2096921,2096921,166248,711444
2096921,2096921,166615,711955
2096921,2096921,166712,711995
2096921,2096921,166468,711884
2096921,2096921,166525,711699
2096921,2096921,166393,711655
2096921,2096921,166270,711840
2096921,2096921,166370,711941
2096921,2096921,166478,711921
2096921,2096921,166242,712140
2096921,2096921,166487,711798
2096921,2096921,166412,711856
2096921,2096921,166289,711962
2096921,2096921,166953,712077
2096921,2096921,166425,711941
2096921,2096921,166518,711935
2096921,2096921,166313,712096
2096921,2096921,166899,712042
2096921,2096921,166900,712197
2096921,2096921,166353,711875
2096921,2096921,166756,711884
2096921,2096921,166400,712109
2096921,2096921,166796,712215
2096921,2096921,166677,712046
2096921,2096921,166792,711885
2096921,2096921,166937,711804
2096921,2096921,166616,712029
2096921,2096921,166914,712104
2096921,2096921,166683,712011
2096921,2096921,166824,712057
2096921,2096921,166610,712035
2096921,2096921,166644,712407
2096921,2096921,166440,712269
2096921,2096921,167045,712422
2096921,2096921,166947,712523
2096921,2096921,166517,712353
2096921,2096921,166745,712284
2096921,2096921,166970,712039
2096921,2096921,166656,712316
2096921,2096921,166579,712254
2096921,2096921,166845,712037
2096921,2096921,167076,712387
2096921,2096921,166895,712525
2096921,2096921,166977,712442
2096921,2096921,167128,712487
2096921,2096921,167012,712547
2096921,2096921,166983,712450
2096921,2096921,166820,712302
2096921,2096921,166618,712594
2096921,2096921,166450,712545
2096921,2096921,166493,712390
2096921,2096921,166933,712508
2096921,2096921,166833,712655
2096921,2096921,166751,712673
2096921,2096921,166673,712369
2096921,2096921,166685,712474
2096921,2096921,166873,712810
2096921,2096921,166842,712770
2096921,2096921,166758,712818
2096921,2096921,166643,712752
2096921,2096921,166641,712741
2096921,2096921,166875,712717
2096921,2096921,166902,712829
2096921,2096921,166933,712841
2096921,2096921,167173,712667
2096921,2096921,166892,712866
2096921,2096921,166695,712897
2096921,2096921,166865,712679
2096921,2096921,166704,712841
2096921,2096921,167185,712768
2096921,2096921,167084,712600
2096921,2096921,167022,712844
2096921,2096921,166899,712764
2096921,2096921,167099,712808
2096921,2096921,167158,712986
2096921,2096921,166816,712745
2096921,2096921,166874,712825
2096921,2096921,166744,712654
2096921,2096921,166830,712641
2096921,2096921,166795,712924
2096921,2096921,167138,712958
2096921,2096921,167015,712897
2096921,2096921,166770,712670
2096921,2096921,166897,713163
2096921,2096921,166945,712798
2096921,2096921,167090,712720
2096921,2096921,166848,712634
2096921,2096921,167089,712915
2096921,2096921,166753,712822
2096921,2096921,167026,712680
2096921,2096921,167132,712655
2096921,2096921,166772,712809
2096921,2096921,166949,713078
2096921,2096921,166624,712804
2096921,2096921,166643,712789
2096921,2096921,166730,713130
2096921,2096921,167041,713127
2096921,2096921,166815,712941
2096921,2096921,166850,712930
2096921,2096921,167001,713055
2096921,2096921,166907,712822
2096921,2096921,166976,712738
2096921,2096921,166888,712982
2096921,2096921,166758,713070
2096921,2096921,166997,713059
2096921,2096921,166617,712693
2096921,2096921,166863,712687
2096921,2096921,167021,712605
2096921,2096921,167026,712374
2096921,2096921,166951,712696
2096921,2096921,166794,713048
2096921,2096921,166782,712835
2096921,2096921,166818,713000
2096921,2096921,166735,712518
2096921,2096921,166754,712724
2096921,2096921,166747,712582
2096921,2096921,166869,712777
2096921,2096921,167134,712697
2096921,2096921,166700,712722
2096921,2096921,166833,712889
2096921,2096921,166717,712763
2096921,2096921,166832,712475
2096921,2096921,166800,712664
2096921,2096921,166775,712217
2096921,2096921,166504,712396
2096921,2096921,166675,712135
2096921,2096921,166413,711826
2096921,2096921,166686,711962
2096921,2096921,166651,711765
2096921,2096921,166483,711751
2096921,2096921,166509,711767
2096921,2096921,166439,711308
2096921,2096921,166276,711080
2096921,2096921,166181,711035
2096921,2096921,166165,710914
2096921,2096921,166293,710989
2096921,2096921,166005,710270
2096921,2096921,165725,710218
2096921,2096921,166105,710188
2096921,2096921,166251,710260
2096921,2096921,166242,710297
2096921,2096921,165691,709863
2096921,2096921,165412,709650
2096921,2096921,165343,709330
2096921,2096921,165691,709209
2096921,2096921,165453,709277
2096921,2096921,165054,708101
2096921,2096921,164868,707395
2096921,2096921,164905,707184
2096921,2096921,164728,707077
2096921,2096921,164907,707267
2096921,2096921,164268,705357
2096921,2096921,163821,704802
2096921,2096921,163413,704570
2096921,2096921,163714,704665
2096921,2096921,163779,704657
2096921,2096921,163308,703278
2096921,2096921,162952,702751
2096921,2096921,163054,702806
2096921,2096921,162867,702450
2096921,2096921,163195,702702
2096921,2096921,162564,701679
2096921,2096921,162756,701365
2096921,2096921,162532,701085
2096921,2096921,162472,701101
2096921,2096921,162675,700820
2096921,2096921,162219,700290
2096921,2096921,161983,699844
2096921,2096921,161787,700050
2096921,2096921,162192,699866
2096921,2096921,161908,699871
2096921,2096921,161845,699658
2096921,2096921,161972,699542
2096921,2096921,162110,699311
2096921,2096921,161919,699098
2096921,2096921,161883,699313
2096921,2096921,161653,698958
2096921,2096921,161698,698591
2096921,2096921,161637,698596
2096921,2096921,161715,698515
2096921,2096921,161669,698741
2096921,2096921,161401,698587
2096921,2096921,161248,698149
2096921,2096921,161299,698004
2096921,2096921,161343,698366
2096921,2096921,161233,698185
2096921,2096921,161519,698110
2096921,2096921,161500,697866
2096921,2096921,161449,697810
2096921,2096921,161789,697956
2096921,2096921,161729,697943
2096921,2096921,161521,697741
2096921,2096921,161476,697856
2096921,2096921,161629,697850
2096921,2096921,161569,698046
2096921,2096921,161496,698047
2096921,2096921,161769,698082
2096921,2096921,161507,698183
2096921,2096921,161382,698204
2096921,2096921,161451,697944
2096921,2096921,161462,698090
2096921,2096921,161345,697883
2096921,2096921,161462,698223
2096921,2096921,161453,698265
2096921,2096921,161399,698312
2096921,2096921,161329,698175
2096921,2096921,161293,698628
2096921,2096921,161618,698306
2096921,2096921,161494,698210
2096921,2096921,161641,698258
2096921,2096921,161441,698061
2096921,2096921,161610,698675
2096921,2096921,161592,698427
2096921,2096921,161545,698624
2096921,2096921,161714,698720
2096921,2096921,161738,698792
2096921,2096921,161617,699071
2096921,2096921,161588,699048
2096921,2096921,161678,698816
2096921,2096921,162064,699175
2096921,2096921,161664,699161
2096921,2096921,161854,699318
2096921,2096921,161985,699483
2096921,2096921,162004,699239
2096921,2096921,161960,699562
2096921,2096921,162076,699709
2096921,2096921,162022,699900
2096921,2096921,162110,699901
2096921,2096921,162190,699696
2096921,2096921,161994,699742
2096921,2096921,162217,699575
2096921,2096921,162206,699898
2096921,2096921,162367,699959
2096921,2096921,162419,700067
2096921,2096921,162378,700262
2096921,2096921,162256,700181
2096921,2096921,162256,700387
2096921,2096921,162210,700473
2096921,2096921,162368,700578
2096921,2096921,162343,700587
2096921,2096921,162313,700617
2096921,2096921,162540,700626
2096921,2096921,162663,701049
2096921,2096921,162580,700651
2096921,2096921,162551,701001
2096921,2096921,162588,701138
2096921,2096921,162651,701223
2096921,2096921,162763,701010
2096921,2096921,162459,701158
2096921,2096921,162692,701465
2096921,2096921,162863,701145
2096921,2096921,162887,701257
2096921,2096921,162731,701391
2096921,2096921,162723,702085
2096921,2096921,162887,702009
2096921,2096921,163117,701855
2096921,2096921,162995,701693
2096921,2096921,162778,701995
2096921,2096921,162948,701754
2096921,2096921,163054,701952
2096921,2096921,162726,701890
2096921,2096921,163072,701982
2096921,2096921,163258,702454
2096921,2096921,163278,702020
2096921,2096921,163284,702492
2096921,2096921,163044,702398
2096921,2096921,163125,702831
2096921,2096921,163204,702920
2096921,2096921,163245,702720
2096921,2096921,163224,702852
2096921,2096921,163275,702882
2096921,2096921,163451,702706
2096921,2096921,163510,702924
2096921,2096921,163403,702911
2096921,2096921,163550,702885
2096921,2096921,163340,702799
2096921,2096921,163683,702892
2096921,2096921,163471,703392
2096921,2096921,163532,703500
2096921,2096921,163373,703162
2096921,2096921,163540,703438
2096921,2096921,163724,703475
2096921,2096921,163427,703556
2096921,2096921,163680,703385
2096921,2096921,163439,703189
2096921,2096921,163502,703020
2096921,2096921,163619,703623
2096921,2096921,163604,703546
2096921,2096921,163632,703476
2096921,2096921,163830,703351
2096921,2096921,163547,703763
2096921,2096921,163634,703503
2096921,2096921,163461,703624
2096921,2096921,163866,703882
2096921,2096921,163635,703688
2096921,2096921,163470,703732
2096921,2096921,163691,703380
2096921,2096921,163705,703464
2096921,2096921,163463,703276
2096921,2096921,163492,703496
2096921,2096921,163468,703675
2096921,2096921,163643,703475
2096921,2096921,163770,703101
2096921,2096921,163817,703310
2096921,2096921,163888,703691
2096921,2096921,163518,703489
2096921,2096921,163627,703389
2096921,2096921,163507,703535
2096921,2096921,163468,703198
2096921,2096921,163517,703204
2096921,2096921,163635,703251
2096921,2096921,163430,703364
2096921,2096921,163562,702943
2096921,2096921,163572,703057
2096921,2096921,163548,703234
2096921,2096921,163263,702937
2096921,2096921,163421,702968
2096921,2096921,163265,702777
2096921,2096921,163354,702829
2096921,2096921,163383,702780
2096921,2096921,163566,702691
2096921,2096921,163685,702443
2096921,2096921,163650,702776
2096921,2096921,163605,702361
2096921,2096921,163420,702501
2096921,2096921,163323,702594
2096921,2096921,163080,702369
2096921,2096921,163279,702113
2096921,2096921,163447,702377
2096921,2096921,163449,702340
2096921,2096921,163346,702258
2096921,2096921,163156,702096
2096921,2096921,162996,702048
2096921,2096921,163264,702312
2096921,2096921,163043,702310
2096921,2096921,163346,702231
2096921,2096921,163146,702126
2096921,2096921,163009,702042
2096921,2096921,163226,702023
2096921,2096921,163030,701937
2096921,2096921,163431,701911
2096921,2096921,163351,702139
2096921,2096921,163513,701997
2096921,2096921,163276,701852
2096921,2096921,163459,702164
2096921,2096921,163196,702261
2096921,2096921,163175,701951
2096921,2096921,163213,702084
2096921,2096921,163199,701856
2096921,2096921,163441,702005
2096921,2096921,163274,701917
2096921,2096921,163173,702148
2096921,2096921,163333,701978
2096921,2096921,163692,702312
2096921,2096921,163494,702322
2096921,2096921,163394,702060
2096921,2096921,163330,702590
2096921,2096921,163207,702244
2096921,2096921,163504,702751
2096921,2096921,163648,702378
2096921,2096921,163475,702754
2096921,2096921,163712,702737
2096921,2096921,163589,702517
2096921,2096921,163818,702678
2096921,2096921,163863,702525
2096921,2096921,163521,702551
2096921,2096921,163766,702983
2096921,2096921,163585,702644
2096921,2096921,163787,702912
2096921,2096921,163923,702899
2096921,2096921,163546,703010
2096921,2096921,163821,703224
2096921,2096921,164163,703176
2096921,2096921,163411,703188
2096921,2096921,163745,703167
2096921,2096921,163831,703034
2096921,2096921,163893,703151
2096921,2096921,163648,703487
2096921,2096921,163629,703343
2096921,2096921,163632,703543
2096921,2096921,163949,703340
2096921,2096921,164034,703948
2096921,2096921,163851,703742
2096921,2096921,163757,703848
2096921,2096921,163958,703524
2096921,2096921,163625,703217
2096921,2096921,164013,703408
2096921,2096921,163908,703672
2096921,2096921,164016,703799
2096921,2096921,163943,703907
2096921,2096921,164097,703544
2096921,2096921,164032,703713
2096921,2096921,164062,703911
2096921,2096921,164322,703961
2096921,2096921,164154,704081
2096921,2096921,164032,703772
2096921,2096921,163962,703828
2096921,2096921,163879,704098
2096921,2096921,164022,704355
2096921,2096921,163862,703915
2096921,2096921,163786,704190
2096921,2096921,164357,704269
2096921,2096921,164296,704465
2096921,2096921,164426,704235
2096921,2096921,164085,704276
2096921,2096921,163929,704225
2096921,2096921,164152,704070
2096921,2096921,164159,704269
2096921,2096921,164034,704536
2096921,2096921,164349,704460
2096921,2096921,164380,704391
2096921,2096921,164381,704647
2096921,2096921,164256,704318
2096921,2096921,163978,704602
2096921,2096921,164429,704480
2096921,2096921,164408,704520
2096921,2096921,164574,704359
2096921,2096921,164432,704627
2096921,2096921,164219,704534
2096921,2096921,164359,704683
2096921,2096921,164452,704514
2096921,2096921,164460,704872
2096921,2096921,164453,704892
2096921,2096921,164491,705092
2096921,2096921,164833,704675
2096921,2096921,164530,704730
2096921,2096921,164314,704846
2096921,2096921,164730,704588
2096921,2096921,164399,704992
2096921,2096921,164340,704747
2096921,2096921,164251,704865
2096921,2096921,164599,704925
2096921,2096921,164765,704930
2096921,2096921,164808,704949
2096921,2096921,164476,704966
2096921,2096921,164641,704808
2096921,2096921,164642,704907
2096921,2096921,164509,705110
2096921,2096921,164586,705276
2096921,2096921,164606,705273
2096921,2096921,164555,705363
2096921,2096921,164659,705353
2096921,2096921,164576,705375
2096921,2096921,164637,705261
2096921,2096921,164494,705436
2096921,2096921,164657,705578
2096921,2096921,164680,705253
2096921,2096921,164673,705428
2096921,2096921,164484,705453
2096921,2096921,164745,705335
2096921,2096921,164995,705389
2096921,2096921,164823,705410
2096921,2096921,164503,705565
2096921,2096921,164842,705513
2096921,2096921,164751,705429
2096921,2096921,164949,705276
2096921,2096921,164824,705402
2096921,2096921,164665,705446
2096921,2096921,164704,705364
2096921,2096921,164683,705404
2096921,2096921,164850,705624
2096921,2096921,164776,705718
2096921,2096921,164955,705610
2096921,2096921,165081,705879
2096921,2096921,164886,705679
2096921,2096921,164745,705898
2096921,2096921,165162,705539
2096921,2096921,164790,705783
2096921,2096921,164780,705393
2096921,2096921,164865,705607
2096921,2096921,164958,705784
2096921,2096921,165122,705879
2096921,2096921,165192,705683
2096921,2096921,164899,706007
2096921,2096921,165031,706032
2096921,2096921,165043,705834
2096921,2096921,164824,705769
2096921,2096921,165018,705711
2096921,2096921,164816,705781
2096921,2096921,164810,705786
2096921,2096921,164992,705984
2096921,2096921,164862,705814
2096921,2096921,164943,706005
2096921,2096921,165015,706055
2096921,2096921,164870,705995
2096921,2096921,164978,706018
2096921,2096921,164962,706019
2096921,2096921,165139,706131
2096921,2096921,164981,705895
2096921,2096921,164998,705800
2096921,2096921,165091,705953
2096921,2096921,165004,705975
2096921,2096921,165203,705822
2096921,2096921,165263,705850
2096921,2096921,165025,705724
2096921,2096921,164775,706278
2096921,2096921,165092,705809
2096921,2096921,165151,706166
2096921,2096921,165096,706178
2096921,2096921,164768,705796
2096921,2096921,165133,706141
2096921,2096921,165228,706193
2096921,2096921,165186,705841
2096921,2096921,165323,706234
2096921,2096921,164841,705931
2096921,2096921,165000,705978
2096921,2096921,165017,706075
2096921,2096921,164872,706083
2096921,2096921,165008,706199
2096921,2096921,165162,706300
2096921,2096921,165199,706131
2096921,2096921,165325,706300
2096921,2096921,165023,706044
2096921,2096921,165107,706192
2096921,2096921,165168,706012
2096921,2096921,165040,706289
2096921,2096921,164938,706142
2096921,2096921,165077,705814
2096921,2096921,165338,705617
2096921,2096921,165205,705951
2096921,2096921,165045,706196
2096921,2096921,165337,705944
2096921,2096921,165225,706030
2096921,2096921,165147,706254
2096921,2096921,165381,706140
2096921,2096921,165399,706099
2096921,2096921,164921,705855
2096921,2096921,164791,705900
2096921,2096921,164941,705952
2096921,2096921,165025,706060
2096921,2096921,165367,706156
2096921,2096921,165053,706145
2096921,2096921,165045,706114
2096921,2096921,165155,706187
2096921,2096921,165286,705999
2096921,2096921,165324,706091
2096921,2096921,165220,706066
2096921,2096921,165169,706379
2096921,2096921,165053,706110
2096921,2096921,165185,706248
2096921,2096921,165084,705907
2096921,2096921,165130,706187
2096921,2096921,165284,706281
2096921,2096921,165524,705966
2096921,2096921,165076,706119
2096921,2096921,165131,706233
2096921,2096921,165226,706422
2096921,2096921,165034,706205
2096921,2096921,165370,706093
2096921,2096921,165179,705960
2096921,2096921,165408,706133
2096921,2096921,165227,706145
2096921,2096921,165610,706272
2096921,2096921,165347,706187
2096921,2096921,165342,706453
2096921,2096921,165137,706194
2096921,2096921,165381,705957
2096921,2096921,165218,705956
2096921,2096921,165124,706226
2096921,2096921,165540,706043
2096921,2096921,165422,706255
2096921,2096921,165279,706494
2096921,2096921,165417,705962
2096921,2096921,165526,706156
2096921,2096921,165515,706282
2096921,2096921,165397,706469
2096921,2096921,165426,706390
2096921,2096921,165443,706149
2096921,2096921,165168,706256
2096921,2096921,165222,706392
2096921,2096921,165183,706448
2096921,2096921,165605,706299
2096921,2096921,165558,706086
2096921,2096921,165393,706200
2096921,2096921,165299,706389
2096921,2096921,165291,706255
2096921,2096921,165183,706068
2096921,2096921,165212,706012
2096921,2096921,165051,706174
2096921,2096921,165075,705945
2096921,2096921,165339,706201
2096921,2096921,165127,706312
2096921,2096921,165156,705957
2096921,2096921,165115,706118
2096921,2096921,165326,706000
2096921,2096921,165121,706129
2096921,2096921,165021,706144
2096921,2096921,165051,706298
2096921,2096921,165296,706209
2096921,2096921,165244,706090
2096921,2096921,165207,706081
2096921,2096921,165035,706158
2096921,2096921,165057,706182
2096921,2096921,165376,706154
2096921,2096921,165021,706049
2096921,2096921,165252,706089
2096921,2096921,165277,706007
2096921,2096921,165186,705997
2096921,2096921,165119,706013
2096921,2096921,165318,705902
2096921,2096921,165261,706144
2096921,2096921,165286,706054
2096921,2096921,165267,706022
2096921,2096921,165212,706200
2096921,2096921,165391,705940
2096921,2096921,165220,705819
2096921,2096921,165184,705995
2096921,2096921,165131,705918
2096921,2096921,165209,705918
2096921,2096921,165303,706041
2096921,2096921,164799,705764
2096921,2096921,165097,706184
2096921,2096921,165244,706041
2096921,2096921,165271,705796
2096921,2096921,165370,705902
2096921,2096921,165369,706017
2096921,2096921,165165,705953
2096921,2096921,165416,705855
2096921,2096921,165473,705795
2096921,2096921,165252,705762
2096921,2096921,165167,705769
2096921,2096921,165504,705415
2096921,2096921,165137,705202
2096921,2096921,164987,705462
2096921,2096921,164864,705404
2096921,2096921,165199,705503
2096921,2096921,164857,704744
2096921,2096921,164677,705160
2096921,2096921,164913,704769
2096921,2096921,164790,705088
2096921,2096921,165108,704913
2096921,2096921,164816,704781
2096921,2096921,164516,704590
2096921,2096921,164786,704495
2096921,2096921,164631,704613
2096921,2096921,164534,704248
2096921,2096921,164098,703651
2096921,2096921,164125,703591
2096921,2096921,164144,703291
2096921,2096921,164321,703384
2096921,2096921,164552,703365
2096921,2096921,163997,702638
2096921,2096921,163928,702816
2096921,2096921,163908,702105
2096921,2096921,163858,702144
2096921,2096921,163775,702406
2096921,2096921,163234,701428
2096921,2096921,163497,700343
2096921,2096921,163306,700661
2096921,2096921,163227,700409
2096921,2096921,163258,700546
2096921,2096921,162465,698677
2096921,2096921,162409,698027
2096921,2096921,162273,697919
2096921,2096921,161952,697801
2096921,2096921,162030,697816
2096921,2096921,161443,696550
2096921,2096921,161556,695728
2096921,2096921,161553,696156
2096921,2096921,161314,696226
2096921,2096921,161330,696105
2096921,2096921,161264,694890
2096921,2096921,161058,694530
2096921,2096921,161006,694418
2096921,2096921,160903,694552
2096921,2096921,160851,694634
2096921,2096921,160598,693910
2096921,2096921,160253,693813
2096921,2096921,160649,693501
2096921,2096921,160577,693439
2096921,2096921,160602,693207
2096921,2096921,160161,693067
2096921,2096921,160032,693001
2096921,2096921,160276,692712
2096921,2096921,160101,692682
2096921,2096921,160109,692431
2096921,2096921,160159,692476
2096921,2096921,160040,692092
2096921,2096921,159993,691722
2096921,2096921,159916,692050
2096921,2096921,159929,691960
2096921,2096921,159927,691880
2096921,2096921,160010,691731
2096921,2096921,159771,691732
2096921,2096921,159853,691882
2096921,2096921,159893,691639
2096921,2096921,159892,691748
2096921,2096921,159485,691546
2096921,2096921,159964,691767
2096921,2096921,159988,691503
2096921,2096921,159742,691462
2096921,2096921,159733,691755
2096921,2096921,159676,691699
2096921,2096921,159845,691906
2096921,2096921,159790,691853
2096921,2096921,159811,691877
2096921,2096921,159783,691828
2096921,2096921,160228,691770
2096921,2096921,159633,691986
2096921,2096921,159627,692034
2096921,2096921,160002,691769
2096921,2096921,159943,691665
2096921,2096921,159794,691942
2096921,2096921,159629,692277
2096921,2096921,160103,692291
2096921,2096921,159903,691894
2096921,2096921,160128,691874
2096921,2096921,159903,692215
2096921,2096921,160030,692118
2096921,2096921,160093,692295
2096921,2096921,160187,692213
2096921,2096921,160047,692549
2096921,2096921,160257,692619
2096921,2096921,160192,692625
2096921,2096921,160136,692166
2096921,2096921,160257,692328
2096921,2096921,160207,692677
2096921,2096921,160104,692746
2096921,2096921,160407,692896
2096921,2096921,160378,692981
2096921,2096921,160153,693343
2096921,2096921,160287,693809
2096921,2096921,160453,693429
2096921,2096921,160481,693438
2096921,2096921,160888,693698
2096921,2096921,160558,693388
2096921,2096921,160820,693527
2096921,2096921,160893,693612
2096921,2096921,160530,693819
2096921,2096921,160714,693944
2096921,2096921,160766,694009
2096921,2096921,160925,694233
2096921,2096921,160989,694404
2096921,2096921,161110,694566
2096921,2096921,160777,694266
2096921,2096921,161085,694531
2096921,2096921,161030,694445
2096921,2096921,161153,694688
2096921,2096921,160996,694862
2096921,2096921,161150,694868
2096921,2096921,161138,694632
2096921,2096921,160874,695228
2096921,2096921,161268,695428
2096921,2096921,161219,695062
2096921,2096921,161168,695139
2096921,2096921,161085,695333
2096921,2096921,160985,695596
2096921,2096921,161286,695635
2096921,2096921,161348,695559
2096921,2096921,161362,695677
2096921,2096921,161209,695664
2096921,2096921,161568,695723
2096921,2096921,161484,695813
2096921,2096921,161405,695782
2096921,2096921,161630,696030
2096921,2096921,161348,696281
2096921,2096921,161416,696169
2096921,2096921,161762,696647
2096921,2096921,161496,696077
2096921,2096921,161388,696294
2096921,2096921,161613,696733
2096921,2096921,161807,696692
2096921,2096921,161809,696708
2096921,2096921,161676,697185
2096921,2096921,161868,697350
2096921,2096921,161509,697065
2096921,2096921,161809,697147
2096921,2096921,161999,697291
2096921,2096921,161763,697478
2096921,2096921,162064,697356
2096921,2096921,162272,697319
2096921,2096921,162085,697424
2096921,2096921,161859,697670
2096921,2096921,162056,697768
2096921,2096921,162324,697429
2096921,2096921,162035,697685
2096921,2096921,161951,697976
2096921,2096921,162100,697977
2096921,2096921,162373,698053
2096921,2096921,162064,697926
2096921,2096921,161980,698002
2096921,2096921,162137,698316
2096921,2096921,162062,698362
2096921,2096921,162529,698102
2096921,2096921,162459,698406
2096921,2096921,162615,698324
2096921,2096921,162476,698181
2096921,2096921,162422,698481
2096921,2096921,162537,698459
2096921,2096921,162117,698295
2096921,2096921,162360,698378
2096921,2096921,162521,698665
2096921,2096921,162552,698430
2096921,2096921,162428,698651
2096921,2096921,162424,698599
2096921,2096921,162454,698595
2096921,2096921,162510,698620
2096921,2096921,162645,698850
2096921,2096921,162542,698633
2096921,2096921,162426,698626
2096921,2096921,162701,698536
2096921,2096921,162517,698467
2096921,2096921,162784,698462
2096921,2096921,162572,698694
2096921,2096921,162584,698730
2096921,2096921,162657,698368
2096921,2096921,162719,698312
2096921,2096921,162429,698610
2096921,2096921,162234,698711
2096921,2096921,162379,698733
2096921,2096921,162264,698487
2096921,2096921,162521,698159
2096921,2096921,162529,698432
2096921,2096921,162359,698453
2096921,2096921,162437,698417
2096921,2096921,162506,698448
2096921,2096921,162443,698513
2096921,2096921,162326,698369
2096921,2096921,162335,698158
2096921,2096921,162244,698174
2096921,2096921,162474,698090
2096921,2096921,162324,698223
2096921,2096921,162562,698317
2096921,2096921,162804,698166
2096921,2096921,162324,698099
2096921,2096921,162371,698143
2096921,2096921,162165,698105
2096921,2096921,162298,697972
2096921,2096921,161941,697993
2096921,2096921,162148,698184
2096921,2096921,162359,698117
2096921,2096921,162202,697964
2096921,2096921,162064,698089
2096921,2096921,162170,698055
2096921,2096921,162093,698032
2096921,2096921,162162,698200
2096921,2096921,162279,697866
2096921,2096921,161948,697846
2096921,2096921,162227,698116
2096921,2096921,162291,697943
2096921,2096921,162107,697852
2096921,2096921,162481,697770
2096921,2096921,162076,697867
2096921,2096921,162273,698167
2096921,2096921,162375,698087
2096921,2096921,162291,698055
2096921,2096921,162342,698316
2096921,2096921,162093,698021
2096921,2096921,162334,698377
2096921,2096921,162158,698166
2096921,2096921,162060,698278
2096921,2096921,162070,698386
2096921,2096921,162189,698551
2096921,2096921,162444,698207
2096921,2096921,162547,698088
2096921,2096921,162457,698331
2096921,2096921,162286,698612
2096921,2096921,162564,698562
2096921,2096921,162755,698304
2096921,2096921,162701,698581
2096921,2096921,162286,698409
2096921,2096921,162701,698762
2096921,2096921,162664,698698
2096921,2096921,162973,699048
2096921,2096921,162564,699214
2096921,2096921,162700,699178
2096921,2096921,162823,699314
2096921,2096921,162739,699456
2096921,2096921,162627,699473
2096921,2096921,162816,699412
2096921,2096921,162924,699292
2096921,2096921,162697,699553
2096921,2096921,162705,699773
2096921,2096921,162971,699924
2096921,2096921,162955,699874
2096921,2096921,163059,699954
2096921,2096921,162947,700216
2096921,2096921,162797,699993
2096921,2096921,162720,700257
2096921,2096921,162914,700080
2096921,2096921,162920,700119
2096921,2096921,162802,700358
2096921,2096921,163117,700178
2096921,2096921,163030,700494
2096921,2096921,163020,700123
2096921,2096921,163033,700303
2096921,2096921,162862,700445
2096921,2096921,163088,700314
2096921,2096921,163250,700356
2096921,2096921,163342,700548
2096921,2096921,163238,700589
2096921,2096921,163301,700493
2096921,2096921,163265,700637
2096921,2096921,163029,700702
2096921,2096921,163351,701051
2096921,2096921,163157,700873
2096921,2096921,163309,700924
2096921,2096921,163282,700869
2096921,2096921,163168,700979
2096921,2096921,163511,701055
2096921,2096921,163555,701253
2096921,2096921,163464,701152
2096921,2096921,163421,701230
2096921,2096921,163553,701422
2096921,2096921,163622,701290
2096921,2096921,163501,701174
2096921,2096921,163469,701213
2096921,2096921,163665,701657
2096921,2096921,163554,701575
2096921,2096921,163532,701586
2096921,2096921,163694,701629
2096921,2096921,163639,702072
2096921,2096921,163797,701966
2096921,2096921,163858,701686
2096921,2096921,163876,701865
2096921,2096921,163726,702145
2096921,2096921,163410,702071
2096921,2096921,163330,702311
2096921,2096921,163475,702099
2096921,2096921,163675,702116
2096921,2096921,163905,702399
2096921,2096921,163872,702535
2096921,2096921,163964,702538
2096921,2096921,163634,702575
2096921,2096921,163842,702229
2096921,2096921,164124,702368
2096921,2096921,163838,702593
2096921,2096921,163568,702454
2096921,2096921,163991,702612
2096921,2096921,164018,702612
2096921,2096921,164141,702796
2096921,2096921,164170,702815
2096921,2096921,163900,703357
2096921,2096921,164099,703198
2096921,2096921,164067,703369
2096921,2096921,164241,703295
2096921,2096921,164136,703368
2096921,2096921,164100,703748
2096921,2096921,164265,703405
2096921,2096921,164446,703236
2096921,2096921,164219,703431
2096921,2096921,163839,703540
2096921,2096921,164272,703244
2096921,2096921,164263,703455
2096921,2096921,164055,703783
2096921,2096921,164022,703791
2096921,2096921,164205,703497
2096921,2096921,164465,703406
2096921,2096921,164212,703528
2096921,2096921,164272,703702
2096921,2096921,164409,703730
2096921,2096921,164599,704155
2096921,2096921,164633,703999
2096921,2096921,164286,703896
2096921,2096921,164175,704105
2096921,2096921,164434,704059
2096921,2096921,164467,704006
2096921,2096921,164236,704142
2096921,2096921,164398,704259
2096921,2096921,164232,704319
2096921,2096921,164567,704074
2096921,2096921,164698,704251
2096921,2096921,164592,704508
2096921,2096921,164503,704690
2096921,2096921,164841,704631
2096921,2096921,164489,704720
2096921,2096921,164480,704579
2096921,2096921,164461,705080
2096921,2096921,164529,704965
2096921,2096921,164697,704810
2096921,2096921,164519,704700
2096921,2096921,164603,704855
2096921,2096921,164879,705033
2096921,2096921,164845,705071
2096921,2096921,164746,705082
2096921,2096921,164781,704952
2096921,2096921,164606,705056
2096921,2096921,164554,705141
2096921,2096921,164696,705088
2096921,2096921,164774,705023
2096921,2096921,164725,705070
2096921,2096921,164812,705313
2096921,2096921,165057,705519
2096921,2096921,164897,705427
2096921,2096921,164799,705477
2096921,2096921,164829,705212
2096921,2096921,164958,705559
2096921,2096921,165052,705753
2096921,2096921,164629,705729
2096921,2096921,164837,705592
2096921,2096921,165226,705210
2096921,2096921,164756,705782
2096921,2096921,165155,705615
2096921,2096921,165038,705837
2096921,2096921,165065,705810
2096921,2096921,164927,705480
2096921,2096921,164956,705850
2096921,2096921,165084,706027
2096921,2096921,165048,705792
2096921,2096921,165019,705924
2096921,2096921,165053,706197
2096921,2096921,164797,706355
2096921,2096921,164731,705990
2096921,2096921,164938,705886
2096921,2096921,164952,705923
2096921,2096921,164946,705900
2096921,2096921,165162,706221
2096921,2096921,165278,706218
2096921,2096921,165274,706446
2096921,2096921,165214,706395
2096921,2096921,165470,706007
2096921,2096921,165364,706264
2096921,2096921,164950,706279
2096921,2096921,165188,706589
2096921,2096921,165113,706565
2096921,2096921,165391,706616
2096921,2096921,165579,706404
2096921,2096921,165218,706462
2096921,2096921,165183,706582
2096921,2096921,165125,706343
2096921,2096921,165203,706793
2096921,2096921,165209,706933
2096921,2096921,165149,706908
2096921,2096921,165555,706806
2096921,2096921,165357,707139
2096921,2096921,165125,706730
2096921,2096921,165074,706738
2096921,2096921,165279,706833
2096921,2096921,165267,706733
2096921,2096921,165299,706788
2096921,2096921,165233,706922
2096921,2096921,165500,707194
2096921,2096921,165733,706970
2096921,2096921,165630,707076
2096921,2096921,165500,707521
2096921,2096921,165537,707453
2096921,2096921,165031,707253
2096921,2096921,165417,707549
2096921,2096921,165369,707221
2096921,2096921,165663,707456
2096921,2096921,165537,707166
2096921,2096921,165350,707526
2096921,2096921,165384,707423
2096921,2096921,165417,707577
2096921,2096921,165728,707566
2096921,2096921,165363,707261
2096921,2096921,165563,707399
2096921,2096921,165495,707485
2096921,2096921,165428,707587
2096921,2096921,165696,707812
2096921,2096921,165679,707547
2096921,2096921,165496,707903
2096921,2096921,165820,707936
2096921,2096921,165764,707626
2096921,2096921,165749,707865
2096921,2096921,165509,707885
2096921,2096921,165650,707839
2096921,2096921,165809,707797
2096921,2096921,165657,707737
2096921,2096921,165728,707716
2096921,2096921,165763,708116
2096921,2096921,165960,708216
2096921,2096921,165854,708129
2096921,2096921,165703,708182
2096921,2096921,165677,707986
2096921,2096921,165723,707795
2096921,2096921,165589,707963
2096921,2096921,165770,708201
2096921,2096921,165483,708354
2096921,2096921,165630,707969
2096921,2096921,165740,708205
2096921,2096921,165671,708463
2096921,2096921,165979,708343
2096921,2096921,165908,708455
2096921,2096921,165847,708170
2096921,2096921,165819,708489
2096921,2096921,165970,708225
2096921,2096921,165918,708220
2096921,2096921,165645,708373
2096921,2096921,165828,708563
2096921,2096921,165786,708525
2096921,2096921,165826,708497
2096921,2096921,166050,708093
2096921,2096921,165896,708320
2096921,2096921,165962,708708
2096921,2096921,165836,708398
2096921,2096921,165903,708633
2096921,2096921,165741,708374
2096921,2096921,166018,708606
2096921,2096921,165855,708537
2096921,2096921,166066,708275
2096921,2096921,166007,708498
2096921,2096921,166027,708983
2096921,2096921,165985,708868
2096921,2096921,165913,708649
2096921,2096921,165977,708496
2096921,2096921,166374,708940
2096921,2096921,166063,708593
2096921,2096921,166063,708526
2096921,2096921,165886,708764
2096921,2096921,165912,709073
2096921,2096921,165740,708978
2096921,2096921,166028,708985
2096921,2096921,165830,708813
2096921,2096921,165825,708882
2096921,2096921,165904,708842
2096921,2096921,165963,708822
2096921,2096921,165837,708781
2096921,2096921,165987,708969
2096921,2096921,165909,709002
2096921,2096921,165799,708743
2096921,2096921,166288,708988
2096921,2096921,166141,709092
2096921,2096921,166001,709456
2096921,2096921,166220,709128
2096921,2096921,165858,709206
2096921,2096921,165956,708915
2096921,2096921,165985,708927
2096921,2096921,166059,709149
2096921,2096921,165822,709213
2096921,2096921,165881,709071
2096921,2096921,166071,708882
2096921,2096921,165956,708830
2096921,2096921,165673,708753
2096921,2096921,165755,709043
2096921,2096921,165645,708780
2096921,2096921,165628,708322
2096921,2096921,165811,708534
2096921,2096921,165956,708610
2096921,2096921,165550,708401
2096921,2096921,165763,708342
2096921,2096921,165713,708076
2096921,2096921,165523,707912
2096921,2096921,165028,707833
2096921,2096921,165430,708008
2096921,2096921,165525,707755
2096921,2096921,165096,707304
2096921,2096921,165110,707147
2096921,2096921,165296,707437
2096921,2096921,165316,707182
2096921,2096921,165100,707253
2096921,2096921,165057,706461
2096921,2096921,165006,706548
2096921,2096921,165149,706277
2096921,2096921,164707,706614
2096921,2096921,164971,706400
2096921,2096921,163977,704848
2096921,2096921,164090,704313
2096921,2096921,164057,704209
2096921,2096921,163954,704021
2096921,2096921,164186,704272
2096921,2096921,163261,702654
2096921,2096921,163126,701819
2096921,2096921,163101,701941
2096921,2096921,163120,701810
2096921,2096921,163120,701826
2096921,2096921,162612,700473
2096921,2096921,162636,700142
2096921,2096921,162530,700004
2096921,2096921,162230,700075
2096921,2096921,162588,700148
2096921,2096921,161999,699227
2096921,2096921,162001,698780
2096921,2096921,161815,698990
2096921,2096921,161801,698509
2096921,2096921,161611,698442
2096921,2096921,161456,697936
2096921,2096921,161473,697931
2096921,2096921,161392,697459
2096921,2096921,161552,697864
2096921,2096921,161727,697533
2096921,2096921,161258,696954
2096921,2096921,161040,696906
2096921,2096921,160964,697222
2096921,2096921,161092,697052
2096921,2096921,161098,697020
2096921,2096921,161046,696751
2096921,2096921,161107,696450
2096921,2096921,161070,696416
2096921,2096921,160933,696601
2096921,2096921,160971,696706
2096921,2096921,160980,696214
2096921,2096921,160678,695934
2096921,2096921,160730,695954
2096921,2096921,160597,696526
2096921,2096921,160861,696320
2096921,2096921,160956,696221
2096921,2096921,160891,696164
2096921,2096921,160720,696087
2096921,2096921,161165,696263
2096921,2096921,161020,696359
2096921,2096921,161260,696246
2096921,2096921,161032,696453
2096921,2096921,161317,696081
2096921,2096921,161128,696272
2096921,2096921,161045,696261
2096921,2096921,160866,696210
2096921,2096921,161009,696397
2096921,2096921,160964,696522
2096921,2096921,161361,696371
2096921,2096921,161320,696566
2096921,2096921,161181,696518
2096921,2096921,161229,696579
2096921,2096921,161119,696742
2096921,2096921,161049,696505
2096921,2096921,161038,696754
2096921,2096921,161091,696707
2096921,2096921,161064,696966
2096921,2096921,161227,696832
2096921,2096921,161027,696895
2096921,2096921,161314,696956
2096921,2096921,161472,697763
2096921,2096921,161598,697694
2096921,2096921,161625,697658
2096921,2096921,161560,697607
2096921,2096921,161082,697463
2096921,2096921,161714,697887
2096921,2096921,161647,698080
2096921,2096921,161426,698208
2096921,2096921,161503,697916
2096921,2096921,161847,697986
2096921,2096921,161823,698436
2096921,2096921,161919,698677
2096921,2096921,161799,698447
2096921,2096921,162260,698214
2096921,2096921,161769,698453
2096921,2096921,161628,699033
2096921,2096921,161966,698740
2096921,2096921,161877,698983
2096921,2096921,161958,699119
2096921,2096921,161999,699294
2096921,2096921,162353,699534
2096921,2096921,162264,699609
2096921,2096921,162413,699666
2096921,2096921,162247,699387
2096921,2096921,162153,699621
2096921,2096921,162456,700200
2096921,2096921,162592,699745
2096921,2096921,162116,700000
2096921,2096921,162102,699946
2096921,2096921,162225,699998
2096921,2096921,162275,700523
2096921,2096921,162321,700355
2096921,2096921,162287,700500
2096921,2096921,162477,700953
2096921,2096921,162732,700542
2096921,2096921,162780,700648
2096921,2096921,162674,700725
2096921,2096921,162663,701112
2096921,2096921,162677,701047
2096921,2096921,162580,700815
2096921,2096921,162647,700876
2096921,2096921,162781,701562
2096921,2096921,162760,701377
2096921,2096921,162994,701478
2096921,2096921,162594,701474
2096921,2096921,162793,701823
2096921,2096921,162892,702159
2096921,2096921,163124,702062
2096921,2096921,162867,702178
2096921,2096921,163258,702332
2096921,2096921,163316,702117
2096921,2096921,163090,702656
2096921,2096921,163222,702916
2096921,2096921,163039,702573
2096921,2096921,162961,702385
2096921,2096921,163284,703067
2096921,2096921,163180,702851
2096921,2096921,163341,703171
2096921,2096921,163452,703209
2096921,2096921,163366,703290
2096921,2096921,163637,703543
2096921,2096921,163583,703362
2096921,2096921,163621,703592
2096921,2096921,163513,703648
2096921,2096921,163452,703773
2096921,2096921,163779,703921
2096921,2096921,163711,704468
2096921,2096921,163800,704049
2096921,2096921,163722,703951
2096921,2096921,163516,704001
2096921,2096921,163812,704601
2096921,2096921,163899,704497
2096921,2096921,164207,704610
2096921,2096921,163903,704336
2096921,2096921,163796,704484
2096921,2096921,163939,704653
2096921,2096921,164058,704367
2096921,2096921,163996,704926
2096921,2096921,163925,704630
2096921,2096921,163988,704795
2096921,2096921,163830,705061
2096921,2096921,163909,704733
2096921,2096921,163829,705023
2096921,2096921,163983,704918
2096921,2096921,164111,704832
2096921,2096921,163837,704534
2096921,2096921,163893,704995
2096921,2096921,163991,704766
2096921,2096921,164297,704801
2096921,2096921,163936,705174
2096921,2096921,163879,705074
2096921,2096921,163773,704939
2096921,2096921,163775,704796
2096921,2096921,163998,704937
2096921,2096921,163891,704809
2096921,2096921,164000,704982
2096921,2096921,164017,705063
2096921,2096921,164274,704943
2096921,2096921,164216,704776
2096921,2096921,164017,705194
2096921,2096921,164170,704975
2096921,2096921,163985,705078
2096921,2096921,163934,704671
2096921,2096921,163827,704896
2096921,2096921,163949,704894
2096921,2096921,163873,704701
2096921,2096921,163824,704690
2096921,2096921,163964,704493
2096921,2096921,163806,704734
2096921,2096921,163940,704875
2096921,2096921,163659,704774
2096921,2096921,163658,704698
2096921,2096921,164017,704624
2096921,2096921,163869,704565
2096921,2096921,163770,704570
2096921,2096921,163993,704575
2096921,2096921,164080,704738
2096921,2096921,163945,704683
2096921,2096921,163807,704387
2096921,2096921,163825,704459
2096921,2096921,163723,704695
2096921,2096921,163818,704888
2096921,2096921,163832,704471
2096921,2096921,164056,704344
2096921,2096921,163767,704636
2096921,2096921,164017,704727
2096921,2096921,163893,704529
2096921,2096921,164104,704736
2096921,2096921,164127,704447
2096921,2096921,164133,704728
2096921,2096921,163971,704817
2096921,2096921,163700,704620
2096921,2096921,163717,704744
2096921,2096921,163748,704746
2096921,2096921,163736,704499
2096921,2096921,163746,704508
2096921,2096921,163760,705031
2096921,2096921,163767,704766
2096921,2096921,163927,704831
2096921,2096921,163887,705014
2096921,2096921,163964,704911
2096921,2096921,163890,705044
2096921,2096921,163984,705071
2096921,2096921,163916,704945
2096921,2096921,164002,704813
2096921,2096921,163784,705204
2096921,2096921,163812,705372
2096921,2096921,163864,705523
2096921,2096921,164077,705258
2096921,2096921,163892,705375
2096921,2096921,164175,705610
2096921,2096921,164406,706013
2096921,2096921,164357,705946
2096921,2096921,164013,705470
2096921,2096921,164436,705843
2096921,2096921,164424,705964
2096921,2096921,164218,706074
2096921,2096921,164186,706078
2096921,2096921,164312,706035
2096921,2096921,164381,705847
2096921,2096921,164420,706349
2096921,2096921,164733,706321
2096921,2096921,164691,706679
2096921,2096921,164637,706598
2096921,2096921,164567,706581
2096921,2096921,164525,706788
2096921,2096921,164339,706756
2096921,2096921,164707,706833
2096921,2096921,164598,706429
2096921,2096921,164550,706520
2096921,2096921,164757,706732
2096921,2096921,164753,706870
2096921,2096921,164888,706936
2096921,2096921,164681,707009
2096921,2096921,164814,706512
2096921,2096921,164920,707168
2096921,2096921,164837,707238
2096921,2096921,164680,707166
2096921,2096921,164699,707234
2096921,2096921,164910,707506
2096921,2096921,164906,707054
2096921,2096921,165081,707432
2096921,2096921,165097,707536
2096921,2096921,164938,707282
2096921,2096921,164946,707711
2096921,2096921,164939,707659
2096921,2096921,165172,708120
2096921,2096921,164685,708090
2096921,2096921,164998,707595
2096921,2096921,165075,707826
2096921,2096921,165064,708152
2096921,2096921,165195,708221
2096921,2096921,164837,708116
2096921,2096921,164971,708031
2096921,2096921,165298,708133
2096921,2096921,165153,708186
2096921,2096921,164895,708401
2096921,2096921,165326,708192
2096921,2096921,165096,708283
2096921,2096921,165092,708500
2096921,2096921,165329,708740
2096921,2096921,165572,708619
2096921,2096921,165514,708653
2096921,2096921,165464,708754
2096921,2096921,165349,708683
2096921,2096921,165302,709120
2096921,2096921,165345,708915
2096921,2096921,165230,708837
2096921,2096921,165386,709144
2096921,2096921,165597,708879
2096921,2096921,165613,709221
2096921,2096921,165951,709144
2096921,2096921,165618,709207
2096921,2096921,165472,709328
2096921,2096921,165492,709058
2096921,2096921,165446,709301
2096921,2096921,165537,709206
2096921,2096921,165708,709106
2096921,2096921,165443,709011
2096921,2096921,165413,709186
2096921,2096921,165476,709737
2096921,2096921,165528,709774
2096921,2096921,165616,709653
2096921,2096921,165704,709762
2096921,2096921,165662,709501
2096921,2096921,165739,709625
2096921,2096921,165584,709877
2096921,2096921,165476,709597
2096921,2096921,165731,710022
2096921,2096921,165723,709883
2096921,2096921,165802,710148
2096921,2096921,165707,710401
2096921,2096921,165940,710134
2096921,2096921,165561,710201
2096921,2096921,165586,710163
2096921,2096921,165999,710235
2096921,2096921,165870,710186
2096921,2096921,165735,710049
2096921,2096921,165745,710152
2096921,2096921,165933,710151
2096921,2096921,165745,710670
2096921,2096921,165790,710202
2096921,2096921,166229,710289
2096921,2096921,166029,710248
2096921,2096921,165876,710200
2096921,2096921,166045,710757
2096921,2096921,165827,710369
2096921,2096921,166061,710389
2096921,2096921,165887,710204
2096921,2096921,165961,710435
2096921,2096921,166206,710592
2096921,2096921,166014,710485
2096921,2096921,166120,710646
2096921,2096921,166224,710706
2096921,2096921,166055,710665
2096921,2096921,166130,710886
2096921,2096921,165933,710934
2096921,2096921,166036,711000
2096921,2096921,166088,710883
2096921,2096921,166242,711383
2096921,2096921,166581,711170
2096921,2096921,166190,711110
2096921,2096921,166330,710972
2096921,2096921,166111,711096
2096921,2096921,166184,711063
2096921,2096921,165957,711115
2096921,2096921,166203,711058
2096921,2096921,165925,711260
2096921,2096921,166127,711212
2096921,2096921,166349,711152
2096921,2096921,166384,711314
2096921,2096921,166269,711490
2096921,2096921,166545,711384
2096921,2096921,166462,711330
2096921,2096921,166385,711352
2096921,2096921,166368,711379
2096921,2096921,166480,711375
2096921,2096921,166368,711207
2096921,2096921,166283,711487
2096921,2096921,166186,711296
2096921,2096921,166480,711728
2096921,2096921,166393,711514
2096921,2096921,166323,711549
2096921,2096921,166149,711693
2096921,2096921,166499,711514
2096921,2096921,166581,711464
2096921,2096921,166345,711473
2096921,2096921,166079,711598
2096921,2096921,166277,711485
2096921,2096921,166547,711308
2096921,2096921,166588,711518
2096921,2096921,166731,711729
2096921,2096921,166555,711631
2096921,2096921,166429,711906
2096921,2096921,166297,711551
2096921,2096921,166585,711886
2096921,2096921,166608,711746
2096921,2096921,166379,711642
2096921,2096921,166531,711758
2096921,2096921,166671,711808
2096921,2096921,166506,711839
2096921,2096921,166537,711800
2096921,2096921,166701,711934
2096921,2096921,166413,711943
2096921,2096921,166331,711882
2096921,2096921,166577,711769
2096921,2096921,166405,711736
2096921,2096921,166349,712114
2096921,2096921,166656,711689
2096921,2096921,166643,711837
2096921,2096921,166669,711894
2096921,2096921,166549,712079
2096921,2096921,166795,712109
2096921,2096921,166676,711966
2096921,2096921,166574,712142
2096921,2096921,166547,712095
2096921,2096921,166480,711990
2096921,2096921,166552,712096
2096921,2096921,166658,711953
2096921,2096921,166744,712216
2096921,2096921,166899,712615
2096921,2096921,167061,712596
2096921,2096921,166636,712355
2096921,2096921,166931,712020
2096921,2096921,166923,712347
2096921,2096921,166669,712139
2096921,2096921,166829,712346
2096921,2096921,166752,712295
2096921,2096921,166535,712159
2096921,2096921,166833,712271
2096921,2096921,166653,712548
2096921,2096921,166847,712475
2096921,2096921,166657,712535
2096921,2096921,166587,712543
2096921,2096921,166807,711996
2096921,2096921,166672,712360
2096921,2096921,166635,712318
2096921,2096921,166646,712636
2096921,2096921,166690,712353
2096921,2096921,166659,712607
2096921,2096921,166557,712539
2096921,2096921,166833,712525
2096921,2096921,166914,712342
2096921,2096921,166837,712564
2096921,2096921,166684,712552
2096921,2096921,166752,712738
2096921,2096921,166923,712472
2096921,2096921,166508,712644
2096921,2096921,166518,712605
2096921,2096921,167002,712506
2096921,2096921,166756,712765
2096921,2096921,166820,712640
2096921,2096921,166913,712746
2096921,2096921,167071,712804
2096921,2096921,166939,712745
2096921,2096921,166787,712548
2096921,2096921,166866,712912
2096921,2096921,166666,712976
2096921,2096921,166670,712709
2096921,2096921,166954,712474
2096921,2096921,166998,712693
2096921,2096921,166946,712522
2096921,2096921,167227,712824
2096921,2096921,166732,712718
2096921,2096921,166483,713048
2096921,2096921,166760,712831
2096921,2096921,166601,712588
2096921,2096921,166874,712542
2096921,2096921,166768,712653
2096921,2096921,166958,712838
2096921,2096921,166964,712788
2096921,2096921,167047,712709
2096921,2096921,167051,712980
2096921,2096921,167001,713099
2096921,2096921,166732,712615
2096921,2096921,166764,712759
2096921,2096921,166828,712619
2096921,2096921,166988,712615
2096921,2096921,167064,712798
2096921,2096921,167167,712863
2096921,2096921,166805,712685
2096921,2096921,167098,712877
2096921,2096921,167207,712618
2096921,2096921,166731,713026
2096921,2096921,166573,712738
2096921,2096921,166981,712681
2096921,2096921,166934,712868
2096921,2096921,166913,712724
2096921,2096921,166930,712783
2096921,2096921,166886,712709
2096921,2096921,167146,712792
2096921,2096921,166761,712881
2096921,2096921,166858,712743
2096921,2096921,167039,712800
2096921,2096921,166996,712577
2096921,2096921,166812,712797
2096921,2096921,166713,712583
2096921,2096921,166772,712450
2096921,2096921,166857,712356
2096921,2096921,166740,712466
2096921,2096921,167085,712718
2096921,2096921,166884,712653
2096921,2096921,166685,712693
2096921,2096921,167005,712556
2096921,2096921,166748,712579
2096921,2096921,166411,712607
2096921,2096921,166783,712548
2096921,2096921,166954,712521
2096921,2096921,166657,712929
2096921,2096921,166740,712524
2096921,2096921,166832,712554
2096921,2096921,166789,712318
2096921,2096921,166606,712200
2096921,2096921,166764,712209
2096921,2096921,166496,712091
2096921,2096921,166363,711750
2096921,2096921,166178,711734
2096921,2096921,166062,711854
2096921,2096921,166300,711632
2096921,2096921,166624,711757
2096921,2096921,166296,711391
2096921,2096921,166451,711442
2096921,2096921,166505,711227
2096921,2096921,166211,711276
2096921,2096921,166186,711120
2096921,2096921,166165,710370
2096921,2096921,166094,710221
2096921,2096921,166004,710330
2096921,2096921,165717,710165
2096921,2096921,165753,710544
2096921,2096921,165841,709519
2096921,2096921,165447,709259
2096921,2096921,165578,709070
2096921,2096921,165769,709524
2096921,2096921,165785,709436
2096921,2096921,165072,707760
2096921,2096921,164807,707234
2096921,2096921,164878,707422
2096921,2096921,164730,707390
2096921,2096921,164675,706907
2096921,2096921,163842,705506
2096921,2096921,163793,704844
2096921,2096921,163873,704614
2096921,2096921,164024,704456
2096921,2096921,163870,704503
2096921,2096921,163041,702977
2096921,2096921,163237,702821
2096921,2096921,162931,702795
2096921,2096921,162798,702963
2096921,2096921,163034,702662
2096921,2096921,162530,701577
2096921,2096921,162806,701323
2096921,2096921,162501,701268
2096921,2096921,162589,700800
2096921,2096921,162440,701270
2096921,2096921,162288,700145
2096921,2096921,162242,700028
2096921,2096921,162431,699788
2096921,2096921,162008,699890
2096921,2096921,162256,700062
2096921,2096921,162030,699551
2096921,2096921,162053,699440
2096921,2096921,161621,699364
2096921,2096921,161872,699665
2096921,2096921,161308,699311
2096921,2096921,161568,698753
2096921,2096921,161624,698296
2096921,2096921,161845,698545
2096921,2096921,161686,698368
2096921,2096921,161746,698881
2096921,2096921,161583,698328
2096921,2096921,161390,698285
2096921,2096921,161279,698570
2096921,2096921,161240,698215
2096921,2096921,161603,698404
2096921,2096921,161316,698144
2096921,2096921,161193,698143
2096921,2096921,161262,698160
2096921,2096921,161401,698003
2096921,2096921,161207,698071
2096921,2096921,161286,698015
2096921,2096921,161315,697967
2096921,2096921,161422,698106
2096921,2096921,161438,698135
2096921,2096921,161182,698238
2096921,2096921,161181,698164
2096921,2096921,161418,698275
2096921,2096921,161494,698296
2096921,2096921,161403,698214
2096921,2096921,161303,698273
2096921,2096921,161411,698256
2096921,2096921,161725,698124
2096921,2096921,161639,698167
2096921,2096921,161694,698337
2096921,2096921,161692,698191
2096921,2096921,161581,698147
2096921,2096921,161690,698159
2096921,2096921,161348,698934
2096921,2096921,161423,698654
2096921,2096921,161852,698338
2096921,2096921,161722,698757
2096921,2096921,161789,698496
2096921,2096921,161693,698664
2096921,2096921,161923,698799
2096921,2096921,161845,698801
2096921,2096921,161830,699010
2096921,2096921,161732,698811
2096921,2096921,161875,699096
2096921,2096921,161859,699054
2096921,2096921,161789,699379
2096921,2096921,162302,699628
2096921,2096921,161963,699654
2096921,2096921,161694,699518
2096921,2096921,161618,699819
2096921,2096921,161724,699911
2096921,2096921,161910,699677
2096921,2096921,162425,699894
2096921,2096921,162120,699866
2096921,2096921,162268,699735
2096921,2096921,162152,699933
2096921,2096921,162326,700171
2096921,2096921,162149,700170
2096921,2096921,162421,700313
2096921,2096921,162283,700298
2096921,2096921,162324,700272
2096921,2096921,162101,700272
2096921,2096921,162171,700662
2096921,2096921,162316,700348
2096921,2096921,162184,700648
2096921,2096921,162389,700625
2096921,2096921,162422,700648
2096921,2096921,162284,700877
2096921,2096921,162551,701155
2096921,2096921,162884,700844
2096921,2096921,162423,700757
2096921,2096921,162260,701398
2096921,2096921,162540,701223
2096921,2096921,162637,701042
2096921,2096921,162774,701078
2096921,2096921,162803,701351
2096921,2096921,162900,701753
2096921,2096921,162986,701512
2096921,2096921,162734,701879
2096921,2096921,162765,701898
2096921,2096921,162839,701706
2096921,2096921,163086,702074
2096921,2096921,163069,702185
2096921,2096921,162994,702260
2096921,2096921,163221,702127
2096921,2096921,163255,702054
2096921,2096921,163034,702227
2096921,2096921,163264,702565
2096921,2096921,163165,702772
2096921,2096921,163306,702504
2096921,2096921,163495,702284
2096921,2096921,163248,702600
2096921,2096921,163264,702814
2096921,2096921,163221,702914
2096921,2096921,163632,702863
2096921,2096921,163308,702937
2096921,2096921,163154,703257
2096921,2096921,163592,703072
2096921,2096921,163464,703245
2096921,2096921,163329,703177
2096921,2096921,163158,703185
2096921,2096921,163648,703223
2096921,2096921,163630,703309
2096921,2096921,163470,703431
2096921,2096921,163490,703463
2096921,2096921,163481,703357
2096921,2096921,163593,703609
2096921,2096921,163699,703464
2096921,2096921,163651,703795
2096921,2096921,163712,703580
2096921,2096921,163703,703506
2096921,2096921,163873,703604
2096921,2096921,163669,703587
2096921,2096921,163663,703590
2096921,2096921,163739,703540
2096921,2096921,163846,703920
2096921,2096921,163852,703749
2096921,2096921,163680,703838
2096921,2096921,163749,703748
2096921,2096921,163649,703722
2096921,2096921,163714,703723
2096921,2096921,163832,703583
2096921,2096921,163579,703373
2096921,2096921,163695,703711
2096921,2096921,163599,703689
2096921,2096921,163438,703559
2096921,2096921,163677,703722
2096921,2096921,163648,703460
2096921,2096921,163881,703350
2096921,2096921,163522,703528
2096921,2096921,163882,703978
2096921,2096921,163585,703140
2096921,2096921,163699,703100
2096921,2096921,163681,703020
2096921,2096921,163725,703355
2096921,2096921,163785,703439
2096921,2096921,163382,703017
2096921,2096921,163397,703028
2096921,2096921,163590,703156
2096921,2096921,163754,703073
2096921,2096921,163717,702841
2096921,2096921,163557,702791
2096921,2096921,163970,702775
2096921,2096921,163529,702656
2096921,2096921,163567,702714
2096921,2096921,163381,702695
2096921,2096921,163361,702529
2096921,2096921,163640,702651
2096921,2096921,163562,702863
2096921,2096921,163236,702640
2096921,2096921,163064,702719
2096921,2096921,163291,702396
2096921,2096921,163274,702512
2096921,2096921,163224,702405
2096921,2096921,163291,702425
2096921,2096921,163653,702584
2096921,2096921,163573,702210
2096921,2096921,163396,702234
2096921,2096921,163439,702534
2096921,2096921,163349,702492
2096921,2096921,163220,702371
2096921,2096921,163229,702039
2096921,2096921,163109,702190
2096921,2096921,162993,702313
2096921,2096921,163280,702139
2096921,2096921,163496,702431
2096921,2096921,163361,702114
2096921,2096921,163296,702229
2096921,2096921,163334,702209
2096921,2096921,163643,702309
2096921,2096921,163450,702130
2096921,2096921,163050,702210
2096921,2096921,163368,702211
2096921,2096921,163333,702406
2096921,2096921,163317,702197
2096921,2096921,163213,702290
2096921,2096921,163519,702121
2096921,2096921,163232,701962
2096921,2096921,163168,702225
2096921,2096921,163182,702420
2096921,2096921,163157,702251
2096921,2096921,163595,702350
2096921,2096921,163292,702730
2096921,2096921,163467,702467
2096921,2096921,163702,702381
2096921,2096921,163420,702228
2096921,2096921,163785,702586
2096921,2096921,163492,702967
2096921,2096921,163563,702798
2096921,2096921,163783,702914
2096921,2096921,163342,702707
2096921,2096921,163404,702822
2096921,2096921,163507,703151
2096921,2096921,163665,702791
2096921,2096921,163745,703014
2096921,2096921,163542,702892
2096921,2096921,163569,703365
2096921,2096921,163838,703244
2096921,2096921,163665,703109
2096921,2096921,164011,703050
2096921,2096921,163888,703241
2096921,2096921,163673,703614
2096921,2096921,163562,703454
2096921,2096921,163783,703420
2096921,2096921,163893,703364
2096921,2096921,163746,703420
2096921,2096921,163999,703728
2096921,2096921,163759,703711
2096921,2096921,163942,703787
2096921,2096921,163943,703737
2096921,2096921,164091,703675
2096921,2096921,163837,703703
2096921,2096921,163880,703667
2096921,2096921,164000,703940
2096921,2096921,163805,703734
2096921,2096921,163852,703899
2096921,2096921,164010,703805
2096921,2096921,164354,704303
2096921,2096921,163903,703989
2096921,2096921,163971,704021
2096921,2096921,163976,703834
2096921,2096921,164067,704178
2096921,2096921,163904,704114
2096921,2096921,163786,703868
2096921,2096921,163970,704203
2096921,2096921,163955,704124
2096921,2096921,164257,704423
2096921,2096921,164257,704264
2096921,2096921,164086,704493
2096921,2096921,164116,704300
2096921,2096921,164496,704503
2096921,2096921,164115,704529
2096921,2096921,164162,704355
2096921,2096921,164169,704579
2096921,2096921,164121,704389
2096921,2096921,164196,704384
2096921,2096921,164342,704643
2096921,2096921,164454,704676
2096921,2096921,164516,704416
2096921,2096921,164246,704684
2096921,2096921,164297,704467
2096921,2096921,164392,704704
2096921,2096921,164428,704597
2096921,2096921,164215,704672
2096921,2096921,164370,704569
2096921,2096921,164334,704535
2096921,2096921,164573,704941
2096921,2096921,164661,704949
2096921,2096921,164624,705218
2096921,2096921,164753,705171
2096921,2096921,164552,705011
2096921,2096921,164714,705101
2096921,2096921,164495,704800
2096921,2096921,164365,704962
2096921,2096921,164590,704737
2096921,2096921,164666,704709
2096921,2096921,164622,705030
2096921,2096921,164576,705029
2096921,2096921,164783,705343
2096921,2096921,164692,705119
2096921,2096921,164620,705228
2096921,2096921,164530,705230
2096921,2096921,164599,705290
2096921,2096921,164637,704933
2096921,2096921,164572,705223
2096921,2096921,164471,705142
2096921,2096921,164678,705603
2096921,2096921,164667,705582
2096921,2096921,164761,705597
2096921,2096921,164789,705447
2096921,2096921,164930,705403
2096921,2096921,164756,705438
2096921,2096921,164641,705677
2096921,2096921,164844,705573
2096921,2096921,164941,705445
2096921,2096921,164494,705454
2096921,2096921,164769,705860
2096921,2096921,164939,705627
2096921,2096921,164694,705753
2096921,2096921,164849,705490
2096921,2096921,165092,705608
2096921,2096921,164881,705678
2096921,2096921,164836,705492
2096921,2096921,164534,705649
2096921,2096921,164713,705449
2096921,2096921,164782,705786
2096921,2096921,164901,705495
2096921,2096921,164992,705795
2096921,2096921,164741,705690
2096921,2096921,165030,705862
2096921,2096921,164885,705764
2096921,2096921,164956,705848
2096921,2096921,164645,705609
2096921,2096921,164729,705733
2096921,2096921,164804,705843
2096921,2096921,164782,705475
2096921,2096921,164881,705958
2096921,2096921,164725,706300
2096921,2096921,165130,706036
2096921,2096921,165065,705779
2096921,2096921,164889,706149
2096921,2096921,164814,706006
2096921,2096921,165166,705565
2096921,2096921,164880,705743
2096921,2096921,165224,705948
2096921,2096921,164477,705999
2096921,2096921,164727,705799
2096921,2096921,165043,705762
2096921,2096921,165201,706031
2096921,2096921,164783,705997
2096921,2096921,164676,705888
2096921,2096921,165222,705865
2096921,2096921,164901,706240
2096921,2096921,164910,706151
2096921,2096921,164964,706087
2096921,2096921,165043,705939
2096921,2096921,165144,705945
2096921,2096921,165139,705828
2096921,2096921,165264,705845
2096921,2096921,165262,705835
2096921,2096921,164851,705764
2096921,2096921,164847,706292
2096921,2096921,164830,706339
2096921,2096921,165228,705997
2096921,2096921,165127,705905
2096921,2096921,165000,706017
2096921,2096921,164956,706175
2096921,2096921,165038,706269
2096921,2096921,165209,706224
2096921,2096921,165220,706259
2096921,2096921,165069,706187
2096921,2096921,165257,706138
2096921,2096921,165036,706353
2096921,2096921,165055,706337
2096921,2096921,165017,706458
2096921,2096921,165012,706088
2096921,2096921,165188,706235
2096921,2096921,165140,706217
2096921,2096921,165362,706499
2096921,2096921,165130,706275
2096921,2096921,165482,705926
2096921,2096921,165121,705985
2096921,2096921,165239,706051
2096921,2096921,165261,706283
2096921,2096921,165271,706072
2096921,2096921,164960,706055
2096921,2096921,165250,706355
2096921,2096921,165228,706345
2096921,2096921,165136,706479
2096921,2096921,164985,706374
2096921,2096921,165220,706213
2096921,2096921,165269,706240
2096921,2096921,165386,706286
2096921,2096921,165069,706017
2096921,2096921,164990,706061
2096921,2096921,165330,706141
2096921,2096921,165415,706145
2096921,2096921,165344,706348
2096921,2096921,165469,706658
2096921,2096921,165162,706372
2096921,2096921,165041,706457
2096921,2096921,165226,706293
2096921,2096921,165431,706178
2096921,2096921,165185,706406
2096921,2096921,165294,706266
2096921,2096921,165353,706044
2096921,2096921,165234,705984
2096921,2096921,165037,706310
2096921,2096921,165189,706227
2096921,2096921,165452,706257
2096921,2096921,165200,705993
2096921,2096921,165189,705849
2096921,2096921,165161,706172
2096921,2096921,165186,706385
2096921,2096921,165060,706390
2096921,2096921,165256,706088
2096921,2096921,165445,706576
2096921,2096921,165306,706251
2096921,2096921,165501,706110
2096921,2096921,165430,706303
2096921,2096921,165453,706235
2096921,2096921,165519,706444
2096921,2096921,165359,706072
2096921,2096921,165405,706287
2096921,2096921,165482,706140
2096921,2096921,165598,706289
2096921,2096921,165270,706587
2096921,2096921,165067,706381
2096921,2096921,165114,706468
2096921,2096921,165127,706281
2096921,2096921,165143,706161
2096921,2096921,165162,706224
2096921,2096921,165247,706306
2096921,2096921,165145,705916
2096921,2096921,165224,706224
2096921,2096921,165206,706466
2096921,2096921,165322,706531
2096921,2096921,165432,706256
2096921,2096921,165160,706102
2096921,2096921,165128,706325
2096921,2096921,165246,706260
2096921,2096921,165295,706175
2096921,2096921,165314,706070
2096921,2096921,165127,706069
2096921,2096921,165482,706258
2096921,2096921,165375,706346
2096921,2096921,165598,706083
2096921,2096921,165285,705986
2096921,2096921,165165,706029
2096921,2096921,165251,706202
2096921,2096921,165050,706242
2096921,2096921,165294,706070
2096921,2096921,165235,705890
2096921,2096921,165355,706048
2096921,2096921,165550,705873
2096921,2096921,165401,706169
2096921,2096921,165294,706541
2096921,2096921,165213,706315
2096921,2096921,165012,706081
2096921,2096921,164825,705970
2096921,2096921,165256,705869
2096921,2096921,165012,706085
2096921,2096921,165330,705791
2096921,2096921,165294,706085
2096921,2096921,164904,706184
2096921,2096921,165153,706152
2096921,2096921,165369,706047
2096921,2096921,165312,705842
2096921,2096921,165278,706007
2096921,2096921,165487,706268
2096921,2096921,165227,706046
2096921,2096921,165251,705918
2096921,2096921,164868,705824
2096921,2096921,164947,705809
2096921,2096921,165014,705926
2096921,2096921,165008,706103
2096921,2096921,165328,706167
2096921,2096921,165312,706005
2096921,2096921,165395,705934
2096921,2096921,165216,706017
2096921,2096921,164858,705919
2096921,2096921,165229,705937
2096921,2096921,165102,705966
2096921,2096921,165258,705775
2096921,2096921,165120,705697
2096921,2096921,165134,705997
2096921,2096921,165062,705436
2096921,2096921,165231,705360
2096921,2096921,164961,705478
2096921,2096921,164872,705507
2096921,2096921,164991,705619
2096921,2096921,164828,705382
2096921,2096921,165235,705150
2096921,2096921,164997,704930
2096921,2096921,165239,705108
2096921,2096921,164625,705111
2096921,2096921,165005,704503
2096921,2096921,164885,704473
2096921,2096921,164870,704725
2096921,2096921,164710,704535
2096921,2096921,164488,704260
2096921,2096921,164250,703744
2096921,2096921,164168,703556
2096921,2096921,164360,703723
2096921,2096921,164399,703833
2096921,2096921,164412,703582
2096921,2096921,163903,703071
2096921,2096921,163729,702829
2096921,2096921,163998,702776
2096921,2096921,163983,702330
2096921,2096921,163661,702665
2096921,2096921,163185,700829
2096921,2096921,163161,700284
2096921,2096921,163111,700458
2096921,2096921,163311,700281
2096921,2096921,163199,700122
2096921,2096921,162347,698431
2096921,2096921,162390,698190
2096921,2096921,162258,697827
2096921,2096921,162112,698096
2096921,2096921,162032,698029
2096921,2096921,161648,696457
2096921,2096921,161152,696317
2096921,2096921,161246,696103
2096921,2096921,161463,696106
2096921,2096921,161559,696327
2096921,2096921,161261,695006
2096921,2096921,160920,694790
2096921,2096921,161238,694550
2096921,2096921,161009,694750
2096921,2096921,160908,694334
2096921,2096921,160409,693869
2096921,2096921,160229,693138
2096921,2096921,160421,693488
2096921,2096921,160511,693542
2096921,2096921,160537,693403
2096921,2096921,160371,692799
2096921,2096921,160210,692931
2096921,2096921,160253,693029
2096921,2096921,160312,692587
2096921,2096921,160515,692648
2096921,2096921,160298,692437
2096921,2096921,160162,692248
2096921,2096921,160323,692281
2096921,2096921,160037,691961
2096921,2096921,160056,692299
2096921,2096921,160042,692217
2096921,2096921,160036,691772
2096921,2096921,160083,691990
2096921,2096921,160091,692145
2096921,2096921,160192,692174
2096921,2096921,159845,691898
2096921,2096921,159887,691750
2096921,2096921,159828,691825
2096921,2096921,159729,691864
2096921,2096921,159914,691869
2096921,2096921,159866,691843
2096921,2096921,159882,691684
2096921,2096921,159946,691560
2096921,2096921,159877,692018
2096921,2096921,159774,691898
2096921,2096921,159902,691874
2096921,2096921,159887,691696
2096921,2096921,160089,691902
2096921,2096921,159918,692022
2096921,2096921,159999,691997
2096921,2096921,159953,691752
2096921,2096921,159927,692004
2096921,2096921,159830,691941
2096921,2096921,160103,692227
2096921,2096921,160274,692242
2096921,2096921,159684,692293
2096921,2096921,159597,692437
2096921,2096921,160010,692184
2096921,2096921,160116,691924
2096921,2096921,159972,692340
2096921,2096921,160274,692421
2096921,2096921,160331,692396
2096921,2096921,160460,692579
2096921,2096921,160099,692649
2096921,2096921,160169,692630
2096921,2096921,160150,692840
2096921,2096921,160325,692671
2096921,2096921,160283,693006
2096921,2096921,160339,693016
2096921,2096921,160373,692926
2096921,2096921,160549,693215
2096921,2096921,160713,693135
2096921,2096921,160465,693445
2096921,2096921,160436,693184
2096921,2096921,160551,693578
2096921,2096921,160354,693832
2096921,2096921,160377,693833
2096921,2096921,160799,693945
2096921,2096921,160786,693884
2096921,2096921,160882,693953
2096921,2096921,160822,694685
2096921,2096921,161064,694436
2096921,2096921,160860,694487
2096921,2096921,160965,694253
2096921,2096921,160831,694365
2096921,2096921,161198,694769
2096921,2096921,160990,694676
2096921,2096921,161317,694507
2096921,2096921,161289,694981
2096921,2096921,161024,695032
2096921,2096921,160876,695443
2096921,2096921,161105,695196
2096921,2096921,161125,695112
2096921,2096921,161098,695119
2096921,2096921,161170,695086
2096921,2096921,161207,695762
2096921,2096921,161618,695505
2096921,2096921,161453,695408
2096921,2096921,161271,695505
2096921,2096921,161422,695867
2096921,2096921,161926,695800
2096921,2096921,161778,696176
2096921,2096921,161594,696110
2096921,2096921,161279,696211
2096921,2096921,161535,696372
2096921,2096921,161337,696189
2096921,2096921,161508,696878
2096921,2096921,161525,696648
2096921,2096921,161742,696453
2096921,2096921,161479,696476
2096921,2096921,161490,696901
2096921,2096921,161695,697135
2096921,2096921,161743,697161
2096921,2096921,161814,696760
2096921,2096921,161651,696869
2096921,2096921,161778,697105
2096921,2096921,161994,697482
2096921,2096921,162247,697477
2096921,2096921,161959,697163
2096921,2096921,162168,697372
2096921,2096921,162027,697473
2096921,2096921,162175,697767
2096921,2096921,162154,697651
2096921,2096921,162117,697894
2096921,2096921,162073,698082
2096921,2096921,161894,698289
2096921,2096921,162090,698271
2096921,2096921,162355,698173
2096921,2096921,162361,697976
2096921,2096921,162484,698309
2096921,2096921,162566,698608
2096921,2096921,162183,698365
2096921,2096921,162436,698359
2096921,2096921,162317,698677
2096921,2096921,162290,698209
2096921,2096921,162457,698839
2096921,2096921,162405,698530
2096921,2096921,162500,698432
2096921,2096921,162474,698577
2096921,2096921,162438,698695
2096921,2096921,162431,698500
2096921,2096921,162258,698675
2096921,2096921,162484,698833
2096921,2096921,162805,698893
2096921,2096921,162714,698824
2096921,2096921,162518,698782
2096921,2096921,162690,698780
2096921,2096921,162344,698715
2096921,2096921,162505,698724
2096921,2096921,162283,698675
2096921,2096921,162472,698889
2096921,2096921,162359,698686
2096921,2096921,162686,698870
2096921,2096921,162385,698580
2096921,2096921,162206,698732
2096921,2096921,162373,698736
2096921,2096921,162388,698763
2096921,2096921,162390,698495
2096921,2096921,162487,698540
2096921,2096921,162755,698426
2096921,2096921,162221,698381
2096921,2096921,162492,698420
2096921,2096921,162480,698291
2096921,2096921,162505,698442
2096921,2096921,162596,698538
2096921,2096921,162383,698438
2096921,2096921,162360,698322
2096921,2096921,162540,698438
2096921,2096921,162704,698312
2096921,2096921,162336,698672
2096921,2096921,162353,698383
2096921,2096921,162319,698288
2096921,2096921,162168,698283
2096921,2096921,162171,698289
2096921,2096921,162277,698499
2096921,2096921,162183,698144
2096921,2096921,162155,697815
2096921,2096921,162288,697900
2096921,2096921,162224,697720
2096921,2096921,162359,698096
2096921,2096921,162295,698136
2096921,2096921,162138,697810
2096921,2096921,162099,698036
2096921,2096921,162147,698203
2096921,2096921,162253,697848
2096921,2096921,162260,697693
2096921,2096921,162350,697713
2096921,2096921,162249,697993
2096921,2096921,161899,698032
2096921,2096921,162380,697949
2096921,2096921,162510,697964
2096921,2096921,162312,698024
2096921,2096921,162244,698033
2096921,2096921,162385,697795
2096921,2096921,162113,698006
2096921,2096921,162192,697984
2096921,2096921,161896,698065
2096921,2096921,162166,698046
2096921,2096921,162330,697993
2096921,2096921,162357,698035
2096921,2096921,162544,698466
2096921,2096921,162595,698219
2096921,2096921,162337,698245
2096921,2096921,162197,698304
2096921,2096921,162118,698294
2096921,2096921,162376,698833
2096921,2096921,162578,698869
2096921,2096921,162425,698613
2096921,2096921,162564,698751
2096921,2096921,162496,698979
2096921,2096921,162683,699098
2096921,2096921,162549,699185
2096921,2096921,162342,699093
2096921,2096921,162956,699161
2096921,2096921,162778,699141
2096921,2096921,162582,699131
2096921,2096921,162543,699155
2096921,2096921,162572,699421
2096921,2096921,162506,699109
2096921,2096921,162551,699171
2096921,2096921,162906,699521
2096921,2096921,162668,699504
2096921,2096921,162978,699582
2096921,2096921,162729,699735
2096921,2096921,162921,699965
2096921,2096921,162667,699938
2096921,2096921,163090,699788
2096921,2096921,163196,700033
2096921,2096921,163075,700292
2096921,2096921,162959,699788
2096921,2096921,163058,700055
2096921,2096921,163223,699896
2096921,2096921,163208,700171
2096921,2096921,163234,700167
2096921,2096921,163307,700596
2096921,2096921,163247,700398
2096921,2096921,163011,700806
2096921,2096921,163143,700439
2096921,2096921,163483,700555
2096921,2096921,163269,700292
2096921,2096921,163280,700620
2096921,2096921,163224,700580
2096921,2096921,163189,700872
2096921,2096921,163307,700554
2096921,2096921,163227,700433
2096921,2096921,163087,700970
2096921,2096921,163002,701096
2096921,2096921,163227,701003
2096921,2096921,162912,701067
2096921,2096921,163470,701259
2096921,2096921,162970,701312
2096921,2096921,163501,701329
2096921,2096921,163618,701453
2096921,2096921,163465,701254
2096921,2096921,163320,701330
2096921,2096921,163428,701756
2096921,2096921,163634,701345
2096921,2096921,163663,701713
2096921,2096921,163393,701766
2096921,2096921,163736,701613
2096921,2096921,163637,701794
2096921,2096921,163432,701837
2096921,2096921,163458,701798
2096921,2096921,163649,701838
2096921,2096921,163755,702118
2096921,2096921,163648,702135
2096921,2096921,163597,702322
2096921,2096921,163849,702178
2096921,2096921,163770,702159
2096921,2096921,163573,702079
2096921,2096921,163650,702278
2096921,2096921,163689,702625
2096921,2096921,163934,702437
2096921,2096921,164065,702588
2096921,2096921,163750,702570
2096921,2096921,163701,702645
2096921,2096921,163634,702592
2096921,2096921,163953,702448
2096921,2096921,163808,702788
2096921,2096921,163846,702829
2096921,2096921,163825,703240
2096921,2096921,164132,702850
2096921,2096921,164059,703155
2096921,2096921,163988,702980
2096921,2096921,164111,702823
2096921,2096921,164308,703130
2096921,2096921,164189,703188
2096921,2096921,164295,703385
2096921,2096921,164248,703402
2096921,2096921,164277,703495
2096921,2096921,164053,703628
2096921,2096921,164346,703618
2096921,2096921,164402,703740
2096921,2096921,164390,703595
2096921,2096921,164238,703473
2096921,2096921,164485,703582
2096921,2096921,164360,703882
2096921,2096921,164214,703928
2096921,2096921,164189,703587
2096921,2096921,164177,703682
2096921,2096921,164397,703953
2096921,2096921,164398,703738
2096921,2096921,164425,703932
2096921,2096921,164423,704170
2096921,2096921,164376,704178
2096921,2096921,164530,704184
2096921,2096921,164378,703935
2096921,2096921,164409,704387
2096921,2096921,164334,704194
2096921,2096921,164395,704442
2096921,2096921,164952,704448
2096921,2096921,164663,704454
2096921,2096921,164793,704184
2096921,2096921,164609,704345
2096921,2096921,164569,704655
2096921,2096921,164497,704385
2096921,2096921,164531,704760
2096921,2096921,164672,704404
2096921,2096921,164599,704929
2096921,2096921,164531,704767
2096921,2096921,164601,705148
2096921,2096921,164808,704802
2096921,2096921,164893,704839
2096921,2096921,164934,704835
2096921,2096921,164793,704810
2096921,2096921,164916,704997
2096921,2096921,164820,705050
2096921,2096921,164853,705008
2096921,2096921,164989,704915
2096921,2096921,164918,704835
2096921,2096921,164758,705208
2096921,2096921,165121,704940
2096921,2096921,165098,705160
2096921,2096921,164860,705228
2096921,2096921,165099,705142
2096921,2096921,165085,705374
2096921,2096921,164837,705031
2096921,2096921,164843,705342
2096921,2096921,164882,705359
2096921,2096921,165193,705343
2096921,2096921,165013,705667
2096921,2096921,165050,705463
2096921,2096921,165174,705358
2096921,2096921,165059,705681
2096921,2096921,165320,705470
2096921,2096921,164836,705776
2096921,2096921,164818,705866
2096921,2096921,165212,705682
2096921,2096921,164899,705532
2096921,2096921,164900,705434
2096921,2096921,165109,705893
2096921,2096921,165223,706123
2096921,2096921,165051,705829
2096921,2096921,165109,705782
2096921,2096921,165191,705865
2096921,2096921,165288,705604
2096921,2096921,165109,706217
2096921,2096921,164923,706128
2096921,2096921,165139,706273
2096921,2096921,165141,706136
2096921,2096921,165114,706211
2096921,2096921,165168,706319
2096921,2096921,165281,706408
2096921,2096921,165235,706474
2096921,2096921,165075,706648
2096921,2096921,165426,706936
2096921,2096921,165047,706399
2096921,2096921,165287,706161
2096921,2096921,165140,706256
2096921,2096921,165498,706234
2096921,2096921,165303,706621
2096921,2096921,165449,706611
2096921,2096921,165356,706570
2096921,2096921,165171,706596
2096921,2096921,165427,706644
2096921,2096921,165407,706843
2096921,2096921,165072,706740
2096921,2096921,165224,706712
2096921,2096921,165335,706826
2096921,2096921,165254,706817
2096921,2096921,165534,706823
2096921,2096921,165517,706809
2096921,2096921,165380,706808
2096921,2096921,165558,706921
2096921,2096921,165355,707287
2096921,2096921,165387,707312
2096921,2096921,165311,707104
2096921,2096921,165479,707292
2096921,2096921,165367,706764
2096921,2096921,165642,707291
2096921,2096921,165448,707550
2096921,2096921,165414,707616
2096921,2096921,165877,707214
2096921,2096921,165580,707457
2096921,2096921,165470,707328
2096921,2096921,165670,707408
2096921,2096921,165434,707312
2096921,2096921,165483,707443
2096921,2096921,165580,707603
2096921,2096921,165769,707497
2096921,2096921,165818,707843
2096921,2096921,165596,707792
2096921,2096921,165684,707656
2096921,2096921,165583,707828
2096921,2096921,165240,707758
2096921,2096921,165617,707636
2096921,2096921,165410,707704
2096921,2096921,165618,707788
2096921,2096921,165346,707954
2096921,2096921,165653,707692
2096921,2096921,165301,707821
2096921,2096921,165581,707932
2096921,2096921,165890,707989
2096921,2096921,165649,708019
2096921,2096921,165290,708001
2096921,2096921,165739,708219
2096921,2096921,165818,707878
2096921,2096921,165756,708173
2096921,2096921,165622,708002
2096921,2096921,165755,708239
2096921,2096921,165964,708213
2096921,2096921,165848,708108
2096921,2096921,165916,708236
2096921,2096921,165884,708069
2096921,2096921,165788,708237
2096921,2096921,165668,708203
2096921,2096921,165808,708105
2096921,2096921,165574,708173
2096921,2096921,165921,708013
2096921,2096921,165491,708310
2096921,2096921,165728,708056
2096921,2096921,165416,708340
2096921,2096921,165908,708326
2096921,2096921,165676,708439
2096921,2096921,165618,708484
2096921,2096921,165424,708262
2096921,2096921,165783,708261
2096921,2096921,165677,708363
2096921,2096921,165820,708091
2096921,2096921,165785,708596
2096921,2096921,165796,708679
2096921,2096921,166042,708472
2096921,2096921,165908,708376
2096921,2096921,165740,708751
2096921,2096921,165929,708646
2096921,2096921,165933,708539
2096921,2096921,165988,708208
2096921,2096921,165875,708602
2096921,2096921,165922,708598
2096921,2096921,165951,708571
2096921,2096921,165594,708673
2096921,2096921,166100,708659
2096921,2096921,166124,708835
2096921,2096921,166082,708840
2096921,2096921,166025,708785
2096921,2096921,165932,708939
2096921,2096921,165879,708669
2096921,2096921,166026,708759
2096921,2096921,166048,708850
2096921,2096921,166286,709276
2096921,2096921,166058,709255
2096921,2096921,166199,709022
2096921,2096921,165953,708785
2096921,2096921,166232,708955
2096921,2096921,165891,708500
2096921,2096921,166024,708759
2096921,2096921,166016,709200
2096921,2096921,165855,709123
2096921,2096921,165807,709039
2096921,2096921,165939,708783
2096921,2096921,166145,708893
2096921,2096921,165831,708660
2096921,2096921,165682,708808
2096921,2096921,165693,708678
2096921,2096921,165702,708596
2096921,2096921,165582,708233
2096921,2096921,165687,708334
2096921,2096921,165598,708105
2096921,2096921,165951,708402
2096921,2096921,165608,708409
2096921,2096921,165321,708116
2096921,2096921,165452,708061
2096921,2096921,165362,707725
2096921,2096921,165433,707811
2096921,2096921,165328,708106
2096921,2096921,165140,707090
2096921,2096921,164929,706814
2096921,2096921,165205,706841
2096921,2096921,165071,707087
2096921,2096921,165093,707105
2096921,2096921,164825,706286
2096921,2096921,164863,706274
2096921,2096921,164776,706315
2096921,2096921,164632,706224
2096921,2096921,164684,706406
2096921,2096921,164262,704551
2096921,2096921,163996,704252
2096921,2096921,163974,704303
2096921,2096921,163803,704284
2096921,2096921,164124,703831
2096921,2096921,163288,701988
2096921,2096921,163422,701985
2096921,2096921,163238,701511
2096921,2096921,163130,701324
2096921,2096921,163097,701337
2096921,2096921,162386,700170
2096921,2096921,162466,700179
2096921,2096921,162459,699739
2096921,2096921,162489,699725
2096921,2096921,162381,699923
2096921,2096921,162141,698720
2096921,2096921,161917,698639
2096921,2096921,162104,698346
2096921,2096921,161940,698641
2096921,2096921,161646,698171
2096921,2096921,161611,697716
2096921,2096921,161669,697423
2096921,2096921,161459,697471
2096921,2096921,161252,697239
2096921,2096921,161728,697288
2096921,2096921,161193,697062
2096921,2096921,161265,696883
2096921,2096921,161172,697336
2096921,2096921,161079,697312
2096921,2096921,160943,696543
2096921,2096921,161009,696450
2096921,2096921,161057,696509
2096921,2096921,161001,696379
2096921,2096921,160955,696195
2096921,2096921,161204,696281
2096921,2096921,161060,696273
2096921,2096921,160809,696031
2096921,2096921,160946,696155
2096921,2096921,160904,696409
2096921,2096921,160779,696069
2096921,2096921,160789,696053
2096921,2096921,160931,696015
2096921,2096921,160942,696143
2096921,2096921,160892,696021
2096921,2096921,161082,696239
2096921,2096921,161018,696522
2096921,2096921,161128,696377
2096921,2096921,160958,696258
2096921,2096921,160647,696228
2096921,2096921,160725,696309
2096921,2096921,160912,696313
2096921,2096921,160981,696441
2096921,2096921,160925,696411
2096921,2096921,160900,696304
2096921,2096921,161174,696855
2096921,2096921,161272,696818
2096921,2096921,161379,696911
2096921,2096921,161219,696840
2096921,2096921,161465,696915
2096921,2096921,161202,696590
2096921,2096921,161067,696618
2096921,2096921,160863,696813
2096921,2096921,160919,696914
2096921,2096921,161094,696929
2096921,2096921,161198,696680
2096921,2096921,161269,697004
2096921,2096921,161441,697432
2096921,2096921,161519,697287
2096921,2096921,161296,696924
2096921,2096921,161240,697608
2096921,2096921,161406,697697
2096921,2096921,161587,697689
2096921,2096921,161520,697806
2096921,2096921,161469,698172
2096921,2096921,161753,697995
2096921,2096921,161642,698227
2096921,2096921,161441,698408
2096921,2096921,161462,698578
2096921,2096921,161648,698569
2096921,2096921,161788,698442
2096921,2096921,161858,698702
2096921,2096921,162131,698529
2096921,2096921,162064,698694
2096921,2096921,162073,698916
2096921,2096921,161965,698920
2096921,2096921,162020,699484
2096921,2096921,162157,699735
2096921,2096921,162064,699458
2096921,2096921,162354,699590
2096921,2096921,161935,699557
2096921,2096921,162001,700238
2096921,2096921,162315,700190
2096921,2096921,162377,699710
2096921,2096921,162282,699976
2096921,2096921,162233,700081
2096921,2096921,162630,700238
2096921,2096921,162744,700113
2096921,2096921,162402,700445
2096921,2096921,162363,700457
2096921,2096921,162469,700298
2096921,2096921,162312,700741
2096921,2096921,162773,701091
2096921,2096921,162762,700744
2096921,2096921,162733,701094
2096921,2096921,162693,701053
2096921,2096921,162889,701290
2096921,2096921,162840,701488
2096921,2096921,162942,701362
2096921,2096921,163080,701554
2096921,2096921,162593,701373
2096921,2096921,162866,701806
2096921,2096921,162870,702128
2096921,2096921,162906,701994
2096921,2096921,163308,702044
2096921,2096921,162899,702106
2096921,2096921,163156,702510
2096921,2096921,163143,702570
2096921,2096921,163324,702750
2096921,2096921,163246,702497
2096921,2096921,163297,702676
2096921,2096921,163429,702899
2096921,2096921,163429,703224
2096921,2096921,163314,703282
2096921,2096921,163507,703297
2096921,2096921,163619,703159
2096921,2096921,163888,703111
2096921,2096921,163889,703595
2096921,2096921,163581,703352
2096921,2096921,163632,703299
2096921,2096921,163515,703277
2096921,2096921,163749,703593
2096921,2096921,163514,703669
2096921,2096921,163503,703751
2096921,2096921,163874,703816
2096921,2096921,163690,703603
2096921,2096921,163718,704179
2096921,2096921,164006,704244
2096921,2096921,163898,704335
2096921,2096921,163762,704220
2096921,2096921,163792,704186
2096921,2096921,163853,704106
2096921,2096921,164063,704366
2096921,2096921,163934,704394
2096921,2096921,163942,704630
2096921,2096921,164033,704630
2096921,2096921,163897,704623
2096921,2096921,163762,704488
2096921,2096921,163937,705096
2096921,2096921,163677,704889
2096921,2096921,163957,704712
2096921,2096921,163904,704893
2096921,2096921,163779,704812
2096921,2096921,163796,705166
2096921,2096921,163768,704575
2096921,2096921,164132,704466
2096921,2096921,163962,704783
2096921,2096921,164212,704848
2096921,2096921,164244,704857
2096921,2096921,164201,704895
2096921,2096921,163904,704738
2096921,2096921,164210,704908
2096921,2096921,164231,704742
2096921,2096921,164213,705079
2096921,2096921,163848,704879
2096921,2096921,164151,705117
2096921,2096921,164308,704711
2096921,2096921,164163,704504
2096921,2096921,163874,704720
2096921,2096921,164008,704968
2096921,2096921,163814,704909
2096921,2096921,163793,704725
2096921,2096921,163773,704707
2096921,2096921,163822,704580
2096921,2096921,163990,704735
2096921,2096921,163900,704650
2096921,2096921,163753,704512
2096921,2096921,163760,704586
2096921,2096921,163972,704571
2096921,2096921,163855,704556
2096921,2096921,163742,704480
2096921,2096921,163745,704754
2096921,2096921,164184,704470
2096921,2096921,163933,704405
2096921,2096921,163834,704447
2096921,2096921,163982,704394
2096921,2096921,163827,704693
2096921,2096921,163792,704440
2096921,2096921,163944,704601
2096921,2096921,163732,704501
2096921,2096921,163849,704613
2096921,2096921,163779,704372
2096921,2096921,164070,704480
2096921,2096921,163716,704576
2096921,2096921,163887,704590
2096921,2096921,163796,704479
2096921,2096921,163752,704641
2096921,2096921,163788,704717
2096921,2096921,164078,704873
2096921,2096921,164289,704840
2096921,2096921,163728,704464
2096921,2096921,164122,704752
2096921,2096921,163822,704797
2096921,2096921,163842,704651
2096921,2096921,163881,704587
2096921,2096921,163927,705199
2096921,2096921,163805,705111
2096921,2096921,163801,704881
2096921,2096921,163711,705012
2096921,2096921,163801,704996
2096921,2096921,163837,704923
2096921,2096921,164087,705276
2096921,2096921,164147,705168
2096921,2096921,164260,705184
2096921,2096921,164138,705160
2096921,2096921,164378,705278
2096921,2096921,163949,705890
2096921,2096921,164235,705778
2096921,2096921,164273,705811
2096921,2096921,164462,705736
2096921,2096921,164369,705529
2096921,2096921,164078,705916
2096921,2096921,164355,706171
2096921,2096921,164440,706000
2096921,2096921,164414,706125
2096921,2096921,164422,706054
2096921,2096921,164534,706288
2096921,2096921,164278,706239
2096921,2096921,164647,706070
2096921,2096921,164416,706265
2096921,2096921,164480,706408
2096921,2096921,164595,706383
2096921,2096921,164437,706379
2096921,2096921,164573,706753
2096921,2096921,164507,706863
2096921,2096921,164624,706639
2096921,2096921,164713,706947
2096921,2096921,164968,706822
2096921,2096921,164634,706869
2096921,2096921,165052,706760
2096921,2096921,164531,706832
2096921,2096921,164861,706927
2096921,2096921,164668,707125
2096921,2096921,164656,707218
2096921,2096921,164634,707149
2096921,2096921,164896,707215
2096921,2096921,165018,707526
2096921,2096921,164931,707669
2096921,2096921,165036,707381
2096921,2096921,164871,707545
2096921,2096921,164785,707326
2096921,2096921,164875,707613
2096921,2096921,165058,707674
2096921,2096921,164811,707846
2096921,2096921,165101,707912
2096921,2096921,165219,707623
2096921,2096921,165189,707741
2096921,2096921,164997,708005
2096921,2096921,165014,708131
2096921,2096921,165318,707919
2096921,2096921,165313,708110
2096921,2096921,165105,708009
2096921,2096921,165279,708356
2096921,2096921,165355,708275
2096921,2096921,165350,708186
2096921,2096921,165253,708321
2096921,2096921,165319,708744
2096921,2096921,165352,708669
2096921,2096921,165340,708743
2096921,2096921,164965,708578
2096921,2096921,165235,708709
2096921,2096921,165576,708680
2096921,2096921,165497,708749
2096921,2096921,165357,708748
2096921,2096921,165307,708765
2096921,2096921,165465,708732
2096921,2096921,165629,708874
2096921,2096921,165387,709071
2096921,2096921,165625,709217
2096921,2096921,165766,709106
2096921,2096921,165803,709142
2096921,2096921,165520,709350
2096921,2096921,165345,709462
2096921,2096921,165513,709328
2096921,2096921,165587,709273
2096921,2096921,165695,709501
2096921,2096921,165790,709683
2096921,2096921,165774,709598
2096921,2096921,165918,709282
2096921,2096921,165603,709745
2096921,2096921,165856,709554
2096921,2096921,165959,710062
2096921,2096921,165900,709751
2096921,2096921,165583,709922
2096921,2096921,165798,709974
2096921,2096921,165703,709661
2096921,2096921,166062,709930
2096921,2096921,166026,709836
2096921,2096921,165979,710120
2096921,2096921,166061,710214
2096921,2096921,166090,710249
2096921,2096921,165617,710104
2096921,2096921,165831,710239
2096921,2096921,165768,710029
2096921,2096921,165800,710254
2096921,2096921,165814,710142
2096921,2096921,165995,710558
2096921,2096921,166062,710192
2096921,2096921,165702,710213
2096921,2096921,165892,710316
2096921,2096921,165695,710360
2096921,2096921,165837,710282
2096921,2096921,165939,710685
2096921,2096921,165959,710551
2096921,2096921,165831,710372
2096921,2096921,166115,710567
2096921,2096921,165984,710538
2096921,2096921,166215,710456
2096921,2096921,166147,710743
2096921,2096921,165826,710547
2096921,2096921,166158,710550
2096921,2096921,166011,710627
2096921,2096921,166077,710746
2096921,2096921,166218,710900
2096921,2096921,166078,710889
2096921,2096921,166132,711066
2096921,2096921,166157,710845
2096921,2096921,166396,711102
2096921,2096921,166266,711107
2096921,2096921,166339,711195
2096921,2096921,166325,711089
2096921,2096921,166092,710904
2096921,2096921,166378,711199
2096921,2096921,166442,711208
2096921,2096921,166552,711240
2096921,2096921,166328,711131
2096921,2096921,166625,711401
2096921,2096921,166269,711296
2096921,2096921,166584,711393
2096921,2096921,166060,711319
2096921,2096921,166224,711346
2096921,2096921,166386,711248
2096921,2096921,166337,711460
2096921,2096921,166371,711358
2096921,2096921,166263,711469
2096921,2096921,166524,711227
2096921,2096921,166372,711828
2096921,2096921,166547,711411
2096921,2096921,166522,711536
2096921,2096921,166611,711269
2096921,2096921,166621,711358
2096921,2096921,166448,711589
2096921,2096921,166155,711612
2096921,2096921,166332,711475
2096921,2096921,166401,711494
2096921,2096921,166284,711815
2096921,2096921,166320,711862
2096921,2096921,166653,711835
2096921,2096921,166581,711729
2096921,2096921,166405,711781
2096921,2096921,166268,711984
2096921,2096921,166485,711872
2096921,2096921,166643,711665
2096921,2096921,166432,711666
2096921,2096921,166151,711806
2096921,2096921,166523,711963
2096921,2096921,166583,711427
2096921,2096921,166499,711932
2096921,2096921,166652,711916
2096921,2096921,166525,711949
2096921,2096921,166583,711980
2096921,2096921,166349,711984
2096921,2096921,166666,712219
2096921,2096921,166516,711737
2096921,2096921,166357,711786
2096921,2096921,166513,712023
2096921,2096921,166478,711919
2096921,2096921,166678,711876
2096921,2096921,166475,711992
2096921,2096921,166441,712223
2096921,2096921,166705,712334
2096921,2096921,166620,712288
2096921,2096921,166692,712279
2096921,2096921,166289,712179
2096921,2096921,166524,711971
2096921,2096921,166739,712021
2096921,2096921,166504,712149
2096921,2096921,166666,712180
2096921,2096921,166758,712469
2096921,2096921,166436,712115
2096921,2096921,166622,712081
2096921,2096921,166240,711975
2096921,2096921,166384,712345
2096921,2096921,166662,712421
2096921,2096921,166595,712041
2096921,2096921,166913,712289
2096921,2096921,166611,712165
2096921,2096921,166674,712282
2096921,2096921,166874,712285
2096921,2096921,166516,712270
2096921,2096921,166584,712447
2096921,2096921,166953,712369
2096921,2096921,166584,712353
2096921,2096921,166776,712482
2096921,2096921,166613,712433
2096921,2096921,166795,712593
2096921,2096921,166331,712371
2096921,2096921,166678,712513
2096921,2096921,166735,712522
2096921,2096921,166752,712746
2096921,2096921,166761,712457
2096921,2096921,166541,712624
2096921,2096921,166696,712458
2096921,2096921,166655,712672
2096921,2096921,167028,712310
2096921,2096921,166983,712709
2096921,2096921,167013,712387
2096921,2096921,166964,712417
2096921,2096921,167017,712407
2096921,2096921,166397,712783
2096921,2096921,166704,712513
2096921,2096921,166709,712469
2096921,2096921,166652,712702
2096921,2096921,166559,712622
2096921,2096921,166770,712781
2096921,2096921,166618,712575
2096921,2096921,166743,712512
2096921,2096921,166834,712719
2096921,2096921,166868,712866
2096921,2096921,166889,712593
2096921,2096921,166671,712632
2096921,2096921,167043,712753
2096921,2096921,166900,712746
2096921,2096921,166817,712407
2096921,2096921,166734,712630
2096921,2096921,166878,713008
2096921,2096921,166825,712622
2096921,2096921,167122,712846
2096921,2096921,166797,712771
2096921,2096921,166876,712798
2096921,2096921,166931,712951
2096921,2096921,167139,712642
2096921,2096921,166747,712884
2096921,2096921,166800,712776
2096921,2096921,166928,712591
2096921,2096921,166994,712637
2096921,2096921,166849,712372
2096921,2096921,166873,712717
2096921,2096921,166882,712698
2096921,2096921,166990,712937
2096921,2096921,167099,712721
2096921,2096921,166971,712695
2096921,2096921,166857,712552
2096921,2096921,166605,712560
2096921,2096921,166811,712772
2096921,2096921,166729,712840
2096921,2096921,166789,712726
2096921,2096921,166374,712729
2096921,2096921,166782,712902
2096921,2096921,166743,713078
2096921,2096921,166951,712798
2096921,2096921,166851,712633
2096921,2096921,166954,712815
2096921,2096921,166950,712613
2096921,2096921,166838,712822
2096921,2096921,166898,712945
2096921,2096921,166804,713078
2096921,2096921,166894,712692
2096921,2096921,166929,712877
2096921,2096921,166560,712492
2096921,2096921,166952,712790
2096921,2096921,166775,712441
2096921,2096921,166663,712617
2096921,2096921,166855,712500
2096921,2096921,166582,712621
2096921,2096921,166957,712730
2096921,2096921,166773,712297
2096921,2096921,166521,712279
2096921,2096921,166560,712483
2096921,2096921,166603,712203
2096921,2096921,166571,712087
2096921,2096921,166635,712049
2096921,2096921,166365,712036
2096921,2096921,166402,711826
2096921,2096921,166338,711682
2096921,2096921,166361,711686
2096921,2096921,166285,711445
2096921,2096921,166322,711339
2096921,2096921,166277,710783
2096921,2096921,166476,710992
2096921,2096921,166373,711140
2096921,2096921,166149,710706
2096921,2096921,165927,710212
2096921,2096921,166098,710284
2096921,2096921,165768,710529
2096921,2096921,165868,710312
2096921,2096921,165885,709317
2096921,2096921,165773,709237
2096921,2096921,165557,709342
2096921,2096921,165233,709570
2096921,2096921,165530,709245
2096921,2096921,164920,707565
2096921,2096921,164855,707355
2096921,2096921,164389,707215
2096921,2096921,164444,707303
2096921,2096921,164902,707152
2096921,2096921,163987,705375
2096921,2096921,163792,704906
2096921,2096921,164045,704871
2096921,2096921,164104,704598
2096921,2096921,163644,704570
2096921,2096921,162919,702901
2096921,2096921,163026,702611
2096921,2096921,162954,702571
2096921,2096921,163020,702460
2096921,2096921,163506,702789
2096921,2096921,162747,701418
2096921,2096921,162670,701390
2096921,2096921,162762,701246
2096921,2096921,162806,701399
2096921,2096921,162384,701083
2096921,2096921,162019,700198
2096921,2096921,162110,700103
2096921,2096921,161849,700102
2096921,2096921,162148,700122
2096921,2096921,161967,700169
2096921,2096921,161774,699455
2096921,2096921,162043,699453
2096921,2096921,161816,699165
2096921,2096921,161873,699467
2096921,2096921,161756,699261
2096921,2096921,161907,698649
2096921,2096921,161811,698723
2096921,2096921,161543,698864
2096921,2096921,161744,699052
2096921,2096921,161659,698843
2096921,2096921,161578,698791
2096921,2096921,161474,698889
2096921,2096921,161522,698362
2096921,2096921,161450,698343
2096921,2096921,161510,698288
2096921,2096921,161190,698035
2096921,2096921,161354,698283
2096921,2096921,161416,698481
2096921,2096921,161370,698020
2096921,2096921,161485,698233
2096921,2096921,161475,698410
2096921,2096921,161575,698203
2096921,2096921,161064,698106
2096921,2096921,161493,698078
2096921,2096921,161582,698009
2096921,2096921,161467,697942
2096921,2096921,161458,698003
2096921,2096921,161416,697805
2096921,2096921,161284,698597
2096921,2096921,161552,698297
2096921,2096921,161631,698151
2096921,2096921,161266,698292
2096921,2096921,161437,698364
2096921,2096921,161679,698016
2096921,2096921,161665,698376
2096921,2096921,161691,698382
2096921,2096921,161601,698551
2096921,2096921,161744,698567
2096921,2096921,161459,698330
2096921,2096921,161300,698753
2096921,2096921,161479,698671
2096921,2096921,161493,698903
2096921,2096921,161669,698972
2096921,2096921,161694,699344
2096921,2096921,161627,699238
2096921,2096921,161713,699284
2096921,2096921,162013,698901
2096921,2096921,161648,699232
2096921,2096921,161552,699448
2096921,2096921,161780,699360
2096921,2096921,162302,699649
2096921,2096921,161989,699759
2096921,2096921,161860,699726
2096921,2096921,162215,699980
2096921,2096921,161949,699518
2096921,2096921,161983,699922
2096921,2096921,162300,699891
2096921,2096921,162070,700246
2096921,2096921,162299,700067
2096921,2096921,162286,699929
2096921,2096921,162308,700367
2096921,2096921,162199,700269
2096921,2096921,162307,700254
2096921,2096921,162149,700411
2096921,2096921,162164,700304
2096921,2096921,162420,700689
2096921,2096921,162398,700360
2096921,2096921,162311,700316
2096921,2096921,162258,700665
2096921,2096921,162185,700723
2096921,2096921,162732,701304
2096921,2096921,162744,701239
2096921,2096921,162683,701127
2096921,2096921,162692,701322
2096921,2096921,162575,700886
2096921,2096921,162646,701352
2096921,2096921,162574,701332
2096921,2096921,162665,701344
2096921,2096921,162563,701246
2096921,2096921,162746,701127
2096921,2096921,162722,701658
2096921,2096921,162851,702063
2096921,2096921,162922,701580
2096921,2096921,162982,701744
2096921,2096921,162865,701733
2096921,2096921,163047,702089
2096921,2096921,162879,702054
2096921,2096921,163202,701790
2096921,2096921,163044,701934
2096921,2096921,162822,702304
2096921,2096921,163203,702210
2096921,2096921,163249,702499
2096921,2096921,163154,702656
2096921,2096921,163278,702509
2096921,2096921,163256,702606
2096921,2096921,163037,703133
2096921,2096921,163403,702869
2096921,2096921,163274,703020
2096921,2096921,163616,703036
2096921,2096921,163432,703187
2096921,2096921,163498,703179
2096921,2096921,163557,703217
2096921,2096921,163447,703333
2096921,2096921,163279,703080
2096921,2096921,163388,703456
2096921,2096921,163311,703561
2096921,2096921,163330,703676
2096921,2096921,163733,703598
2096921,2096921,163466,703353
2096921,2096921,163710,703395
2096921,2096921,163722,703583
2096921,2096921,163880,703611
2096921,2096921,163675,703799
2096921,2096921,163745,703570
2096921,2096921,163866,703466
2096921,2096921,163659,703911
2096921,2096921,163888,703945
2096921,2096921,163453,703839
2096921,2096921,163513,703886
2096921,2096921,164221,703850
2096921,2096921,164096,704042
2096921,2096921,163821,704015
2096921,2096921,163979,703756
2096921,2096921,163824,703904
2096921,2096921,163578,704004
2096921,2096921,163555,703717
2096921,2096921,163605,703743
2096921,2096921,163857,703855
2096921,2096921,163821,703710
2096921,2096921,163724,703826
2096921,2096921,163844,703692
2096921,2096921,163740,703943
2096921,2096921,163748,704098
2096921,2096921,163838,703891
2096921,2096921,163774,703713
2096921,2096921,163938,703405
2096921,2096921,163665,703091
2096921,2096921,163704,703409
2096921,2096921,163531,703486
2096921,2096921,163541,703767
2096921,2096921,163897,703283
2096921,2096921,163635,703292
2096921,2096921,163687,703253
2096921,2096921,163702,703138
2096921,2096921,163507,703358
2096921,2096921,163103,703259
2096921,2096921,163354,703378
2096921,2096921,163442,703330
2096921,2096921,163475,703043
2096921,2096921,163557,702986
2096921,2096921,163328,703057
2096921,2096921,163563,702781
2096921,2096921,163725,702625
2096921,2096921,163650,702697
2096921,2096921,163091,702813
2096921,2096921,163444,702448
2096921,2096921,163371,702425
2096921,2096921,163110,702603
2096921,2096921,163286,702881
2096921,2096921,163324,702566
2096921,2096921,163268,702323
2096921,2096921,163276,702339
2096921,2096921,163229,702643
2096921,2096921,163055,702783
2096921,2096921,163059,702472
2096921,2096921,163207,702794
2096921,2096921,163210,702395
2096921,2096921,163348,702562
2096921,2096921,163626,702283
2096921,2096921,163192,702432
2096921,2096921,163356,702454
2096921,2096921,163195,702372
2096921,2096921,163339,702682
2096921,2096921,163265,702532
2096921,2096921,163495,702542
2096921,2096921,163467,702633
2096921,2096921,163602,702708
2096921,2096921,163347,702520
2096921,2096921,163430,702499
2096921,2096921,163551,702763
2096921,2096921,163661,702738
2096921,2096921,163361,702626
2096921,2096921,163547,702302
2096921,2096921,163382,702475
2096921,2096921,163307,702368
2096921,2096921,163089,702731
2096921,2096921,163364,702794
2096921,2096921,163582,702906
2096921,2096921,163494,702859
2096921,2096921,163619,702665
2096921,2096921,163544,703143
2096921,2096921,163568,703171
2096921,2096921,163449,703449
2096921,2096921,163591,702941
2096921,2096921,163545,703004
2096921,2096921,163392,703124
2096921,2096921,163358,703156
2096921,2096921,163595,702934
2096921,2096921,163558,703269
2096921,2096921,163437,703410
2096921,2096921,163897,703625
2096921,2096921,163965,703689
2096921,2096921,163810,703251
2096921,2096921,163937,703691
2096921,2096921,163793,703201
2096921,2096921,163976,703756
2096921,2096921,163603,703771
2096921,2096921,163881,703436
2096921,2096921,163976,703457
2096921,2096921,164050,703562
2096921,2096921,163732,703497
2096921,2096921,163917,703585
2096921,2096921,164186,703687
2096921,2096921,164025,703531
2096921,2096921,163951,703561
2096921,2096921,163915,703975
2096921,2096921,164093,703798
2096921,2096921,164116,703964
2096921,2096921,164298,703864
2096921,2096921,164137,704034
2096921,2096921,164347,704347
2096921,2096921,164077,704153
2096921,2096921,164143,704241
2096921,2096921,164287,703773
2096921,2096921,163948,703914
2096921,2096921,163739,704260
2096921,2096921,164017,704439
2096921,2096921,164217,704370
2096921,2096921,164113,704166
2096921,2096921,164190,704157
2096921,2096921,164200,704225
2096921,2096921,164394,704378
2096921,2096921,164161,704763
2096921,2096921,164177,704285
2096921,2096921,164044,704583
2096921,2096921,164018,704660
2096921,2096921,164132,704672
2096921,2096921,164623,704904
2096921,2096921,164199,704570
2096921,2096921,164308,704808
2096921,2096921,164560,704628
2096921,2096921,164637,704726
2096921,2096921,164373,704866
2096921,2096921,164427,704903
2096921,2096921,164150,704547
2096921,2096921,164386,704854
2096921,2096921,164480,704561
2096921,2096921,164282,704888
2096921,2096921,164620,705166
2096921,2096921,164709,704871
2096921,2096921,164948,704914
2096921,2096921,164757,705042
2096921,2096921,164328,705307
2096921,2096921,164579,705272
2096921,2096921,164544,704985
2096921,2096921,164429,705594
2096921,2096921,164273,705442
2096921,2096921,164461,705562
2096921,2096921,164546,705258
2096921,2096921,164824,705337
2096921,2096921,164793,705559
2096921,2096921,164962,705455
2096921,2096921,164806,705538
2096921,2096921,164736,705167
2096921,2096921,164666,705353
2096921,2096921,164580,705517
2096921,2096921,164943,705626
2096921,2096921,164640,705323
2096921,2096921,164552,705374
2096921,2096921,164913,705487
2096921,2096921,164847,705263
2096921,2096921,164819,705606
2096921,2096921,164863,705621
2096921,2096921,164963,705373
2096921,2096921,164632,705671
2096921,2096921,164680,705343
2096921,2096921,164707,705667
2096921,2096921,164593,705741
2096921,2096921,164701,705557
2096921,2096921,164975,705524
2096921,2096921,164851,705597
2096921,2096921,164706,705987
2096921,2096921,164860,705928
2096921,2096921,164999,705581
2096921,2096921,164701,705727
2096921,2096921,164899,705663
2096921,2096921,164894,705839
2096921,2096921,164897,705881
2096921,2096921,164903,705762
2096921,2096921,164802,705984
2096921,2096921,165003,706007
2096921,2096921,165328,706044
2096921,2096921,164705,705982
2096921,2096921,164749,705887
2096921,2096921,164864,706227
2096921,2096921,164711,705904
2096921,2096921,164951,705826
2096921,2096921,164815,705710
2096921,2096921,165118,706004
2096921,2096921,165186,706251
2096921,2096921,165200,706388
2096921,2096921,164992,706247
2096921,2096921,165066,705999
2096921,2096921,164954,706110
2096921,2096921,165116,705928
2096921,2096921,164919,706160
2096921,2096921,165180,706218
2096921,2096921,165226,705972
2096921,2096921,165187,706285
2096921,2096921,165119,706275
2096921,2096921,164989,706613
2096921,2096921,164892,706264
2096921,2096921,164941,706457
2096921,2096921,165067,706012
2096921,2096921,164931,706133
2096921,2096921,164973,706357
2096921,2096921,164889,706317
2096921,2096921,164905,706178
2096921,2096921,164862,706304
2096921,2096921,165094,706281
2096921,2096921,165125,706329
2096921,2096921,165326,706153
2096921,2096921,165200,706131
2096921,2096921,165251,706342
2096921,2096921,164994,706052
2096921,2096921,165134,706407
2096921,2096921,165288,706490
2096921,2096921,165258,706219
2096921,2096921,165123,706324
2096921,2096921,165210,706179
2096921,2096921,165077,706259
2096921,2096921,164940,706440
2096921,2096921,165031,706039
2096921,2096921,165209,706098
2096921,2096921,164920,706025
2096921,2096921,165076,706194
2096921,2096921,164984,706317
2096921,2096921,165116,706356
2096921,2096921,165109,706356
2096921,2096921,165157,706565
2096921,2096921,165414,706167
2096921,2096921,165240,706347
2096921,2096921,165532,706426
2096921,2096921,165016,706419
2096921,2096921,165049,706277
2096921,2096921,165231,706203
2096921,2096921,164899,706196
2096921,2096921,165151,706240
2096921,2096921,165033,706463
2096921,2096921,165142,705967
2096921,2096921,165367,706328
2096921,2096921,165094,706462
2096921,2096921,165082,706663
2096921,2096921,164985,706239
2096921,2096921,165204,706294
2096921,2096921,165276,706229
2096921,2096921,165203,706524
2096921,2096921,164985,706394
2096921,2096921,165105,706087
2096921,2096921,165345,706514
2096921,2096921,165347,706446
2096921,2096921,165284,706577
2096921,2096921,165406,706538
2096921,2096921,165115,706470
2096921,2096921,165160,706159
2096921,2096921,165197,706392
2096921,2096921,165413,706426
2096921,2096921,165382,706563
2096921,2096921,165341,706436
2096921,2096921,165105,706374
2096921,2096921,165239,706336
2096921,2096921,165341,706252
2096921,2096921,165348,706360
2096921,2096921,165298,706406
2096921,2096921,165188,706470
2096921,2096921,165276,706300
2096921,2096921,165131,706200
2096921,2096921,165389,706440
2096921,2096921,165286,706418
2096921,2096921,165079,706174
2096921,2096921,165325,706310
2096921,2096921,165299,706577
2096921,2096921,165656,706253
2096921,2096921,165237,706325
2096921,2096921,165075,706205
2096921,2096921,164962,706603
2096921,2096921,165265,706555
2096921,2096921,165353,706468
2096921,2096921,165313,706321
2096921,2096921,165533,706549
2096921,2096921,165574,706613
2096921,2096921,165429,706413
2096921,2096921,165410,706426
2096921,2096921,165407,706484
2096921,2096921,165133,706582
2096921,2096921,165116,706101
2096921,2096921,165407,706467
2096921,2096921,165273,706087
2096921,2096921,165349,706157
2096921,2096921,165326,706051
2096921,2096921,165320,706506
2096921,2096921,165276,706285
2096921,2096921,165161,706486
2096921,2096921,165376,706273
2096921,2096921,165411,706338
2096921,2096921,165331,706441
2096921,2096921,165208,706207
2096921,2096921,165346,706080
2096921,2096921,165184,706175
2096921,2096921,165277,706288
2096921,2096921,165224,706358
2096921,2096921,165321,706116
2096921,2096921,165423,706288
2096921,2096921,165335,706550
2096921,2096921,164987,706233
2096921,2096921,165473,706090
2096921,2096921,165243,706048
2096921,2096921,165335,706325
2096921,2096921,165363,705834
2096921,2096921,165277,706115
2096921,2096921,165275,706253
2096921,2096921,165456,706144
2096921,2096921,165346,706314
2096921,2096921,165210,706565
2096921,2096921,165200,706159
2096921,2096921,165159,706503
2096921,2096921,165247,706091
2096921,2096921,165406,706243
2096921,2096921,165326,706174
2096921,2096921,165051,706351
2096921,2096921,165475,706053
2096921,2096921,165066,706103
2096921,2096921,165197,706105
2096921,2096921,165463,706063
2096921,2096921,165174,706268
2096921,2096921,165074,705751
2096921,2096921,164926,705843
2096921,2096921,165003,705820
2096921,2096921,165372,706043
2096921,2096921,165320,706406
2096921,2096921,165358,705590
2096921,2096921,165407,705997
2096921,2096921,165479,706048
2096921,2096921,165470,706120
2096921,2096921,165113,705972
2096921,2096921,165109,705990
2096921,2096921,165207,706003
2096921,2096921,165126,705981
2096921,2096921,165176,705750
2096921,2096921,165519,705858
2096921,2096921,165096,705825
2096921,2096921,165199,705380
2096921,2096921,165338,705518
2096921,2096921,165118,705644
2096921,2096921,164794,705210
2096921,2096921,165031,705152
2096921,2096921,165227,704968
2096921,2096921,164753,705245
2096921,2096921,164882,705091
2096921,2096921,164945,705050
2096921,2096921,164991,704367
2096921,2096921,164448,704423
2096921,2096921,164325,704303
2096921,2096921,164559,704291
2096921,2096921,164607,704255
2096921,2096921,164312,703915
2096921,2096921,164184,703603
2096921,2096921,164399,703795
2096921,2096921,164484,703710
2096921,2096921,164278,703294
2096921,2096921,164154,702723
2096921,2096921,164002,702482
2096921,2096921,164333,702576
2096921,2096921,163959,702498
2096921,2096921,164119,702602
2096921,2096921,163376,700984
2096921,2096921,163210,700483
2096921,2096921,163227,700229
2096921,2096921,163185,700583
2096921,2096921,162909,700828
2096921,2096921,162368,698826
2096921,2096921,162370,698071
2096921,2096921,161931,698157
2096921,2096921,162111,698072
2096921,2096921,162148,697803
2096921,2096921,161553,696303
2096921,2096921,161498,696184
2096921,2096921,161481,695911
2096921,2096921,161318,696104
2096921,2096921,161346,696089
2096921,2096921,161174,694878
2096921,2096921,160918,694474
2096921,2096921,160829,694697
2096921,2096921,160901,694547
2096921,2096921,161012,694561
2096921,2096921,160731,693754
2096921,2096921,160578,693525
2096921,2096921,160577,693518
2096921,2096921,160712,693565
2096921,2096921,160728,693635
2096921,2096921,160447,692739
2096921,2096921,160221,692618
2096921,2096921,160122,692715
2096921,2096921,159997,692684
2096921,2096921,160185,692672
2096921,2096921,159779,692261
2096921,2096921,160002,692082
2096921,2096921,160087,692084
2096921,2096921,159864,692007
2096921,2096921,159833,692043
2096921,2096921,159809,691747
2096921,2096921,159950,691800
2096921,2096921,159724,691906
2096921,2096921,159813,691740
2096921,2096921,160100,692191
2096921,2096921,160064,691620
2096921,2096921,159923,691505
2096921,2096921,159646,691687
2096921,2096921,159624,691539
2096921,2096921,159855,691526
2096921,2096921,159654,691683
2096921,2096921,159958,691651
2096921,2096921,159903,691958
2096921,2096921,159900,691770
2096921,2096921,159560,691634
2096921,2096921,159980,691950
2096921,2096921,159965,692024
2096921,2096921,160155,691777
2096921,2096921,159905,691648
2096921,2096921,159877,691665
2096921,2096921,159920,692057
2096921,2096921,160168,692133
2096921,2096921,160012,692012
2096921,2096921,160103,692011
2096921,2096921,159829,691948
2096921,2096921,160054,691870
2096921,2096921,160051,691920
2096921,2096921,160122,691880
2096921,2096921,159968,692116
2096921,2096921,159724,692262
2096921,2096921,160090,692222
2096921,2096921,160177,692430
2096921,2096921,160264,692630
2096921,2096921,160020,692522
2096921,2096921,160146,692521
2096921,2096921,160221,692698
2096921,2096921,160114,693099
2096921,2096921,160151,693216
2096921,2096921,160224,692894
2096921,2096921,160447,692925
2096921,2096921,160646,693392
2096921,2096921,160500,693614
2096921,2096921,160726,693263
2096921,2096921,160641,693349
2096921,2096921,160593,693535
2096921,2096921,160771,693711
2096921,2096921,160509,693798
2096921,2096921,160669,693798
2096921,2096921,160746,694004
2096921,2096921,160968,693704
2096921,2096921,161014,694041
2096921,2096921,161200,694320
2096921,2096921,161076,694202
2096921,2096921,160970,694352
2096921,2096921,160953,694383
2096921,2096921,160823,694691
2096921,2096921,161063,694424
2096921,2096921,161233,694689
