2096921,2096921,438191,241861,51146
2096921,2096921,438335,241892,51020
2096921,2096921,438378,241823,51706
2096921,2096921,438409,241941,51043
2096921,2096921,438453,241866,51146
2096921,2096921,438373,241922,51075
2096921,2096921,438284,241752,50972
2096921,2096921,438441,241713,51706
2096921,2096921,438460,241938,51059
2096921,2096921,438479,241890,50972
2096921,2096921,438512,242015,50972
2096921,2096921,438551,241959,51059
2096921,2096921,438563,241942,51075
2096921,2096921,438391,241769,50972
2096921,2096921,438743,241958,50972
2096921,2096921,438754,242044,50972
2096921,2096921,438678,241982,50972
2096921,2096921,438665,241887,50972
2096921,2096921,438483,241797,50972
2096921,2096921,438684,241831,50972
2096921,2096921,438629,241879,51075
2096921,2096921,438670,241968,50972
2096921,2096921,438669,241887,50972
2096921,2096921,438753,241965,51075
2096921,2096921,438629,241861,50972
2096921,2096921,438564,241828,50972
2096921,2096921,438835,241880,51059
2096921,2096921,438670,241851,51075
2096921,2096921,438759,241853,51706
2096921,2096921,438670,241785,50972
2096921,2096921,438959,241940,51020
2096921,2096921,438772,241835,51020
2096921,2096921,438968,241991,51201
2096921,2096921,438985,241913,51020
2096921,2096921,439099,241964,51059
2096921,2096921,439071,241939,51075
2096921,2096921,439047,241997,51043
2096921,2096921,438975,241810,51706
2096921,2096921,439134,241764,51201
2096921,2096921,439158,242025,51020
2096921,2096921,439168,241915,51075
2096921,2096921,439228,242015,51107
2096921,2096921,439132,241987,51201
2096921,2096921,439210,242053,51146
2096921,2096921,439196,241943,51075
2096921,2096921,439329,241960,51059
2096921,2096921,439093,241888,51059
2096921,2096921,439203,241909,51020
2096921,2096921,439390,242087,51059
2096921,2096921,439479,241997,51020
2096921,2096921,439337,242018,51146
2096921,2096921,439231,241960,50972
2096921,2096921,439122,241881,50972
2096921,2096921,439337,241922,50972
2096921,2096921,439312,241981,51146
2096921,2096921,439109,241912,50972
2096921,2096921,439144,241927,51107
2096921,2096921,439148,241934,50972
2096921,2096921,439083,241875,50972
2096921,2096921,439244,241858,51075
2096921,2096921,439300,241985,50972
2096921,2096921,439191,241914,51075
2096921,2096921,439111,241905,50972
2096921,2096921,439117,241884,51075
2096921,2096921,439169,242017,50972
2096921,2096921,439191,241880,50972
2096921,2096921,439010,241712,51020
2096921,2096921,438730,241751,51075
2096921,2096921,438741,241761,51020
2096921,2096921,438758,241682,51706
2096921,2096921,438310,241556,51201
2096921,2096921,437765,241502,50972
2096921,2096921,437778,241476,50933
2096921,2096921,437751,241277,51059
2096921,2096921,436839,241188,51706
2096921,2096921,436748,241019,50972
2096921,2096921,436802,241113,50972
2096921,2096921,437027,240995,51107
2096921,2096921,436159,240883,50972
2096921,2096921,436108,240937,50972
2096921,2096921,434209,240254,50972
2096921,2096921,433956,240226,51075
2096921,2096921,434092,240163,50972
2096921,2096921,434155,239687,51020
2096921,2096921,431869,239606,50972
2096921,2096921,431792,239519,50972
2096921,2096921,431811,239083,50972
2096921,2096921,430009,238961,50972
2096921,2096921,429838,238834,50949
2096921,2096921,429958,238693,51059
2096921,2096921,428703,238525,50972
2096921,2096921,428650,238546,51201
2096921,2096921,428721,238623,51075
2096921,2096921,427622,238254,51075
2096921,2096921,427451,238154,50972
2096921,2096921,427652,238032,51107
2096921,2096921,426906,238058,50972
2096921,2096921,426365,237807,51107
2096921,2096921,426262,237607,51059
2096921,2096921,426329,237745,51059
2096921,2096921,426504,237765,51233
2096921,2096921,426136,237753,51107
2096921,2096921,426219,237703,51706
2096921,2096921,425919,237591,51107
2096921,2096921,425788,237567,51059
2096921,2096921,425977,237690,51233
2096921,2096921,426002,237680,51107
2096921,2096921,426022,237578,51107
2096921,2096921,425977,237584,51059
2096921,2096921,426304,237757,51107
2096921,2096921,426261,237703,51107
2096921,2096921,426393,237755,51706
2096921,2096921,426265,237732,51059
2096921,2096921,426455,237913,51059
2096921,2096921,426888,237927,51075
2096921,2096921,427123,237979,51107
2096921,2096921,426962,237953,51059
2096921,2096921,427578,238216,51059
2096921,2096921,427676,238263,51059
2096921,2096921,427682,238272,51146
2096921,2096921,428021,238262,51059
2096921,2096921,428595,238479,51059
2096921,2096921,428526,238524,51059
2096921,2096921,428544,238581,51193
2096921,2096921,428731,238581,51059
2096921,2096921,428627,238473,51059
2096921,2096921,428767,238436,51075
2096921,2096921,428852,238757,51146
2096921,2096921,429148,238684,51059
2096921,2096921,429324,238750,51075
2096921,2096921,429321,238857,51107
2096921,2096921,429526,238868,51059
2096921,2096921,429456,238638,51059
2096921,2096921,430448,239080,51059
2096921,2096921,430657,239295,51059
2096921,2096921,430906,239233,51059
2096921,2096921,431006,239262,51059
2096921,2096921,431056,239315,51059
2096921,2096921,430988,239445,51146
2096921,2096921,431276,239428,51075
2096921,2096921,431278,239316,51107
2096921,2096921,431351,239318,51059
2096921,2096921,431377,239638,51193
2096921,2096921,431694,239506,51075
2096921,2096921,431677,239487,51059
2096921,2096921,431863,239618,50972
2096921,2096921,431688,239592,51059
2096921,2096921,431908,239582,50972
2096921,2096921,431870,239433,51706
2096921,2096921,431942,239467,50933
2096921,2096921,432051,239678,51107
2096921,2096921,432217,239665,51020
2096921,2096921,432287,239677,50972
2096921,2096921,432361,239731,50972
2096921,2096921,432271,239797,51146
2096921,2096921,432327,239766,50972
2096921,2096921,432215,239667,51075
2096921,2096921,432348,239611,51020
2096921,2096921,432350,239768,51146
2096921,2096921,432503,239768,50972
2096921,2096921,432588,239734,51201
2096921,2096921,432626,239847,50972
2096921,2096921,432464,239791,51059
2096921,2096921,432527,239729,50972
2096921,2096921,432369,239673,50972
2096921,2096921,432485,239699,51020
2096921,2096921,432520,239747,51146
2096921,2096921,432608,239772,50972
2096921,2096921,432503,239725,50972
2096921,2096921,432521,239838,51075
2096921,2096921,432608,239775,51706
2096921,2096921,432427,239707,51706
2096921,2096921,432335,239653,50972
2096921,2096921,432427,239623,50972
2096921,2096921,432484,239773,51020
2096921,2096921,432361,239709,50972
2096921,2096921,432340,239772,50972
2096921,2096921,432445,239808,51020
2096921,2096921,432285,239630,51059
2096921,2096921,432066,239586,50972
2096921,2096921,432014,239492,50972
2096921,2096921,432126,239501,51020
2096921,2096921,432105,239635,51107
2096921,2096921,431954,239615,51020
2096921,2096921,432156,239632,51020
2096921,2096921,432132,239671,51020
2096921,2096921,431988,239632,51107
2096921,2096921,431908,239494,51020
2096921,2096921,431684,239446,51059
2096921,2096921,431870,239495,51020
2096921,2096921,431947,239564,51107
2096921,2096921,431864,239635,50972
2096921,2096921,431940,239541,51020
2096921,2096921,431980,239631,51020
2096921,2096921,431928,239632,51146
2096921,2096921,431805,239599,51043
2096921,2096921,431704,239514,51706
2096921,2096921,431909,239431,51020
2096921,2096921,431951,239667,51233
2096921,2096921,431977,239583,51020
2096921,2096921,432048,239628,51059
2096921,2096921,432048,239796,51706
2096921,2096921,431923,239649,51146
2096921,2096921,431973,239604,51020
2096921,2096921,431804,239584,50972
2096921,2096921,432029,239543,51020
2096921,2096921,432043,239628,51107
2096921,2096921,432228,239706,51706
2096921,2096921,432174,239698,51020
2096921,2096921,432253,239757,51201
2096921,2096921,432225,239804,51107
2096921,2096921,432478,239818,51043
2096921,2096921,432298,239705,51043
2096921,2096921,432502,239655,51020
2096921,2096921,432520,239858,51146
2096921,2096921,432813,239866,51020
2096921,2096921,432848,239906,51020
2096921,2096921,432864,239971,51020
2096921,2096921,432853,240011,51107
2096921,2096921,433043,239896,51020
2096921,2096921,432939,239915,51020
2096921,2096921,433060,239904,51020
2096921,2096921,433111,240007,51059
2096921,2096921,433337,240092,51020
2096921,2096921,433389,240032,50972
2096921,2096921,433492,240100,51020
2096921,2096921,433342,240107,51020
2096921,2096921,433515,240079,50972
2096921,2096921,433455,239985,51020
2096921,2096921,433560,240027,51020
2096921,2096921,433647,240185,51107
2096921,2096921,433885,240174,51075
2096921,2096921,433921,240214,51043
2096921,2096921,433901,240298,51043
2096921,2096921,433851,240299,51146
2096921,2096921,433951,240258,51075
2096921,2096921,433965,240189,51020
2096921,2096921,434037,240134,51706
2096921,2096921,434042,240353,51107
2096921,2096921,434283,240352,51020
2096921,2096921,434337,240338,51020
2096921,2096921,434405,240447,51020
2096921,2096921,434272,240490,51146
2096921,2096921,434592,240410,51020
2096921,2096921,434382,240317,51020
2096921,2096921,434541,240321,51020
2096921,2096921,434602,240535,51146
2096921,2096921,434813,240528,51020
2096921,2096921,434851,240488,51020
2096921,2096921,434959,240584,51020
2096921,2096921,434897,240625,51107
2096921,2096921,435003,240549,51020
2096921,2096921,434885,240462,51020
2096921,2096921,435066,240439,51075
2096921,2096921,435117,240609,51146
2096921,2096921,435250,240620,51020
2096921,2096921,435257,240632,51020
2096921,2096921,435303,240768,51075
2096921,2096921,435270,240743,51706
2096921,2096921,435381,240668,51201
2096921,2096921,435341,240642,51020
2096921,2096921,435467,240568,51075
2096921,2096921,435528,240875,51075
2096921,2096921,435732,240835,51059
2096921,2096921,435726,240803,50972
2096921,2096921,435786,241027,50972
2096921,2096921,435800,240884,50933
2096921,2096921,435892,240898,50972
2096921,2096921,435844,240818,50972
2096921,2096921,435993,240781,50972
2096921,2096921,436007,241012,51059
2096921,2096921,436228,240993,50972
2096921,2096921,436147,240959,51706
2096921,2096921,436283,241017,50972
2096921,2096921,436149,241056,51059
2096921,2096921,436345,240994,50972
2096921,2096921,436278,240950,50972
2096921,2096921,436315,240875,50972
2096921,2096921,436426,241076,51059
2096921,2096921,436493,241093,50972
2096921,2096921,436619,241018,51201
2096921,2096921,436654,241219,50972
2096921,2096921,436540,241213,51107
2096921,2096921,436557,241099,50972
2096921,2096921,436484,241031,51075
2096921,2096921,436688,241063,50933
2096921,2096921,436703,241204,51107
2096921,2096921,436873,241229,51075
2096921,2096921,436854,241151,50972
2096921,2096921,436873,241286,50933
2096921,2096921,436896,241230,51075
2096921,2096921,436980,241205,50972
2096921,2096921,436814,241150,50972
2096921,2096921,437018,241129,50972
2096921,2096921,437007,241344,51107
2096921,2096921,437190,241298,50933
2096921,2096921,437229,241259,50972
2096921,2096921,437239,241411,50972
2096921,2096921,437211,241315,51059
2096921,2096921,437232,241273,50972
2096921,2096921,437163,241231,50972
2096921,2096921,437324,241233,50972
2096921,2096921,437338,241404,50972
2096921,2096921,437478,241375,51706
2096921,2096921,437497,241379,51059
2096921,2096921,437623,241481,51020
2096921,2096921,437547,241486,51020
2096921,2096921,437589,241391,51020
2096921,2096921,437412,241329,50972
2096921,2096921,437534,241328,51020
2096921,2096921,437640,241492,51020
2096921,2096921,437712,241541,51075
2096921,2096921,437787,241482,51020
2096921,2096921,437825,241505,51020
2096921,2096921,437745,241449,51107
2096921,2096921,437796,241479,50972
2096921,2096921,437641,241489,51706
2096921,2096921,437809,241336,51020
2096921,2096921,437825,241554,51107
2096921,2096921,438028,241533,51043
2096921,2096921,438017,241503,51020
2096921,2096921,437986,241640,51020
2096921,2096921,437949,241575,51146
2096921,2096921,438015,241543,51020
2096921,2096921,437937,241531,51020
2096921,2096921,437987,241444,51020
2096921,2096921,438088,241685,51146
2096921,2096921,438208,241580,51020
2096921,2096921,438140,241600,51020
2096921,2096921,438374,241652,51020
2096921,2096921,438151,241543,51107
2096921,2096921,438223,241626,51020
2096921,2096921,438067,241476,51020
2096921,2096921,438212,241488,51020
2096921,2096921,438289,241664,51146
2096921,2096921,438353,241737,51020
2096921,2096921,438404,241699,51020
2096921,2096921,438441,241734,50972
2096921,2096921,438363,241752,51107
2096921,2096921,438405,241633,51020
2096921,2096921,438227,241529,51706
2096921,2096921,438369,241602,51059
2096921,2096921,438452,241810,51020
2096921,2096921,438493,241729,51020
2096921,2096921,438531,241709,51059
2096921,2096921,438555,241753,51706
2096921,2096921,438507,241755,51059
2096921,2096921,438516,241799,51020
2096921,2096921,438443,241661,51201
2096921,2096921,438651,241661,51706
2096921,2096921,438612,241805,51059
2096921,2096921,438732,241784,51706
2096921,2096921,438715,241803,51059
2096921,2096921,438782,241879,51059
2096921,2096921,438684,241792,51107
2096921,2096921,438671,241792,51059
2096921,2096921,438656,241671,51043
2096921,2096921,438734,241631,51059
2096921,2096921,438815,241890,51107
2096921,2096921,438818,241874,51706
2096921,2096921,438850,241847,51201
2096921,2096921,438962,241912,51706
2096921,2096921,438866,241920,51146
2096921,2096921,438861,241885,51020
2096921,2096921,438830,241743,51020
2096921,2096921,438943,241807,51020
2096921,2096921,439001,241920,51193
2096921,2096921,439056,241907,51075
2096921,2096921,439005,241889,51020
2096921,2096921,439121,241999,51706
2096921,2096921,439010,241992,51146
2096921,2096921,439044,241895,51059
2096921,2096921,438976,241778,51020
2096921,2096921,439093,241810,51201
2096921,2096921,439139,241994,51107
2096921,2096921,439194,241961,51020
2096921,2096921,439229,241907,51059
2096921,2096921,439189,242003,51020
2096921,2096921,439084,241976,51146
2096921,2096921,439159,241954,51020
2096921,2096921,439059,241844,51020
2096921,2096921,439230,241897,51075
2096921,2096921,439195,242043,51059
2096921,2096921,439404,241917,50972
2096921,2096921,439310,241987,51075
2096921,2096921,439397,242051,51075
2096921,2096921,439376,242042,51059
2096921,2096921,439241,242017,51201
2096921,2096921,439243,241924,50972
2096921,2096921,439234,241862,50972
2096921,2096921,439360,242075,50972
2096921,2096921,439353,242025,51075
2096921,2096921,439390,242037,50972
2096921,2096921,439425,242118,50972
2096921,2096921,439395,242121,50972
2096921,2096921,439360,242035,50972
2096921,2096921,439274,241890,50933
2096921,2096921,439312,241957,51075
2096921,2096921,439321,242139,51020
2096921,2096921,439447,242101,50972
2096921,2096921,439470,242196,50972
2096921,2096921,439557,242217,51075
2096921,2096921,439467,242136,51059
2096921,2096921,439483,242100,50972
2096921,2096921,439314,242095,50972
2096921,2096921,439403,241918,50972
2096921,2096921,439530,242213,51107
2096921,2096921,439387,242124,50972
2096921,2096921,439498,242100,50972
2096921,2096921,439553,242174,50972
2096921,2096921,439455,242127,51059
2096921,2096921,439377,242131,50972
2096921,2096921,439336,242022,50933
2096921,2096921,439547,241994,51075
2096921,2096921,439507,242223,51706
2096921,2096921,439590,242174,50972
2096921,2096921,439553,242087,51020
2096921,2096921,439638,242166,51706
2096921,2096921,439521,242116,51107
2096921,2096921,439449,242125,50972
2096921,2096921,439417,242053,50972
2096921,2096921,439512,242062,51706
2096921,2096921,439570,242094,51059
2096921,2096921,439211,242027,50972
2096921,2096921,439231,242112,50972
2096921,2096921,439291,242119,50972
2096921,2096921,439120,242021,51107
2096921,2096921,438760,241929,50972
2096921,2096921,438728,241810,50972
2096921,2096921,438810,241841,50972
2096921,2096921,438813,241778,50933
2096921,2096921,438256,241771,50972
2096921,2096921,438269,241708,50972
2096921,2096921,438301,241796,50972
2096921,2096921,438257,241584,50972
2096921,2096921,437473,241527,50972
2096921,2096921,437295,241465,50972
2096921,2096921,437418,241363,50972
2096921,2096921,437530,241347,51706
2096921,2096921,436699,241272,50972
2096921,2096921,436832,241255,50972
2096921,2096921,436794,241315,51075
2096921,2096921,436690,240825,51706
2096921,2096921,434815,240646,51075
2096921,2096921,434634,240561,50972
2096921,2096921,434742,240545,50972
2096921,2096921,434753,240150,51059
2096921,2096921,432547,239935,50972
2096921,2096921,432489,239964,50972
2096921,2096921,432548,240082,50972
2096921,2096921,432422,239544,51059
2096921,2096921,430706,239451,50972
2096921,2096921,430553,239219,51201
2096921,2096921,430744,239213,50972
2096921,2096921,430699,239050,51706
2096921,2096921,429477,238992,50972
2096921,2096921,429452,239014,50972
2096921,2096921,429486,239043,50933
2096921,2096921,429371,238752,51107
2096921,2096921,428399,238689,50972
2096921,2096921,428142,238576,51706
2096921,2096921,428351,238527,50972
2096921,2096921,428388,238403,51146
2096921,2096921,427776,238480,51059
2096921,2096921,427876,238425,51059
2096921,2096921,427806,238541,51020
2096921,2096921,427809,238334,51201
2096921,2096921,427224,238172,51020
2096921,2096921,427080,238285,51020
2096921,2096921,427308,238146,50972
2096921,2096921,427305,238322,51107
2096921,2096921,427054,238235,50972
2096921,2096921,427096,238258,51020
2096921,2096921,427066,238313,51075
2096921,2096921,427034,238266,51020
2096921,2096921,426884,238206,50972
2096921,2096921,426802,238169,51075
2096921,2096921,426982,238117,51020
2096921,2096921,426958,238324,51075
2096921,2096921,427054,238274,51020
2096921,2096921,427050,238267,51020
2096921,2096921,427143,238312,50972
2096921,2096921,427053,238354,51107
2096921,2096921,427190,238246,50972
2096921,2096921,427021,238195,51020
2096921,2096921,427149,238158,51020
2096921,2096921,427195,238308,51107
2096921,2096921,427332,238374,51075
2096921,2096921,427395,238433,51020
2096921,2096921,427507,238385,51020
2096921,2096921,427439,238451,51201
2096921,2096921,427578,238450,51020
2096921,2096921,427408,238332,51020
2096921,2096921,427498,238330,51020
2096921,2096921,427562,238629,51146
2096921,2096921,427999,238639,51020
2096921,2096921,428175,238563,51201
2096921,2096921,428178,238665,50972
2096921,2096921,428093,238725,51706
2096921,2096921,428436,238676,51020
2096921,2096921,428242,238647,51706
2096921,2096921,428449,238613,51020
2096921,2096921,428395,238968,51146
2096921,2096921,428961,238936,51020
2096921,2096921,428924,238869,51020
2096921,2096921,429033,238984,51043
2096921,2096921,429013,239125,51146
2096921,2096921,429353,239083,51020
2096921,2096921,429261,238987,51020
2096921,2096921,429351,238983,51075
2096921,2096921,429432,239273,51146
2096921,2096921,429921,239230,51075
2096921,2096921,429971,239250,51201
2096921,2096921,429986,239338,51706
2096921,2096921,429983,239442,51020
2096921,2096921,430255,239389,51059
2096921,2096921,430203,239357,51020
2096921,2096921,430270,239412,51020
2096921,2096921,430323,239619,51020
2096921,2096921,430705,239657,51020
2096921,2096921,430809,239512,51059
2096921,2096921,430871,239626,51059
2096921,2096921,430710,239720,51107
2096921,2096921,431159,239730,51020
2096921,2096921,431118,239715,51201
2096921,2096921,431288,239684,51059
2096921,2096921,431278,239908,51107
2096921,2096921,431733,239930,51059
2096921,2096921,431785,239888,51706
2096921,2096921,431854,240024,51059
2096921,2096921,431750,240107,51107
2096921,2096921,432149,240050,51020
2096921,2096921,431947,240016,51059
2096921,2096921,432039,239866,51706
2096921,2096921,432231,240214,51201
2096921,2096921,432693,240224,51020
2096921,2096921,432763,240202,51075
2096921,2096921,432780,240345,51059
2096921,2096921,432742,240441,51193
2096921,2096921,433092,240406,51059
2096921,2096921,433026,240326,51059
2096921,2096921,433103,240279,51020
2096921,2096921,433125,240519,51146
2096921,2096921,433552,240600,51020
2096921,2096921,433577,240524,51059
2096921,2096921,433740,240603,51020
2096921,2096921,433641,240731,51146
2096921,2096921,433970,240664,51020
2096921,2096921,433875,240555,51020
2096921,2096921,433889,240654,51020
2096921,2096921,434056,240855,51107
2096921,2096921,434174,240794,51020
2096921,2096921,434322,240756,51075
2096921,2096921,434283,240867,51020
2096921,2096921,434212,240926,51146
2096921,2096921,434399,240822,51020
2096921,2096921,434233,240809,51020
2096921,2096921,434471,240751,51020
2096921,2096921,434447,241020,51107
2096921,2096921,434713,241022,51020
2096921,2096921,434740,240942,51020
2096921,2096921,434771,241096,51059
2096921,2096921,434698,241042,51020
2096921,2096921,434642,241013,51020
2096921,2096921,434544,240915,51020
2096921,2096921,434714,240786,51020
2096921,2096921,434669,240998,51059
2096921,2096921,434750,240960,51020
2096921,2096921,434840,240957,51059
2096921,2096921,434883,241071,51020
2096921,2096921,434875,241041,51107
2096921,2096921,434727,241026,51020
2096921,2096921,434610,240926,51020
2096921,2096921,434679,240928,51020
2096921,2096921,434788,241065,51107
2096921,2096921,434660,241013,51706
2096921,2096921,434765,241018,51020
2096921,2096921,434772,241144,51020
2096921,2096921,434719,241050,51201
2096921,2096921,434665,241068,51020
2096921,2096921,434442,240985,51043
2096921,2096921,434611,240983,51059
2096921,2096921,434650,241049,51193
2096921,2096921,434587,241069,51020
2096921,2096921,434613,241022,51059
2096921,2096921,434622,241080,51706
2096921,2096921,434584,241083,51146
2096921,2096921,434558,241024,51020
2096921,2096921,434326,241096,51020
2096921,2096921,434507,240971,51020
2096921,2096921,434538,241146,51146
2096921,2096921,434605,241127,51020
2096921,2096921,434648,240992,51059
2096921,2096921,434701,241202,51020
2096921,2096921,434682,241215,51706
2096921,2096921,434477,241163,51020
2096921,2096921,434625,240976,51059
2096921,2096921,434681,240986,51020
2096921,2096921,434613,241171,51107
2096921,2096921,434787,241153,51020
2096921,2096921,434722,241195,51059
2096921,2096921,434834,241239,51020
2096921,2096921,434845,241311,51020
2096921,2096921,434915,241230,51059
2096921,2096921,434815,241116,51043
2096921,2096921,434856,241103,51059
2096921,2096921,435015,241285,51059
2096921,2096921,435155,241368,51075
2096921,2096921,435344,241315,51043
2096921,2096921,435266,241419,51706
2096921,2096921,435144,241466,51107
2096921,2096921,435571,241492,51706
2096921,2096921,435444,241378,51020
2096921,2096921,435508,241337,51075
2096921,2096921,435626,241602,51146
2096921,2096921,435909,241694,51020
2096921,2096921,436101,241652,51706
2096921,2096921,436072,241779,51020
2096921,2096921,436004,241805,51146
2096921,2096921,436166,241735,51020
2096921,2096921,436107,241719,50972
2096921,2096921,436260,241616,51706
2096921,2096921,436295,241873,51706
2096921,2096921,436699,241927,51075
2096921,2096921,436657,241898,51020
2096921,2096921,436719,242006,51020
2096921,2096921,436634,241986,51233
2096921,2096921,436858,241990,51020
2096921,2096921,436817,241875,50972
2096921,2096921,436868,241847,51043
2096921,2096921,436930,242076,51107
2096921,2096921,437274,242110,51020
2096921,2096921,437343,242162,51706
2096921,2096921,437415,242212,51020
2096921,2096921,437320,242280,51107
2096921,2096921,437526,242176,50972
2096921,2096921,437484,242125,51020
2096921,2096921,437553,242130,51020
2096921,2096921,437608,242357,51201
2096921,2096921,437906,242472,51020
2096921,2096921,437946,242377,51020
2096921,2096921,438022,242495,51201
2096921,2096921,437911,242479,51107
2096921,2096921,438217,242498,51043
2096921,2096921,438104,242458,50972
2096921,2096921,438264,242419,51020
2096921,2096921,438384,242690,51020
2096921,2096921,438655,242699,51020
2096921,2096921,438703,242632,51020
2096921,2096921,438693,242736,51020
2096921,2096921,438633,242699,51020
2096921,2096921,438774,242735,50972
2096921,2096921,438775,242726,51020
2096921,2096921,438885,242686,50972
2096921,2096921,438895,242910,51107
2096921,2096921,439168,242871,51020
2096921,2096921,439297,242929,51020
2096921,2096921,439298,243006,51706
2096921,2096921,439269,242930,51107
2096921,2096921,439485,242928,51059
2096921,2096921,439294,242884,51020
2096921,2096921,439418,242820,51201
2096921,2096921,439519,243093,51146
2096921,2096921,439816,243132,51107
2096921,2096921,439911,243153,51059
2096921,2096921,439999,243175,51107
2096921,2096921,439878,243349,51193
2096921,2096921,440065,243226,51059
2096921,2096921,439917,243162,51059
2096921,2096921,440140,243152,51059
2096921,2096921,440161,243406,51233
2096921,2096921,440344,243312,51201
2096921,2096921,440530,243321,51075
2096921,2096921,440590,243392,51059
2096921,2096921,440425,243428,51146
2096921,2096921,440707,243442,51706
2096921,2096921,440547,243387,51059
2096921,2096921,440718,243348,51059
2096921,2096921,440780,243627,51193
2096921,2096921,441125,243618,51059
2096921,2096921,441142,243615,51059
2096921,2096921,441173,243676,51107
2096921,2096921,441116,243726,51193
2096921,2096921,441185,243715,51059
2096921,2096921,441240,243544,51059
2096921,2096921,441271,243607,51059
2096921,2096921,441274,243781,51107
2096921,2096921,441568,243764,51059
2096921,2096921,441612,243760,51059
2096921,2096921,441681,243905,51059
2096921,2096921,441591,243934,51059
2096921,2096921,441800,243970,51075
2096921,2096921,441689,243810,51059
2096921,2096921,441826,243862,51059
2096921,2096921,441782,244013,51146
2096921,2096921,442061,244002,51706
2096921,2096921,442151,243935,51059
2096921,2096921,442116,244013,51059
2096921,2096921,442080,244079,51201
2096921,2096921,442255,244036,51059
2096921,2096921,442066,243949,51075
2096921,2096921,442196,243943,51059
2096921,2096921,442299,244228,51201
2096921,2096921,442540,244252,51706
2096921,2096921,442574,244113,51020
2096921,2096921,442674,244314,51059
2096921,2096921,442614,244242,51146
2096921,2096921,442713,244311,51059
2096921,2096921,442544,244297,51059
2096921,2096921,442740,244125,51059
2096921,2096921,442870,244410,51280
2096921,2096921,443061,244378,51059
2096921,2096921,443066,244406,51107
2096921,2096921,443069,244472,51075
2096921,2096921,443124,244496,51706
2096921,2096921,443073,244467,51075
2096921,2096921,443012,244400,51059
2096921,2096921,443122,244352,51059
2096921,2096921,443186,244599,51059
2096921,2096921,443434,244640,51059
2096921,2096921,443448,244567,51107
2096921,2096921,443460,244631,51075
2096921,2096921,443463,244712,51193
2096921,2096921,443586,244693,51059
2096921,2096921,443396,244562,51107
2096921,2096921,443494,244582,51059
2096921,2096921,443660,244761,51193
2096921,2096921,443885,244748,51107
2096921,2096921,443926,244825,51075
2096921,2096921,444023,244836,51020
2096921,2096921,443849,244851,51059
2096921,2096921,443909,244713,51201
2096921,2096921,443798,244733,51059
2096921,2096921,443980,244739,51059
2096921,2096921,443967,244991,51146
2096921,2096921,444105,244984,51059
2096921,2096921,444299,244889,51075
2096921,2096921,444258,244989,51059
2096921,2096921,444149,245001,51020
2096921,2096921,444294,244927,50972
2096921,2096921,444095,244921,51043
2096921,2096921,444267,244781,50972
2096921,2096921,444341,245075,51059
2096921,2096921,444533,245059,50972
2096921,2096921,444547,245029,50972
2096921,2096921,444594,245149,50972
2096921,2096921,444590,245156,51059
2096921,2096921,444634,245155,51706
2096921,2096921,444589,245019,50972
2096921,2096921,444713,245036,50972
2096921,2096921,444620,245290,51706
2096921,2096921,444853,245263,50972
2096921,2096921,444887,245190,50972
2096921,2096921,444964,245251,51706
2096921,2096921,444894,245326,51107
2096921,2096921,445004,245286,51020
2096921,2096921,444864,245206,51201
2096921,2096921,444948,245216,51020
2096921,2096921,445100,245379,51107
2096921,2096921,445203,245390,51020
2096921,2096921,445286,245368,50972
2096921,2096921,445355,245420,50972
2096921,2096921,445293,245519,51107
2096921,2096921,445312,245459,50972
2096921,2096921,445228,245369,50972
2096921,2096921,445331,245284,51706
2096921,2096921,445445,245481,51107
2096921,2096921,445663,245558,51043
2096921,2096921,445618,245522,50972
2096921,2096921,445640,245635,51075
2096921,2096921,445623,245657,50972
2096921,2096921,445665,245600,50933
2096921,2096921,445629,245565,51075
2096921,2096921,445752,245513,50972
2096921,2096921,445837,245763,51020
2096921,2096921,445943,245732,51075
2096921,2096921,446069,245718,51075
2096921,2096921,446030,245846,50972
2096921,2096921,446011,245782,51201
2096921,2096921,446125,245787,50972
2096921,2096921,445984,245676,51075
2096921,2096921,446140,245717,50972
2096921,2096921,446137,245926,51020
2096921,2096921,446241,245893,50933
2096921,2096921,446249,245870,50933
2096921,2096921,446294,245901,50972
2096921,2096921,446261,245967,51059
2096921,2096921,446253,245879,51706
2096921,2096921,446123,245797,50933
2096921,2096921,446199,245758,50972
2096921,2096921,446325,245939,51107
2096921,2096921,446342,245975,50972
2096921,2096921,446548,245959,51706
2096921,2096921,446547,246022,50972
2096921,2096921,446463,246034,51193
2096921,2096921,446540,246010,51020
2096921,2096921,446399,245964,50972
2096921,2096921,446526,245985,51201
2096921,2096921,446566,246113,51059
2096921,2096921,446656,246112,50972
2096921,2096921,446659,246025,51020
2096921,2096921,446722,246192,51201
2096921,2096921,446748,246209,51059
2096921,2096921,446740,246124,51075
2096921,2096921,446512,246027,50972
2096921,2096921,446734,245987,50972
2096921,2096921,446760,246308,51059
2096921,2096921,446929,246283,50972
2096921,2096921,446891,246228,51075
2096921,2096921,446961,246299,50933
2096921,2096921,446981,246361,51107
2096921,2096921,446918,246237,50933
2096921,2096921,446859,246171,50972
2096921,2096921,446824,246075,50972
2096921,2096921,446897,246346,51020
2096921,2096921,447061,246369,50972
2096921,2096921,447167,246311,50972
2096921,2096921,447227,246389,51075
2096921,2096921,447119,246382,51059
2096921,2096921,447208,246304,51201
2096921,2096921,447054,246300,51075
2096921,2096921,447108,246294,51107
2096921,2096921,447246,246324,51107
2096921,2096921,446964,246383,51107
2096921,2096921,446987,246335,51059
2096921,2096921,446879,246399,51059
2096921,2096921,446786,246273,51146
2096921,2096921,446552,246168,51059
2096921,2096921,446423,246156,51059
2096921,2096921,446585,246100,51059
2096921,2096921,446567,246178,51193
2096921,2096921,446225,246155,51059
2096921,2096921,446211,246060,51059
2096921,2096921,446199,246228,51107
2096921,2096921,446185,245894,51193
2096921,2096921,445293,245873,51020
2096921,2096921,445182,245855,51706
2096921,2096921,445271,245711,51706
2096921,2096921,445444,245770,51201
2096921,2096921,444652,245684,51020
2096921,2096921,444626,245691,51706
2096921,2096921,444616,245749,51059
2096921,2096921,444638,245284,51146
2096921,2096921,442742,245134,51075
2096921,2096921,442700,244994,51059
2096921,2096921,442718,244934,51706
2096921,2096921,442707,244500,51146
2096921,2096921,440415,244342,51075
2096921,2096921,440506,244345,51020
2096921,2096921,440541,244474,51059
2096921,2096921,440424,243993,51146
2096921,2096921,438842,243845,51059
2096921,2096921,438560,243793,51201
2096921,2096921,438725,243773,51059
2096921,2096921,438806,243511,51107
2096921,2096921,437548,243537,51201
2096921,2096921,437601,243538,51059
2096921,2096921,437547,243571,51059
2096921,2096921,437541,243351,51059
2096921,2096921,436579,243193,51059
2096921,2096921,436433,243193,51107
2096921,2096921,436603,243104,51059
2096921,2096921,436624,243180,51059
2096921,2096921,436038,243159,51059
2096921,2096921,436101,243060,51075
2096921,2096921,436084,243237,51107
2096921,2096921,436078,243034,51146
2096921,2096921,435539,243025,51075
2096921,2096921,435474,242910,51706
2096921,2096921,435530,242727,51059
2096921,2096921,435563,242902,51193
2096921,2096921,435352,242845,51706
2096921,2096921,435362,242895,51059
2096921,2096921,435466,243013,51059
2096921,2096921,435398,242961,51193
2096921,2096921,435290,242905,51107
2096921,2096921,435118,242782,51059
2096921,2096921,435340,242749,51059
2096921,2096921,435328,242922,51193
2096921,2096921,435425,242959,51107
2096921,2096921,435532,242997,51059
2096921,2096921,435624,243019,51059
2096921,2096921,435552,243169,51193
2096921,2096921,435709,243123,51075
2096921,2096921,435610,243027,51075
2096921,2096921,435743,243005,51059
2096921,2096921,435772,243161,51193
2096921,2096921,435922,243229,51059
2096921,2096921,436123,243210,51107
2096921,2096921,436058,243294,51107
2096921,2096921,436018,243342,51146
2096921,2096921,436071,243279,51059
2096921,2096921,436079,243318,51059
2096921,2096921,436130,243148,51059
2096921,2096921,436242,243542,51193
2096921,2096921,436832,243491,51059
2096921,2096921,436838,243491,51059
2096921,2096921,436844,243648,51020
2096921,2096921,436810,243683,51107
2096921,2096921,437203,243691,51706
2096921,2096921,437090,243564,51020
2096921,2096921,437223,243603,51201
2096921,2096921,437247,243847,51020
2096921,2096921,437850,243953,51075
2096921,2096921,437893,243905,51020
2096921,2096921,437937,243940,50972
2096921,2096921,437865,244144,51020
2096921,2096921,438292,244054,51020
2096921,2096921,438204,244027,51020
2096921,2096921,438336,243979,51020
2096921,2096921,438377,244304,51201
2096921,2096921,438861,244384,51020
2096921,2096921,438966,244290,51020
2096921,2096921,439031,244376,51020
2096921,2096921,438891,244495,51107
2096921,2096921,439298,244459,51020
2096921,2096921,439283,244414,50972
2096921,2096921,439355,244375,51020
2096921,2096921,439434,244665,51146
2096921,2096921,439918,244736,51706
2096921,2096921,439958,244666,50972
2096921,2096921,439966,244686,51020
2096921,2096921,439948,244853,51107
2096921,2096921,440425,244857,51020
2096921,2096921,440282,244872,50972
2096921,2096921,440325,244685,51043
2096921,2096921,440407,245119,51146
2096921,2096921,440994,245059,51075
2096921,2096921,441025,244998,51020
2096921,2096921,440993,245137,51075
2096921,2096921,441022,245246,51107
2096921,2096921,441452,245308,50972
2096921,2096921,441369,245184,51020
2096921,2096921,441455,245164,51201
2096921,2096921,441580,245490,51706
2096921,2096921,442080,245509,51201
2096921,2096921,442120,245501,51043
2096921,2096921,442214,245534,51020
2096921,2096921,442135,245693,51146
2096921,2096921,442507,245666,51020
2096921,2096921,442454,245642,51020
2096921,2096921,442520,245583,51020
2096921,2096921,442623,245858,51107
2096921,2096921,442988,245922,51020
2096921,2096921,443046,245776,51201
2096921,2096921,443141,245853,51059
2096921,2096921,443059,246071,51059
2096921,2096921,443414,245980,51059
2096921,2096921,443212,245922,51020
2096921,2096921,443414,245860,51020
2096921,2096921,443413,246120,51059
2096921,2096921,443791,246098,51020
2096921,2096921,443880,246173,51706
2096921,2096921,443868,246204,51020
2096921,2096921,443827,246309,51107
2096921,2096921,444024,246327,51706
2096921,2096921,443979,246242,51706
2096921,2096921,444109,246236,51201
2096921,2096921,444076,246391,51107
2096921,2096921,444324,246350,51201
2096921,2096921,444421,246348,51020
2096921,2096921,444540,246411,51020
2096921,2096921,444407,246448,51146
2096921,2096921,444381,246461,51020
2096921,2096921,444311,246284,50972
2096921,2096921,444350,246294,51201
2096921,2096921,444481,246575,51146
2096921,2096921,444524,246505,51020
2096921,2096921,444634,246545,51201
2096921,2096921,444667,246571,51020
2096921,2096921,444609,246612,51107
2096921,2096921,444585,246529,50972
2096921,2096921,444354,246420,51020
2096921,2096921,444593,246425,51075
2096921,2096921,444651,246564,51201
2096921,2096921,444526,246551,51020
2096921,2096921,444628,246472,51706
2096921,2096921,444617,246614,51020
2096921,2096921,444633,246567,51201
2096921,2096921,444450,246513,51020
2096921,2096921,444310,246540,51020
2096921,2096921,444439,246473,51020
2096921,2096921,444482,246597,51146
2096921,2096921,444483,246542,51059
2096921,2096921,444565,246532,51020
2096921,2096921,444530,246653,51020
2096921,2096921,444454,246559,51107
2096921,2096921,444365,246608,51020
2096921,2096921,444239,246471,51201
2096921,2096921,444341,246402,51043
2096921,2096921,444403,246666,51020
2096921,2096921,444530,246646,51020
2096921,2096921,444492,246699,51020
2096921,2096921,444649,246707,51020
2096921,2096921,444633,246778,51059
2096921,2096921,444616,246687,51020
2096921,2096921,444569,246632,51020
2096921,2096921,444554,246563,51020
2096921,2096921,444612,246741,51059
2096921,2096921,444779,246716,51020
2096921,2096921,444850,246697,51020
2096921,2096921,444980,246835,51043
2096921,2096921,444836,246828,51706
2096921,2096921,444915,246794,51020
2096921,2096921,444783,246740,51706
2096921,2096921,444947,246718,50972
2096921,2096921,445037,246922,51146
2096921,2096921,445225,246947,51020
2096921,2096921,445302,246911,51020
2096921,2096921,445289,246962,51201
2096921,2096921,445238,247139,51146
2096921,2096921,445563,247076,51706
2096921,2096921,445487,247040,50972
2096921,2096921,445721,247023,51706
2096921,2096921,445642,247316,51107
2096921,2096921,446110,247261,51059
2096921,2096921,446140,247212,51075
2096921,2096921,446239,247387,51020
2096921,2096921,446195,247443,51146
2096921,2096921,446448,247450,51020
2096921,2096921,446398,247413,51020
2096921,2096921,446420,247326,51020
2096921,2096921,446458,247599,51146
2096921,2096921,446907,247581,51020
2096921,2096921,446953,247577,51020
2096921,2096921,447001,247716,51020
2096921,2096921,446944,247747,51107
2096921,2096921,447234,247745,51020
2096921,2096921,447112,247680,51020
2096921,2096921,447259,247706,51020
2096921,2096921,447338,247881,51020
2096921,2096921,447575,247890,51020
2096921,2096921,447651,247778,51020
2096921,2096921,447703,247949,51020
2096921,2096921,447691,248096,51020
2096921,2096921,447871,247966,51020
2096921,2096921,447737,247961,51020
2096921,2096921,447840,247872,51020
2096921,2096921,447853,248152,51020
2096921,2096921,448217,248203,51020
2096921,2096921,448411,248148,51020
2096921,2096921,448433,248289,51020
2096921,2096921,448377,248310,51107
2096921,2096921,448560,248266,51075
2096921,2096921,448482,248261,51075
2096921,2096921,448659,248164,51706
2096921,2096921,448650,248453,51146
2096921,2096921,449125,248503,51020
2096921,2096921,449173,248501,51020
2096921,2096921,449251,248552,51059
2096921,2096921,449189,248624,51146
2096921,2096921,449369,248670,51059
2096921,2096921,449243,248502,51020
2096921,2096921,449338,248456,51201
2096921,2096921,449410,248751,51020
2096921,2096921,449748,248723,51043
2096921,2096921,449824,248714,50972
2096921,2096921,449959,248758,51020
2096921,2096921,449822,248857,51146
2096921,2096921,450146,248810,51020
2096921,2096921,449867,248807,51020
2096921,2096921,449949,248738,51020
2096921,2096921,450183,249048,51201
2096921,2096921,450460,249037,51020
2096921,2096921,450561,248989,50972
2096921,2096921,450494,249127,51706
2096921,2096921,450465,249204,51146
2096921,2096921,450791,249147,51020
2096921,2096921,450656,249086,51020
2096921,2096921,450785,249013,51020
2096921,2096921,450708,249254,51020
2096921,2096921,451008,249270,51020
2096921,2096921,451185,249220,51075
2096921,2096921,451163,249242,51020
2096921,2096921,451120,249320,51059
2096921,2096921,451301,249345,51020
2096921,2096921,451205,249276,51043
2096921,2096921,451373,249244,51020
2096921,2096921,451356,249492,51107
2096921,2096921,451678,249398,51059
2096921,2096921,451737,249430,51020
2096921,2096921,451765,249567,51706
2096921,2096921,451761,249576,51107
2096921,2096921,451879,249584,50972
2096921,2096921,451838,249558,51075
2096921,2096921,451912,249453,51043
2096921,2096921,451964,249755,51107
2096921,2096921,452221,249715,51043
2096921,2096921,452244,249738,51043
2096921,2096921,452298,249713,51020
2096921,2096921,452304,249928,51706
2096921,2096921,452423,249823,51020
2096921,2096921,452265,249783,51706
2096921,2096921,452336,249714,51075
2096921,2096921,452554,249990,51146
2096921,2096921,452808,250046,51075
2096921,2096921,452943,249994,51075
2096921,2096921,452909,250060,50972
2096921,2096921,452919,250153,51107
2096921,2096921,452969,250042,50972
2096921,2096921,452868,250053,50972
2096921,2096921,452967,249941,51201
2096921,2096921,453044,250126,51146
2096921,2096921,453312,250182,50972
2096921,2096921,453420,250094,50972
2096921,2096921,453420,250207,51075
2096921,2096921,453364,250336,51107
2096921,2096921,453518,250158,51075
2096921,2096921,453432,250196,50933
2096921,2096921,453496,250016,50933
2096921,2096921,453590,250347,51075
2096921,2096921,453685,250370,51706
2096921,2096921,453785,250297,51706
2096921,2096921,453890,250478,50972
2096921,2096921,453822,250474,51020
2096921,2096921,453913,250444,51020
2096921,2096921,453818,250337,50972
2096921,2096921,453820,250235,50972
2096921,2096921,453863,250436,51020
2096921,2096921,454166,250520,50972
2096921,2096921,454273,250607,50972
2096921,2096921,454258,250545,51020
2096921,2096921,454275,250690,51107
2096921,2096921,454420,250618,50972
2096921,2096921,454204,250546,51020
2096921,2096921,454297,250495,50972
2096921,2096921,454411,250668,51107
2096921,2096921,454602,250743,50972
2096921,2096921,454729,250699,50972
2096921,2096921,454715,250810,51020
2096921,2096921,454575,250818,51107
2096921,2096921,454719,250762,50972
2096921,2096921,454517,250745,50972
2096921,2096921,454692,250638,50972
2096921,2096921,454783,250825,51107
2096921,2096921,454951,250884,51020
2096921,2096921,454990,250841,51043
2096921,2096921,455037,250945,51201
2096921,2096921,454971,250944,51706
2096921,2096921,454998,250899,51020
2096921,2096921,454950,250845,50972
2096921,2096921,455105,250825,51075
2096921,2096921,455114,251014,51146
2096921,2096921,455138,250969,51020
2096921,2096921,455250,250959,51020
2096921,2096921,455346,251027,51020
2096921,2096921,455253,251091,51107
2096921,2096921,455323,251063,51020
2096921,2096921,455178,250958,51706
2096921,2096921,455304,250917,51201
2096921,2096921,455382,251086,51107
2096921,2096921,455492,251084,51020
2096921,2096921,455592,251083,50972
2096921,2096921,455674,251170,51020
2096921,2096921,455607,251180,51107
2096921,2096921,455717,251185,51075
2096921,2096921,455528,251128,50972
2096921,2096921,455683,251103,51020
2096921,2096921,455731,251223,51020
2096921,2096921,455981,251301,51020
2096921,2096921,456032,251263,51020
2096921,2096921,456093,251366,51020
2096921,2096921,455961,251393,50972
2096921,2096921,455999,251345,51075
2096921,2096921,455903,251253,51020
2096921,2096921,456087,251220,51020
2096921,2096921,456169,251487,51107
2096921,2096921,456229,251469,51020
2096921,2096921,456315,251408,51020
2096921,2096921,456358,251545,51020
2096921,2096921,456306,251544,51201
2096921,2096921,456391,251533,51020
2096921,2096921,456304,251428,51075
2096921,2096921,456384,251334,51706
2096921,2096921,456427,251615,51201
2096921,2096921,456586,251582,50972
2096921,2096921,456681,251609,51020
2096921,2096921,456721,251654,51020
2096921,2096921,456619,251682,51193
2096921,2096921,456661,251590,51020
2096921,2096921,456595,251555,51059
2096921,2096921,456582,251560,51020
2096921,2096921,456613,251646,51146
2096921,2096921,456784,251666,51059
2096921,2096921,456807,251644,51706
2096921,2096921,456834,251665,51020
2096921,2096921,456866,251820,51201
2096921,2096921,456823,251718,51706
2096921,2096921,456790,251674,51020
2096921,2096921,456917,251655,51020
2096921,2096921,456937,251832,51706
2096921,2096921,457053,251895,51043
2096921,2096921,457208,251840,51059
2096921,2096921,457180,251917,51020
2096921,2096921,457095,251912,51706
2096921,2096921,457140,251823,50972
2096921,2096921,456930,251805,51020
2096921,2096921,457037,251738,51075
2096921,2096921,457164,251997,51020
2096921,2096921,457240,251872,51020
2096921,2096921,457283,251931,51059
2096921,2096921,457238,252010,51020
2096921,2096921,457224,251998,51107
2096921,2096921,457251,251968,51020
2096921,2096921,457166,251933,51020
2096921,2096921,457242,251856,51020
2096921,2096921,457306,252078,51107
2096921,2096921,457491,252051,51059
2096921,2096921,457354,251975,51020
2096921,2096921,457432,252056,51043
2096921,2096921,457412,252101,51107
2096921,2096921,457367,252004,51020
2096921,2096921,457303,251932,50972
2096921,2096921,457396,251914,50972
2096921,2096921,457440,252162,51059
2096921,2096921,457447,252091,50972
2096921,2096921,457508,252083,50972
2096921,2096921,457648,252168,50972
2096921,2096921,457535,252241,51146
2096921,2096921,457621,252125,50972
2096921,2096921,457496,252076,50972
2096921,2096921,457579,252020,50972
2096921,2096921,457804,252050,51146
2096921,2096921,457300,252094,50972
2096921,2096921,457350,252024,50972
2096921,2096921,457351,252116,51075
2096921,2096921,457315,252060,51706
2096921,2096921,456963,251955,50972
2096921,2096921,456853,251954,51706
2096921,2096921,456995,251894,50972
2096921,2096921,456986,251879,51107
2096921,2096921,456504,251852,50972
2096921,2096921,456547,251743,50972
2096921,2096921,456584,251918,51020
2096921,2096921,456552,251655,51107
2096921,2096921,455708,251614,50972
2096921,2096921,455505,251476,50972
2096921,2096921,455650,251426,51020
2096921,2096921,455828,251531,51706
2096921,2096921,454942,251434,50972
2096921,2096921,454968,251378,51020
2096921,2096921,455022,251470,51706
2096921,2096921,455001,250897,50972
2096921,2096921,452936,250716,51020
2096921,2096921,452816,250614,51075
2096921,2096921,452930,250669,50972
2096921,2096921,452920,250215,51059
2096921,2096921,450654,250165,50972
2096921,2096921,450699,250087,50972
2096921,2096921,450767,250085,51075
2096921,2096921,450629,249669,51107
2096921,2096921,448914,249471,50972
2096921,2096921,448625,249414,50972
2096921,2096921,448724,249355,50972
2096921,2096921,448918,249225,51059
2096921,2096921,447520,249104,50972
2096921,2096921,447553,249088,51706
2096921,2096921,447559,249120,50972
2096921,2096921,447471,248912,51059
2096921,2096921,446582,248791,50972
2096921,2096921,446500,248755,50972
2096921,2096921,446572,248662,50972
2096921,2096921,446571,248754,51193
2096921,2096921,445947,248617,51706
2096921,2096921,445935,248606,50972
2096921,2096921,445965,248647,50933
2096921,2096921,446002,248554,51201
2096921,2096921,445397,248518,50972
2096921,2096921,445282,248487,50972
2096921,2096921,445325,248308,50972
2096921,2096921,445394,248477,51201
2096921,2096921,445211,248406,50972
2096921,2096921,445272,248431,50972
2096921,2096921,445272,248490,50949
2096921,2096921,445264,248543,51059
2096921,2096921,445097,248351,51706
2096921,2096921,444973,248323,50972
2096921,2096921,445029,248317,50972
2096921,2096921,445167,248509,51075
2096921,2096921,445194,248488,50972
2096921,2096921,445285,248467,50972
2096921,2096921,445353,248473,50933
2096921,2096921,445294,248610,51020
2096921,2096921,445538,248583,50933
2096921,2096921,445335,248550,51201
2096921,2096921,445465,248456,51075
2096921,2096921,445573,248708,50933
2096921,2096921,445701,248611,50972
2096921,2096921,445840,248637,50972
2096921,2096921,445798,248680,51706
2096921,2096921,445713,248797,51059
2096921,2096921,445829,248763,51020
2096921,2096921,445730,248716,51059
2096921,2096921,445890,248652,51059
2096921,2096921,445917,248937,51107
2096921,2096921,446409,248948,51075
2096921,2096921,446440,248864,51075
2096921,2096921,446479,248969,51706
2096921,2096921,446471,249037,51107
2096921,2096921,446720,249087,51201
2096921,2096921,446719,248976,51043
2096921,2096921,446743,248935,51020
2096921,2096921,446849,249304,51146
2096921,2096921,447305,249200,51020
2096921,2096921,447434,249294,51059
2096921,2096921,447427,249268,51020
2096921,2096921,447407,249412,51146
2096921,2096921,447766,249361,51020
2096921,2096921,447682,249284,51020
2096921,2096921,447730,249330,51020
2096921,2096921,447813,249607,51107
2096921,2096921,448241,249622,51020
2096921,2096921,448399,249543,51059
2096921,2096921,448481,249570,51020
2096921,2096921,448318,249762,51146
2096921,2096921,448733,249643,51043
2096921,2096921,448673,249664,51020
2096921,2096921,448764,249575,51020
2096921,2096921,448809,249917,51146
2096921,2096921,449244,249927,51020
2096921,2096921,449326,249883,51059
2096921,2096921,449284,249917,51020
2096921,2096921,449264,250037,51107
2096921,2096921,449583,249987,51020
2096921,2096921,449537,249968,51020
2096921,2096921,449637,249936,51043
2096921,2096921,449604,250241,51020
2096921,2096921,450228,250183,51059
2096921,2096921,450245,250233,51075
2096921,2096921,450321,250321,51020
2096921,2096921,450343,250443,51706
2096921,2096921,450779,250402,51020
2096921,2096921,450661,250421,51020
2096921,2096921,450672,250331,51020
2096921,2096921,450830,250611,51201
2096921,2096921,451278,250601,51020
2096921,2096921,451399,250684,51043
2096921,2096921,451445,250669,51020
2096921,2096921,451288,250881,51107
2096921,2096921,451816,250789,51020
2096921,2096921,451624,250712,51020
2096921,2096921,451794,250736,51020
2096921,2096921,451877,250946,51146
2096921,2096921,452152,250995,51020
2096921,2096921,452262,250947,51075
2096921,2096921,452247,250914,51020
2096921,2096921,452225,251112,51146
2096921,2096921,452548,251031,51020
2096921,2096921,452455,251053,51075
2096921,2096921,452590,250959,51020
2096921,2096921,452550,251161,51107
2096921,2096921,452956,251240,51020
2096921,2096921,452958,251188,51020
2096921,2096921,452973,251194,51020
2096921,2096921,452965,251334,51146
2096921,2096921,453019,251270,51075
2096921,2096921,452939,251232,51043
2096921,2096921,453053,251050,51706
2096921,2096921,453052,251375,51107
2096921,2096921,453330,251348,51075
2096921,2096921,453372,251369,51020
2096921,2096921,453460,251390,51043
2096921,2096921,453397,251452,51020
2096921,2096921,453363,251396,51020
2096921,2096921,453335,251373,51059
2096921,2096921,453368,251323,51020
2096921,2096921,453380,251350,51020
2096921,2096921,453348,251462,51020
2096921,2096921,453431,251417,51059
2096921,2096921,453533,251473,51020
2096921,2096921,453443,251434,51146
2096921,2096921,453300,251318,51059
2096921,2096921,453079,251315,51020
2096921,2096921,453267,251304,51059
2096921,2096921,453374,251427,51146
2096921,2096921,453265,251439,51059
2096921,2096921,453418,251406,51059
2096921,2096921,453407,251412,51059
2096921,2096921,453313,251464,51107
2096921,2096921,453104,251378,51075
2096921,2096921,452977,251367,51075
2096921,2096921,453090,251194,51107
2096921,2096921,453081,251343,51193
2096921,2096921,453173,251305,51107
2096921,2096921,453152,251313,51107
2096921,2096921,453192,251411,51075
2096921,2096921,453185,251409,51280
2096921,2096921,452931,251306,51059
2096921,2096921,452876,251277,51059
2096921,2096921,452997,251258,51706
2096921,2096921,452921,251368,51075
2096921,2096921,453125,251388,51059
2096921,2096921,453083,251306,51706
2096921,2096921,453165,251375,51107
2096921,2096921,453038,251421,51193
2096921,2096921,453083,251371,51059
2096921,2096921,452869,251236,51059
2096921,2096921,452892,251214,51075
2096921,2096921,453079,251341,51193
2096921,2096921,453135,251421,51107
2096921,2096921,453202,251394,51075
2096921,2096921,453206,251416,51706
2096921,2096921,453125,251470,51193
2096921,2096921,453243,251385,51059
2096921,2096921,453098,251375,51201
2096921,2096921,453221,251300,51059
2096921,2096921,453222,251579,51059
2096921,2096921,453471,251566,51059
2096921,2096921,453557,251510,51059
2096921,2096921,453610,251596,51201
2096921,2096921,453563,251660,51075
2096921,2096921,453854,251671,50972
2096921,2096921,453714,251662,50972
2096921,2096921,453803,251570,50972
2096921,2096921,453856,251816,50933
2096921,2096921,454323,251775,51075
2096921,2096921,454276,251846,50972
2096921,2096921,454287,251883,51201
2096921,2096921,454311,251904,51059
2096921,2096921,454548,251945,50972
2096921,2096921,454449,251850,50972
2096921,2096921,454601,251808,50972
2096921,2096921,454591,252056,51059
2096921,2096921,455014,252090,50972
2096921,2096921,454966,252066,50972
2096921,2096921,455086,252098,50972
2096921,2096921,454994,252245,51107
2096921,2096921,455186,252133,50972
2096921,2096921,455087,252042,50972
2096921,2096921,455201,252067,51075
2096921,2096921,455302,252276,51146
2096921,2096921,455439,252245,50972
2096921,2096921,455632,252208,51075
2096921,2096921,455658,252332,51020
2096921,2096921,455497,252379,51107
2096921,2096921,455682,252304,50972
2096921,2096921,455559,252293,51020
2096921,2096921,455692,252278,51706
2096921,2096921,455733,252504,51059
2096921,2096921,456119,252514,50972
2096921,2096921,456150,252463,51706
2096921,2096921,456126,252502,51020
2096921,2096921,456128,252583,51059
2096921,2096921,456289,252547,50972
2096921,2096921,456219,252561,51706
2096921,2096921,456308,252427,51020
2096921,2096921,456375,252679,50972
2096921,2096921,456652,252726,50972
2096921,2096921,456622,252583,51706
2096921,2096921,456740,252650,50972
2096921,2096921,456673,252721,51020
2096921,2096921,456829,252667,51075
2096921,2096921,456757,252662,50933
2096921,2096921,456793,252612,50972
2096921,2096921,456907,252794,51020
2096921,2096921,457128,252854,50972
2096921,2096921,457186,252888,50972
2096921,2096921,457334,252858,50972
2096921,2096921,457251,252998,51059
2096921,2096921,457394,252883,50972
2096921,2096921,457312,252838,51706
2096921,2096921,457323,252760,50972
2096921,2096921,457353,252974,51107
2096921,2096921,457674,253078,51020
2096921,2096921,457720,252958,50972
2096921,2096921,457753,253058,50972
2096921,2096921,457738,253025,51201
2096921,2096921,457875,253034,50972
2096921,2096921,457705,252995,51706
2096921,2096921,457844,252991,50972
2096921,2096921,457947,253233,51107
2096921,2096921,458204,253203,50972
2096921,2096921,458241,253210,50972
2096921,2096921,458339,253370,51706
2096921,2096921,458243,253279,51107
2096921,2096921,458369,253184,50972
2096921,2096921,458356,253156,51201
2096921,2096921,458379,253125,51706
2096921,2096921,458416,253348,51059
2096921,2096921,458634,253330,50972
2096921,2096921,458605,253344,50972
2096921,2096921,458737,253376,51075
2096921,2096921,458688,253396,51107
2096921,2096921,458802,253399,50972
2096921,2096921,458672,253309,50972
2096921,2096921,458716,253270,50972
2096921,2096921,458772,253371,51059
2096921,2096921,458989,253458,50972
2096921,2096921,459043,253422,50972
2096921,2096921,459108,253510,51020
2096921,2096921,458982,253614,51059
2096921,2096921,459129,253527,51020
2096921,2096921,458995,253505,51075
2096921,2096921,459192,253494,51020
2096921,2096921,459217,253623,51020
2096921,2096921,459414,253643,51201
2096921,2096921,459426,253534,51020
2096921,2096921,459501,253569,51075
2096921,2096921,459354,253661,51020
2096921,2096921,459495,253636,51075
2096921,2096921,459456,253643,51706
2096921,2096921,459615,253464,51020
2096921,2096921,459652,253814,51059
2096921,2096921,459805,253757,51020
2096921,2096921,459888,253655,51706
2096921,2096921,459855,253821,51020
2096921,2096921,459822,253789,51059
2096921,2096921,459891,253754,51020
2096921,2096921,459874,253707,51075
2096921,2096921,459893,253659,50972
2096921,2096921,459836,253744,51107
2096921,2096921,460063,253849,51020
2096921,2096921,460075,253823,51020
2096921,2096921,460162,253867,51201
2096921,2096921,460100,253918,51146
2096921,2096921,460163,253857,51020
2096921,2096921,460034,253848,51020
2096921,2096921,460097,253729,51020
2096921,2096921,460189,253928,51146
2096921,2096921,460248,253907,51020
2096921,2096921,460341,253868,50972
2096921,2096921,460392,253960,51706
2096921,2096921,460318,253986,51107
2096921,2096921,460473,253878,51706
2096921,2096921,460211,253866,51706
2096921,2096921,460373,253819,51020
2096921,2096921,460416,253977,51107
2096921,2096921,460531,253977,51075
2096921,2096921,460606,253954,51020
2096921,2096921,460624,253973,51075
2096921,2096921,460587,254121,51107
2096921,2096921,460555,253987,51020
2096921,2096921,460474,253998,51020
2096921,2096921,460603,253866,51020
2096921,2096921,460600,254166,51059
2096921,2096921,460682,254052,51020
2096921,2096921,460751,254014,51059
2096921,2096921,460810,254101,51043
2096921,2096921,460869,254135,51020
2096921,2096921,460721,254062,51020
2096921,2096921,460704,253984,51020
2096921,2096921,460721,253901,51020
2096921,2096921,460747,254180,51201
2096921,2096921,460929,254167,51020
2096921,2096921,460949,254136,51020
2096921,2096921,460941,254211,50972
2096921,2096921,460919,254249,51107
2096921,2096921,460949,254157,51706
2096921,2096921,460866,254031,51201
2096921,2096921,460963,254067,51075
2096921,2096921,460972,254169,51146
2096921,2096921,461045,254241,51201
2096921,2096921,461118,254187,51020
2096921,2096921,461231,254203,51043
2096921,2096921,461183,254209,51706
2096921,2096921,461140,254207,51075
2096921,2096921,461091,254167,51020
2096921,2096921,461080,254108,51706
2096921,2096921,461220,254314,51201
2096921,2096921,461258,254303,51043
2096921,2096921,461423,254305,51706
2096921,2096921,461428,254295,51020
2096921,2096921,461309,254260,51059
2096921,2096921,461349,254168,51020
2096921,2096921,461225,254220,51020
2096921,2096921,461326,254137,51020
2096921,2096921,461358,254316,51107
2096921,2096921,461445,254304,51020
2096921,2096921,461558,254294,50972
2096921,2096921,461608,254393,51706
2096921,2096921,461491,254373,51059
2096921,2096921,461484,254347,51706
2096921,2096921,461392,254302,50972
2096921,2096921,461462,254236,50972
2096921,2096921,461477,254418,51706
2096921,2096921,461562,254370,50972
2096921,2096921,461585,254333,50972
2096921,2096921,461714,254421,50972
2096921,2096921,461606,254413,51020
2096921,2096921,461594,254328,50972
2096921,2096921,461450,254188,50972
2096921,2096921,461553,254252,51201
2096921,2096921,461667,254351,50972
2096921,2096921,461667,254378,50972
2096921,2096921,461782,254389,50949
2096921,2096921,461781,254479,50972
2096921,2096921,461724,254487,51075
2096921,2096921,461561,254392,50933
2096921,2096921,461495,254317,50972
2096921,2096921,461586,254263,50972
2096921,2096921,461597,254424,51059
2096921,2096921,461651,254364,51020
2096921,2096921,461652,254278,50972
2096921,2096921,461696,254401,51201
2096921,2096921,461668,254431,51059
2096921,2096921,461611,254353,50972
2096921,2096921,461475,254290,51706
2096921,2096921,461598,254195,50972
2096921,2096921,461605,254422,51075
2096921,2096921,461672,254387,50972
2096921,2096921,461681,254392,50972
2096921,2096921,461729,254398,50972
2096921,2096921,461691,254402,51107
2096921,2096921,461559,254297,51706
2096921,2096921,461557,254227,50933
2096921,2096921,461500,254195,50972
2096921,2096921,461596,254359,51059
2096921,2096921,461603,254394,50972
2096921,2096921,461704,254489,50972
2096921,2096921,461842,254440,50972
2096921,2096921,461680,254508,51107
2096921,2096921,461558,254440,51075
2096921,2096921,461476,254338,50972
2096921,2096921,461618,254248,51706
2096921,2096921,461682,254445,51107
2096921,2096921,461669,254419,51706
2096921,2096921,461712,254394,51075
2096921,2096921,461747,254284,51020
2096921,2096921,461621,254420,50972
2096921,2096921,461579,254357,51201
2096921,2096921,461462,254322,51020
2096921,2096921,461588,254271,50972
2096921,2096921,461611,254302,51020
2096921,2096921,461322,254330,51075
2096921,2096921,461247,254226,50972
2096921,2096921,461229,254255,51075
2096921,2096921,461284,254154,51059
2096921,2096921,460834,254143,50972
2096921,2096921,460678,254075,50972
2096921,2096921,460752,254039,51020
2096921,2096921,460739,254005,51201
2096921,2096921,460166,253882,51706
2096921,2096921,460229,253887,50972
2096921,2096921,460269,253942,50972
2096921,2096921,460266,253658,51107
2096921,2096921,459317,253679,50972
2096921,2096921,459269,253610,50972
2096921,2096921,459246,253593,50972
2096921,2096921,459303,253434,51146
2096921,2096921,458554,253397,50972
2096921,2096921,458472,253335,50972
2096921,2096921,458518,253337,50972
2096921,2096921,458483,252867,51107
2096921,2096921,456508,252693,50972
2096921,2096921,456319,252579,51020
2096921,2096921,456316,252573,51075
2096921,2096921,456404,252075,51107
2096921,2096921,454065,251952,50972
2096921,2096921,454038,251888,50933
2096921,2096921,454021,251877,50972
2096921,2096921,453922,251498,51107
2096921,2096921,452132,251356,50972
2096921,2096921,451867,251293,51706
2096921,2096921,452107,251204,50972
2096921,2096921,452105,250991,51107
2096921,2096921,450808,250919,50972
2096921,2096921,450798,250793,50972
2096921,2096921,450735,250912,50933
2096921,2096921,450753,250549,51059
2096921,2096921,449613,250506,51706
2096921,2096921,449503,250453,51201
2096921,2096921,449520,250302,50972
2096921,2096921,449550,250338,51020
2096921,2096921,448897,250262,50972
2096921,2096921,448861,250224,50933
2096921,2096921,448985,250270,51706
2096921,2096921,448850,250161,51059
2096921,2096921,448305,250126,50972
2096921,2096921,448208,250031,50933
2096921,2096921,448291,249962,50933
2096921,2096921,448368,249984,51059
2096921,2096921,448005,250004,50933
2096921,2096921,448038,249986,50972
2096921,2096921,448104,249988,51706
2096921,2096921,448037,249991,51075
2096921,2096921,447870,249841,50933
2096921,2096921,447708,249901,50933
2096921,2096921,447683,249773,50933
2096921,2096921,447859,249889,51059
2096921,2096921,447806,249880,50972
2096921,2096921,447911,249951,50972
2096921,2096921,447955,249898,50972
2096921,2096921,447829,250011,51059
2096921,2096921,447997,249925,50933
2096921,2096921,447882,249917,50972
2096921,2096921,448091,249839,50972
2096921,2096921,447999,250055,51107
2096921,2096921,448222,250028,51020
2096921,2096921,448208,250074,51020
2096921,2096921,448268,250100,51020
2096921,2096921,448250,250091,51201
2096921,2096921,448303,250080,50972
2096921,2096921,448201,250039,51201
2096921,2096921,448163,249929,51020
2096921,2096921,448302,250229,51201
2096921,2096921,448652,250192,51020
2096921,2096921,448642,250209,51059
2096921,2096921,448823,250199,51706
2096921,2096921,448665,250362,51107
2096921,2096921,448968,250294,51020
2096921,2096921,448908,250212,51020
2096921,2096921,448978,250154,51706
2096921,2096921,449115,250504,51107
2096921,2096921,449560,250551,51706
2096921,2096921,449569,250548,51020
2096921,2096921,449753,250414,51020
2096921,2096921,449654,250648,51020
2096921,2096921,449980,250548,51075
2096921,2096921,449869,250565,51020
2096921,2096921,449860,250466,51020
2096921,2096921,449934,250776,51020
2096921,2096921,450435,250811,50972
2096921,2096921,450491,250754,51201
2096921,2096921,450560,250776,51075
2096921,2096921,450561,250865,51059
2096921,2096921,450778,250899,51706
2096921,2096921,450648,250884,51020
2096921,2096921,450752,250773,51020
2096921,2096921,450734,251013,51059
2096921,2096921,451294,251038,51020
2096921,2096921,451236,250978,51020
2096921,2096921,451364,251088,51020
2096921,2096921,451346,251171,51107
2096921,2096921,451654,251129,51043
2096921,2096921,451501,251092,51020
2096921,2096921,451651,251071,51020
2096921,2096921,451676,251347,51020
2096921,2096921,452246,251384,51020
2096921,2096921,452229,251399,51059
2096921,2096921,452236,251438,51020
2096921,2096921,452161,251569,51233
2096921,2096921,452573,251427,51706
2096921,2096921,452433,251364,51020
2096921,2096921,452407,251309,51706
2096921,2096921,452601,251580,51146
2096921,2096921,453033,251648,51020
2096921,2096921,453194,251598,51706
2096921,2096921,453138,251664,51043
2096921,2096921,453157,251796,51146
2096921,2096921,453514,251744,50972
2096921,2096921,453309,251711,51020
2096921,2096921,453443,251572,51020
2096921,2096921,453453,251837,51107
2096921,2096921,453934,251908,51706
2096921,2096921,453965,251859,51075
2096921,2096921,453927,251869,51075
2096921,2096921,453913,251918,51146
2096921,2096921,454108,251921,51020
2096921,2096921,454081,251905,51059
2096921,2096921,454194,251782,51059
2096921,2096921,454162,252103,51107
2096921,2096921,454466,252047,51020
2096921,2096921,454467,252034,51020
2096921,2096921,454457,252147,51020
2096921,2096921,454469,252108,51107
2096921,2096921,454530,252087,51020
2096921,2096921,454406,252032,51020
2096921,2096921,454503,251959,51020
2096921,2096921,454520,252145,51107
2096921,2096921,454743,252135,51020
2096921,2096921,454742,252136,51706
2096921,2096921,454877,252186,51706
2096921,2096921,454852,252198,51146
2096921,2096921,454773,252091,51059
2096921,2096921,454636,252064,51043
2096921,2096921,454722,252066,51706
2096921,2096921,454696,252156,51201
2096921,2096921,454721,252272,51020
2096921,2096921,454778,252108,51043
2096921,2096921,454838,252195,51020
2096921,2096921,454737,252154,51193
2096921,2096921,454655,252130,51075
2096921,2096921,454558,252094,51706
2096921,2096921,454587,251984,51075
2096921,2096921,454572,252115,51193
2096921,2096921,454565,252158,51201
2096921,2096921,454640,252092,51020
2096921,2096921,454550,252045,51059
2096921,2096921,454606,252077,51201
2096921,2096921,454349,252050,51706
2096921,2096921,454195,251946,51020
2096921,2096921,454303,251917,51059
2096921,2096921,454279,251970,51146
2096921,2096921,454238,252041,51020
2096921,2096921,454224,251933,51059
2096921,2096921,454269,252079,51020
2096921,2096921,454314,252003,51146
2096921,2096921,454021,251947,51075
2096921,2096921,453982,251850,51020
2096921,2096921,453986,251815,51020
2096921,2096921,454050,251959,51107
2096921,2096921,454027,251949,51020
2096921,2096921,454101,251934,51020
2096921,2096921,454180,251951,51075
2096921,2096921,454119,252026,51107
2096921,2096921,454047,251853,51020
2096921,2096921,453906,251884,51020
2096921,2096921,453964,251752,51020
2096921,2096921,454036,251920,51059
2096921,2096921,454052,251974,51020
2096921,2096921,454129,251933,50972
2096921,2096921,454158,251910,51020
2096921,2096921,454096,252004,51059
2096921,2096921,454116,251951,51020
2096921,2096921,454059,251908,51020
2096921,2096921,454129,251826,51075
2096921,2096921,454105,252065,51107
2096921,2096921,454355,252090,51020
2096921,2096921,454345,252061,51201
2096921,2096921,454442,252124,51020
2096921,2096921,454434,252197,51146
2096921,2096921,454661,252136,51020
2096921,2096921,454551,252069,51020
2096921,2096921,454586,251996,51075
2096921,2096921,454592,252277,51146
2096921,2096921,455048,252260,51020
2096921,2096921,455073,252276,51020
2096921,2096921,455216,252309,51020
2096921,2096921,455131,252391,51201
2096921,2096921,455314,252358,51020
2096921,2096921,455234,252229,51020
2096921,2096921,455246,252207,51020
2096921,2096921,455344,252471,51201
2096921,2096921,455612,252488,51020
2096921,2096921,455716,252450,51059
2096921,2096921,455740,252419,51020
2096921,2096921,455573,252588,51107
2096921,2096921,455829,252467,51043
2096921,2096921,455745,252487,51706
2096921,2096921,455810,252432,51201
2096921,2096921,455965,252674,51146
2096921,2096921,456107,252685,51020
2096921,2096921,456142,252591,51059
2096921,2096921,456213,252576,51059
2096921,2096921,456126,252617,51020
2096921,2096921,456287,252559,51020
2096921,2096921,456183,252566,51201
2096921,2096921,456291,252464,51706
2096921,2096921,456256,252807,51020
2096921,2096921,456579,252806,51706
2096921,2096921,456627,252732,51059
2096921,2096921,456678,252766,51020
2096921,2096921,456686,252825,51107
2096921,2096921,456741,252836,51706
2096921,2096921,456754,252759,51020
2096921,2096921,456765,252640,50933
2096921,2096921,456823,252954,51075
2096921,2096921,457143,252895,50972
2096921,2096921,457128,252935,50972
2096921,2096921,457238,252947,50972
2096921,2096921,457116,252992,51059
2096921,2096921,457281,252902,51706
2096921,2096921,457104,252798,50933
2096921,2096921,457196,252764,50972
2096921,2096921,457254,253047,51059
2096921,2096921,457460,253050,50972
2096921,2096921,457543,252978,51706
2096921,2096921,457536,253014,51706
2096921,2096921,457485,253117,51146
2096921,2096921,457679,253033,50972
2096921,2096921,457643,253046,50972
2096921,2096921,457688,253010,51706
2096921,2096921,457661,253194,51201
2096921,2096921,457974,253225,51706
2096921,2096921,458040,253095,50972
2096921,2096921,458104,253144,51075
2096921,2096921,457998,253247,51107
2096921,2096921,458187,253219,50933
2096921,2096921,457992,253145,51706
2096921,2096921,458044,253007,50972
2096921,2096921,458129,253322,51107
2096921,2096921,458408,253288,50972
2096921,2096921,458432,253234,51075
2096921,2096921,458495,253310,51075
2096921,2096921,458384,253350,51059
2096921,2096921,458480,253299,50972
2096921,2096921,458431,253255,51706
2096921,2096921,458469,253116,51201
2096921,2096921,458515,253387,51043
2096921,2096921,458750,253363,50972
2096921,2096921,458733,253413,50933
2096921,2096921,458869,253425,50933
2096921,2096921,458781,253448,50972
2096921,2096921,458874,253423,50972
2096921,2096921,458753,253358,50972
2096921,2096921,458739,253294,50972
2096921,2096921,458850,253448,50972
2096921,2096921,458974,253471,50972
2096921,2096921,459013,253433,50972
2096921,2096921,459125,253538,50972
2096921,2096921,458981,253617,51059
2096921,2096921,459124,253486,51020
2096921,2096921,459066,253488,51020
2096921,2096921,459164,253421,50972
2096921,2096921,459197,253605,51706
2096921,2096921,459376,253627,50972
2096921,2096921,459319,253579,50972
2096921,2096921,459395,253622,50972
2096921,2096921,459364,253595,51107
2096921,2096921,459542,253571,51020
2096921,2096921,459459,253525,51020
2096921,2096921,459479,253440,50972
2096921,2096921,459463,253704,51193
2096921,2096921,459624,253670,51706
2096921,2096921,459620,253686,51020
2096921,2096921,459830,253675,50972
2096921,2096921,459716,253782,51107
2096921,2096921,459640,253729,50972
2096921,2096921,459691,253713,50972
2096921,2096921,459715,253577,50972
2096921,2096921,459690,253707,51107
2096921,2096921,459845,253737,50933
2096921,2096921,459825,253688,50972
2096921,2096921,459965,253772,51020
2096921,2096921,459845,253822,51107
2096921,2096921,459878,253733,51020
2096921,2096921,459776,253636,51020
2096921,2096921,459749,253576,51043
2096921,2096921,459955,253751,51059
2096921,2096921,460050,253791,50972
2096921,2096921,460094,253771,50972
2096921,2096921,460182,253762,51020
2096921,2096921,460137,253857,51020
2096921,2096921,460064,253744,50972
2096921,2096921,459962,253774,51020
2096921,2096921,460148,253724,51020
2096921,2096921,460078,253866,51020
2096921,2096921,460155,253827,51020
2096921,2096921,460200,253739,51020
2096921,2096921,460236,253738,51020
2096921,2096921,460166,253812,51075
2096921,2096921,460134,253747,51075
2096921,2096921,460063,253764,51020
2096921,2096921,460078,253675,51706
2096921,2096921,460095,253850,51059
2096921,2096921,460285,253816,51075
2096921,2096921,460288,253852,50972
2096921,2096921,460393,253868,51706
2096921,2096921,460289,253863,51146
2096921,2096921,460372,253772,51020
2096921,2096921,460201,253749,51706
2096921,2096921,460218,253687,50972
2096921,2096921,460288,253878,51107
2096921,2096921,460405,253818,51020
2096921,2096921,460344,253805,51020
2096921,2096921,460494,253779,51020
2096921,2096921,460440,253937,51146
2096921,2096921,460436,253818,51075
2096921,2096921,460355,253831,50972
2096921,2096921,460285,253726,51020
2096921,2096921,460374,253862,51146
2096921,2096921,460434,253892,51201
2096921,2096921,460557,253777,51020
2096921,2096921,460615,253864,51020
2096921,2096921,460449,253841,51107
2096921,2096921,460410,253868,51020
2096921,2096921,460387,253796,51020
2096921,2096921,460457,253745,51020
2096921,2096921,460435,253879,51146
2096921,2096921,460655,253896,51020
2096921,2096921,460611,253961,51020
2096921,2096921,460658,253887,51020
2096921,2096921,460628,253864,51020
2096921,2096921,460511,253835,51201
2096921,2096921,460461,253808,51020
2096921,2096921,460427,253647,51020
2096921,2096921,460538,253855,51020
2096921,2096921,460683,253840,51059
2096921,2096921,460623,253795,51020
2096921,2096921,460793,253956,51020
2096921,2096921,460625,253930,51020
2096921,2096921,460674,253841,51020
2096921,2096921,460523,253801,51075
2096921,2096921,460544,253778,51020
2096921,2096921,460631,253868,51146
2096921,2096921,460625,253805,51020
2096921,2096921,460717,253954,51020
2096921,2096921,460718,253870,51020
2096921,2096921,460689,253943,51201
2096921,2096921,460666,253879,51059
2096921,2096921,460508,253698,51020
2096921,2096921,460537,253678,51020
2096921,2096921,460630,253844,51146
2096921,2096921,460613,253977,51020
2096921,2096921,460690,253872,51020
2096921,2096921,460790,253797,51020
2096921,2096921,460657,253795,51146
2096921,2096921,460585,253712,51020
2096921,2096921,460536,253765,51020
2096921,2096921,460568,253641,51020
2096921,2096921,460555,253873,51193
2096921,2096921,460562,253781,51706
2096921,2096921,460606,253748,51020
2096921,2096921,460681,253760,51020
2096921,2096921,460626,253816,51107
2096921,2096921,460543,253863,51020
2096921,2096921,460423,253723,50972
2096921,2096921,460421,253706,51059
2096921,2096921,460482,253835,51146
2096921,2096921,460520,253734,51020
2096921,2096921,460563,253777,51706
2096921,2096921,460627,253733,51706
2096921,2096921,460615,253852,51107
2096921,2096921,460483,253792,51075
2096921,2096921,460332,253678,50972
2096921,2096921,460439,253591,50972
2096921,2096921,460453,253764,51059
2096921,2096921,460453,253758,50972
2096921,2096921,460426,253727,51075
2096921,2096921,460533,253743,51075
2096921,2096921,460494,253798,50972
2096921,2096921,460387,253641,50972
2096921,2096921,460320,253619,50972
2096921,2096921,460230,253543,50972
2096921,2096921,460305,253692,50972
2096921,2096921,460189,253656,51706
2096921,2096921,460331,253578,50933
2096921,2096921,460340,253592,50972
2096921,2096921,460275,253626,51059
2096921,2096921,460192,253571,51706
2096921,2096921,460094,253500,50972
2096921,2096921,460169,253406,50972
2096921,2096921,460054,253422,51059
2096921,2096921,459657,253355,50972
2096921,2096921,459659,253408,50972
2096921,2096921,459795,253320,50972
2096921,2096921,459699,253370,51059
2096921,2096921,459311,253297,51075
2096921,2096921,459153,253116,50972
2096921,2096921,459165,253075,51706
2096921,2096921,459181,253129,51107
2096921,2096921,458599,253094,50972
2096921,2096921,458565,253046,50972
2096921,2096921,458804,253078,51075
2096921,2096921,458615,252789,51107
2096921,2096921,457749,252662,50972
2096921,2096921,457516,252602,51075
2096921,2096921,457504,252499,50972
2096921,2096921,457594,252507,51107
2096921,2096921,456742,252454,51020
2096921,2096921,456842,252347,50972
2096921,2096921,456842,252358,50972
2096921,2096921,456640,252508,50972
2096921,2096921,455087,251981,51020
2096921,2096921,454735,251716,51706
2096921,2096921,454517,251689,51043
2096921,2096921,454548,251654,51146
2096921,2096921,454465,251117,51706
2096921,2096921,452177,250860,51020
2096921,2096921,452116,250887,51706
2096921,2096921,452127,250927,51059
2096921,2096921,451985,250418,51020
2096921,2096921,450289,250348,51020
2096921,2096921,450099,250247,51020
2096921,2096921,450126,250172,51107
2096921,2096921,448982,249949,51020
2096921,2096921,448817,249780,51020
2096921,2096921,448812,249813,51020
2096921,2096921,448808,249827,51146
2096921,2096921,447815,249531,51043
2096921,2096921,447592,249409,51020
2096921,2096921,447549,249302,51706
2096921,2096921,447611,249270,51107
2096921,2096921,447086,249253,51020
2096921,2096921,446858,249208,51043
2096921,2096921,446833,249136,51706
2096921,2096921,447030,249167,51107
2096921,2096921,446398,249017,51706
2096921,2096921,446275,248968,51020
2096921,2096921,446099,248801,51020
2096921,2096921,446164,248811,51146
2096921,2096921,445929,248845,51020
2096921,2096921,445938,248781,51020
2096921,2096921,445937,248705,51201
2096921,2096921,445901,248800,51193
2096921,2096921,445686,248819,51020
2096921,2096921,445570,248656,51020
2096921,2096921,445462,248606,51020
2096921,2096921,445594,248510,51146
2096921,2096921,445505,248688,51020
2096921,2096921,445583,248662,51706
2096921,2096921,445550,248656,51020
2096921,2096921,445729,248760,51193
2096921,2096921,445697,248751,51020
2096921,2096921,445641,248724,51020
2096921,2096921,445492,248590,51706
2096921,2096921,445605,248479,51146
2096921,2096921,445776,248706,51706
2096921,2096921,445718,248681,51059
2096921,2096921,445732,248660,51059
2096921,2096921,445849,248649,51107
2096921,2096921,445888,248774,51020
2096921,2096921,445852,248707,51020
2096921,2096921,445774,248656,51020
2096921,2096921,445793,248588,51706
2096921,2096921,446198,248816,51706
2096921,2096921,446087,248861,51020
2096921,2096921,446122,248768,51020
2096921,2096921,446309,248777,51107
2096921,2096921,446494,248907,51059
2096921,2096921,446509,248824,51075
2096921,2096921,446367,248760,51059
2096921,2096921,446484,248730,51107
2096921,2096921,446750,249024,51020
2096921,2096921,446830,249070,51020
2096921,2096921,446960,249005,51706
2096921,2096921,447031,248969,51107
2096921,2096921,447232,249112,51020
2096921,2096921,447186,249017,51043
2096921,2096921,447146,249059,51020
2096921,2096921,447186,248979,51201
2096921,2096921,447603,249197,51059
2096921,2096921,447640,249125,51201
2096921,2096921,447682,249182,51020
2096921,2096921,447747,249303,51146
2096921,2096921,447880,249317,51201
2096921,2096921,447876,249238,51020
2096921,2096921,447742,249186,51706
2096921,2096921,447780,249061,51146
2096921,2096921,448227,249343,51706
2096921,2096921,448207,249327,51706
2096921,2096921,448263,249404,51706
2096921,2096921,448368,249308,51059
2096921,2096921,448560,249509,50972
2096921,2096921,448585,249443,50972
2096921,2096921,448524,249362,51706
2096921,2096921,448497,249288,51146
2096921,2096921,448967,249560,51706
2096921,2096921,448991,249614,51020
2096921,2096921,449003,249535,51020
2096921,2096921,449114,249542,51107
2096921,2096921,449257,249651,51020
2096921,2096921,449272,249625,50972
2096921,2096921,449148,249510,50972
2096921,2096921,449232,249514,51107
2096921,2096921,449695,249789,51020
2096921,2096921,449694,249775,50972
2096921,2096921,449756,249727,51020
2096921,2096921,449841,249804,51059
2096921,2096921,450061,249923,51043
2096921,2096921,450042,249876,51020
2096921,2096921,449970,249767,51201
2096921,2096921,449993,249723,51059
2096921,2096921,450370,249914,51020
2096921,2096921,450425,249927,50972
2096921,2096921,450368,249929,51706
2096921,2096921,450406,249962,51146
2096921,2096921,450620,250044,51706
2096921,2096921,450558,250000,51020
2096921,2096921,450611,249978,51043
2096921,2096921,450545,249852,51107
2096921,2096921,450772,250088,51020
2096921,2096921,450782,250052,51020
2096921,2096921,450817,250016,51020
2096921,2096921,450920,250077,51146
2096921,2096921,450882,250062,51020
2096921,2096921,450876,250029,51020
2096921,2096921,450752,249977,51020
2096921,2096921,450759,249971,51146
2096921,2096921,451024,250107,51020
2096921,2096921,450980,250180,51706
2096921,2096921,451005,250007,51075
2096921,2096921,451055,250051,51193
2096921,2096921,450936,250083,50972
2096921,2096921,450832,249931,51020
2096921,2096921,450684,249990,51020
2096921,2096921,450758,249863,51146
2096921,2096921,450780,250059,51020
2096921,2096921,450805,250043,51059
2096921,2096921,450828,249934,51020
2096921,2096921,450864,249976,51201
2096921,2096921,450578,249904,51020
2096921,2096921,450508,249858,51706
2096921,2096921,450469,249784,51059
2096921,2096921,450410,249687,51146
2096921,2096921,450477,249821,51059
2096921,2096921,450321,249792,51201
2096921,2096921,450359,249810,51706
2096921,2096921,450445,249858,51020
2096921,2096921,450165,249671,50972
2096921,2096921,450062,249677,51075
2096921,2096921,449967,249594,51706
2096921,2096921,449985,249523,50972
2096921,2096921,449992,249581,51020
2096921,2096921,449946,249628,50972
2096921,2096921,449921,249587,51020
2096921,2096921,450061,249666,50972
2096921,2096921,449699,249566,51075
2096921,2096921,449726,249491,51020
2096921,2096921,449453,249395,51075
2096921,2096921,449487,249315,51059
2096921,2096921,449598,249463,51020
2096921,2096921,449516,249481,51020
2096921,2096921,449633,249448,51043
2096921,2096921,449574,249558,51107
2096921,2096921,449516,249416,50972
2096921,2096921,449361,249361,51020
2096921,2096921,449240,249293,51020
2096921,2096921,449347,249224,51146
2096921,2096921,449499,249361,51706
2096921,2096921,449461,249415,51020
2096921,2096921,449426,249336,50972
2096921,2096921,449519,249363,51706
2096921,2096921,449482,249365,50972
2096921,2096921,449375,249304,50972
2096921,2096921,449349,249320,50972
2096921,2096921,449249,249153,51146
2096921,2096921,449486,249391,51201
2096921,2096921,449426,249301,51706
2096921,2096921,449517,249356,51075
2096921,2096921,449627,249365,51059
2096921,2096921,449753,249431,50972
2096921,2096921,449794,249412,51020
2096921,2096921,449590,249336,50972
2096921,2096921,449628,249298,51201
2096921,2096921,449901,249412,51201
2096921,2096921,449979,249421,50972
2096921,2096921,450028,249382,50972
2096921,2096921,450074,249448,51059
2096921,2096921,450192,249574,51201
2096921,2096921,450155,249431,50972
2096921,2096921,450049,249442,50972
2096921,2096921,450037,249396,50972
2096921,2096921,450313,249499,51201
2096921,2096921,450327,249512,51706
2096921,2096921,450407,249491,51201
2096921,2096921,450429,249479,50972
2096921,2096921,450507,249523,50972
2096921,2096921,450465,249510,51706
2096921,2096921,450332,249565,50972
2096921,2096921,450396,249376,50972
2096921,2096921,450589,249638,51075
2096921,2096921,450715,249600,50972
2096921,2096921,450679,249546,50972
2096921,2096921,450754,249634,51107
2096921,2096921,450795,249631,50972
2096921,2096921,450736,249561,51075
2096921,2096921,450598,249450,50972
2096921,2096921,450633,249472,51706
2096921,2096921,451057,249659,50972
2096921,2096921,450988,249611,51075
2096921,2096921,450957,249638,51706
2096921,2096921,451095,249648,51146
2096921,2096921,451112,249743,51020
2096921,2096921,451103,249607,51201
2096921,2096921,450972,249541,50972
2096921,2096921,450978,249483,51146
2096921,2096921,451278,249728,51020
2096921,2096921,451310,249774,51020
2096921,2096921,451357,249723,51201
2096921,2096921,451426,249687,51146
2096921,2096921,451396,249702,51020
2096921,2096921,451324,249684,51020
2096921,2096921,451178,249604,51020
2096921,2096921,451274,249593,51107
2096921,2096921,451494,249757,51020
2096921,2096921,451537,249707,51020
2096921,2096921,451511,249724,51020
2096921,2096921,451579,249718,51059
2096921,2096921,451696,249763,50972
2096921,2096921,451704,249717,51706
2096921,2096921,451588,249711,51075
2096921,2096921,451556,249648,51075
2096921,2096921,451815,249802,51043
2096921,2096921,451830,249737,51020
2096921,2096921,451835,249706,51043
2096921,2096921,451936,249761,51020
2096921,2096921,451919,249773,51020
2096921,2096921,451829,249752,50972
2096921,2096921,451749,249701,51706
2096921,2096921,451804,249671,50972
2096921,2096921,452053,249777,51075
2096921,2096921,452009,249795,50972
2096921,2096921,452046,249804,51020
2096921,2096921,452221,249786,51706
2096921,2096921,452146,249844,51020
2096921,2096921,452129,249760,51020
2096921,2096921,452022,249785,51020
2096921,2096921,452006,249693,51107
2096921,2096921,452213,249880,51043
2096921,2096921,452148,249935,51059
2096921,2096921,452278,249838,51059
2096921,2096921,452328,249784,51146
2096921,2096921,452315,249837,51201
2096921,2096921,452224,249697,51706
2096921,2096921,452118,249693,51043
2096921,2096921,452195,249604,51146
2096921,2096921,452390,249848,51075
2096921,2096921,452416,249857,51059
2096921,2096921,452333,249825,51075
2096921,2096921,452459,249820,51280
2096921,2096921,452373,249766,51075
2096921,2096921,452262,249761,51706
2096921,2096921,452279,249666,51020
2096921,2096921,452253,249629,51706
2096921,2096921,452434,249813,51059
2096921,2096921,452470,249732,51107
2096921,2096921,452421,249803,51059
2096921,2096921,452590,249833,51193
2096921,2096921,452482,249743,51107
2096921,2096921,452497,249726,51706
2096921,2096921,452410,249646,51059
2096921,2096921,452420,249636,51146
2096921,2096921,452575,249807,51075
2096921,2096921,452605,249802,51107
2096921,2096921,452510,249790,51075
2096921,2096921,452659,249783,51706
2096921,2096921,452570,249723,51075
2096921,2096921,452571,249658,51059
2096921,2096921,452468,249648,51107
2096921,2096921,452442,249662,51201
2096921,2096921,452682,249736,51107
2096921,2096921,452671,249801,51706
2096921,2096921,452713,249685,51075
2096921,2096921,452722,249749,51146
2096921,2096921,452625,249711,51059
2096921,2096921,452634,249628,51706
2096921,2096921,452463,249633,51075
2096921,2096921,452560,249562,51107
2096921,2096921,452601,249775,51059
2096921,2096921,452623,249655,50972
2096921,2096921,452607,249701,51706
2096921,2096921,452727,249716,51075
2096921,2096921,452599,249680,50972
2096921,2096921,452552,249639,50972
2096921,2096921,452573,249574,51706
2096921,2096921,452490,249552,51059
2096921,2096921,452696,249593,51075
2096921,2096921,452611,249643,50972
2096921,2096921,452606,249629,51075
2096921,2096921,452781,249641,51107
2096921,2096921,452553,249654,50972
2096921,2096921,452588,249637,50972
2096921,2096921,452471,249630,51020
2096921,2096921,452501,249547,51107
2096921,2096921,452681,249611,51075
2096921,2096921,452611,249568,50933
2096921,2096921,452599,249590,51706
2096921,2096921,452705,249524,51201
2096921,2096921,452566,249647,51706
2096921,2096921,452514,249439,50972
2096921,2096921,452460,249427,50972
2096921,2096921,452451,249436,51059
2096921,2096921,452535,249582,50972
2096921,2096921,452586,249576,50972
2096921,2096921,452594,249488,51020
2096921,2096921,452630,249516,51059
2096921,2096921,452519,249479,50972
2096921,2096921,452467,249453,50972
2096921,2096921,452353,249427,50972
2096921,2096921,452362,249296,50972
2096921,2096921,452485,249448,51020
2096921,2096921,452510,249347,51706
2096921,2096921,452422,249386,51020
2096921,2096921,452480,249398,51020
2096921,2096921,452390,249395,50972
2096921,2096921,452364,249386,51075
2096921,2096921,452288,249255,50972
2096921,2096921,452279,249295,51059
2096921,2096921,452368,249344,50972
2096921,2096921,452407,249336,51201
2096921,2096921,452313,249353,50972
2096921,2096921,452443,249298,51059
2096921,2096921,452303,249365,51706
2096921,2096921,452298,249270,50972
2096921,2096921,452224,249206,51706
2096921,2096921,452181,249149,51059
2096921,2096921,452375,249271,50972
2096921,2096921,452250,249280,51020
2096921,2096921,452323,249235,50972
2096921,2096921,452351,249280,51107
2096921,2096921,452348,249231,50933
2096921,2096921,452245,249225,51706
2096921,2096921,452008,249103,51201
2096921,2096921,452126,249051,51193
2096921,2096921,452225,249161,51075
2096921,2096921,452188,249237,50972
2096921,2096921,452211,249203,50972
2096921,2096921,452287,249149,51059
2096921,2096921,452232,249244,50933
2096921,2096921,452101,249102,50972
2096921,2096921,452055,249039,50972
2096921,2096921,452082,248985,51107
2096921,2096921,452076,249146,50972
2096921,2096921,452017,249076,51020
2096921,2096921,452009,249001,50972
2096921,2096921,452091,249045,51059
2096921,2096921,451898,249010,51706
2096921,2096921,451878,249066,50972
2096921,2096921,451845,248963,51706
2096921,2096921,451716,248837,51059
2096921,2096921,451855,248958,51706
2096921,2096921,451793,248845,50972
2096921,2096921,451868,248926,51706
2096921,2096921,451952,248996,50972
2096921,2096921,451691,248952,51075
2096921,2096921,451666,248850,50972
2096921,2096921,451516,248766,50972
2096921,2096921,451538,248676,50933
2096921,2096921,451631,248784,51020
2096921,2096921,451582,248801,51020
2096921,2096921,451623,248728,51706
2096921,2096921,451622,248841,51020
2096921,2096921,451529,248781,51075
2096921,2096921,451463,248723,51706
2096921,2096921,451295,248706,51020
2096921,2096921,451394,248609,51107
2096921,2096921,451376,248828,51075
2096921,2096921,451361,248775,51706
2096921,2096921,451320,248637,51020
2096921,2096921,451360,248687,51146
2096921,2096921,451320,248604,51020
2096921,2096921,451239,248625,51020
2096921,2096921,451151,248592,51020
2096921,2096921,451200,248460,51146
2096921,2096921,451217,248648,51201
2096921,2096921,451132,248546,51020
2096921,2096921,451108,248587,51020
2096921,2096921,451229,248617,51146
2096921,2096921,451048,248601,51020
2096921,2096921,450958,248524,51075
2096921,2096921,450958,248399,51059
2096921,2096921,450901,248340,51146
2096921,2096921,450565,248333,51706
2096921,2096921,450525,248353,51020
2096921,2096921,450578,248281,51020
2096921,2096921,450671,248317,51706
2096921,2096921,450084,248303,51043
2096921,2096921,450140,248179,51020
2096921,2096921,449985,248093,51020
2096921,2096921,449900,248041,51146
2096921,2096921,449419,247965,51201
2096921,2096921,449239,247926,51706
2096921,2096921,449345,247816,51020
2096921,2096921,449375,247897,51059
2096921,2096921,448549,247594,51020
2096921,2096921,448388,247547,51706
2096921,2096921,448185,247536,51020
2096921,2096921,448241,247406,51020
2096921,2096921,447486,247312,50972
2096921,2096921,447431,247195,51201
2096921,2096921,447372,247257,50972
2096921,2096921,447422,247246,50972
2096921,2096921,445594,246761,50972
2096921,2096921,445344,246628,50972
2096921,2096921,445191,246507,50972
2096921,2096921,445228,246393,51020
2096921,2096921,443209,245922,51706
2096921,2096921,442798,245727,50972
2096921,2096921,442767,245600,50972
2096921,2096921,442901,245717,51059
2096921,2096921,441048,245250,51706
2096921,2096921,440848,245069,50972
2096921,2096921,440731,244978,50972
2096921,2096921,440741,244935,51107
2096921,2096921,439603,244707,51020
2096921,2096921,439360,244588,50933
2096921,2096921,439251,244490,50972
2096921,2096921,439388,244526,50972
2096921,2096921,438369,244305,50933
2096921,2096921,438260,244157,50972
2096921,2096921,438104,244087,50933
2096921,2096921,438050,244014,51107
2096921,2096921,437528,243943,50972
2096921,2096921,437401,243896,51706
2096921,2096921,437417,243876,50933
2096921,2096921,437503,243903,51075
2096921,2096921,436863,243755,51706
2096921,2096921,436689,243555,50933
2096921,2096921,436605,243574,50972
2096921,2096921,436656,243525,51059
2096921,2096921,436486,243577,51706
2096921,2096921,436456,243482,50972
2096921,2096921,436468,243469,50972
2096921,2096921,436517,243506,51059
2096921,2096921,436268,243495,50972
2096921,2096921,436103,243479,50972
2096921,2096921,436123,243413,51706
2096921,2096921,435978,243285,51201
2096921,2096921,436139,243390,51059
2096921,2096921,436083,243352,51020
2096921,2096921,436091,243281,51075
2096921,2096921,436174,243350,51059
2096921,2096921,436103,243389,51020
2096921,2096921,436126,243263,51020
2096921,2096921,436043,243265,51020
2096921,2096921,436106,243203,51020
2096921,2096921,436225,243408,51201
2096921,2096921,436240,243347,51706
2096921,2096921,436262,243409,51020
2096921,2096921,436278,243416,51107
2096921,2096921,436236,243421,51706
2096921,2096921,436105,243296,51020
2096921,2096921,436038,243277,51706
2096921,2096921,436056,243086,51107
2096921,2096921,436473,243405,50972
2096921,2096921,436592,243501,51706
2096921,2096921,436599,243379,51020
2096921,2096921,436678,243516,51107
2096921,2096921,436783,243502,51706
2096921,2096921,436797,243479,51020
2096921,2096921,436676,243443,51020
2096921,2096921,436740,243342,51201
2096921,2096921,437031,243550,51020
2096921,2096921,437115,243535,51706
2096921,2096921,437023,243552,51043
2096921,2096921,437227,243601,51146
2096921,2096921,437371,243686,51020
2096921,2096921,437405,243558,51075
2096921,2096921,437312,243540,51706
2096921,2096921,437285,243401,51107
2096921,2096921,437799,243709,51706
2096921,2096921,437729,243690,51706
2096921,2096921,437710,243777,50972
2096921,2096921,437878,243714,51201
2096921,2096921,438024,243878,51706
2096921,2096921,438001,243756,51075
2096921,2096921,437971,243693,51020
2096921,2096921,437881,243608,51201
2096921,2096921,438269,243821,51706
2096921,2096921,438319,243855,51706
2096921,2096921,438288,243782,51059
2096921,2096921,438449,243844,51059
2096921,2096921,438602,243897,51706
2096921,2096921,438580,243892,51059
2096921,2096921,438461,243874,51059
2096921,2096921,438557,243725,51059
2096921,2096921,438937,244013,51059
2096921,2096921,439070,243991,51059
2096921,2096921,439036,243929,51075
2096921,2096921,439023,244011,51201
2096921,2096921,439278,244065,51059
2096921,2096921,439323,244021,51201
2096921,2096921,439269,244052,51059
2096921,2096921,439173,243948,51193
2096921,2096921,439600,244121,51107
2096921,2096921,439654,244154,51706
2096921,2096921,439628,244147,51059
2096921,2096921,439792,244160,51146
2096921,2096921,439958,244294,51706
2096921,2096921,439885,244270,51059
2096921,2096921,439798,244102,51706
2096921,2096921,439856,244057,51193
2096921,2096921,440218,244296,51059
2096921,2096921,440098,244331,51059
2096921,2096921,440116,244308,51059
2096921,2096921,440250,244301,51193
2096921,2096921,440394,244353,51059
2096921,2096921,440353,244240,51059
2096921,2096921,440185,244220,51075
2096921,2096921,440235,244079,51193
2096921,2096921,440451,244329,51059
2096921,2096921,440486,244337,51075
2096921,2096921,440599,244289,51706
2096921,2096921,440630,244322,51193
2096921,2096921,440661,244373,51075
2096921,2096921,440486,244350,51706
2096921,2096921,440471,244237,50972
2096921,2096921,440465,244136,51107
2096921,2096921,440610,244364,51706
2096921,2096921,440564,244253,50972
2096921,2096921,440502,244156,50972
2096921,2096921,440685,244347,51059
2096921,2096921,440530,244254,50972
2096921,2096921,440402,244204,51706
2096921,2096921,440349,244063,50972
2096921,2096921,440391,244000,51020
2096921,2096921,440453,244195,51706
2096921,2096921,440425,244176,51706
2096921,2096921,440415,244196,51201
2096921,2096921,440541,244207,51059
2096921,2096921,440256,244266,51706
2096921,2096921,440195,244062,50933
2096921,2096921,440051,244007,50972
2096921,2096921,440019,243942,51020
2096921,2096921,439937,244020,50972
2096921,2096921,439916,243961,50972
2096921,2096921,439918,243933,50972
2096921,2096921,439991,243952,51107
2096921,2096921,439777,243943,51706
2096921,2096921,439618,243808,50972
2096921,2096921,439532,243794,51706
2096921,2096921,439602,243716,51059
2096921,2096921,439478,243844,50972
2096921,2096921,439521,243887,50933
2096921,2096921,439492,243765,50972
2096921,2096921,439547,243814,51107
2096921,2096921,439271,243711,51075
2096921,2096921,439172,243645,50933
2096921,2096921,439120,243630,50972
2096921,2096921,439024,243568,51146
2096921,2096921,439047,243725,51075
2096921,2096921,439010,243591,50972
2096921,2096921,439020,243556,51706
2096921,2096921,439157,243625,51107
2096921,2096921,438917,243630,50972
2096921,2096921,438836,243506,50972
2096921,2096921,438854,243420,51043
2096921,2096921,438856,243333,51146
2096921,2096921,439016,243507,51020
2096921,2096921,438973,243570,51201
2096921,2096921,438967,243559,51706
2096921,2096921,439118,243554,51107
2096921,2096921,438971,243527,51020
2096921,2096921,438998,243552,51706
2096921,2096921,438792,243422,51020
2096921,2096921,438830,243305,51020
2096921,2096921,438966,243498,51706
2096921,2096921,438932,243509,51020
2096921,2096921,438882,243390,51075
2096921,2096921,438918,243432,51059
2096921,2096921,439211,243548,51706
2096921,2096921,439027,243417,51706
2096921,2096921,439031,243342,51706
2096921,2096921,439057,243301,51107
2096921,2096921,439327,243621,51706
2096921,2096921,439368,243604,51706
2096921,2096921,439343,243508,51020
2096921,2096921,439478,243555,51146
2096921,2096921,439618,243584,51020
2096921,2096921,439610,243546,51059
2096921,2096921,439519,243541,51059
2096921,2096921,439473,243381,51107
2096921,2096921,439818,243591,51020
2096921,2096921,439837,243659,51075
2096921,2096921,439698,243667,51020
2096921,2096921,439881,243582,51193
2096921,2096921,439963,243729,51059
2096921,2096921,439915,243693,51706
2096921,2096921,439814,243574,51020
2096921,2096921,439759,243569,51706
2096921,2096921,440195,243712,51020
2096921,2096921,440046,243727,51020
2096921,2096921,440036,243743,51020
2096921,2096921,440183,243734,51146
2096921,2096921,440224,243742,51020
2096921,2096921,440157,243687,51020
2096921,2096921,440078,243655,51020
2096921,2096921,440105,243548,51107
2096921,2096921,440317,243771,51020
2096921,2096921,440354,243742,51075
2096921,2096921,440280,243741,51706
2096921,2096921,440407,243711,51193
2096921,2096921,440520,243717,51020
2096921,2096921,440443,243709,51020
2096921,2096921,440384,243663,51020
2096921,2096921,440397,243504,51107
2096921,2096921,440661,243870,51020
2096921,2096921,440675,243775,51020
2096921,2096921,440673,243771,51706
2096921,2096921,440709,243798,51020
2096921,2096921,440820,243838,51020
2096921,2096921,440690,243815,51706
2096921,2096921,440692,243679,51020
2096921,2096921,440561,243623,51107
2096921,2096921,440985,243871,51020
2096921,2096921,440903,243845,51020
2096921,2096921,440864,243823,51043
2096921,2096921,441045,243860,51020
2096921,2096921,441083,243866,51020
2096921,2096921,441084,243728,51020
2096921,2096921,440877,243674,51706
2096921,2096921,440984,243673,51107
2096921,2096921,441192,243883,51706
2096921,2096921,441233,243952,51020
2096921,2096921,441264,243860,51075
2096921,2096921,441268,243855,51146
2096921,2096921,441323,243969,51020
2096921,2096921,441240,243878,51075
2096921,2096921,441216,243871,51706
2096921,2096921,441150,243776,51146
2096921,2096921,441432,244019,51043
2096921,2096921,441376,243852,51020
2096921,2096921,441397,243841,51020
2096921,2096921,441462,243983,51146
2096921,2096921,441596,243934,51075
2096921,2096921,441475,243962,51020
2096921,2096921,441446,243814,51020
2096921,2096921,441413,243818,51193
2096921,2096921,441649,243974,51020
2096921,2096921,441653,243949,51043
2096921,2096921,441565,243869,51075
2096921,2096921,441688,243876,51146
2096921,2096921,441743,243961,51059
2096921,2096921,441651,243860,51706
2096921,2096921,441476,243804,51706
2096921,2096921,441479,243775,51146
2096921,2096921,441722,243928,51020
2096921,2096921,441634,243894,51706
2096921,2096921,441751,243948,51020
2096921,2096921,441772,243840,51020
2096921,2096921,441767,243954,51706
2096921,2096921,441675,243891,51075
2096921,2096921,441668,243807,51706
2096921,2096921,441666,243704,51107
2096921,2096921,441902,243965,50972
2096921,2096921,441901,244000,51706
2096921,2096921,441933,243884,51020
2096921,2096921,441984,243982,50972
2096921,2096921,442070,243952,51075
2096921,2096921,441894,243900,51020
2096921,2096921,441851,243823,51075
2096921,2096921,441876,243682,51107
2096921,2096921,442032,243945,51020
2096921,2096921,442103,243881,51020
2096921,2096921,442017,243894,51020
2096921,2096921,442101,243916,51107
2096921,2096921,441989,243887,51020
2096921,2096921,441966,243910,51020
2096921,2096921,441970,243832,50972
2096921,2096921,441862,243762,51107
2096921,2096921,442153,243910,51706
2096921,2096921,441972,243923,51020
2096921,2096921,442058,243872,51020
2096921,2096921,442101,243911,51233
2096921,2096921,442091,244010,51706
2096921,2096921,442079,243851,51020
2096921,2096921,442059,243758,51059
2096921,2096921,441992,243689,51146
2096921,2096921,442194,243872,51075
2096921,2096921,442135,243949,51020
2096921,2096921,442084,243866,51020
2096921,2096921,442284,243828,51146
2096921,2096921,442233,243872,51043
2096921,2096921,442133,243894,51020
2096921,2096921,441973,243755,51020
2096921,2096921,442057,243631,51146
2096921,2096921,442149,243880,51020
2096921,2096921,442124,243880,51020
2096921,2096921,442136,243801,51706
2096921,2096921,442143,243855,51107
2096921,2096921,442135,243933,51020
2096921,2096921,442115,243802,51020
2096921,2096921,442165,243771,51020
2096921,2096921,442117,243678,51107
2096921,2096921,442179,243854,51706
2096921,2096921,442114,243720,51706
2096921,2096921,442094,243764,51075
2096921,2096921,442172,243790,51059
2096921,2096921,442163,243776,51706
2096921,2096921,442050,243709,51201
2096921,2096921,442049,243691,51706
2096921,2096921,441994,243621,51146
2096921,2096921,442142,243750,51201
2096921,2096921,442017,243740,51020
2096921,2096921,442076,243691,51020
2096921,2096921,442260,243739,51107
2096921,2096921,442115,243804,51075
2096921,2096921,442091,243689,50972
2096921,2096921,442050,243653,51075
2096921,2096921,441956,243522,51146
2096921,2096921,442046,243664,50972
2096921,2096921,442034,243687,51043
2096921,2096921,442109,243578,51020
2096921,2096921,442102,243687,51107
2096921,2096921,442126,243673,50933
2096921,2096921,442052,243604,51706
2096921,2096921,441991,243641,51706
2096921,2096921,442022,243546,51193
2096921,2096921,442067,243666,50933
2096921,2096921,442098,243664,50933
2096921,2096921,442025,243657,50972
2096921,2096921,442180,243709,51201
2096921,2096921,442097,243613,50933
2096921,2096921,442144,243649,50972
2096921,2096921,442082,243603,50972
2096921,2096921,442062,243494,51059
2096921,2096921,442114,243633,51075
2096921,2096921,442074,243645,50972
2096921,2096921,442094,243602,50972
2096921,2096921,442124,243626,51107
2096921,2096921,441988,243602,51201
2096921,2096921,441997,243610,51706
2096921,2096921,441987,243570,50972
2096921,2096921,441898,243418,50972
2096921,2096921,442096,243625,50972
2096921,2096921,441990,243601,51075
2096921,2096921,442042,243516,51706
2096921,2096921,442220,243576,51706
2096921,2096921,442100,243627,50933
2096921,2096921,442073,243557,51706
2096921,2096921,441948,243517,50933
2096921,2096921,441918,243343,51020
2096921,2096921,441904,243534,51706
2096921,2096921,441974,243567,51201
2096921,2096921,442066,243437,50972
2096921,2096921,441955,243576,51107
2096921,2096921,441969,243485,51706
2096921,2096921,441907,243487,51075
2096921,2096921,441831,243404,50972
2096921,2096921,441830,243334,51059
2096921,2096921,441911,243521,50972
2096921,2096921,441868,243593,51706
2096921,2096921,441865,243456,50972
2096921,2096921,441944,243509,50972
2096921,2096921,441869,243413,51020
2096921,2096921,441791,243403,51020
2096921,2096921,441715,243388,51706
2096921,2096921,441660,243193,51193
2096921,2096921,441754,243362,51075
2096921,2096921,441727,243358,51020
2096921,2096921,441667,243394,51059
2096921,2096921,441742,243443,51146
2096921,2096921,441630,243431,51043
2096921,2096921,441687,243347,51706
2096921,2096921,441621,243266,51020
2096921,2096921,441529,243225,51706
2096921,2096921,441675,243312,51706
2096921,2096921,441571,243342,50972
2096921,2096921,441529,243252,51706
2096921,2096921,441668,243374,51107
2096921,2096921,441566,243365,51020
2096921,2096921,441514,243306,51020
2096921,2096921,441374,243247,51020
2096921,2096921,441366,243131,51107
2096921,2096921,441478,243304,51706
2096921,2096921,441513,243300,51020
2096921,2096921,441488,243222,51020
2096921,2096921,441463,243234,51020
2096921,2096921,441384,243290,51706
2096921,2096921,441310,243192,51020
2096921,2096921,441216,243151,51020
2096921,2096921,441296,243015,51020
2096921,2096921,440914,243115,51020
2096921,2096921,440881,243031,51020
2096921,2096921,440889,243026,51020
2096921,2096921,440929,243144,51107
2096921,2096921,440545,242919,51020
2096921,2096921,440495,242861,51020
2096921,2096921,440371,242782,51075
2096921,2096921,440423,242647,51146
2096921,2096921,439869,242693,51706
2096921,2096921,439822,242706,51706
2096921,2096921,439763,242673,51075
2096921,2096921,439879,242681,51107
2096921,2096921,439027,242464,51059
2096921,2096921,438932,242326,51706
2096921,2096921,438876,242250,51706
2096921,2096921,438781,242181,51146
2096921,2096921,438187,242119,51706
2096921,2096921,438046,242121,51706
2096921,2096921,438041,242089,51020
2096921,2096921,438121,242095,51233
2096921,2096921,436272,241596,51043
2096921,2096921,436073,241291,51020
2096921,2096921,435944,241274,51075
2096921,2096921,435978,241220,51146
2096921,2096921,433901,240826,51075
2096921,2096921,433632,240690,51020
2096921,2096921,433583,240601,51059
2096921,2096921,433641,240641,51146
2096921,2096921,432065,240156,51059
2096921,2096921,431773,240048,51075
2096921,2096921,431664,239909,51020
2096921,2096921,431660,239729,51107
2096921,2096921,430382,239611,51059
2096921,2096921,430404,239534,51020
2096921,2096921,430358,239499,51706
2096921,2096921,430374,239554,51059
2096921,2096921,429355,239289,50972
2096921,2096921,429244,239203,51020
2096921,2096921,429265,239175,50972
2096921,2096921,429133,239019,51059
2096921,2096921,428638,239014,51020
2096921,2096921,428501,238983,50972
2096921,2096921,428440,238962,51020
2096921,2096921,428544,238921,51107
2096921,2096921,428101,238789,51020
2096921,2096921,427992,238740,51020
2096921,2096921,427856,238695,51020
2096921,2096921,427787,238553,51706
2096921,2096921,427646,238617,51020
2096921,2096921,427611,238687,51043
2096921,2096921,427667,238558,51020
2096921,2096921,427727,238651,51107
2096921,2096921,427480,238664,51059
2096921,2096921,427412,238572,51706
2096921,2096921,427320,238533,51020
2096921,2096921,427404,238350,51146
2096921,2096921,427392,238537,51059
2096921,2096921,427474,238489,51020
2096921,2096921,427334,238462,51059
2096921,2096921,427429,238514,51233
2096921,2096921,427502,238548,51706
2096921,2096921,427486,238555,51043
2096921,2096921,427480,238478,51706
2096921,2096921,427403,238317,51107
2096921,2096921,427574,238551,51059
2096921,2096921,427596,238534,51706
2096921,2096921,427555,238513,51020
2096921,2096921,427688,238552,51146
2096921,2096921,427669,238606,51059
2096921,2096921,427669,238496,51706
2096921,2096921,427603,238432,51201
2096921,2096921,427488,238376,51107
2096921,2096921,428009,238624,51020
2096921,2096921,427986,238622,51706
2096921,2096921,428106,238659,51020
2096921,2096921,428146,238694,51201
2096921,2096921,428349,238738,51020
2096921,2096921,428263,238677,51075
2096921,2096921,428120,238621,51706
2096921,2096921,428171,238591,51020
2096921,2096921,428697,238818,51706
2096921,2096921,428696,238800,51020
2096921,2096921,428751,238762,51020
2096921,2096921,428815,238897,51020
2096921,2096921,429074,238954,51020
2096921,2096921,429059,238900,51706
2096921,2096921,428931,238915,51075
2096921,2096921,428907,238786,51059
2096921,2096921,429455,239053,51020
2096921,2096921,429446,239062,51020
2096921,2096921,429397,238980,50972
2096921,2096921,429482,239041,51107
2096921,2096921,429874,239220,50972
2096921,2096921,429815,239166,50972
2096921,2096921,429795,239040,51706
2096921,2096921,429669,238999,51107
2096921,2096921,430175,239314,50972
2096921,2096921,430168,239220,50972
2096921,2096921,430165,239296,51706
2096921,2096921,430282,239205,51146
2096921,2096921,430547,239345,50972
2096921,2096921,430542,239380,51020
2096921,2096921,430523,239363,51201
2096921,2096921,430386,239245,51107
2096921,2096921,430859,239536,51020
2096921,2096921,430934,239457,51706
2096921,2096921,430949,239551,51020
2096921,2096921,430938,239526,51059
2096921,2096921,431405,239617,51020
2096921,2096921,431286,239583,50972
2096921,2096921,431258,239563,51706
2096921,2096921,431214,239466,51107
2096921,2096921,431703,239784,51706
2096921,2096921,431749,239839,51706
2096921,2096921,431747,239649,51075
2096921,2096921,431832,239760,51059
2096921,2096921,432135,239847,51706
2096921,2096921,432138,239838,50972
2096921,2096921,432023,239776,50972
2096921,2096921,431998,239709,51020
2096921,2096921,432427,239947,51706
2096921,2096921,432497,239992,51706
2096921,2096921,432414,239933,50972
2096921,2096921,432433,240003,50972
2096921,2096921,432612,239967,50972
2096921,2096921,432656,240016,51706
2096921,2096921,432660,239984,50972
2096921,2096921,432544,239872,51059
2096921,2096921,432878,240070,50972
2096921,2096921,432844,240151,51020
2096921,2096921,432838,240093,51706
2096921,2096921,432922,240148,51706
2096921,2096921,433032,240189,51201
2096921,2096921,432978,240080,51020
2096921,2096921,432805,240020,51020
2096921,2096921,432787,239932,51107
2096921,2096921,433054,240116,51075
2096921,2096921,433015,240118,50972
2096921,2096921,433104,240135,50972
2096921,2096921,433191,240188,51146
2096921,2096921,433086,240148,50972
2096921,2096921,433041,240115,51706
2096921,2096921,432898,240125,50933
2096921,2096921,432898,239920,51706
2096921,2096921,433090,240241,50972
2096921,2096921,433103,240096,51020
2096921,2096921,433086,240104,51706
2096921,2096921,433085,240174,51059
2096921,2096921,432932,240056,50972
2096921,2096921,432804,239961,51201
2096921,2096921,432827,239942,51706
2096921,2096921,432786,239818,51075
2096921,2096921,432877,240134,51706
2096921,2096921,432757,239999,50972
2096921,2096921,432720,240046,51020
2096921,2096921,432890,240077,51107
2096921,2096921,432604,239924,50972
2096921,2096921,432661,239963,51706
2096921,2096921,432468,239864,51020
2096921,2096921,432420,239792,50972
2096921,2096921,432452,239923,50972
2096921,2096921,432402,239963,51020
2096921,2096921,432461,239892,51706
2096921,2096921,432468,239864,51020
2096921,2096921,432368,239851,51075
2096921,2096921,432181,239777,50972
2096921,2096921,432194,239782,50972
2096921,2096921,432170,239688,51107
2096921,2096921,432287,239884,50972
2096921,2096921,432202,239884,51706
2096921,2096921,432338,239746,51020
2096921,2096921,432319,239807,51107
2096921,2096921,432309,239843,51706
2096921,2096921,432186,239777,51020
2096921,2096921,432090,239715,51020
2096921,2096921,432059,239581,51107
2096921,2096921,432232,239765,51706
2096921,2096921,432314,239821,51020
2096921,2096921,432276,239755,51020
2096921,2096921,432335,239896,51107
2096921,2096921,432376,239899,51075
2096921,2096921,432317,239917,51020
2096921,2096921,432298,239770,51075
2096921,2096921,432188,239578,51146
2096921,2096921,432473,239903,51201
2096921,2096921,432401,239830,51706
2096921,2096921,432455,239912,51706
2096921,2096921,432544,239908,51706
2096921,2096921,432776,240069,51020
2096921,2096921,432709,240018,51020
2096921,2096921,432638,239904,51020
2096921,2096921,432570,239832,51201
2096921,2096921,433066,240065,51706
2096921,2096921,433046,240156,51020
2096921,2096921,432998,240004,51020
2096921,2096921,433092,240083,51107
2096921,2096921,433291,240188,51020
2096921,2096921,433313,240154,51706
2096921,2096921,433220,240041,51043
2096921,2096921,433213,239891,51107
2096921,2096921,433514,240205,51020
2096921,2096921,433536,240168,51020
2096921,2096921,433528,240137,51020
2096921,2096921,433569,240228,51059
2096921,2096921,433907,240328,51020
2096921,2096921,433754,240267,51020
2096921,2096921,433768,240282,51020
2096921,2096921,433722,240073,51020
2096921,2096921,434080,240393,51059
2096921,2096921,434053,240405,51059
2096921,2096921,433974,240311,51059
2096921,2096921,434136,240407,51059
2096921,2096921,434204,240464,51706
2096921,2096921,434228,240427,51107
2096921,2096921,434126,240326,51059
2096921,2096921,434024,240208,51146
2096921,2096921,434455,240518,51059
2096921,2096921,434416,240444,51075
2096921,2096921,434398,240405,51706
2096921,2096921,434391,240396,51706
2096921,2096921,434620,240613,51059
2096921,2096921,434680,240561,51059
2096921,2096921,434647,240482,51059
2096921,2096921,434568,240379,51233
2096921,2096921,435026,240586,51075
2096921,2096921,435022,240739,51107
2096921,2096921,435016,240661,51706
2096921,2096921,434981,240742,51193
2096921,2096921,435221,240671,51059
2096921,2096921,435133,240628,51059
2096921,2096921,435072,240639,51059
2096921,2096921,435061,240475,51146
2096921,2096921,435411,240846,51020
2096921,2096921,435511,240752,51706
2096921,2096921,435400,240728,51075
2096921,2096921,435332,240780,51201
2096921,2096921,435575,240864,51059
2096921,2096921,435523,240895,51020
2096921,2096921,435575,240824,51020
2096921,2096921,435443,240653,51201
2096921,2096921,435788,240928,51706
2096921,2096921,435801,240968,51075
2096921,2096921,435808,240889,51706
2096921,2096921,435871,240917,51059
2096921,2096921,436027,241063,51107
2096921,2096921,436028,240947,51706
2096921,2096921,435974,240929,51075
2096921,2096921,435902,240776,51146
2096921,2096921,436294,241158,51075
2096921,2096921,436232,241185,51059
2096921,2096921,436203,241033,51059
2096921,2096921,436366,241099,51107
2096921,2096921,436445,241146,51020
2096921,2096921,436469,241022,51059
2096921,2096921,436336,241078,51020
2096921,2096921,436255,240899,51107
2096921,2096921,436586,241117,51020
2096921,2096921,436588,241182,51020
2096921,2096921,436668,241162,51020
2096921,2096921,436691,241172,51201
2096921,2096921,436911,241327,51020
2096921,2096921,436806,241219,51075
2096921,2096921,436722,241303,51020
2096921,2096921,436629,241070,51146
2096921,2096921,436948,241283,51706
2096921,2096921,436997,241229,51020
2096921,2096921,436968,241175,51075
2096921,2096921,436961,241329,51146
2096921,2096921,437099,241336,51020
2096921,2096921,437079,241385,51059
2096921,2096921,436955,241181,51059
2096921,2096921,436940,241146,51193
2096921,2096921,437232,241347,51020
2096921,2096921,437273,241368,51201
2096921,2096921,437231,241411,51020
2096921,2096921,437346,241445,51107
2096921,2096921,437366,241478,51075
2096921,2096921,437501,241379,51020
2096921,2096921,437346,241390,51043
2096921,2096921,437260,241233,51146
2096921,2096921,437641,241401,51020
2096921,2096921,437562,241510,51059
2096921,2096921,437633,241478,51020
2096921,2096921,437606,241542,51059
2096921,2096921,437696,241499,50972
2096921,2096921,437586,241397,50972
2096921,2096921,437603,241452,51020
2096921,2096921,437571,241335,51059
2096921,2096921,437785,241575,51706
2096921,2096921,437824,241609,51020
2096921,2096921,437815,241472,51020
2096921,2096921,437820,241591,51020
2096921,2096921,437996,241625,51020
2096921,2096921,437900,241577,51020
2096921,2096921,437789,241555,51043
2096921,2096921,437808,241369,51107
2096921,2096921,438042,241597,51706
2096921,2096921,438064,241645,51020
2096921,2096921,437955,241587,51075
2096921,2096921,438115,241690,51107
2096921,2096921,438079,241683,51706
2096921,2096921,438120,241596,51020
2096921,2096921,438153,241541,51020
2096921,2096921,437997,241388,51146
2096921,2096921,438233,241690,51020
2096921,2096921,438260,241699,51020
2096921,2096921,438260,241709,51059
2096921,2096921,438396,241720,51075
2096921,2096921,438258,241759,51020
2096921,2096921,438238,241679,51706
2096921,2096921,438240,241630,50972
2096921,2096921,438159,241580,51146
2096921,2096921,438422,241684,50972
2096921,2096921,438523,241789,51020
2096921,2096921,438404,241703,51075
2096921,2096921,438484,241736,51107
2096921,2096921,438510,241781,50972
2096921,2096921,438464,241717,51706
2096921,2096921,438427,241789,51020
2096921,2096921,438415,241597,51107
2096921,2096921,438581,241787,51020
2096921,2096921,438533,241797,51075
2096921,2096921,438520,241699,51706
2096921,2096921,438584,241849,51107
2096921,2096921,438644,241789,51020
2096921,2096921,438478,241790,50972
2096921,2096921,438587,241637,51043
2096921,2096921,438446,241564,51706
2096921,2096921,438716,241910,50972
2096921,2096921,438699,241858,51020
2096921,2096921,438728,241833,50972
2096921,2096921,438698,241858,51020
2096921,2096921,438759,241866,50972
2096921,2096921,438757,241895,51706
2096921,2096921,438693,241745,50972
2096921,2096921,438614,241613,50972
2096921,2096921,438925,241855,50972
2096921,2096921,438823,241810,51075
2096921,2096921,438887,241873,50972
2096921,2096921,438875,241818,51059
2096921,2096921,438935,241925,50972
2096921,2096921,438896,241857,51020
2096921,2096921,438798,241858,51020
2096921,2096921,438707,241744,51107
2096921,2096921,438961,241929,50972
2096921,2096921,438946,241878,50972
2096921,2096921,438952,241840,50972
2096921,2096921,438921,241923,51146
2096921,2096921,439078,241992,51075
2096921,2096921,438964,241897,50972
2096921,2096921,438911,241832,50972
2096921,2096921,438910,241765,51146
2096921,2096921,438998,241940,50972
2096921,2096921,439096,241900,50972
2096921,2096921,439048,241873,51706
2096921,2096921,439094,242021,51146
2096921,2096921,439183,242003,50972
2096921,2096921,439131,241986,51020
2096921,2096921,439182,241903,51020
2096921,2096921,439045,241796,51107
2096921,2096921,439276,241969,51201
2096921,2096921,439235,241965,51020
2096921,2096921,439155,241969,50972
2096921,2096921,439284,242054,51107
2096921,2096921,439156,241990,51075
2096921,2096921,439188,242007,50972
2096921,2096921,439043,241860,50972
2096921,2096921,439058,241921,51043
2096921,2096921,439207,241970,50972
2096921,2096921,439210,242018,51706
2096921,2096921,439189,241965,51706
2096921,2096921,439242,241959,50933
2096921,2096921,439215,242073,50933
2096921,2096921,439078,242011,50972
2096921,2096921,439090,241855,50972
2096921,2096921,439059,241720,51059
2096921,2096921,439169,242002,50972
2096921,2096921,439137,241931,50972
2096921,2096921,439106,241927,50972
2096921,2096921,439192,241961,51059
2096921,2096921,439117,242028,50933
2096921,2096921,439114,242000,51706
2096921,2096921,439035,241878,50972
2096921,2096921,439065,241753,51059
2096921,2096921,439146,241951,50972
2096921,2096921,439185,241915,51201
2096921,2096921,439160,241926,50972
2096921,2096921,439203,242057,51059
2096921,2096921,439172,242075,50933
2096921,2096921,439145,242018,50972
2096921,2096921,439149,241878,51075
2096921,2096921,439047,241743,51146
2096921,2096921,439224,241997,50972
2096921,2096921,439132,241965,50972
2096921,2096921,439120,242058,50972
2096921,2096921,439311,242044,51107
2096921,2096921,439261,242062,50933
2096921,2096921,439246,242020,51020
2096921,2096921,439097,241973,50972
2096921,2096921,439024,241895,51059
2096921,2096921,438855,241956,50972
2096921,2096921,438773,241884,51043
2096921,2096921,438725,241913,51706
2096921,2096921,438731,241824,51059
2096921,2096921,438391,241753,50933
2096921,2096921,438359,241735,50972
2096921,2096921,438389,241720,51059
2096921,2096921,438326,241630,51146
2096921,2096921,437830,241617,51059
2096921,2096921,437824,241619,51706
2096921,2096921,437751,241517,51059
2096921,2096921,437820,241626,51107
2096921,2096921,437175,241463,51059
2096921,2096921,436976,241335,51059
2096921,2096921,436927,241255,51059
2096921,2096921,436960,241136,51059
2096921,2096921,436294,241069,51059
2096921,2096921,436231,241074,51075
2096921,2096921,436114,240924,51706
2096921,2096921,436166,241080,51146
2096921,2096921,434381,240515,51059
2096921,2096921,434227,240444,51706
2096921,2096921,434121,240325,51075
2096921,2096921,434055,240227,51146
2096921,2096921,432183,239849,51107
2096921,2096921,432050,239685,51059
2096921,2096921,431929,239725,51706
2096921,2096921,431946,239704,51193
2096921,2096921,430306,239264,51706
2096921,2096921,430131,239093,51706
2096921,2096921,430021,238964,51059
2096921,2096921,429898,238911,51193
2096921,2096921,428914,238742,51059
2096921,2096921,428800,238650,51059
2096921,2096921,428767,238623,51059
2096921,2096921,428722,238653,51193
2096921,2096921,427898,238397,51059
2096921,2096921,427710,238247,51059
2096921,2096921,427668,238280,51059
2096921,2096921,427703,238092,51146
2096921,2096921,427196,238218,51706
2096921,2096921,427062,238098,51059
2096921,2096921,427010,238029,51107
2096921,2096921,427050,238094,51146
2096921,2096921,426609,237976,51059
2096921,2096921,426535,237990,51075
2096921,2096921,426511,237879,50972
2096921,2096921,426471,237755,51059
2096921,2096921,426330,237878,50933
2096921,2096921,426227,237875,51706
2096921,2096921,426236,237819,50972
2096921,2096921,426304,237826,51201
2096921,2096921,426108,237874,50933
2096921,2096921,426044,237775,51706
2096921,2096921,425987,237727,50933
2096921,2096921,425888,237655,50972
2096921,2096921,426156,237749,50972
2096921,2096921,426071,237825,51706
2096921,2096921,426133,237787,50972
2096921,2096921,426196,237861,50972
2096921,2096921,426450,237921,50972
2096921,2096921,426301,237846,50972
2096921,2096921,426210,237738,51706
2096921,2096921,426173,237651,51059
2096921,2096921,426397,237893,50972
2096921,2096921,426445,237908,50972
2096921,2096921,426422,237874,50972
2096921,2096921,426419,237939,51107
2096921,2096921,426626,237951,51706
2096921,2096921,426525,237910,50972
2096921,2096921,426394,237897,51706
2096921,2096921,426385,237703,51059
2096921,2096921,426930,238141,50972
2096921,2096921,426963,238013,51706
2096921,2096921,426909,238046,50972
2096921,2096921,426932,238036,51193
2096921,2096921,427233,238163,51706
2096921,2096921,427215,238129,50972
2096921,2096921,427203,238079,50933
2096921,2096921,427136,237993,51059
2096921,2096921,427765,238284,50933
2096921,2096921,427739,238282,50933
2096921,2096921,427751,238240,50972
2096921,2096921,427845,238294,51201
2096921,2096921,428113,238473,50972
2096921,2096921,428189,238384,51020
2096921,2096921,428067,238285,51075
2096921,2096921,427952,238213,51201
2096921,2096921,428490,238518,51706
2096921,2096921,428554,238552,51020
2096921,2096921,428576,238542,51059
2096921,2096921,428581,238563,51706
2096921,2096921,428994,238741,51020
2096921,2096921,428877,238676,51020
2096921,2096921,428757,238662,51706
2096921,2096921,428773,238487,50972
2096921,2096921,429299,238832,51706
2096921,2096921,429334,238837,51020
2096921,2096921,429318,238817,51020
2096921,2096921,429305,238829,51020
2096921,2096921,429719,238919,51020
2096921,2096921,429650,238949,50972
2096921,2096921,429708,238877,51706
2096921,2096921,429567,238766,51107
2096921,2096921,430174,238981,51020
2096921,2096921,430201,239040,51043
2096921,2096921,430140,239057,51020
2096921,2096921,430266,239135,51107
2096921,2096921,430523,239251,51020
2096921,2096921,430598,239226,51020
