
2096921,2096921, 149478, 704825
2096921,2096921, 149689, 705234
2096921,2096921, 149847, 705271
2096921,2096921, 149581, 705281
2096921,2096921, 149707, 705040
2096921,2096921, 149310, 705008
2096921,2096921, 149477, 705361
2096921,2096921, 149514, 705026
2096921,2096921, 149723, 705557
2096921,2096921, 149712, 705557
2096921,2096921, 149358, 705453
2096921,2096921, 149701, 705907
2096921,2096921, 149658, 705768
2096921,2096921, 149680, 705555
2096921,2096921, 149664, 705466
2096921,2096921, 149726, 705645
2096921,2096921, 149891, 705676
2096921,2096921, 149766, 705569
2096921,2096921, 149669, 705742
2096921,2096921, 149780, 706042
2096921,2096921, 149616, 705987
2096921,2096921, 149871, 706251
2096921,2096921, 149766, 706053
2096921,2096921, 149900, 706227
2096921,2096921, 149823, 706101
2096921,2096921, 149698, 706044
2096921,2096921, 149800, 706131
2096921,2096921, 149751, 706361
2096921,2096921, 149873, 706355
2096921,2096921, 149777, 706156
2096921,2096921, 149696, 706460
2096921,2096921, 150115, 706354
2096921,2096921, 149907, 706231
2096921,2096921, 149883, 706377
2096921,2096921, 150197, 706233
2096921,2096921, 149947, 706433
2096921,2096921, 149711, 706482
2096921,2096921, 149932, 706419
2096921,2096921, 149872, 706149
2096921,2096921, 150214, 706388
2096921,2096921, 150212, 706433
2096921,2096921, 149952, 706682
2096921,2096921, 150159, 706743
2096921,2096921, 150190, 706594
2096921,2096921, 149911, 706674
2096921,2096921, 149878, 706924
2096921,2096921, 149945, 706681
2096921,2096921, 149758, 707161
2096921,2096921, 150028, 707111
2096921,2096921, 149926, 706858
2096921,2096921, 149957, 706808
2096921,2096921, 150082, 707046
2096921,2096921, 150385, 707115
2096921,2096921, 150230, 707265
2096921,2096921, 150119, 707588
2096921,2096921, 150463, 707299
2096921,2096921, 150322, 707409
2096921,2096921, 150356, 707502
2096921,2096921, 150196, 707554
2096921,2096921, 150297, 707502
2096921,2096921, 150394, 707556
2096921,2096921, 149987, 707487
2096921,2096921, 149958, 707366
2096921,2096921, 150140, 707330
2096921,2096921, 150205, 707688
2096921,2096921, 149974, 707430
2096921,2096921, 150219, 707488
2096921,2096921, 150475, 707329
2096921,2096921, 150180, 707737
2096921,2096921, 150534, 707762
2096921,2096921, 150547, 707923
2096921,2096921, 150267, 707611
2096921,2096921, 150342, 707479
2096921,2096921, 150455, 707574
2096921,2096921, 150570, 707470
2096921,2096921, 150460, 707585
2096921,2096921, 150288, 707810
2096921,2096921, 150195, 707793
2096921,2096921, 150122, 707626
2096921,2096921, 150226, 707401
2096921,2096921, 150119, 707892
2096921,2096921, 150083, 707593
2096921,2096921, 150325, 707843
2096921,2096921, 150400, 707957
2096921,2096921, 150610, 707623
2096921,2096921, 150598, 707501
2096921,2096921, 150491, 707972
2096921,2096921, 150525, 707989
2096921,2096921, 150045, 708001
2096921,2096921, 150230, 707831
2096921,2096921, 150293, 708089
2096921,2096921, 150559, 708374
2096921,2096921, 150636, 708101
2096921,2096921, 150470, 708129
2096921,2096921, 150504, 708203
2096921,2096921, 150436, 708253
2096921,2096921, 150591, 708260
2096921,2096921, 150262, 708113
2096921,2096921, 150388, 708175
2096921,2096921, 150458, 707940
2096921,2096921, 150615, 708185
2096921,2096921, 150315, 708025
2096921,2096921, 150600, 708372
2096921,2096921, 150539, 708144
2096921,2096921, 150724, 708210
2096921,2096921, 150425, 708120
2096921,2096921, 150392, 708372
2096921,2096921, 150389, 708580
2096921,2096921, 150472, 708527
2096921,2096921, 150681, 708147
2096921,2096921, 150516, 708610
2096921,2096921, 150658, 708464
2096921,2096921, 150454, 708559
2096921,2096921, 150701, 708352
2096921,2096921, 150697, 708316
2096921,2096921, 150469, 708330
2096921,2096921, 150525, 708482
2096921,2096921, 150564, 708500
2096921,2096921, 150401, 708251
2096921,2096921, 150533, 708462
2096921,2096921, 150559, 708517
2096921,2096921, 150344, 708650
2096921,2096921, 150589, 708543
2096921,2096921, 150470, 708781
2096921,2096921, 150339, 708479
2096921,2096921, 150693, 708774
2096921,2096921, 150599, 708654
2096921,2096921, 150562, 708892
2096921,2096921, 150861, 708754
2096921,2096921, 150547, 708747
2096921,2096921, 150472, 708842
2096921,2096921, 150542, 708865
2096921,2096921, 150678, 708998
2096921,2096921, 150488, 709104
2096921,2096921, 150516, 708767
2096921,2096921, 150714, 708611
2096921,2096921, 150462, 708611
2096921,2096921, 150631, 708588
2096921,2096921, 150671, 708664
2096921,2096921, 150368, 708887
2096921,2096921, 150616, 708696
2096921,2096921, 150635, 708681
2096921,2096921, 150582, 708795
2096921,2096921, 150788, 708103
2096921,2096921, 150601, 708806
2096921,2096921, 150469, 709062
2096921,2096921, 150468, 709006
2096921,2096921, 150582, 708815
2096921,2096921, 150464, 708922
2096921,2096921, 150984, 709003
2096921,2096921, 150714, 708971
2096921,2096921, 150724, 708955
2096921,2096921, 150892, 708959
2096921,2096921, 150655, 709024
2096921,2096921, 150377, 709085
2096921,2096921, 150579, 708678
2096921,2096921, 150681, 708879
2096921,2096921, 150636, 708970
2096921,2096921, 150715, 708850
2096921,2096921, 150527, 709141
2096921,2096921, 150630, 708874
2096921,2096921, 150659, 708976
2096921,2096921, 150502, 708992
2096921,2096921, 150607, 708828
2096921,2096921, 150631, 708752
2096921,2096921, 150522, 709012
2096921,2096921, 150474, 708690
2096921,2096921, 150513, 708804
2096921,2096921, 150602, 709016
2096921,2096921, 150924, 708759
2096921,2096921, 150910, 708952
2096921,2096921, 150790, 708719
2096921,2096921, 150593, 708533
2096921,2096921, 150650, 708812
2096921,2096921, 150426, 708993
2096921,2096921, 150438, 708716
2096921,2096921, 150472, 708902
2096921,2096921, 150423, 708848
2096921,2096921, 150532, 708819
2096921,2096921, 150860, 708987
2096921,2096921, 150619, 708859
2096921,2096921, 150596, 708814
2096921,2096921, 150446, 708890
2096921,2096921, 150724, 708875
2096921,2096921, 150883, 708807
2096921,2096921, 150689, 708831
2096921,2096921, 150510, 708949
2096921,2096921, 150622, 709088
2096921,2096921, 150758, 708684
2096921,2096921, 150904, 708786
2096921,2096921, 150720, 708767
2096921,2096921, 150618, 708978
2096921,2096921, 150790, 708601
2096921,2096921, 150687, 709100
2096921,2096921, 150761, 709166
2096921,2096921, 150585, 708785
2096921,2096921, 150384, 708830
2096921,2096921, 150290, 708613
2096921,2096921, 150380, 708186
2096921,2096921, 150334, 708575
2096921,2096921, 150673, 708181
2096921,2096921, 150374, 707976
2096921,2096921, 150716, 707913
2096921,2096921, 150570, 707852
2096921,2096921, 150502, 707959
2096921,2096921, 150352, 707879
2096921,2096921, 150232, 708054
2096921,2096921, 150018, 707590
2096921,2096921, 150194, 707329
2096921,2096921, 150143, 707274
2096921,2096921, 150425, 707329
2096921,2096921, 149987, 706415
2096921,2096921, 149897, 706427
2096921,2096921, 149795, 706622
2096921,2096921, 150018, 706419
2096921,2096921, 149967, 706502
2096921,2096921, 149768, 705818
2096921,2096921, 149781, 705541
2096921,2096921, 149592, 705523
2096921,2096921, 149644, 705655
2096921,2096921, 149776, 705400
2096921,2096921, 148877, 703927
2096921,2096921, 148906, 703162
2096921,2096921, 148927, 702679
2096921,2096921, 148941, 703033
2096921,2096921, 148885, 702879
2096921,2096921, 148258, 700792
2096921,2096921, 148184, 700767
2096921,2096921, 148175, 700337
2096921,2096921, 148070, 700413
2096921,2096921, 148268, 700299
2096921,2096921, 147824, 699030
2096921,2096921, 147614, 698752
2096921,2096921, 147742, 698411
2096921,2096921, 147686, 698067
2096921,2096921, 147648, 698114
2096921,2096921, 147044, 696969
2096921,2096921, 146805, 696471
2096921,2096921, 146819, 696640
2096921,2096921, 146768, 696493
2096921,2096921, 146943, 696688
2096921,2096921, 146381, 695886
2096921,2096921, 146777, 695906
2096921,2096921, 146229, 695388
2096921,2096921, 146321, 695211
2096921,2096921, 146641, 695120
2096921,2096921, 146092, 694730
2096921,2096921, 146230, 694612
2096921,2096921, 146470, 694600
2096921,2096921, 146259, 694706
2096921,2096921, 146402, 694868
2096921,2096921, 146106, 694223
2096921,2096921, 146085, 694126
2096921,2096921, 146322, 693979
2096921,2096921, 145940, 694130
2096921,2096921, 146009, 694053
2096921,2096921, 145741, 693644
2096921,2096921, 145779, 693474
2096921,2096921, 145665, 693848
2096921,2096921, 145637, 693802
2096921,2096921, 145782, 694009
2096921,2096921, 145796, 693466
2096921,2096921, 145872, 693597
2096921,2096921, 145912, 693635
2096921,2096921, 145873, 693508
2096921,2096921, 145623, 693654
2096921,2096921, 145677, 693444
2096921,2096921, 145662, 693571
2096921,2096921, 145876, 693667
2096921,2096921, 145839, 693365
2096921,2096921, 145750, 693669
2096921,2096921, 145837, 693978
2096921,2096921, 146179, 693837
2096921,2096921, 145979, 693953
2096921,2096921, 145784, 693992
2096921,2096921, 145739, 694078
2096921,2096921, 145825, 694273
2096921,2096921, 145740, 693571
2096921,2096921, 145890, 694106
2096921,2096921, 145674, 693957
2096921,2096921, 145961, 693951
2096921,2096921, 146065, 693955
2096921,2096921, 145879, 694122
2096921,2096921, 145927, 694209
2096921,2096921, 145754, 693950
2096921,2096921, 145767, 694251
2096921,2096921, 145687, 694537
2096921,2096921, 145996, 694327
2096921,2096921, 146130, 694332
2096921,2096921, 146430, 694415
2096921,2096921, 146026, 694955
2096921,2096921, 146475, 695041
2096921,2096921, 146358, 694833
2096921,2096921, 146325, 695230
2096921,2096921, 146120, 695173
2096921,2096921, 145980, 694896
2096921,2096921, 146511, 695345
2096921,2096921, 146734, 695379
2096921,2096921, 146381, 695420
2096921,2096921, 146405, 695678
2096921,2096921, 146270, 695407
2096921,2096921, 146457, 695803
2096921,2096921, 146489, 696088
2096921,2096921, 146597, 696007
2096921,2096921, 146573, 696018
2096921,2096921, 146346, 695954
2096921,2096921, 146679, 696329
2096921,2096921, 146825, 696356
2096921,2096921, 146784, 696574
2096921,2096921, 146934, 696168
2096921,2096921, 146489, 696597
2096921,2096921, 146993, 696795
2096921,2096921, 147082, 696798
2096921,2096921, 146848, 696625
2096921,2096921, 146661, 696676
2096921,2096921, 146633, 696876
2096921,2096921, 147149, 697327
2096921,2096921, 147191, 697254
2096921,2096921, 147086, 697089
2096921,2096921, 146969, 697093
2096921,2096921, 147114, 697026
2096921,2096921, 146880, 697826
2096921,2096921, 147117, 698021
2096921,2096921, 147399, 697544
2096921,2096921, 147103, 697700
2096921,2096921, 147421, 697910
2096921,2096921, 147343, 698166
2096921,2096921, 147277, 698231
2096921,2096921, 147426, 698499
2096921,2096921, 147472, 698624
2096921,2096921, 147428, 698631
2096921,2096921, 147378, 698904
2096921,2096921, 147272, 698710
2096921,2096921, 147503, 699125
2096921,2096921, 147508, 699126
2096921,2096921, 147740, 699035
2096921,2096921, 147736, 699263
2096921,2096921, 147903, 699367
2096921,2096921, 147833, 699465
2096921,2096921, 147618, 699451
2096921,2096921, 147393, 699403
2096921,2096921, 148007, 699775
2096921,2096921, 148213, 699638
2096921,2096921, 147976, 699819
2096921,2096921, 147779, 700025
2096921,2096921, 147851, 699794
2096921,2096921, 147499, 699931
2096921,2096921, 148094, 700310
2096921,2096921, 147868, 700117
2096921,2096921, 148046, 700331
2096921,2096921, 148102, 700369
2096921,2096921, 148142, 700594
2096921,2096921, 148114, 700459
2096921,2096921, 148167, 700681
2096921,2096921, 148137, 700334
2096921,2096921, 147959, 700489
2096921,2096921, 148150, 700689
2096921,2096921, 148260, 700811
2096921,2096921, 148225, 700769
2096921,2096921, 148044, 701143
2096921,2096921, 148386, 700809
2096921,2096921, 148337, 701137
2096921,2096921, 148489, 701005
2096921,2096921, 148691, 700727
2096921,2096921, 148441, 700901
2096921,2096921, 148361, 700860
2096921,2096921, 148231, 701040
2096921,2096921, 148313, 701292
2096921,2096921, 148180, 701034
2096921,2096921, 148361, 701389
2096921,2096921, 148502, 701098
2096921,2096921, 148145, 701397
2096921,2096921, 148335, 701363
2096921,2096921, 148247, 701041
2096921,2096921, 147919, 700834
2096921,2096921, 148175, 701057
2096921,2096921, 148212, 701188
2096921,2096921, 148123, 701352
2096921,2096921, 148160, 701386
2096921,2096921, 148283, 701053
2096921,2096921, 148212, 700866
2096921,2096921, 148262, 701022
2096921,2096921, 148214, 701066
2096921,2096921, 147837, 701123
2096921,2096921, 148346, 700973
2096921,2096921, 147750, 700798
2096921,2096921, 148215, 701227
2096921,2096921, 148141, 701038
2096921,2096921, 148504, 700885
2096921,2096921, 148343, 701088
2096921,2096921, 148263, 700883
2096921,2096921, 147858, 700525
2096921,2096921, 148241, 700765
2096921,2096921, 148080, 700805
2096921,2096921, 148275, 700864
2096921,2096921, 147995, 700843
2096921,2096921, 148301, 700560
2096921,2096921, 148264, 700533
2096921,2096921, 148167, 700496
2096921,2096921, 148098, 700647
2096921,2096921, 148086, 700722
2096921,2096921, 148239, 700657
2096921,2096921, 148119, 700348
2096921,2096921, 148021, 700638
2096921,2096921, 148096, 700496
2096921,2096921, 147921, 700593
2096921,2096921, 147881, 700614
2096921,2096921, 148168, 700353
2096921,2096921, 147741, 700337
2096921,2096921, 147974, 700167
2096921,2096921, 148196, 700560
2096921,2096921, 147713, 700473
2096921,2096921, 147975, 700393
2096921,2096921, 148162, 700172
2096921,2096921, 148160, 700301
2096921,2096921, 147727, 700275
2096921,2096921, 148002, 700288
2096921,2096921, 147900, 700514
2096921,2096921, 148066, 700434
2096921,2096921, 147995, 700217
2096921,2096921, 147812, 700488
2096921,2096921, 148009, 700828
2096921,2096921, 147881, 700731
2096921,2096921, 148092, 700595
2096921,2096921, 148032, 700467
2096921,2096921, 148240, 700675
2096921,2096921, 147970, 700864
2096921,2096921, 148137, 700661
2096921,2096921, 148025, 700830
2096921,2096921, 148117, 700629
2096921,2096921, 148161, 700564
2096921,2096921, 147968, 701084
2096921,2096921, 148201, 701307
2096921,2096921, 148224, 700944
2096921,2096921, 148317, 700925
2096921,2096921, 148354, 700796
2096921,2096921, 148420, 701226
2096921,2096921, 148189, 701524
2096921,2096921, 148274, 701702
2096921,2096921, 148472, 701495
2096921,2096921, 148446, 701555
2096921,2096921, 148200, 701550
2096921,2096921, 148335, 701698
2096921,2096921, 148359, 701833
2096921,2096921, 148462, 702061
2096921,2096921, 148200, 701956
2096921,2096921, 148478, 702095
2096921,2096921, 148560, 702048
2096921,2096921, 148588, 702169
2096921,2096921, 148421, 702068
2096921,2096921, 148430, 702204
2096921,2096921, 148387, 702320
2096921,2096921, 148359, 702318
2096921,2096921, 148499, 702356
2096921,2096921, 148718, 702591
2096921,2096921, 148873, 702301
2096921,2096921, 148586, 702604
2096921,2096921, 148839, 702829
2096921,2096921, 148564, 702628
2096921,2096921, 148808, 702868
2096921,2096921, 148641, 703057
2096921,2096921, 148541, 703117
2096921,2096921, 148487, 702986
2096921,2096921, 148943, 703024
2096921,2096921, 148981, 702866
2096921,2096921, 148832, 703024
2096921,2096921, 148968, 703486
2096921,2096921, 149111, 703073
2096921,2096921, 148962, 703261
2096921,2096921, 148947, 703318
2096921,2096921, 148871, 703335
2096921,2096921, 148717, 703837
2096921,2096921, 148966, 703494
2096921,2096921, 149164, 703640
2096921,2096921, 148754, 703510
2096921,2096921, 149024, 703376
2096921,2096921, 149041, 703835
2096921,2096921, 149188, 703797
2096921,2096921, 149008, 704025
2096921,2096921, 149229, 703851
2096921,2096921, 149003, 703936
2096921,2096921, 149078, 703796
2096921,2096921, 149274, 703996
2096921,2096921, 149035, 703931
2096921,2096921, 149162, 704225
2096921,2096921, 149367, 704138
2096921,2096921, 149266, 704272
2096921,2096921, 149382, 704379
2096921,2096921, 149149, 704517
2096921,2096921, 149590, 704495
2096921,2096921, 149202, 704618
2096921,2096921, 149388, 704870
2096921,2096921, 149461, 704684
2096921,2096921, 149438, 704512
2096921,2096921, 149234, 704780
2096921,2096921, 149450, 704418
2096921,2096921, 149383, 704913
2096921,2096921, 149365, 704813
2096921,2096921, 149550, 704619
2096921,2096921, 149485, 704879
2096921,2096921, 149515, 704978
2096921,2096921, 149521, 704916
2096921,2096921, 149501, 704988
2096921,2096921, 149512, 705319
2096921,2096921, 149657, 705000
2096921,2096921, 149723, 705045
2096921,2096921, 149877, 705553
2096921,2096921, 149808, 705481
2096921,2096921, 149360, 705344
2096921,2096921, 149531, 705558
2096921,2096921, 149336, 705296
2096921,2096921, 149308, 705520
2096921,2096921, 149645, 705585
2096921,2096921, 149666, 705546
2096921,2096921, 149782, 705502
2096921,2096921, 149336, 705884
2096921,2096921, 150121, 706107
2096921,2096921, 150177, 706024
2096921,2096921, 149908, 705605
2096921,2096921, 149786, 705819
2096921,2096921, 149766, 705507
2096921,2096921, 149888, 705739
2096921,2096921, 149658, 705893
2096921,2096921, 149737, 705915
2096921,2096921, 149668, 705841
2096921,2096921, 149624, 706072
2096921,2096921, 149737, 705850
2096921,2096921, 149818, 706161
2096921,2096921, 149817, 705899
2096921,2096921, 149934, 706371
2096921,2096921, 150039, 706259
2096921,2096921, 150031, 706708
2096921,2096921, 149721, 706413
2096921,2096921, 149800, 706430
2096921,2096921, 149678, 706157
2096921,2096921, 149947, 706259
2096921,2096921, 149967, 706641
2096921,2096921, 150076, 706323
2096921,2096921, 150006, 706738
2096921,2096921, 150000, 706623
2096921,2096921, 150164, 706342
2096921,2096921, 149953, 706865
2096921,2096921, 149896, 706818
2096921,2096921, 149983, 706699
2096921,2096921, 150025, 706965
2096921,2096921, 149857, 706712
2096921,2096921, 150017, 706620
2096921,2096921, 149750, 706817
2096921,2096921, 150031, 706675
2096921,2096921, 150033, 707066
2096921,2096921, 150037, 707072
2096921,2096921, 150123, 706948
2096921,2096921, 150208, 706968
2096921,2096921, 150378, 707011
2096921,2096921, 150155, 707040
2096921,2096921, 149816, 707031
2096921,2096921, 150238, 707237
2096921,2096921, 149934, 707251
2096921,2096921, 150051, 707237
2096921,2096921, 150294, 707165
2096921,2096921, 150277, 707174
2096921,2096921, 150116, 707511
2096921,2096921, 150152, 707291
2096921,2096921, 149934, 707388
2096921,2096921, 150414, 707332
2096921,2096921, 150482, 707475
2096921,2096921, 149969, 707227
2096921,2096921, 150175, 707250
2096921,2096921, 150306, 707280
2096921,2096921, 149999, 707299
2096921,2096921, 150301, 707465
2096921,2096921, 150125, 707755
2096921,2096921, 150078, 707694
2096921,2096921, 150211, 707424
2096921,2096921, 150443, 707513
2096921,2096921, 150536, 707296
2096921,2096921, 150539, 707524
2096921,2096921, 150429, 707596
2096921,2096921, 150492, 707876
2096921,2096921, 150294, 707619
2096921,2096921, 150425, 707421
2096921,2096921, 150126, 707466
2096921,2096921, 150364, 707881
2096921,2096921, 150391, 707630
2096921,2096921, 150489, 707664
2096921,2096921, 150189, 707587
2096921,2096921, 150332, 707647
2096921,2096921, 150227, 707846
2096921,2096921, 150482, 707682
2096921,2096921, 150658, 707816
2096921,2096921, 150211, 707940
2096921,2096921, 150168, 707881
2096921,2096921, 150175, 708023
2096921,2096921, 149949, 708068
2096921,2096921, 150256, 707942
2096921,2096921, 150641, 708240
2096921,2096921, 150533, 708105
2096921,2096921, 150479, 708106
2096921,2096921, 150576, 708274
2096921,2096921, 150242, 707974
2096921,2096921, 150529, 708022
2096921,2096921, 150386, 708210
2096921,2096921, 150572, 708193
2096921,2096921, 150705, 708235
2096921,2096921, 150225, 708046
2096921,2096921, 150224, 708093
2096921,2096921, 150337, 708129
2096921,2096921, 150188, 708131
2096921,2096921, 150567, 708187
2096921,2096921, 150398, 708100
2096921,2096921, 150494, 708301
2096921,2096921, 150445, 708190
2096921,2096921, 150410, 708181
2096921,2096921, 150414, 708396
2096921,2096921, 150374, 708630
2096921,2096921, 150348, 708490
2096921,2096921, 150706, 708208
2096921,2096921, 150616, 708395
2096921,2096921, 150484, 708505
2096921,2096921, 150561, 708478
2096921,2096921, 150641, 708666
2096921,2096921, 150497, 708613
2096921,2096921, 150665, 708732
2096921,2096921, 150526, 708631
2096921,2096921, 150479, 708455
2096921,2096921, 150640, 708833
2096921,2096921, 150489, 708588
2096921,2096921, 150675, 708816
2096921,2096921, 150429, 708260
2096921,2096921, 150607, 708584
2096921,2096921, 150820, 708572
2096921,2096921, 150389, 708444
2096921,2096921, 150451, 708761
2096921,2096921, 150836, 708589
2096921,2096921, 150601, 708522
2096921,2096921, 150396, 708713
2096921,2096921, 150641, 708607
2096921,2096921, 150762, 708849
2096921,2096921, 150653, 708670
2096921,2096921, 150834, 708783
2096921,2096921, 150593, 708838
2096921,2096921, 150714, 708851
2096921,2096921, 150685, 708614
2096921,2096921, 150767, 708779
2096921,2096921, 150653, 708766
2096921,2096921, 151017, 708732
2096921,2096921, 151033, 708602
2096921,2096921, 150652, 708850
2096921,2096921, 150907, 708828
2096921,2096921, 150858, 708747
2096921,2096921, 150941, 708965
2096921,2096921, 150732, 708665
2096921,2096921, 150811, 708469
2096921,2096921, 150520, 708964
2096921,2096921, 150378, 708554
2096921,2096921, 150650, 708681
2096921,2096921, 150664, 708944
2096921,2096921, 150789, 708566
2096921,2096921, 150546, 708781
2096921,2096921, 150430, 708683
2096921,2096921, 150936, 708915
2096921,2096921, 150363, 708654
2096921,2096921, 150600, 708791
2096921,2096921, 150646, 708773
2096921,2096921, 150503, 708907
2096921,2096921, 150776, 708476
2096921,2096921, 150545, 708874
2096921,2096921, 150498, 708961
2096921,2096921, 150645, 708592
2096921,2096921, 150696, 708743
2096921,2096921, 150475, 708930
2096921,2096921, 150432, 708867
2096921,2096921, 150441, 708983
2096921,2096921, 150613, 709017
2096921,2096921, 150757, 708959
2096921,2096921, 150599, 709058
2096921,2096921, 150625, 709009
2096921,2096921, 150825, 708942
2096921,2096921, 150668, 708747
2096921,2096921, 150607, 708940
2096921,2096921, 150511, 708815
2096921,2096921, 150594, 708949
2096921,2096921, 150564, 708789
2096921,2096921, 150518, 708686
2096921,2096921, 150661, 708769
2096921,2096921, 150838, 708617
2096921,2096921, 150532, 708682
2096921,2096921, 150470, 708933
2096921,2096921, 150827, 708895
2096921,2096921, 150617, 708751
2096921,2096921, 150891, 708855
2096921,2096921, 150438, 708408
2096921,2096921, 150340, 708542
2096921,2096921, 150544, 708716
2096921,2096921, 150431, 708588
2096921,2096921, 150878, 708784
2096921,2096921, 150777, 708460
2096921,2096921, 150654, 708459
2096921,2096921, 150307, 708234
2096921,2096921, 150385, 708352
2096921,2096921, 150449, 708244
2096921,2096921, 150259, 708424
2096921,2096921, 150574, 708194
2096921,2096921, 150339, 707846
2096921,2096921, 150586, 707947
2096921,2096921, 150403, 708081
2096921,2096921, 150259, 707128
2096921,2096921, 150323, 706989
2096921,2096921, 150468, 707377
2096921,2096921, 150188, 707240
2096921,2096921, 150280, 706842
2096921,2096921, 149904, 706930
2096921,2096921, 149779, 706601
2096921,2096921, 149960, 706313
2096921,2096921, 149949, 706292
2096921,2096921, 149869, 706171
2096921,2096921, 149520, 705610
2096921,2096921, 149346, 705122
2096921,2096921, 149788, 705220
2096921,2096921, 149794, 705387
2096921,2096921, 149601, 705363
2096921,2096921, 148941, 703552
2096921,2096921, 149099, 703242
2096921,2096921, 148696, 703197
2096921,2096921, 148959, 702943
2096921,2096921, 148716, 702906
2096921,2096921, 148134, 701055
2096921,2096921, 148124, 700412
2096921,2096921, 147904, 700298
2096921,2096921, 147945, 700128
2096921,2096921, 148175, 700013
2096921,2096921, 147420, 698449
2096921,2096921, 147337, 698064
2096921,2096921, 147343, 698371
2096921,2096921, 147349, 698187
2096921,2096921, 147260, 698175
2096921,2096921, 146915, 697054
2096921,2096921, 146814, 696751
2096921,2096921, 146779, 696533
2096921,2096921, 146601, 696545
2096921,2096921, 146641, 696493
2096921,2096921, 146461, 695781
2096921,2096921, 146557, 695760
2096921,2096921, 146335, 695624
2096921,2096921, 146511, 695448
2096921,2096921, 146590, 695319
2096921,2096921, 146366, 694814
2096921,2096921, 146084, 694568
2096921,2096921, 146158, 694507
2096921,2096921, 146184, 694729
2096921,2096921, 145910, 694669
2096921,2096921, 146070, 694321
2096921,2096921, 145969, 694066
2096921,2096921, 146145, 694151
2096921,2096921, 145843, 694036
2096921,2096921, 146155, 694056
2096921,2096921, 146003, 693718
2096921,2096921, 145986, 693718
2096921,2096921, 145868, 693805
2096921,2096921, 145954, 693990
2096921,2096921, 146015, 693953
2096921,2096921, 145873, 693620
2096921,2096921, 145930, 693712
2096921,2096921, 145793, 693405
2096921,2096921, 145877, 693642
2096921,2096921, 145880, 693522
2096921,2096921, 145833, 693480
2096921,2096921, 145957, 693536
2096921,2096921, 145947, 693724
2096921,2096921, 146154, 693393
2096921,2096921, 145800, 693697
2096921,2096921, 145847, 693600
2096921,2096921, 146170, 693864
2096921,2096921, 145966, 693815
2096921,2096921, 145747, 693756
2096921,2096921, 146016, 693837
2096921,2096921, 145959, 693988
2096921,2096921, 146060, 693944
2096921,2096921, 145769, 693991
2096921,2096921, 145867, 693968
2096921,2096921, 146164, 694047
2096921,2096921, 146134, 694132
2096921,2096921, 146332, 694013
2096921,2096921, 146287, 694281
2096921,2096921, 146238, 694299
2096921,2096921, 145964, 693991
2096921,2096921, 146230, 694361
2096921,2096921, 146135, 694445
2096921,2096921, 146212, 694583
2096921,2096921, 146125, 694586
2096921,2096921, 146070, 694678
2096921,2096921, 146210, 694774
2096921,2096921, 146065, 694819
2096921,2096921, 146632, 695087
2096921,2096921, 146368, 695301
2096921,2096921, 146384, 695026
2096921,2096921, 146652, 695326
2096921,2096921, 146557, 695412
2096921,2096921, 146347, 695438
2096921,2096921, 146552, 695349
2096921,2096921, 146618, 695771
2096921,2096921, 146607, 696086
2096921,2096921, 146928, 696041
2096921,2096921, 146715, 696085
2096921,2096921, 146609, 695974
2096921,2096921, 146567, 695925
2096921,2096921, 147068, 696322
2096921,2096921, 147052, 696528
2096921,2096921, 146675, 696366
2096921,2096921, 146793, 696557
2096921,2096921, 146689, 696189
2096921,2096921, 146752, 696656
2096921,2096921, 146730, 696679
2096921,2096921, 146980, 696674
2096921,2096921, 146732, 696636
2096921,2096921, 147010, 696872
2096921,2096921, 146902, 697119
2096921,2096921, 146905, 697408
2096921,2096921, 146726, 697190
2096921,2096921, 146866, 697094
2096921,2096921, 146724, 697324
2096921,2096921, 147004, 697881
2096921,2096921, 147297, 697746
2096921,2096921, 147264, 698062
2096921,2096921, 147206, 697860
2096921,2096921, 147105, 697572
2096921,2096921, 147108, 698141
2096921,2096921, 147382, 698351
2096921,2096921, 147336, 698602
2096921,2096921, 147351, 698311
2096921,2096921, 147449, 698339
2096921,2096921, 147402, 698636
2096921,2096921, 147360, 698999
2096921,2096921, 147537, 698798
2096921,2096921, 147434, 698969
2096921,2096921, 147574, 698697
2096921,2096921, 147690, 699245
2096921,2096921, 147712, 699382
2096921,2096921, 147416, 699377
2096921,2096921, 147714, 699380
2096921,2096921, 147948, 699560
2096921,2096921, 147729, 700134
2096921,2096921, 147847, 699863
2096921,2096921, 147968, 699729
2096921,2096921, 147837, 699720
2096921,2096921, 148019, 699886
2096921,2096921, 148002, 700008
2096921,2096921, 148230, 700123
2096921,2096921, 148151, 699797
2096921,2096921, 147904, 700420
2096921,2096921, 147958, 700149
2096921,2096921, 147837, 700758
2096921,2096921, 148074, 700621
2096921,2096921, 148172, 700730
2096921,2096921, 148076, 700216
2096921,2096921, 148086, 700496
2096921,2096921, 148177, 700488
2096921,2096921, 148163, 700872
2096921,2096921, 148095, 700803
2096921,2096921, 147952, 700838
2096921,2096921, 148147, 701085
2096921,2096921, 148170, 701066
2096921,2096921, 148181, 701029
2096921,2096921, 148187, 701111
2096921,2096921, 148344, 700910
2096921,2096921, 148133, 701141
2096921,2096921, 148141, 701185
2096921,2096921, 148161, 701121
2096921,2096921, 148257, 701166
2096921,2096921, 147991, 701278
2096921,2096921, 148099, 701517
2096921,2096921, 147950, 701463
2096921,2096921, 148363, 701302
2096921,2096921, 148263, 701171
2096921,2096921, 148245, 701386
2096921,2096921, 148117, 701228
2096921,2096921, 148460, 701213
2096921,2096921, 148358, 701210
2096921,2096921, 148551, 701298
2096921,2096921, 148122, 701224
2096921,2096921, 148262, 701270
2096921,2096921, 148123, 700992
2096921,2096921, 148397, 701222
2096921,2096921, 148344, 701133
2096921,2096921, 148287, 701374
2096921,2096921, 147977, 701238
2096921,2096921, 148035, 701016
2096921,2096921, 148002, 700712
2096921,2096921, 148403, 700506
2096921,2096921, 148332, 700308
2096921,2096921, 148337, 700747
2096921,2096921, 148002, 700842
2096921,2096921, 148148, 701038
2096921,2096921, 148156, 700723
2096921,2096921, 148071, 700844
2096921,2096921, 147898, 700747
2096921,2096921, 148149, 700760
2096921,2096921, 147865, 700645
2096921,2096921, 148171, 700420
2096921,2096921, 147940, 700462
2096921,2096921, 148298, 700804
2096921,2096921, 148100, 700377
2096921,2096921, 147797, 700491
2096921,2096921, 148002, 700521
2096921,2096921, 148085, 700026
2096921,2096921, 147936, 700510
2096921,2096921, 148072, 700331
2096921,2096921, 148225, 700317
2096921,2096921, 148250, 700553
2096921,2096921, 148070, 700453
2096921,2096921, 148051, 700479
2096921,2096921, 147871, 700508
2096921,2096921, 147877, 700358
2096921,2096921, 148190, 700656
2096921,2096921, 148093, 700518
2096921,2096921, 148006, 700440
2096921,2096921, 147962, 700371
2096921,2096921, 148004, 700353
2096921,2096921, 148181, 700463
2096921,2096921, 148002, 700208
2096921,2096921, 148190, 700450
2096921,2096921, 147956, 700657
2096921,2096921, 148061, 700773
2096921,2096921, 148333, 700533
2096921,2096921, 147833, 700502
2096921,2096921, 148049, 700404
2096921,2096921, 147955, 700503
2096921,2096921, 148268, 700644
2096921,2096921, 148098, 700937
2096921,2096921, 147925, 700652
2096921,2096921, 148022, 700817
2096921,2096921, 148335, 701129
2096921,2096921, 148462, 701112
2096921,2096921, 148304, 701076
2096921,2096921, 148363, 701163
2096921,2096921, 148192, 701207
2096921,2096921, 148161, 701610
2096921,2096921, 148373, 701571
2096921,2096921, 148378, 701450
2096921,2096921, 148040, 701491
2096921,2096921, 148155, 701458
2096921,2096921, 148376, 701951
2096921,2096921, 148553, 701959
2096921,2096921, 148423, 701977
2096921,2096921, 148246, 701858
2096921,2096921, 148490, 702390
2096921,2096921, 148624, 702092
2096921,2096921, 148381, 702444
2096921,2096921, 148609, 702482
2096921,2096921, 148501, 702267
2096921,2096921, 148406, 702309
2096921,2096921, 148426, 702259
2096921,2096921, 148644, 702512
2096921,2096921, 148689, 702506
2096921,2096921, 148607, 702601
2096921,2096921, 148506, 702628
2096921,2096921, 148725, 703038
2096921,2096921, 148894, 702707
2096921,2096921, 148525, 702932
2096921,2096921, 148709, 702517
2096921,2096921, 148826, 702680
2096921,2096921, 148601, 702978
2096921,2096921, 148508, 703121
2096921,2096921, 148966, 702843
2096921,2096921, 148822, 703009
2096921,2096921, 149004, 703097
2096921,2096921, 148634, 703288
2096921,2096921, 148790, 703516
2096921,2096921, 149090, 703452
2096921,2096921, 148701, 703700
2096921,2096921, 148753, 703388
2096921,2096921, 148862, 703476
2096921,2096921, 148637, 703822
2096921,2096921, 149117, 703800
2096921,2096921, 149258, 703480
2096921,2096921, 149062, 703344
2096921,2096921, 149402, 703798
2096921,2096921, 149096, 703943
2096921,2096921, 149148, 704147
2096921,2096921, 149494, 703817
2096921,2096921, 149252, 703874
2096921,2096921, 149199, 704173
2096921,2096921, 149043, 704136
2096921,2096921, 149038, 704147
2096921,2096921, 149063, 704320
2096921,2096921, 149335, 703951
2096921,2096921, 149346, 704072
2096921,2096921, 149301, 704079
2096921,2096921, 149029, 704372
2096921,2096921, 149275, 704136
2096921,2096921, 149302, 704278
2096921,2096921, 148917, 704627
2096921,2096921, 149175, 704621
2096921,2096921, 149296, 704633
2096921,2096921, 149437, 704403
2096921,2096921, 149144, 704626
2096921,2096921, 149445, 704631
2096921,2096921, 149389, 704797
2096921,2096921, 149593, 705060
2096921,2096921, 149413, 704798
2096921,2096921, 149246, 705300
2096921,2096921, 149513, 705334
2096921,2096921, 149420, 704827
2096921,2096921, 149704, 705238
2096921,2096921, 149679, 705075
2096921,2096921, 149599, 705087
2096921,2096921, 149320, 705457
2096921,2096921, 149403, 705256
2096921,2096921, 149823, 705315
2096921,2096921, 149684, 705279
2096921,2096921, 149885, 705314
2096921,2096921, 149791, 705504
2096921,2096921, 149639, 705522
2096921,2096921, 149635, 705619
2096921,2096921, 149737, 705564
2096921,2096921, 149524, 705671
2096921,2096921, 149738, 705683
2096921,2096921, 149765, 705930
2096921,2096921, 149618, 705866
2096921,2096921, 149451, 705793
2096921,2096921, 149720, 705796
2096921,2096921, 149890, 705797
2096921,2096921, 149763, 705816
2096921,2096921, 149838, 705796
2096921,2096921, 149592, 705749
2096921,2096921, 149746, 706264
2096921,2096921, 149693, 706289
2096921,2096921, 149833, 706069
2096921,2096921, 149941, 706377
2096921,2096921, 149821, 706339
2096921,2096921, 149805, 706134
2096921,2096921, 149782, 706257
2096921,2096921, 149852, 706328
2096921,2096921, 149762, 706098
2096921,2096921, 149832, 706435
2096921,2096921, 150018, 706154
2096921,2096921, 149838, 706614
2096921,2096921, 149982, 706614
2096921,2096921, 150074, 706380
2096921,2096921, 149852, 706552
2096921,2096921, 149873, 706633
2096921,2096921, 149766, 706684
2096921,2096921, 149836, 706677
2096921,2096921, 150003, 706674
2096921,2096921, 150233, 706627
2096921,2096921, 150143, 706474
2096921,2096921, 150140, 706803
2096921,2096921, 150096, 707047
2096921,2096921, 150202, 707354
2096921,2096921, 150091, 707108
2096921,2096921, 149870, 707122
2096921,2096921, 149942, 707207
2096921,2096921, 149772, 706999
2096921,2096921, 150053, 707065
2096921,2096921, 150208, 707215
2096921,2096921, 150060, 707338
2096921,2096921, 149949, 707207
2096921,2096921, 150126, 707140
2096921,2096921, 150351, 707054
2096921,2096921, 150077, 707218
2096921,2096921, 150270, 707387
2096921,2096921, 150291, 707405
2096921,2096921, 150249, 707261
2096921,2096921, 150244, 707422
2096921,2096921, 150323, 707196
2096921,2096921, 150299, 707413
2096921,2096921, 150295, 707216
2096921,2096921, 150064, 707549
2096921,2096921, 150191, 707381
2096921,2096921, 150090, 707543
2096921,2096921, 150105, 707433
2096921,2096921, 149935, 707704
2096921,2096921, 150369, 707830
2096921,2096921, 150436, 707967
2096921,2096921, 149867, 708030
2096921,2096921, 150194, 707486
2096921,2096921, 150466, 707350
2096921,2096921, 150023, 707730
2096921,2096921, 150390, 707505
2096921,2096921, 150289, 707526
2096921,2096921, 150487, 707893
2096921,2096921, 150445, 707963
2096921,2096921, 150157, 708089
2096921,2096921, 150900, 707899
2096921,2096921, 150538, 707723
2096921,2096921, 150223, 707675
2096921,2096921, 150617, 707641
2096921,2096921, 150290, 707894
2096921,2096921, 150314, 708025
2096921,2096921, 150300, 708065
2096921,2096921, 150373, 707903
2096921,2096921, 150537, 707884
2096921,2096921, 150537, 707855
2096921,2096921, 150498, 707937
2096921,2096921, 150388, 707876
2096921,2096921, 150523, 708080
2096921,2096921, 150501, 707883
2096921,2096921, 150356, 707680
2096921,2096921, 150360, 708083
2096921,2096921, 150469, 707952
2096921,2096921, 150521, 708002
2096921,2096921, 150394, 708203
2096921,2096921, 150218, 708270
2096921,2096921, 150449, 708114
2096921,2096921, 150316, 708395
2096921,2096921, 150403, 708220
2096921,2096921, 150335, 708207
2096921,2096921, 150551, 708332
2096921,2096921, 150710, 708363
2096921,2096921, 150859, 707941
2096921,2096921, 150528, 708210
2096921,2096921, 150344, 708494
2096921,2096921, 150559, 708555
2096921,2096921, 150496, 708414
2096921,2096921, 150428, 708599
2096921,2096921, 150343, 708296
2096921,2096921, 150560, 708551
2096921,2096921, 150525, 708371
2096921,2096921, 150751, 708547
2096921,2096921, 150616, 708926
2096921,2096921, 150563, 708744
2096921,2096921, 150663, 708554
2096921,2096921, 150671, 708547
2096921,2096921, 150662, 708532
2096921,2096921, 150506, 708343
2096921,2096921, 150636, 708486
2096921,2096921, 150764, 708651
2096921,2096921, 150610, 708557
2096921,2096921, 150557, 708540
2096921,2096921, 150889, 708299
2096921,2096921, 150652, 708606
2096921,2096921, 150723, 708508
2096921,2096921, 150732, 708616
2096921,2096921, 150673, 708736
2096921,2096921, 150484, 708685
2096921,2096921, 150794, 708728
2096921,2096921, 150594, 708760
2096921,2096921, 150798, 709021
2096921,2096921, 150347, 708789
2096921,2096921, 150469, 708660
2096921,2096921, 150545, 708767
2096921,2096921, 150764, 708717
2096921,2096921, 150538, 708771
2096921,2096921, 150739, 708917
2096921,2096921, 150878, 708841
2096921,2096921, 150653, 708823
2096921,2096921, 150426, 708966
2096921,2096921, 150692, 708731
2096921,2096921, 150611, 708733
2096921,2096921, 150762, 708958
2096921,2096921, 150615, 708820
2096921,2096921, 150898, 708905
2096921,2096921, 150861, 708742
2096921,2096921, 150781, 708904
2096921,2096921, 150870, 708937
2096921,2096921, 150768, 709062
2096921,2096921, 150376, 709016
2096921,2096921, 150702, 708878
2096921,2096921, 150671, 709084
2096921,2096921, 150716, 708916
2096921,2096921, 150563, 709185
2096921,2096921, 150711, 709029
2096921,2096921, 150703, 709024
2096921,2096921, 150665, 708977
2096921,2096921, 150531, 708642
2096921,2096921, 150995, 708752
2096921,2096921, 150874, 708763
2096921,2096921, 150758, 708566
2096921,2096921, 150504, 708927
2096921,2096921, 151033, 709022
2096921,2096921, 150807, 709042
2096921,2096921, 150822, 708872
2096921,2096921, 150715, 708906
2096921,2096921, 150786, 708799
2096921,2096921, 150538, 708462
2096921,2096921, 150639, 708880
2096921,2096921, 150667, 708853
2096921,2096921, 150708, 708847
2096921,2096921, 150767, 708702
2096921,2096921, 150942, 708957
2096921,2096921, 150586, 708840
2096921,2096921, 150704, 709045
2096921,2096921, 150486, 708787
2096921,2096921, 150738, 708922
2096921,2096921, 150613, 708859
2096921,2096921, 150709, 708820
2096921,2096921, 150671, 708635
2096921,2096921, 150843, 708891
2096921,2096921, 150909, 708749
2096921,2096921, 150471, 708991
2096921,2096921, 150699, 708625
2096921,2096921, 150505, 708678
2096921,2096921, 150623, 708966
2096921,2096921, 150562, 708896
2096921,2096921, 150759, 708824
2096921,2096921, 150588, 708807
2096921,2096921, 150429, 708389
2096921,2096921, 150488, 708219
2096921,2096921, 150637, 708499
2096921,2096921, 150665, 708393
2096921,2096921, 150468, 708369
2096921,2096921, 150292, 708042
2096921,2096921, 150308, 707677
2096921,2096921, 150258, 708045
2096921,2096921, 150317, 708002
2096921,2096921, 150236, 707769
2096921,2096921, 150293, 707323
2096921,2096921, 150240, 707223
2096921,2096921, 150202, 707040
2096921,2096921, 150228, 707151
2096921,2096921, 150106, 707249
2096921,2096921, 149999, 706683
2096921,2096921, 150159, 706793
2096921,2096921, 149949, 706409
2096921,2096921, 150047, 706240
2096921,2096921, 149789, 706463
2096921,2096921, 149566, 706394
2096921,2096921, 149557, 705634
2096921,2096921, 149460, 705237
2096921,2096921, 149537, 705097
2096921,2096921, 149479, 705416
2096921,2096921, 149121, 703425
2096921,2096921, 148861, 703338
2096921,2096921, 148800, 703545
2096921,2096921, 148720, 703301
2096921,2096921, 148778, 703154
2096921,2096921, 148172, 701190
2096921,2096921, 147924, 700554
2096921,2096921, 148119, 700542
2096921,2096921, 147833, 700161
2096921,2096921, 147899, 700322
2096921,2096921, 147443, 698834
2096921,2096921, 147489, 698462
2096921,2096921, 147081, 698676
2096921,2096921, 147373, 698366
2096921,2096921, 147393, 698382
2096921,2096921, 147112, 697072
2096921,2096921, 146927, 696733
2096921,2096921, 146957, 696875
2096921,2096921, 146704, 697004
2096921,2096921, 147015, 696998
2096921,2096921, 146471, 695898
2096921,2096921, 146466, 695743
2096921,2096921, 146487, 695487
2096921,2096921, 146636, 695443
2096921,2096921, 146540, 695550
2096921,2096921, 146368, 694826
2096921,2096921, 146329, 694607
2096921,2096921, 146363, 694817
2096921,2096921, 146436, 694695
2096921,2096921, 146440, 694904
2096921,2096921, 146352, 694320
2096921,2096921, 146252, 694100
2096921,2096921, 146087, 694077
2096921,2096921, 145974, 694037
2096921,2096921, 145731, 694163
2096921,2096921, 145810, 693885
2096921,2096921, 145920, 693695
2096921,2096921, 145926, 693960
2096921,2096921, 146004, 693946
2096921,2096921, 146021, 693774
2096921,2096921, 145991, 693915
2096921,2096921, 145844, 693784
2096921,2096921, 146056, 693483
2096921,2096921, 145919, 693491
2096921,2096921, 146138, 693450
2096921,2096921, 145810, 693636
2096921,2096921, 145916, 693937
2096921,2096921, 145948, 693911
2096921,2096921, 145742, 693732
2096921,2096921, 145680, 693554
2096921,2096921, 146075, 693812
2096921,2096921, 145916, 693659
2096921,2096921, 145931, 693823
2096921,2096921, 145708, 693867
2096921,2096921, 145685, 693820
2096921,2096921, 146223, 693676
2096921,2096921, 145996, 693933
2096921,2096921, 146164, 694131
2096921,2096921, 146240, 693994
2096921,2096921, 145992, 694147
2096921,2096921, 145818, 694055
2096921,2096921, 145947, 694106
2096921,2096921, 145958, 694327
2096921,2096921, 145938, 694144
2096921,2096921, 146216, 693988
2096921,2096921, 146343, 694667
2096921,2096921, 146298, 694430
2096921,2096921, 146314, 694468
2096921,2096921, 146022, 694780
2096921,2096921, 146259, 694628
2096921,2096921, 146316, 694940
2096921,2096921, 146286, 695271
2096921,2096921, 146462, 695154
2096921,2096921, 146509, 695271
2096921,2096921, 146222, 694913
2096921,2096921, 146373, 695388
2096921,2096921, 146278, 695741
2096921,2096921, 146473, 695407
2096921,2096921, 146358, 695552
2096921,2096921, 146097, 695808
2096921,2096921, 146676, 696122
2096921,2096921, 146519, 695868
2096921,2096921, 146642, 696041
2096921,2096921, 146597, 696086
2096921,2096921, 146691, 695919
2096921,2096921, 146983, 696532
2096921,2096921, 146832, 696212
2096921,2096921, 146980, 696530
2096921,2096921, 146914, 696696
2096921,2096921, 146735, 696501
2096921,2096921, 146718, 696900
2096921,2096921, 147013, 696887
2096921,2096921, 146795, 696862
2096921,2096921, 146848, 697094
2096921,2096921, 146785, 697013
2096921,2096921, 147170, 697430
2096921,2096921, 146901, 697094
2096921,2096921, 147262, 697264
2096921,2096921, 146976, 697293
2096921,2096921, 146786, 697486
2096921,2096921, 147182, 697794
2096921,2096921, 147250, 697994
2096921,2096921, 147210, 697668
2096921,2096921, 147091, 697856
2096921,2096921, 147036, 697777
2096921,2096921, 147387, 698238
2096921,2096921, 147491, 698133
2096921,2096921, 147526, 698583
2096921,2096921, 147489, 698489
2096921,2096921, 147409, 698577
2096921,2096921, 147473, 698982
2096921,2096921, 147637, 698882
2096921,2096921, 147517, 698666
2096921,2096921, 147056, 699300
2096921,2096921, 147553, 699081
2096921,2096921, 147547, 699242
2096921,2096921, 147703, 699298
2096921,2096921, 147670, 699323
2096921,2096921, 147486, 699523
2096921,2096921, 147702, 699240
2096921,2096921, 147741, 699547
2096921,2096921, 147547, 699554
2096921,2096921, 147911, 699801
2096921,2096921, 147788, 699927
2096921,2096921, 147656, 699997
2096921,2096921, 148411, 700099
2096921,2096921, 148192, 700250
2096921,2096921, 147686, 700245
2096921,2096921, 148191, 700508
2096921,2096921, 148160, 700106
2096921,2096921, 148260, 700576
2096921,2096921, 148331, 700509
2096921,2096921, 148021, 700702
2096921,2096921, 147822, 700821
2096921,2096921, 148168, 700597
2096921,2096921, 148062, 700669
2096921,2096921, 147963, 700995
2096921,2096921, 148380, 700850
2096921,2096921, 148048, 700884
2096921,2096921, 148262, 700635
2096921,2096921, 147998, 700918
2096921,2096921, 148296, 701081
2096921,2096921, 148370, 701326
2096921,2096921, 148389, 701079
2096921,2096921, 148021, 701277
2096921,2096921, 148020, 701159
2096921,2096921, 148047, 701270
2096921,2096921, 148151, 701146
2096921,2096921, 148433, 701231
2096921,2096921, 148360, 701048
2096921,2096921, 148195, 701089
2096921,2096921, 148438, 700936
2096921,2096921, 148133, 701135
2096921,2096921, 148426, 701561
2096921,2096921, 148328, 701224
2096921,2096921, 148407, 701160
2096921,2096921, 148501, 701015
2096921,2096921, 148300, 701239
2096921,2096921, 148314, 701214
2096921,2096921, 148427, 701193
2096921,2096921, 148210, 700985
2096921,2096921, 148380, 701172
2096921,2096921, 148468, 701128
2096921,2096921, 148454, 701053
2096921,2096921, 148158, 701135
2096921,2096921, 148214, 701121
2096921,2096921, 148021, 700872
2096921,2096921, 147758, 701032
2096921,2096921, 148120, 700865
2096921,2096921, 148350, 701041
2096921,2096921, 148274, 700689
2096921,2096921, 148187, 700839
2096921,2096921, 148093, 700945
2096921,2096921, 148188, 701129
2096921,2096921, 148352, 701047
2096921,2096921, 148037, 700580
2096921,2096921, 147790, 700918
2096921,2096921, 148044, 700591
2096921,2096921, 148011, 700628
2096921,2096921, 148179, 700451
2096921,2096921, 147810, 700546
2096921,2096921, 147804, 700272
2096921,2096921, 148276, 700464
2096921,2096921, 148322, 700477
2096921,2096921, 148132, 700545
2096921,2096921, 148215, 700567
2096921,2096921, 148035, 700486
2096921,2096921, 148082, 700710
2096921,2096921, 148035, 700555
2096921,2096921, 148032, 700416
2096921,2096921, 148156, 700614
2096921,2096921, 148142, 700771
2096921,2096921, 147837, 700422
2096921,2096921, 148127, 700706
2096921,2096921, 147881, 700828
2096921,2096921, 147865, 700641
2096921,2096921, 148028, 700548
2096921,2096921, 147979, 700658
2096921,2096921, 148140, 700868
2096921,2096921, 148177, 700798
2096921,2096921, 148421, 700607
2096921,2096921, 147980, 700679
2096921,2096921, 147817, 700531
2096921,2096921, 147990, 700831
2096921,2096921, 147981, 700475
2096921,2096921, 148041, 700652
2096921,2096921, 148261, 700570
2096921,2096921, 148388, 701091
2096921,2096921, 148291, 700940
2096921,2096921, 148051, 701024
2096921,2096921, 148247, 700952
2096921,2096921, 148058, 701141
2096921,2096921, 147939, 701287
2096921,2096921, 148079, 701186
2096921,2096921, 148071, 701126
2096921,2096921, 148132, 701536
2096921,2096921, 148436, 701662
2096921,2096921, 148181, 701653
2096921,2096921, 148172, 701637
2096921,2096921, 148490, 701560
2096921,2096921, 148553, 701730
2096921,2096921, 148290, 702186
2096921,2096921, 148470, 702161
2096921,2096921, 148573, 702139
2096921,2096921, 148501, 701983
2096921,2096921, 148448, 702009
2096921,2096921, 148486, 701892
2096921,2096921, 148646, 702221
2096921,2096921, 148590, 702075
2096921,2096921, 148488, 702074
2096921,2096921, 149092, 702482
2096921,2096921, 148697, 702656
2096921,2096921, 148594, 702745
2096921,2096921, 148873, 702313
2096921,2096921, 148760, 702225
2096921,2096921, 148794, 702610
2096921,2096921, 148902, 702667
2096921,2096921, 148830, 702643
2096921,2096921, 148631, 703147
2096921,2096921, 148846, 702699
2096921,2096921, 148569, 703022
2096921,2096921, 148829, 703112
2096921,2096921, 148754, 702987
2096921,2096921, 148792, 703199
2096921,2096921, 149119, 702912
2096921,2096921, 148957, 703234
2096921,2096921, 149053, 703505
2096921,2096921, 148957, 703441
2096921,2096921, 148911, 703021
2096921,2096921, 148918, 703176
2096921,2096921, 149120, 703572
2096921,2096921, 149140, 703786
2096921,2096921, 148945, 703512
2096921,2096921, 148860, 703514
2096921,2096921, 148965, 703638
2096921,2096921, 148908, 703636
2096921,2096921, 149285, 703800
2096921,2096921, 149215, 704005
2096921,2096921, 149199, 704165
2096921,2096921, 149318, 703788
2096921,2096921, 149368, 704317
2096921,2096921, 149029, 704171
2096921,2096921, 149143, 704143
2096921,2096921, 149326, 704416
2096921,2096921, 149080, 704041
2096921,2096921, 149439, 704267
2096921,2096921, 149446, 704288
2096921,2096921, 149228, 704445
2096921,2096921, 149268, 704915
2096921,2096921, 149348, 704735
2096921,2096921, 149379, 704800
2096921,2096921, 149515, 704676
2096921,2096921, 149474, 704704
2096921,2096921, 149140, 704460
2096921,2096921, 149404, 704915
2096921,2096921, 149574, 705145
2096921,2096921, 149578, 705111
2096921,2096921, 149468, 705211
2096921,2096921, 149427, 705191
2096921,2096921, 149444, 704747
2096921,2096921, 149537, 705090
2096921,2096921, 149475, 705266
2096921,2096921, 149294, 705335
2096921,2096921, 149270, 705322
2096921,2096921, 149335, 705076
2096921,2096921, 149300, 705241
2096921,2096921, 149477, 705473
2096921,2096921, 149523, 705378
2096921,2096921, 149523, 705636
2096921,2096921, 149476, 705736
2096921,2096921, 149600, 705866
2096921,2096921, 149589, 705473
2096921,2096921, 149779, 705639
2096921,2096921, 149794, 705416
2096921,2096921, 149685, 705900
2096921,2096921, 149803, 705650
2096921,2096921, 149710, 706070
2096921,2096921, 149845, 705987
2096921,2096921, 149854, 705781
2096921,2096921, 149804, 705813
2096921,2096921, 149732, 705966
2096921,2096921, 149870, 706141
2096921,2096921, 149793, 706009
2096921,2096921, 150073, 706023
2096921,2096921, 150184, 705803
2096921,2096921, 149700, 706009
2096921,2096921, 149922, 706325
2096921,2096921, 149980, 706093
2096921,2096921, 149701, 706695
2096921,2096921, 149898, 706292
2096921,2096921, 149819, 706629
2096921,2096921, 149994, 706477
2096921,2096921, 150023, 706782
2096921,2096921, 150135, 706421
2096921,2096921, 149884, 706328
2096921,2096921, 150238, 706466
2096921,2096921, 149862, 706816
2096921,2096921, 149940, 706497
2096921,2096921, 149595, 706566
2096921,2096921, 149767, 706734
2096921,2096921, 150136, 706743
2096921,2096921, 150170, 706901
2096921,2096921, 150087, 707033
2096921,2096921, 150247, 706875
2096921,2096921, 149946, 707039
2096921,2096921, 150233, 707063
2096921,2096921, 149957, 707095
2096921,2096921, 150145, 706990
2096921,2096921, 150019, 707179
2096921,2096921, 150047, 707075
2096921,2096921, 150145, 707195
2096921,2096921, 150354, 707130
2096921,2096921, 149821, 706994
2096921,2096921, 150310, 707197
2096921,2096921, 150199, 707170
2096921,2096921, 150376, 707021
2096921,2096921, 150176, 707334
2096921,2096921, 150578, 707127
2096921,2096921, 150316, 707218
2096921,2096921, 150303, 707411
2096921,2096921, 150064, 707381
2096921,2096921, 150253, 707547
2096921,2096921, 150129, 707345
2096921,2096921, 150331, 707635
2096921,2096921, 150648, 707313
2096921,2096921, 150249, 707404
2096921,2096921, 150310, 707372
2096921,2096921, 150426, 707504
2096921,2096921, 150365, 707531
2096921,2096921, 150052, 707735
2096921,2096921, 150176, 707705
2096921,2096921, 150188, 707800
2096921,2096921, 150505, 707596
2096921,2096921, 150317, 708012
2096921,2096921, 150364, 707557
2096921,2096921, 150073, 707674
2096921,2096921, 150286, 707873
2096921,2096921, 150263, 707437
2096921,2096921, 150451, 707693
2096921,2096921, 150511, 707701
2096921,2096921, 150583, 707692
2096921,2096921, 150544, 707860
2096921,2096921, 150113, 707764
2096921,2096921, 150698, 707643
2096921,2096921, 150570, 707618
2096921,2096921, 150202, 707878
2096921,2096921, 150405, 707863
2096921,2096921, 150494, 708076
2096921,2096921, 150499, 708037
2096921,2096921, 150198, 708072
2096921,2096921, 150241, 708418
2096921,2096921, 150479, 708202
2096921,2096921, 150451, 708084
2096921,2096921, 150430, 708374
2096921,2096921, 150357, 708004
2096921,2096921, 150522, 708093
2096921,2096921, 150375, 708088
2096921,2096921, 150567, 708276
2096921,2096921, 150289, 708179
2096921,2096921, 150463, 708410
2096921,2096921, 150496, 708285
2096921,2096921, 150325, 708252
2096921,2096921, 150573, 708289
2096921,2096921, 150637, 708135
2096921,2096921, 150567, 708230
2096921,2096921, 150339, 708359
2096921,2096921, 150484, 708136
2096921,2096921, 150275, 708152
2096921,2096921, 150583, 708469
2096921,2096921, 150502, 708182
2096921,2096921, 150545, 708471
2096921,2096921, 150337, 708432
2096921,2096921, 150540, 708507
2096921,2096921, 150369, 708595
2096921,2096921, 150561, 708619
2096921,2096921, 150946, 708463
2096921,2096921, 150588, 708341
2096921,2096921, 150343, 708600
2096921,2096921, 150531, 708273
2096921,2096921, 150354, 708458
2096921,2096921, 150919, 708596
2096921,2096921, 150579, 708538
2096921,2096921, 150744, 708869
2096921,2096921, 150844, 708590
2096921,2096921, 150563, 708606
2096921,2096921, 150770, 708793
2096921,2096921, 150683, 708705
2096921,2096921, 150602, 708676
2096921,2096921, 150768, 708679
2096921,2096921, 150598, 708559
2096921,2096921, 150732, 708807
2096921,2096921, 150508, 708883
2096921,2096921, 150896, 708888
2096921,2096921, 150743, 708762
2096921,2096921, 150891, 708777
2096921,2096921, 150719, 708898
2096921,2096921, 150988, 708769
2096921,2096921, 150844, 708828
2096921,2096921, 150715, 708602
2096921,2096921, 150732, 708543
2096921,2096921, 150855, 708938
2096921,2096921, 150311, 708994
2096921,2096921, 150719, 709229
2096921,2096921, 150559, 708841
2096921,2096921, 150623, 708853
2096921,2096921, 151067, 709125
2096921,2096921, 151018, 709103
2096921,2096921, 150599, 708805
2096921,2096921, 150790, 708992
2096921,2096921, 150801, 709134
2096921,2096921, 150774, 708988
2096921,2096921, 150816, 708955
2096921,2096921, 150827, 708888
2096921,2096921, 150726, 708850
2096921,2096921, 150682, 708967
2096921,2096921, 150911, 709009
2096921,2096921, 151186, 709015
2096921,2096921, 150678, 708848
2096921,2096921, 150939, 709044
2096921,2096921, 150858, 708955
2096921,2096921, 150714, 709155
2096921,2096921, 150719, 708931
2096921,2096921, 150529, 708798
2096921,2096921, 150440, 708871
2096921,2096921, 151078, 709196
2096921,2096921, 150842, 709198
2096921,2096921, 150646, 709107
2096921,2096921, 150593, 708807
2096921,2096921, 150341, 708909
2096921,2096921, 150519, 709225
2096921,2096921, 150840, 708981
2096921,2096921, 150771, 708771
2096921,2096921, 150505, 708958
2096921,2096921, 150709, 709102
2096921,2096921, 150875, 708957
2096921,2096921, 150727, 708991
2096921,2096921, 150745, 708876
2096921,2096921, 150765, 708757
2096921,2096921, 150407, 708627
2096921,2096921, 150720, 708647
2096921,2096921, 150691, 708853
2096921,2096921, 150710, 708811
2096921,2096921, 150523, 708853
2096921,2096921, 150668, 708848
2096921,2096921, 150664, 708961
2096921,2096921, 150702, 708838
2096921,2096921, 150697, 708812
2096921,2096921, 150733, 708794
2096921,2096921, 150752, 708700
2096921,2096921, 150747, 708976
2096921,2096921, 150618, 708800
2096921,2096921, 150835, 708884
2096921,2096921, 150559, 708948
2096921,2096921, 150978, 708958
2096921,2096921, 150824, 708955
2096921,2096921, 150696, 708615
2096921,2096921, 150659, 708385
2096921,2096921, 150732, 708701
2096921,2096921, 150450, 708206
2096921,2096921, 150642, 708673
2096921,2096921, 150628, 707910
2096921,2096921, 150470, 708119
2096921,2096921, 150395, 708010
2096921,2096921, 150425, 708205
2096921,2096921, 150354, 707980
2096921,2096921, 150423, 707057
2096921,2096921, 150093, 707420
2096921,2096921, 150373, 707644
2096921,2096921, 150243, 707429
2096921,2096921, 150243, 707556
2096921,2096921, 149936, 706509
2096921,2096921, 149727, 706128
2096921,2096921, 149925, 706717
2096921,2096921, 149960, 706299
2096921,2096921, 149769, 706443
2096921,2096921, 149327, 705751
2096921,2096921, 149604, 705314
2096921,2096921, 149605, 705249
2096921,2096921, 149749, 705427
2096921,2096921, 149833, 705450
2096921,2096921, 148946, 705395
2096921,2096921, 149046, 703714
2096921,2096921, 149059, 703342
2096921,2096921, 148916, 702907
2096921,2096921, 149105, 702921
2096921,2096921, 148263, 700948
2096921,2096921, 148166, 700710
2096921,2096921, 148060, 700485
2096921,2096921, 147961, 700347
2096921,2096921, 147800, 700343
2096921,2096921, 147368, 698771
2096921,2096921, 147734, 698523
2096921,2096921, 147660, 698529
2096921,2096921, 147566, 698440
2096921,2096921, 147382, 698174
2096921,2096921, 147080, 696925
2096921,2096921, 147065, 696898
2096921,2096921, 146614, 696855
2096921,2096921, 146893, 696771
2096921,2096921, 146864, 697173
2096921,2096921, 146727, 696016
2096921,2096921, 146716, 695711
2096921,2096921, 146517, 695764
2096921,2096921, 146680, 695734
2096921,2096921, 146364, 695406
2096921,2096921, 146141, 694803
2096921,2096921, 146233, 694601
2096921,2096921, 146410, 694701
2096921,2096921, 146164, 694933
2096921,2096921, 145976, 694804
2096921,2096921, 146131, 694404
2096921,2096921, 146011, 694208
2096921,2096921, 146015, 694205
2096921,2096921, 146143, 694330
2096921,2096921, 146545, 694079
2096921,2096921, 145956, 693682
2096921,2096921, 146004, 693886
2096921,2096921, 145836, 693806
2096921,2096921, 145754, 693875
2096921,2096921, 145846, 693858
2096921,2096921, 145741, 693653
2096921,2096921, 145714, 693917
2096921,2096921, 145683, 693979
2096921,2096921, 145932, 693703
2096921,2096921, 145896, 693958
2096921,2096921, 145766, 693611
2096921,2096921, 145771, 693771
2096921,2096921, 146111, 693563
2096921,2096921, 146089, 693735
2096921,2096921, 145596, 693455
2096921,2096921, 145535, 693645
2096921,2096921, 145756, 693969
2096921,2096921, 146067, 693718
2096921,2096921, 146066, 693846
2096921,2096921, 145987, 693922
2096921,2096921, 145967, 694023
2096921,2096921, 145850, 693785
2096921,2096921, 145974, 693864
2096921,2096921, 145905, 694077
2096921,2096921, 146014, 693951
2096921,2096921, 146135, 694133
2096921,2096921, 146152, 694298
2096921,2096921, 146398, 694298
2096921,2096921, 146009, 694200
2096921,2096921, 146192, 694229
2096921,2096921, 146381, 694665
2096921,2096921, 146392, 694485
2096921,2096921, 146314, 694593
2096921,2096921, 146332, 694539
2096921,2096921, 146079, 694583
2096921,2096921, 146659, 695155
2096921,2096921, 146555, 694810
2096921,2096921, 146369, 695147
2096921,2096921, 146274, 695205
2096921,2096921, 146116, 695097
2096921,2096921, 146366, 695453
2096921,2096921, 146330, 695471
2096921,2096921, 146765, 695392
2096921,2096921, 146633, 695717
2096921,2096921, 146743, 695698
2096921,2096921, 146528, 696180
2096921,2096921, 146716, 695988
2096921,2096921, 146690, 695772
2096921,2096921, 146745, 695818
2096921,2096921, 146537, 695914
2096921,2096921, 146554, 696359
2096921,2096921, 146706, 696578
2096921,2096921, 146852, 696788
2096921,2096921, 146864, 696288
2096921,2096921, 146613, 696398
2096921,2096921, 147215, 697064
2096921,2096921, 146697, 696728
2096921,2096921, 147135, 696787
2096921,2096921, 147175, 696738
2096921,2096921, 146625, 696929
2096921,2096921, 147278, 697147
2096921,2096921, 147050, 697288
2096921,2096921, 147046, 697232
2096921,2096921, 146968, 697317
2096921,2096921, 147244, 697319
2096921,2096921, 147176, 697657
2096921,2096921, 146962, 698106
2096921,2096921, 147220, 697592
2096921,2096921, 147114, 697749
2096921,2096921, 147275, 698072
2096921,2096921, 147284, 698303
2096921,2096921, 147422, 698354
2096921,2096921, 147259, 698161
2096921,2096921, 146918, 698268
2096921,2096921, 147353, 698362
2096921,2096921, 147462, 698536
2096921,2096921, 147567, 698732
2096921,2096921, 147643, 698767
2096921,2096921, 147270, 698902
2096921,2096921, 147407, 699058
2096921,2096921, 147507, 699232
2096921,2096921, 147736, 699208
2096921,2096921, 147681, 699495
2096921,2096921, 147522, 699394
2096921,2096921, 147549, 699164
2096921,2096921, 147596, 699890
2096921,2096921, 147816, 699928
2096921,2096921, 147918, 699947
2096921,2096921, 147724, 699896
2096921,2096921, 147757, 700446
2096921,2096921, 147686, 700451
2096921,2096921, 147925, 700286
2096921,2096921, 147799, 700206
2096921,2096921, 147626, 700280
2096921,2096921, 147847, 700196
2096921,2096921, 148126, 700495
2096921,2096921, 147953, 700503
2096921,2096921, 148149, 700788
2096921,2096921, 148043, 700792
2096921,2096921, 148019, 700811
2096921,2096921, 148029, 700930
2096921,2096921, 147996, 700731
2096921,2096921, 147962, 701030
2096921,2096921, 148117, 700864
2096921,2096921, 148275, 700838
2096921,2096921, 148083, 701232
2096921,2096921, 148047, 701125
2096921,2096921, 148057, 701395
2096921,2096921, 148266, 701178
2096921,2096921, 148496, 701067
2096921,2096921, 148218, 701115
2096921,2096921, 148496, 701087
2096921,2096921, 148441, 701342
2096921,2096921, 148077, 701337
2096921,2096921, 148233, 700992
2096921,2096921, 148108, 701285
2096921,2096921, 148088, 701212
2096921,2096921, 148146, 701231
2096921,2096921, 148380, 701101
2096921,2096921, 148066, 701004
2096921,2096921, 148070, 700891
2096921,2096921, 148107, 701098
2096921,2096921, 148301, 701286
2096921,2096921, 148227, 701285
2096921,2096921, 148013, 701291
2096921,2096921, 148102, 701342
2096921,2096921, 148100, 701127
2096921,2096921, 148058, 701008
2096921,2096921, 148462, 701177
2096921,2096921, 148301, 701146
2096921,2096921, 148293, 701103
2096921,2096921, 148061, 701030
2096921,2096921, 148318, 700964
2096921,2096921, 148199, 701034
2096921,2096921, 148162, 700882
2096921,2096921, 148134, 700748
2096921,2096921, 148040, 700942
2096921,2096921, 148138, 700642
2096921,2096921, 148190, 701015
2096921,2096921, 148448, 700696
2096921,2096921, 148328, 700831
2096921,2096921, 148089, 700838
2096921,2096921, 148006, 700783
2096921,2096921, 148143, 700627
2096921,2096921, 148071, 700794
2096921,2096921, 148065, 700420
2096921,2096921, 147983, 700316
2096921,2096921, 148137, 700528
2096921,2096921, 147959, 700708
2096921,2096921, 148181, 700496
2096921,2096921, 147943, 700690
2096921,2096921, 147967, 700575
2096921,2096921, 148023, 700685
2096921,2096921, 147813, 700291
2096921,2096921, 147969, 700571
2096921,2096921, 147863, 700365
2096921,2096921, 148032, 700544
2096921,2096921, 147748, 700388
2096921,2096921, 148061, 700641
2096921,2096921, 147788, 700777
2096921,2096921, 148079, 700468
2096921,2096921, 147932, 700472
2096921,2096921, 147961, 700673
2096921,2096921, 148282, 700373
2096921,2096921, 148032, 700436
2096921,2096921, 147868, 700558
2096921,2096921, 148173, 700742
2096921,2096921, 148171, 700633
2096921,2096921, 148214, 700528
2096921,2096921, 148005, 700555
2096921,2096921, 148044, 700871
2096921,2096921, 148197, 700844
2096921,2096921, 148223, 700743
2096921,2096921, 147804, 700803
2096921,2096921, 148057, 700747
2096921,2096921, 148316, 700765
2096921,2096921, 148138, 701280
2096921,2096921, 148421, 701547
2096921,2096921, 148279, 701310
2096921,2096921, 148155, 701221
2096921,2096921, 148302, 701268
2096921,2096921, 148458, 701386
2096921,2096921, 148242, 701654
2096921,2096921, 148514, 701794
2096921,2096921, 148498, 701454
2096921,2096921, 148486, 701989
2096921,2096921, 148486, 701790
2096921,2096921, 148432, 702007
2096921,2096921, 148331, 701893
2096921,2096921, 148626, 701614
2096921,2096921, 148560, 701972
2096921,2096921, 148691, 702054
2096921,2096921, 148494, 702348
2096921,2096921, 148575, 702354
2096921,2096921, 148900, 702260
2096921,2096921, 148815, 702248
2096921,2096921, 148645, 702399
2096921,2096921, 148787, 702340
2096921,2096921, 148757, 702588
2096921,2096921, 148589, 702782
2096921,2096921, 148706, 702896
2096921,2096921, 148957, 702624
2096921,2096921, 148782, 702508
2096921,2096921, 148790, 702677
2096921,2096921, 148849, 702897
2096921,2096921, 149064, 702934
2096921,2096921, 148957, 703314
2096921,2096921, 148731, 703255
2096921,2096921, 148986, 703216
2096921,2096921, 148797, 703116
2096921,2096921, 148838, 703266
2096921,2096921, 148848, 703380
2096921,2096921, 148927, 703411
2096921,2096921, 149216, 703452
2096921,2096921, 149333, 703303
2096921,2096921, 149134, 703664
2096921,2096921, 149150, 703567
2096921,2096921, 149136, 703721
2096921,2096921, 148757, 703589
2096921,2096921, 148925, 703703
2096921,2096921, 148832, 703882
2096921,2096921, 148946, 703820
2096921,2096921, 149157, 703773
2096921,2096921, 149128, 704123
2096921,2096921, 148961, 703995
2096921,2096921, 148987, 704107
2096921,2096921, 149255, 704130
2096921,2096921, 149393, 704394
2096921,2096921, 149188, 703904
2096921,2096921, 149208, 704216
2096921,2096921, 149101, 704506
2096921,2096921, 149190, 704376
2096921,2096921, 149150, 704257
2096921,2096921, 149177, 704534
2096921,2096921, 149219, 704653
2096921,2096921, 149132, 704735
2096921,2096921, 149303, 704745
2096921,2096921, 149424, 704926
2096921,2096921, 149228, 704991
2096921,2096921, 149241, 704914
2096921,2096921, 149583, 704753
2096921,2096921, 149337, 705130
2096921,2096921, 149468, 704892
2096921,2096921, 149359, 704899
2096921,2096921, 149385, 704911
2096921,2096921, 149697, 705210
2096921,2096921, 149723, 705109
2096921,2096921, 149697, 705259
2096921,2096921, 149632, 704841
2096921,2096921, 149361, 705351
2096921,2096921, 149425, 705451
2096921,2096921, 149553, 705428
2096921,2096921, 149783, 705382
2096921,2096921, 149874, 705531
2096921,2096921, 149639, 705202
2096921,2096921, 149593, 705463
2096921,2096921, 149715, 705480
2096921,2096921, 149572, 705470
2096921,2096921, 149402, 705667
2096921,2096921, 149537, 705885
2096921,2096921, 149554, 705598
2096921,2096921, 149916, 705987
2096921,2096921, 149595, 706005
2096921,2096921, 149536, 705769
2096921,2096921, 149769, 705872
2096921,2096921, 149859, 706066
2096921,2096921, 149789, 705862
2096921,2096921, 149501, 706090
2096921,2096921, 149529, 706057
2096921,2096921, 149879, 705817
2096921,2096921, 149957, 706251
2096921,2096921, 149843, 706319
2096921,2096921, 149950, 706415
2096921,2096921, 149617, 706219
2096921,2096921, 150083, 706384
2096921,2096921, 150070, 706550
2096921,2096921, 150061, 706348
2096921,2096921, 150116, 706487
2096921,2096921, 150040, 706367
2096921,2096921, 149859, 706530
2096921,2096921, 149930, 706460
2096921,2096921, 149802, 706788
2096921,2096921, 149857, 706702
2096921,2096921, 149863, 706717
2096921,2096921, 150185, 706793
2096921,2096921, 150345, 707058
2096921,2096921, 150105, 707002
2096921,2096921, 150221, 707067
2096921,2096921, 150372, 707168
2096921,2096921, 150125, 706980
2096921,2096921, 150221, 706721
2096921,2096921, 150039, 707354
2096921,2096921, 150041, 707138
2096921,2096921, 150081, 707122
2096921,2096921, 150243, 707208
2096921,2096921, 150143, 707313
2096921,2096921, 150238, 707174
2096921,2096921, 150006, 707365
2096921,2096921, 150329, 707388
2096921,2096921, 150291, 707206
2096921,2096921, 150190, 707314
2096921,2096921, 150086, 707514
2096921,2096921, 150337, 707286
2096921,2096921, 150196, 707279
2096921,2096921, 150203, 707279
2096921,2096921, 150041, 707250
2096921,2096921, 150316, 707396
2096921,2096921, 150032, 707713
2096921,2096921, 150483, 707645
2096921,2096921, 150258, 707577
2096921,2096921, 150669, 707526
2096921,2096921, 149963, 707396
2096921,2096921, 150145, 707698
2096921,2096921, 150357, 707574
2096921,2096921, 150390, 707613
2096921,2096921, 150433, 707880
2096921,2096921, 150350, 707885
2096921,2096921, 150432, 707733
2096921,2096921, 150179, 708000
2096921,2096921, 150248, 707748
2096921,2096921, 150249, 707690
2096921,2096921, 150484, 707825
2096921,2096921, 150366, 707719
2096921,2096921, 150073, 707610
2096921,2096921, 150427, 707813
2096921,2096921, 150504, 707907
2096921,2096921, 150267, 707773
2096921,2096921, 150358, 707926
2096921,2096921, 150584, 707726
2096921,2096921, 150417, 707866
2096921,2096921, 150501, 708000
2096921,2096921, 150348, 707848
2096921,2096921, 150409, 707846
2096921,2096921, 150426, 708049
2096921,2096921, 150400, 708151
2096921,2096921, 150650, 708166
2096921,2096921, 150436, 708272
2096921,2096921, 150433, 708108
2096921,2096921, 150428, 708286
2096921,2096921, 150220, 707889
2096921,2096921, 150349, 707864
2096921,2096921, 150559, 708288
2096921,2096921, 150271, 708373
2096921,2096921, 150418, 708315
2096921,2096921, 150523, 708369
2096921,2096921, 150476, 708133
2096921,2096921, 150345, 708176
2096921,2096921, 150702, 708339
2096921,2096921, 150681, 708266
2096921,2096921, 150498, 708501
2096921,2096921, 150332, 708344
2096921,2096921, 150628, 708495
2096921,2096921, 150494, 708559
2096921,2096921, 150781, 708665
2096921,2096921, 150556, 708438
2096921,2096921, 150415, 708429
2096921,2096921, 150491, 708479
2096921,2096921, 150704, 708548
2096921,2096921, 150957, 708591
2096921,2096921, 150530, 708630
2096921,2096921, 150656, 708285
2096921,2096921, 150605, 708407
2096921,2096921, 150354, 708582
2096921,2096921, 150622, 708392
2096921,2096921, 150335, 708361
2096921,2096921, 150755, 708635
2096921,2096921, 150547, 708731
2096921,2096921, 150841, 708622
2096921,2096921, 150777, 708644
2096921,2096921, 150804, 708494
2096921,2096921, 150554, 708642
2096921,2096921, 150895, 708371
2096921,2096921, 150641, 708452
2096921,2096921, 150352, 708729
2096921,2096921, 150367, 708665
2096921,2096921, 150834, 709028
2096921,2096921, 150518, 708929
2096921,2096921, 150876, 708823
2096921,2096921, 150673, 708853
2096921,2096921, 150637, 708696
2096921,2096921, 150745, 708747
2096921,2096921, 150706, 708900
2096921,2096921, 150650, 709050
2096921,2096921, 150665, 708803
2096921,2096921, 150418, 708841
2096921,2096921, 150618, 709061
2096921,2096921, 150568, 708974
2096921,2096921, 150741, 708932
2096921,2096921, 151003, 709016
2096921,2096921, 150723, 708901
2096921,2096921, 150596, 708976
2096921,2096921, 150820, 708942
2096921,2096921, 150905, 708768
2096921,2096921, 150756, 708975
2096921,2096921, 150866, 709001
2096921,2096921, 150618, 708748
2096921,2096921, 150786, 708963
2096921,2096921, 150909, 708991
2096921,2096921, 150665, 708797
2096921,2096921, 150670, 708787
2096921,2096921, 150687, 708521
2096921,2096921, 150870, 708943
2096921,2096921, 150603, 708921
2096921,2096921, 150460, 709207
2096921,2096921, 150689, 708909
2096921,2096921, 150506, 708904
2096921,2096921, 150946, 708836
2096921,2096921, 150707, 708691
2096921,2096921, 150572, 708993
2096921,2096921, 150495, 708870
2096921,2096921, 150692, 708750
2096921,2096921, 150800, 709319
2096921,2096921, 150777, 709040
2096921,2096921, 150588, 709123
2096921,2096921, 150671, 709151
2096921,2096921, 150693, 708937
2096921,2096921, 150440, 709137
2096921,2096921, 150553, 709216
2096921,2096921, 150568, 708924
2096921,2096921, 150707, 708690
2096921,2096921, 150726, 708783
2096921,2096921, 150779, 708888
2096921,2096921, 150866, 709017
2096921,2096921, 150574, 709093
2096921,2096921, 150790, 709032
2096921,2096921, 150747, 709244
2096921,2096921, 150760, 709012
2096921,2096921, 150617, 708936
2096921,2096921, 150619, 708867
2096921,2096921, 150407, 709181
2096921,2096921, 150718, 708934
2096921,2096921, 150242, 709109
2096921,2096921, 150827, 708739
2096921,2096921, 150641, 708864
2096921,2096921, 150783, 708957
2096921,2096921, 150599, 708943
2096921,2096921, 150810, 708936
2096921,2096921, 150528, 709069
2096921,2096921, 150750, 709173
2096921,2096921, 150749, 709080
2096921,2096921, 150927, 708626
2096921,2096921, 150582, 708473
2096921,2096921, 150635, 708480
2096921,2096921, 150675, 708418
2096921,2096921, 150539, 708612
2096921,2096921, 150565, 708166
2096921,2096921, 150523, 708264
2096921,2096921, 150642, 708116
2096921,2096921, 150377, 708324
2096921,2096921, 150389, 708067
2096921,2096921, 150187, 707579
2096921,2096921, 150117, 707261
2096921,2096921, 150380, 707361
2096921,2096921, 150135, 707080
2096921,2096921, 150172, 707381
2096921,2096921, 149823, 706725
2096921,2096921, 149655, 706519
2096921,2096921, 149903, 706281
2096921,2096921, 150122, 706194
2096921,2096921, 150058, 706355
2096921,2096921, 149651, 705342
2096921,2096921, 149246, 705326
2096921,2096921, 149673, 705244
2096921,2096921, 149740, 705185
2096921,2096921, 149715, 705278
2096921,2096921, 148956, 703432
2096921,2096921, 149196, 703186
2096921,2096921, 148975, 702907
2096921,2096921, 148990, 702935
2096921,2096921, 148962, 703074
2096921,2096921, 148171, 703184
2096921,2096921, 148066, 700882
2096921,2096921, 148075, 700401
2096921,2096921, 148045, 700289
2096921,2096921, 147837, 700527
2096921,2096921, 147112, 699071
2096921,2096921, 147296, 698729
2096921,2096921, 147329, 698301
2096921,2096921, 147067, 698277
2096921,2096921, 147246, 698412
2096921,2096921, 146854, 697357
2096921,2096921, 146732, 696928
2096921,2096921, 146808, 696984
2096921,2096921, 146769, 696597
2096921,2096921, 146511, 696709
2096921,2096921, 146570, 695737
2096921,2096921, 146491, 695369
2096921,2096921, 146704, 695526
2096921,2096921, 146404, 695658
2096921,2096921, 146465, 695443
2096921,2096921, 146417, 694936
2096921,2096921, 146058, 694885
2096921,2096921, 146170, 694768
2096921,2096921, 146293, 694593
2096921,2096921, 146146, 694837
2096921,2096921, 146233, 694379
2096921,2096921, 146227, 694526
2096921,2096921, 146044, 694130
2096921,2096921, 146044, 694183
2096921,2096921, 146213, 694165
2096921,2096921, 145961, 693857
2096921,2096921, 145957, 693637
2096921,2096921, 146081, 693980
2096921,2096921, 145761, 694215
2096921,2096921, 145860, 693809
2096921,2096921, 145980, 693687
2096921,2096921, 145969, 693952
2096921,2096921, 146114, 693755
2096921,2096921, 145701, 693641
2096921,2096921, 145961, 693498
2096921,2096921, 145830, 693340
2096921,2096921, 145824, 693211
2096921,2096921, 145773, 693590
2096921,2096921, 146177, 693506
2096921,2096921, 146166, 693883
2096921,2096921, 146319, 693962
2096921,2096921, 146184, 693635
2096921,2096921, 145859, 694066
2096921,2096921, 146211, 693838
2096921,2096921, 146130, 693738
2096921,2096921, 146089, 694047
2096921,2096921, 146074, 693986
2096921,2096921, 146043, 693796
2096921,2096921, 146004, 693969
2096921,2096921, 145895, 694094
2096921,2096921, 145953, 694501
2096921,2096921, 145895, 694553
2096921,2096921, 146167, 694352
2096921,2096921, 145935, 694429
2096921,2096921, 146074, 694407
2096921,2096921, 146107, 694711
2096921,2096921, 146432, 694483
2096921,2096921, 146418, 694814
2096921,2096921, 146382, 694550
2096921,2096921, 146225, 694771
2096921,2096921, 146583, 695315
2096921,2096921, 146604, 695477
2096921,2096921, 146451, 695114
2096921,2096921, 146485, 695215
2096921,2096921, 146469, 695316
2096921,2096921, 146387, 695422
2096921,2096921, 146552, 695588
2096921,2096921, 146250, 695734
2096921,2096921, 146703, 695336
2096921,2096921, 146525, 695683
2096921,2096921, 146898, 696179
2096921,2096921, 146747, 695881
2096921,2096921, 146734, 696086
2096921,2096921, 146560, 696024
2096921,2096921, 146539, 696229
2096921,2096921, 146676, 696332
2096921,2096921, 146917, 696572
2096921,2096921, 147002, 696564
2096921,2096921, 146828, 696487
2096921,2096921, 146543, 696410
2096921,2096921, 146836, 696823
2096921,2096921, 146969, 696954
2096921,2096921, 146825, 696963
2096921,2096921, 146640, 697038
2096921,2096921, 146641, 697008
2096921,2096921, 147148, 697417
2096921,2096921, 147036, 697332
2096921,2096921, 147232, 697472
2096921,2096921, 146932, 697675
2096921,2096921, 147116, 697577
2096921,2096921, 147187, 697866
2096921,2096921, 147225, 697915
2096921,2096921, 146990, 697929
2096921,2096921, 147455, 698029
2096921,2096921, 147181, 697797
2096921,2096921, 147386, 698267
2096921,2096921, 147536, 698582
2096921,2096921, 147515, 698532
2096921,2096921, 147228, 698299
2096921,2096921, 147586, 698208
2096921,2096921, 147439, 698563
2096921,2096921, 147371, 698842
2096921,2096921, 147556, 698938
2096921,2096921, 147468, 698705
2096921,2096921, 147785, 699092
2096921,2096921, 147758, 699383
2096921,2096921, 147843, 699456
2096921,2096921, 147910, 699410
2096921,2096921, 147797, 699526
2096921,2096921, 147873, 699545
2096921,2096921, 147959, 700036
2096921,2096921, 147864, 700012
2096921,2096921, 147655, 699914
2096921,2096921, 147848, 700230
2096921,2096921, 148032, 700045
2096921,2096921, 147923, 700173
2096921,2096921, 147776, 700092
2096921,2096921, 147737, 700156
2096921,2096921, 147715, 700457
2096921,2096921, 148143, 700325
2096921,2096921, 148097, 700750
2096921,2096921, 148127, 700942
2096921,2096921, 148021, 700562
2096921,2096921, 148129, 700720
2096921,2096921, 148270, 700699
2096921,2096921, 147903, 700679
2096921,2096921, 148082, 700730
2096921,2096921, 148207, 700905
2096921,2096921, 147961, 700839
2096921,2096921, 148368, 700756
2096921,2096921, 148148, 701076
2096921,2096921, 148178, 701087
2096921,2096921, 148071, 701124
2096921,2096921, 148262, 701048
2096921,2096921, 148270, 700801
2096921,2096921, 148099, 701099
2096921,2096921, 148280, 701217
2096921,2096921, 148051, 701544
2096921,2096921, 148177, 701328
2096921,2096921, 148350, 701509
2096921,2096921, 148154, 701384
2096921,2096921, 148386, 701227
2096921,2096921, 148146, 701513
2096921,2096921, 148284, 701605
2096921,2096921, 148337, 701477
2096921,2096921, 148129, 701380
2096921,2096921, 148371, 701289
2096921,2096921, 148414, 701334
2096921,2096921, 148319, 701360
2096921,2096921, 148346, 701240
2096921,2096921, 148356, 701240
2096921,2096921, 148239, 701188
2096921,2096921, 148171, 701227
2096921,2096921, 148177, 701171
2096921,2096921, 148314, 701095
2096921,2096921, 148125, 701425
2096921,2096921, 148074, 701129
2096921,2096921, 147960, 701021
2096921,2096921, 148062, 701006
2096921,2096921, 148099, 700902
2096921,2096921, 148116, 700794
2096921,2096921, 148405, 700751
2096921,2096921, 148505, 701072
2096921,2096921, 148423, 701035
2096921,2096921, 148273, 700765
2096921,2096921, 147993, 700745
2096921,2096921, 148208, 700842
2096921,2096921, 148190, 700896
2096921,2096921, 148046, 700739
2096921,2096921, 148363, 700952
2096921,2096921, 148232, 700891
2096921,2096921, 148143, 700562
2096921,2096921, 148216, 700388
2096921,2096921, 147950, 700615
2096921,2096921, 148059, 700639
2096921,2096921, 148225, 700487
2096921,2096921, 148199, 700729
2096921,2096921, 147987, 700846
2096921,2096921, 148049, 700595
2096921,2096921, 148206, 700681
2096921,2096921, 147959, 700635
2096921,2096921, 148074, 700702
2096921,2096921, 147990, 700628
2096921,2096921, 147987, 700591
2096921,2096921, 148069, 700430
2096921,2096921, 147948, 700592
2096921,2096921, 148113, 700477
2096921,2096921, 148015, 700472
2096921,2096921, 148260, 700614
2096921,2096921, 148305, 700743
2096921,2096921, 148211, 700324
2096921,2096921, 148139, 700981
2096921,2096921, 148277, 700558
2096921,2096921, 148287, 700686
2096921,2096921, 148132, 700860
2096921,2096921, 148328, 700887
2096921,2096921, 148032, 700968
2096921,2096921, 148145, 701005
2096921,2096921, 148247, 700549
2096921,2096921, 148002, 700941
2096921,2096921, 148017, 701437
2096921,2096921, 148341, 701415
2096921,2096921, 148484, 701547
2096921,2096921, 148181, 701348
2096921,2096921, 148447, 701323
2096921,2096921, 148356, 701583
2096921,2096921, 148364, 701687
2096921,2096921, 148331, 701656
2096921,2096921, 148300, 701689
2096921,2096921, 148516, 701517
2096921,2096921, 148697, 702021
2096921,2096921, 148484, 702075
2096921,2096921, 148502, 701551
2096921,2096921, 148509, 701914
2096921,2096921, 148626, 701947
2096921,2096921, 148458, 702087
2096921,2096921, 148748, 702133
2096921,2096921, 148356, 702233
2096921,2096921, 148581, 702029
2096921,2096921, 148661, 702279
2096921,2096921, 148812, 702529
2096921,2096921, 148736, 702508
2096921,2096921, 148817, 702807
2096921,2096921, 148504, 702779
2096921,2096921, 148423, 702432
2096921,2096921, 148499, 702877
2096921,2096921, 148871, 702896
2096921,2096921, 148573, 702975
2096921,2096921, 148721, 702694
2096921,2096921, 148927, 702682
2096921,2096921, 148936, 703237
2096921,2096921, 148959, 703186
2096921,2096921, 149048, 702873
2096921,2096921, 148739, 703063
2096921,2096921, 148928, 703090
2096921,2096921, 148906, 703167
2096921,2096921, 148984, 703438
2096921,2096921, 148989, 703539
2096921,2096921, 149181, 703544
2096921,2096921, 148939, 703555
2096921,2096921, 149140, 703534
2096921,2096921, 149072, 703664
2096921,2096921, 149024, 704038
2096921,2096921, 149416, 703768
2096921,2096921, 149012, 703927
2096921,2096921, 149008, 703646
2096921,2096921, 149311, 703973
2096921,2096921, 148896, 703967
2096921,2096921, 149093, 703923
2096921,2096921, 149439, 703794
2096921,2096921, 149348, 704152
2096921,2096921, 149253, 704060
2096921,2096921, 149284, 704080
2096921,2096921, 149300, 704375
2096921,2096921, 149079, 704643
2096921,2096921, 149079, 704203
2096921,2096921, 149129, 704533
2096921,2096921, 149280, 704170
2096921,2096921, 149461, 704433
2096921,2096921, 149396, 704469
2096921,2096921, 149270, 704548
2096921,2096921, 149309, 704755
2096921,2096921, 149516, 704931
2096921,2096921, 149206, 704580
2096921,2096921, 149506, 704471
2096921,2096921, 149528, 704901
2096921,2096921, 149519, 705056
2096921,2096921, 149555, 704957
2096921,2096921, 149362, 704988
2096921,2096921, 149882, 704821
2096921,2096921, 149550, 705288
2096921,2096921, 149673, 705286
2096921,2096921, 149724, 705223
2096921,2096921, 149622, 705173
2096921,2096921, 149441, 705279
2096921,2096921, 149580, 705165
2096921,2096921, 149579, 705221
2096921,2096921, 149638, 705670
2096921,2096921, 149583, 705621
2096921,2096921, 149576, 705441
2096921,2096921, 149771, 705878
2096921,2096921, 149751, 705530
2096921,2096921, 149980, 706040
2096921,2096921, 149852, 705814
2096921,2096921, 149791, 705887
2096921,2096921, 149762, 706054
2096921,2096921, 149829, 706342
2096921,2096921, 149696, 705998
2096921,2096921, 149553, 705929
2096921,2096921, 149936, 705722
2096921,2096921, 149746, 706082
2096921,2096921, 149609, 706133
2096921,2096921, 150113, 706208
2096921,2096921, 149867, 706194
2096921,2096921, 149806, 706300
2096921,2096921, 149804, 706157
2096921,2096921, 150000, 706176
2096921,2096921, 150213, 706189
2096921,2096921, 150208, 706590
2096921,2096921, 150055, 706374
2096921,2096921, 149777, 706361
2096921,2096921, 149945, 706379
2096921,2096921, 149869, 706279
2096921,2096921, 149943, 706504
2096921,2096921, 149930, 706579
2096921,2096921, 150110, 706714
2096921,2096921, 150187, 706568
2096921,2096921, 150053, 706468
2096921,2096921, 150249, 706882
2096921,2096921, 149988, 706587
2096921,2096921, 150313, 706877
2096921,2096921, 150343, 706902
2096921,2096921, 150373, 707204
2096921,2096921, 150340, 706961
2096921,2096921, 150175, 707031
2096921,2096921, 150382, 706917
2096921,2096921, 150086, 707108
2096921,2096921, 150388, 706732
2096921,2096921, 149894, 706797
2096921,2096921, 150052, 707058
2096921,2096921, 150508, 707254
2096921,2096921, 150185, 707116
2096921,2096921, 150202, 706885
2096921,2096921, 149934, 707128
2096921,2096921, 150089, 707001
2096921,2096921, 150326, 707200
2096921,2096921, 150475, 707156
2096921,2096921, 150089, 707230
2096921,2096921, 150425, 707319
2096921,2096921, 150416, 707371
2096921,2096921, 150101, 707663
2096921,2096921, 150509, 707652
2096921,2096921, 150202, 707577
2096921,2096921, 150145, 707406
2096921,2096921, 150282, 707226
2096921,2096921, 150458, 707482
2096921,2096921, 150362, 707637
2096921,2096921, 150498, 707707
2096921,2096921, 150466, 707654
2096921,2096921, 150364, 707758
2096921,2096921, 150505, 707765
2096921,2096921, 150437, 707842
2096921,2096921, 150266, 707787
2096921,2096921, 150494, 707811
2096921,2096921, 150445, 708029
2096921,2096921, 150511, 708039
2096921,2096921, 150553, 707715
2096921,2096921, 150361, 708088
2096921,2096921, 150316, 708043
2096921,2096921, 150549, 708192
2096921,2096921, 150354, 707859
2096921,2096921, 150543, 708515
2096921,2096921, 150564, 707995
2096921,2096921, 150384, 707961
2096921,2096921, 150602, 708162
2096921,2096921, 150497, 708008
2096921,2096921, 150613, 708243
2096921,2096921, 150582, 708182
2096921,2096921, 150354, 707694
2096921,2096921, 150442, 707594
2096921,2096921, 150647, 707933
2096921,2096921, 150271, 708192
2096921,2096921, 150407, 708381
2096921,2096921, 150692, 708268
2096921,2096921, 150517, 708313
2096921,2096921, 150215, 708169
2096921,2096921, 150590, 707850
2096921,2096921, 150252, 708241
2096921,2096921, 150590, 708175
2096921,2096921, 150723, 708104
2096921,2096921, 150659, 708252
2096921,2096921, 150451, 707916
2096921,2096921, 150403, 708287
2096921,2096921, 150284, 708121
2096921,2096921, 150340, 708632
2096921,2096921, 150545, 708244
2096921,2096921, 150697, 708377
2096921,2096921, 150599, 708857
2096921,2096921, 150663, 708257
2096921,2096921, 150359, 708480
2096921,2096921, 150407, 708786
2096921,2096921, 150588, 708751
2096921,2096921, 150796, 708394
2096921,2096921, 150706, 708527
2096921,2096921, 150534, 708355
2096921,2096921, 150649, 708682
2096921,2096921, 150721, 708549
2096921,2096921, 150552, 708600
2096921,2096921, 150570, 708607
2096921,2096921, 150488, 708705
2096921,2096921, 150564, 708552
2096921,2096921, 150645, 708671
2096921,2096921, 150750, 708492
2096921,2096921, 150647, 708545
2096921,2096921, 150597, 708449
2096921,2096921, 150332, 708295
2096921,2096921, 150556, 708807
2096921,2096921, 150475, 708777
2096921,2096921, 150538, 708818
2096921,2096921, 150505, 708647
2096921,2096921, 150600, 708631
2096921,2096921, 150445, 708723
2096921,2096921, 150579, 708982
2096921,2096921, 150842, 708959
2096921,2096921, 150842, 708898
2096921,2096921, 150445, 708827
2096921,2096921, 150668, 708749
2096921,2096921, 150875, 708760
2096921,2096921, 150815, 709020
2096921,2096921, 150622, 709061
2096921,2096921, 150681, 709059
2096921,2096921, 150991, 708886
2096921,2096921, 150715, 709042
2096921,2096921, 150888, 708734
2096921,2096921, 150755, 709211
2096921,2096921, 150907, 708893
2096921,2096921, 150674, 708735
2096921,2096921, 151051, 708786
2096921,2096921, 150738, 708842
2096921,2096921, 150804, 708988
2096921,2096921, 150630, 709055
2096921,2096921, 150495, 708725
2096921,2096921, 150690, 709191
2096921,2096921, 150726, 709075
2096921,2096921, 150904, 708725
2096921,2096921, 150646, 708953
2096921,2096921, 150565, 709351
2096921,2096921, 150584, 708942
2096921,2096921, 150491, 708906
2096921,2096921, 150705, 708653
2096921,2096921, 150717, 708708
2096921,2096921, 150564, 708827
2096921,2096921, 150509, 708967
2096921,2096921, 150921, 708845
2096921,2096921, 151038, 709113
2096921,2096921, 150880, 709079
2096921,2096921, 150864, 709259
2096921,2096921, 150701, 709061
2096921,2096921, 150531, 708478
2096921,2096921, 150646, 708948
2096921,2096921, 150665, 708863
2096921,2096921, 150685, 708825
2096921,2096921, 150736, 708581
2096921,2096921, 150469, 708874
2096921,2096921, 150531, 708993
2096921,2096921, 150673, 709005
2096921,2096921, 150867, 708976
2096921,2096921, 150824, 709239
2096921,2096921, 150530, 709192
2096921,2096921, 150547, 709171
2096921,2096921, 150585, 708840
2096921,2096921, 150679, 708991
2096921,2096921, 150513, 708833
2096921,2096921, 150854, 709051
2096921,2096921, 150381, 708967
2096921,2096921, 150604, 709118
2096921,2096921, 150522, 708766
2096921,2096921, 150725, 709137
2096921,2096921, 150935, 709061
2096921,2096921, 150737, 708824
2096921,2096921, 150775, 708697
2096921,2096921, 150714, 708847
2096921,2096921, 150470, 708812
2096921,2096921, 150554, 708685
2096921,2096921, 150701, 708947
2096921,2096921, 150727, 708592
2096921,2096921, 150732, 708773
2096921,2096921, 150450, 708505
2096921,2096921, 150380, 708394
2096921,2096921, 150874, 708492
2096921,2096921, 150522, 708165
2096921,2096921, 150360, 708221
2096921,2096921, 150203, 707987
2096921,2096921, 150455, 708284
2096921,2096921, 150596, 708132
2096921,2096921, 150227, 707591
2096921,2096921, 150534, 707430
2096921,2096921, 150290, 707787
2096921,2096921, 149976, 707687
2096921,2096921, 150355, 707442
2096921,2096921, 149970, 706677
2096921,2096921, 149795, 706604
2096921,2096921, 150152, 706325
2096921,2096921, 150008, 706305
2096921,2096921, 150076, 706594
2096921,2096921, 149738, 705759
2096921,2096921, 149645, 705523
2096921,2096921, 149809, 705464
2096921,2096921, 149591, 705353
2096921,2096921, 149734, 705491
2096921,2096921, 148985, 703678
2096921,2096921, 148946, 703330
2096921,2096921, 149000, 703301
2096921,2096921, 148831, 703320
2096921,2096921, 148878, 703192
2096921,2096921, 148361, 700555
2096921,2096921, 148057, 700370
2096921,2096921, 147834, 700599
2096921,2096921, 148092, 700170
2096921,2096921, 147920, 700207
2096921,2096921, 147310, 700024
2096921,2096921, 147484, 698744
2096921,2096921, 147159, 698372
2096921,2096921, 147564, 698638
2096921,2096921, 147310, 698358
2096921,2096921, 147039, 697005
2096921,2096921, 146825, 696584
2096921,2096921, 146539, 696589
2096921,2096921, 146791, 696773
2096921,2096921, 147016, 696668
2096921,2096921, 146356, 695933
2096921,2096921, 146689, 695832
2096921,2096921, 146652, 695628
2096921,2096921, 146516, 695776
2096921,2096921, 146381, 695682
2096921,2096921, 146335, 695084
2096921,2096921, 146230, 695106
2096921,2096921, 146242, 695084
2096921,2096921, 146287, 694913
2096921,2096921, 146147, 694992
2096921,2096921, 146143, 694345
2096921,2096921, 146168, 694048
2096921,2096921, 146137, 694254
2096921,2096921, 146042, 694311
2096921,2096921, 146113, 694526
2096921,2096921, 146016, 694202
2096921,2096921, 146082, 693620
2096921,2096921, 145733, 693818
2096921,2096921, 146003, 693705
2096921,2096921, 145774, 693474
2096921,2096921, 145851, 693639
2096921,2096921, 145829, 693447
2096921,2096921, 145850, 693573
2096921,2096921, 145597, 693800
2096921,2096921, 145897, 693292
2096921,2096921, 145839, 693501
2096921,2096921, 145945, 693543
2096921,2096921, 145914, 693525
2096921,2096921, 146127, 693970
2096921,2096921, 145902, 693607
2096921,2096921, 146086, 693735
2096921,2096921, 145837, 693739
2096921,2096921, 146170, 693902
2096921,2096921, 145742, 693737
2096921,2096921, 146057, 694064
2096921,2096921, 146069, 693851
2096921,2096921, 145918, 694063
2096921,2096921, 146097, 694488
2096921,2096921, 146064, 694145
2096921,2096921, 145716, 694008
2096921,2096921, 145962, 694326
2096921,2096921, 145977, 694418
2096921,2096921, 145882, 694465
2096921,2096921, 145984, 694191
2096921,2096921, 146121, 694217
2096921,2096921, 145942, 694809
2096921,2096921, 146114, 694792
2096921,2096921, 146129, 694703
2096921,2096921, 146321, 694714
2096921,2096921, 146255, 694658
2096921,2096921, 146343, 695135
2096921,2096921, 146253, 695235
2096921,2096921, 146249, 694959
2096921,2096921, 146384, 694925
2096921,2096921, 146330, 695386
2096921,2096921, 146493, 695610
2096921,2096921, 146572, 695437
2096921,2096921, 146589, 695481
2096921,2096921, 146499, 695333
2096921,2096921, 146406, 695633
2096921,2096921, 146933, 695772
2096921,2096921, 146965, 695997
2096921,2096921, 146731, 696228
2096921,2096921, 146678, 696290
2096921,2096921, 146472, 696463
2096921,2096921, 146500, 696806
2096921,2096921, 146818, 696286
2096921,2096921, 146783, 696235
2096921,2096921, 146973, 696557
2096921,2096921, 146881, 696354
2096921,2096921, 147079, 697225
2096921,2096921, 147225, 697066
2096921,2096921, 146880, 696949
2096921,2096921, 146751, 697203
2096921,2096921, 147055, 697054
2096921,2096921, 146979, 697355
2096921,2096921, 147203, 697489
2096921,2096921, 147161, 697315
2096921,2096921, 146812, 697436
2096921,2096921, 146840, 697242
2096921,2096921, 147244, 697948
2096921,2096921, 147075, 697953
2096921,2096921, 147170, 697941
2096921,2096921, 147370, 697765
2096921,2096921, 147089, 697922
2096921,2096921, 147437, 698122
2096921,2096921, 147499, 698381
2096921,2096921, 147358, 698337
2096921,2096921, 147567, 698471
2096921,2096921, 147523, 698610
2096921,2096921, 147573, 699009
2096921,2096921, 147648, 698558
2096921,2096921, 147571, 698852
2096921,2096921, 147355, 699107
2096921,2096921, 147746, 698986
2096921,2096921, 147627, 699507
2096921,2096921, 147526, 699365
2096921,2096921, 147586, 699606
2096921,2096921, 147768, 699336
2096921,2096921, 147370, 699574
2096921,2096921, 147847, 700255
2096921,2096921, 147895, 700250
2096921,2096921, 148017, 700024
2096921,2096921, 147652, 699684
2096921,2096921, 147795, 699804
2096921,2096921, 147776, 700059
2096921,2096921, 147858, 700224
2096921,2096921, 147682, 700265
2096921,2096921, 147756, 699952
2096921,2096921, 147960, 700420
2096921,2096921, 148149, 700794
2096921,2096921, 148108, 700725
2096921,2096921, 148148, 700866
2096921,2096921, 148229, 700644
2096921,2096921, 147729, 700658
2096921,2096921, 148094, 701014
2096921,2096921, 148242, 700927
2096921,2096921, 148333, 701143
2096921,2096921, 147993, 700984
2096921,2096921, 148058, 700922
2096921,2096921, 148172, 701168
2096921,2096921, 148204, 701207
2096921,2096921, 148215, 700868
2096921,2096921, 148417, 701193
2096921,2096921, 148390, 701078
2096921,2096921, 148235, 701133
2096921,2096921, 148308, 701043
2096921,2096921, 148235, 701040
2096921,2096921, 148382, 701228
2096921,2096921, 148731, 701372
2096921,2096921, 148622, 701380
2096921,2096921, 148342, 701312
2096921,2096921, 148437, 701559
2096921,2096921, 148645, 701293
2096921,2096921, 148320, 701253
2096921,2096921, 148552, 701459
2096921,2096921, 148568, 701268
2096921,2096921, 148240, 701530
2096921,2096921, 148115, 701393
2096921,2096921, 148268, 701501
2096921,2096921, 148361, 701548
2096921,2096921, 148218, 701356
2096921,2096921, 148315, 701155
2096921,2096921, 148219, 701388
2096921,2096921, 148368, 701210
2096921,2096921, 148114, 701059
2096921,2096921, 148334, 700993
2096921,2096921, 148294, 701262
2096921,2096921, 148065, 701146
2096921,2096921, 147969, 700829
2096921,2096921, 148224, 700729
2096921,2096921, 148002, 701002
2096921,2096921, 147898, 700954
2096921,2096921, 148204, 700976
2096921,2096921, 148214, 701002
2096921,2096921, 148154, 700642
2096921,2096921, 148087, 700601
2096921,2096921, 147808, 700925
2096921,2096921, 148075, 700634
2096921,2096921, 148007, 700752
2096921,2096921, 148037, 700861
2096921,2096921, 148142, 700740
2096921,2096921, 147886, 700576
2096921,2096921, 148215, 700709
2096921,2096921, 148116, 700713
2096921,2096921, 147883, 700819
2096921,2096921, 147997, 700608
2096921,2096921, 148092, 700471
2096921,2096921, 147831, 700792
2096921,2096921, 147669, 700857
2096921,2096921, 147943, 700720
2096921,2096921, 147939, 700535
2096921,2096921, 148188, 700589
2096921,2096921, 147892, 700577
2096921,2096921, 148030, 700554
2096921,2096921, 147854, 700314
2096921,2096921, 148219, 700509
2096921,2096921, 148171, 700603
2096921,2096921, 148259, 700612
2096921,2096921, 148054, 700639
2096921,2096921, 148369, 700639
2096921,2096921, 148069, 700857
2096921,2096921, 148040, 700734
2096921,2096921, 147934, 700980
2096921,2096921, 147995, 700539
2096921,2096921, 147795, 700576
2096921,2096921, 148100, 700745
2096921,2096921, 148134, 700803
2096921,2096921, 147924, 700836
2096921,2096921, 148228, 701252
2096921,2096921, 148087, 701263
2096921,2096921, 148397, 701225
2096921,2096921, 148210, 700880
2096921,2096921, 147994, 701220
2096921,2096921, 147893, 701228
2096921,2096921, 148284, 701595
2096921,2096921, 148322, 701572
2096921,2096921, 148503, 701533
2096921,2096921, 148549, 701611
2096921,2096921, 148307, 701664
2096921,2096921, 148786, 701720
2096921,2096921, 148653, 701811
2096921,2096921, 148437, 701872
2096921,2096921, 148353, 701862
2096921,2096921, 148563, 701770
2096921,2096921, 148521, 701883
2096921,2096921, 148790, 702220
2096921,2096921, 148668, 702400
2096921,2096921, 148713, 702253
2096921,2096921, 148676, 702191
2096921,2096921, 148600, 702183
2096921,2096921, 148554, 702371
2096921,2096921, 148775, 702591
2096921,2096921, 148925, 702608
2096921,2096921, 149030, 702543
2096921,2096921, 148751, 702721
2096921,2096921, 148909, 703047
2096921,2096921, 148935, 702617
2096921,2096921, 148646, 702772
2096921,2096921, 148737, 702726
2096921,2096921, 148933, 703111
2096921,2096921, 148878, 703061
2096921,2096921, 148844, 703058
2096921,2096921, 148961, 703072
2096921,2096921, 148753, 703033
2096921,2096921, 149255, 703334
2096921,2096921, 148874, 703498
2096921,2096921, 148929, 703499
2096921,2096921, 149103, 703441
2096921,2096921, 149102, 703074
2096921,2096921, 148942, 703454
2096921,2096921, 149006, 703706
2096921,2096921, 148936, 703735
2096921,2096921, 149047, 703823
2096921,2096921, 148957, 703685
2096921,2096921, 149177, 703948
2096921,2096921, 149117, 704006
2096921,2096921, 149259, 703962
2096921,2096921, 149316, 703952
2096921,2096921, 149429, 703859
2096921,2096921, 149238, 704400
2096921,2096921, 149217, 704231
2096921,2096921, 149138, 704317
2096921,2096921, 149304, 703992
2096921,2096921, 149419, 704472
2096921,2096921, 149422, 704368
2096921,2096921, 148901, 704951
2096921,2096921, 149214, 704736
2096921,2096921, 149172, 704879
2096921,2096921, 149075, 704592
2096921,2096921, 149571, 704945
2096921,2096921, 149370, 704593
2096921,2096921, 149354, 704809
2096921,2096921, 149508, 704727
2096921,2096921, 149482, 704843
2096921,2096921, 149538, 704685
2096921,2096921, 149616, 705001
2096921,2096921, 149335, 704843
2096921,2096921, 149356, 705090
2096921,2096921, 149243, 705308
2096921,2096921, 149530, 705228
2096921,2096921, 149642, 705223
2096921,2096921, 149511, 705154
2096921,2096921, 149373, 705200
2096921,2096921, 149451, 704856
2096921,2096921, 149761, 705229
2096921,2096921, 149892, 705662
2096921,2096921, 150006, 705571
2096921,2096921, 149801, 705810
2096921,2096921, 149556, 705746
2096921,2096921, 149582, 705775
2096921,2096921, 149863, 705673
2096921,2096921, 149989, 705769
2096921,2096921, 149929, 705685
2096921,2096921, 149849, 705964
2096921,2096921, 149581, 705711
2096921,2096921, 149668, 705808
2096921,2096921, 149983, 705915
2096921,2096921, 149724, 706027
2096921,2096921, 149965, 705884
2096921,2096921, 150287, 706154
2096921,2096921, 150099, 706118
2096921,2096921, 150223, 706158
2096921,2096921, 150077, 706222
2096921,2096921, 149658, 706264
2096921,2096921, 149814, 706088
2096921,2096921, 149912, 706072
2096921,2096921, 149806, 706274
2096921,2096921, 149727, 706337
2096921,2096921, 150036, 706068
2096921,2096921, 150043, 706520
2096921,2096921, 150079, 706368
2096921,2096921, 149900, 706340
2096921,2096921, 150059, 706617
2096921,2096921, 149738, 706490
2096921,2096921, 149742, 706867
2096921,2096921, 150074, 706863
2096921,2096921, 150161, 706868
2096921,2096921, 149805, 707026
2096921,2096921, 149886, 706786
2096921,2096921, 150173, 707167
2096921,2096921, 150214, 707036
2096921,2096921, 150112, 706937
2096921,2096921, 150311, 707089
2096921,2096921, 150060, 707112
2096921,2096921, 149914, 707087
2096921,2096921, 150375, 706980
2096921,2096921, 150198, 707241
2096921,2096921, 150067, 707019
2096921,2096921, 150168, 706959
2096921,2096921, 150079, 707176
2096921,2096921, 150492, 707143
2096921,2096921, 150049, 707252
2096921,2096921, 150174, 707172
2096921,2096921, 150229, 707063
2096921,2096921, 150033, 707415
2096921,2096921, 150011, 707262
2096921,2096921, 150315, 707206
2096921,2096921, 150211, 707260
2096921,2096921, 150343, 707438
2096921,2096921, 150116, 707388
2096921,2096921, 149922, 707385
2096921,2096921, 150265, 707366
2096921,2096921, 150310, 707400
2096921,2096921, 149943, 707708
2096921,2096921, 150522, 707470
2096921,2096921, 150211, 707411
2096921,2096921, 150372, 707498
2096921,2096921, 150208, 707419
2096921,2096921, 150169, 707446
2096921,2096921, 150271, 707652
2096921,2096921, 150269, 707389
2096921,2096921, 150372, 707705
2096921,2096921, 150065, 707854
2096921,2096921, 150028, 707414
2096921,2096921, 150373, 707773
2096921,2096921, 150637, 707797
2096921,2096921, 150380, 707745
2096921,2096921, 150125, 707587
2096921,2096921, 150464, 707672
2096921,2096921, 150263, 707610
2096921,2096921, 150058, 707900
2096921,2096921, 150311, 707849
2096921,2096921, 150329, 707573
2096921,2096921, 150407, 708044
2096921,2096921, 150570, 707652
2096921,2096921, 150545, 707760
2096921,2096921, 150297, 707808
2096921,2096921, 150399, 708004
2096921,2096921, 150381, 707817
2096921,2096921, 150391, 707959
2096921,2096921, 150307, 707865
2096921,2096921, 150250, 708217
2096921,2096921, 150298, 707831
2096921,2096921, 150505, 707835
2096921,2096921, 150316, 708132
2096921,2096921, 150522, 708206
2096921,2096921, 150593, 708240
2096921,2096921, 150552, 708490
2096921,2096921, 150417, 708392
2096921,2096921, 150420, 708096
2096921,2096921, 150280, 708341
2096921,2096921, 150603, 707957
2096921,2096921, 150518, 708261
2096921,2096921, 150656, 708408
2096921,2096921, 150511, 708230
2096921,2096921, 150380, 708592
2096921,2096921, 150316, 708576
2096921,2096921, 150413, 708279
2096921,2096921, 150269, 708294
2096921,2096921, 150562, 708644
2096921,2096921, 150571, 708568
2096921,2096921, 150649, 708603
2096921,2096921, 150585, 708371
2096921,2096921, 150682, 708437
2096921,2096921, 150573, 708461
2096921,2096921, 150564, 708613
2096921,2096921, 150770, 708511
2096921,2096921, 150444, 708476
2096921,2096921, 150567, 708525
2096921,2096921, 150653, 708561
2096921,2096921, 150615, 708708
2096921,2096921, 150741, 708608
2096921,2096921, 150441, 708157
2096921,2096921, 150349, 708637
2096921,2096921, 150499, 708765
2096921,2096921, 150505, 708719
2096921,2096921, 150597, 708752
2096921,2096921, 150554, 708410
2096921,2096921, 150394, 708432
2096921,2096921, 150271, 708529
2096921,2096921, 150449, 708613
2096921,2096921, 150482, 708853
2096921,2096921, 150405, 708841
2096921,2096921, 150736, 708793
2096921,2096921, 150600, 708763
2096921,2096921, 150731, 708636
2096921,2096921, 150773, 708837
2096921,2096921, 150663, 708743
2096921,2096921, 150591, 708880
2096921,2096921, 150715, 708947
2096921,2096921, 150781, 708963
2096921,2096921, 150587, 709010
2096921,2096921, 150884, 708694
2096921,2096921, 150748, 708658
2096921,2096921, 150748, 708920
2096921,2096921, 150735, 708523
2096921,2096921, 150787, 708637
2096921,2096921, 150974, 708736
2096921,2096921, 150896, 708938
2096921,2096921, 150658, 708883
2096921,2096921, 150736, 708858
2096921,2096921, 150446, 709001
2096921,2096921, 150561, 708958
2096921,2096921, 150679, 708586
2096921,2096921, 150633, 708801
2096921,2096921, 150280, 708985
2096921,2096921, 150768, 708938
2096921,2096921, 150673, 708740
2096921,2096921, 150636, 709067
2096921,2096921, 150480, 709013
2096921,2096921, 150744, 709085
2096921,2096921, 150596, 709043
2096921,2096921, 150333, 708790
2096921,2096921, 150700, 709041
2096921,2096921, 150829, 708678
2096921,2096921, 150744, 708855
2096921,2096921, 150739, 708760
2096921,2096921, 150552, 709163
2096921,2096921, 150586, 708770
2096921,2096921, 150675, 708675
2096921,2096921, 150623, 708794
2096921,2096921, 150723, 708934
2096921,2096921, 150945, 708912
2096921,2096921, 150658, 709132
2096921,2096921, 150951, 708836
2096921,2096921, 150789, 708694
2096921,2096921, 150736, 708895
2096921,2096921, 150513, 708811
2096921,2096921, 150834, 709044
2096921,2096921, 150365, 709072
2096921,2096921, 150458, 708837
2096921,2096921, 150708, 709005
2096921,2096921, 150639, 709336
2096921,2096921, 150852, 709236
2096921,2096921, 150484, 708846
2096921,2096921, 150330, 709141
2096921,2096921, 150656, 708940
2096921,2096921, 150654, 708857
2096921,2096921, 150761, 708850
2096921,2096921, 150749, 708735
2096921,2096921, 150570, 708728
2096921,2096921, 150755, 708740
2096921,2096921, 150678, 708584
2096921,2096921, 150624, 708815
2096921,2096921, 150618, 708350
2096921,2096921, 150481, 708544
2096921,2096921, 150235, 708649
2096921,2096921, 150522, 708400
2096921,2096921, 150551, 708325
2096921,2096921, 150116, 708167
2096921,2096921, 150508, 707972
2096921,2096921, 150530, 707925
2096921,2096921, 150260, 708202
2096921,2096921, 150241, 708130
2096921,2096921, 150067, 707345
2096921,2096921, 150269, 707203
2096921,2096921, 150178, 707369
2096921,2096921, 150179, 707275
2096921,2096921, 150135, 707246
2096921,2096921, 149833, 706279
2096921,2096921, 150042, 706458
2096921,2096921, 150026, 706489
2096921,2096921, 150016, 706342
2096921,2096921, 149667, 706229
2096921,2096921, 149789, 705470
2096921,2096921, 149713, 705530
2096921,2096921, 149601, 705510
2096921,2096921, 149496, 705357
2096921,2096921, 149307, 705608
2096921,2096921, 148938, 703595
2096921,2096921, 148992, 703325
2096921,2096921, 148957, 703071
2096921,2096921, 148856, 703130
2096921,2096921, 148837, 703015
2096921,2096921, 148221, 701222
2096921,2096921, 147983, 700679
2096921,2096921, 147807, 700409
2096921,2096921, 147784, 700157
2096921,2096921, 148189, 700359
2096921,2096921, 147347, 698794
2096921,2096921, 147305, 698108
2096921,2096921, 147221, 698138
2096921,2096921, 147390, 698104
2096921,2096921, 147294, 698494
2096921,2096921, 147048, 698203
2096921,2096921, 146696, 697091
2096921,2096921, 146853, 696798
2096921,2096921, 147041, 696802
2096921,2096921, 146826, 696800
2096921,2096921, 146664, 695764
2096921,2096921, 146493, 695647
2096921,2096921, 146329, 695636
2096921,2096921, 146678, 695516
2096921,2096921, 146533, 695626
2096921,2096921, 146214, 694554
2096921,2096921, 146202, 694773
2096921,2096921, 146034, 694471
2096921,2096921, 146154, 694876
2096921,2096921, 146373, 694676
2096921,2096921, 145974, 694132
2096921,2096921, 145937, 694218
2096921,2096921, 146294, 694151
2096921,2096921, 146216, 694514
2096921,2096921, 146211, 694144
2096921,2096921, 145916, 693680
2096921,2096921, 146017, 693690
2096921,2096921, 145800, 693995
2096921,2096921, 145786, 693718
2096921,2096921, 146029, 693981
2096921,2096921, 145943, 693751
2096921,2096921, 145651, 693660
2096921,2096921, 145717, 693772
2096921,2096921, 145778, 693540
2096921,2096921, 145793, 693641
2096921,2096921, 145861, 693485
2096921,2096921, 146058, 693854
2096921,2096921, 145411, 693548
2096921,2096921, 145979, 693681
2096921,2096921, 145970, 693880
2096921,2096921, 146085, 693938
2096921,2096921, 146080, 693661
2096921,2096921, 146138, 694003
2096921,2096921, 145981, 694093
2096921,2096921, 146089, 693721
2096921,2096921, 146023, 694007
2096921,2096921, 145998, 693949
2096921,2096921, 146090, 693977
2096921,2096921, 146162, 693666
2096921,2096921, 146076, 693858
2096921,2096921, 145971, 694222
2096921,2096921, 145989, 694695
2096921,2096921, 146048, 694275
2096921,2096921, 146085, 694177
2096921,2096921, 146230, 694240
2096921,2096921, 146235, 694455
2096921,2096921, 146057, 694743
2096921,2096921, 145978, 694770
2096921,2096921, 146147, 694598
2096921,2096921, 146049, 694532
2096921,2096921, 146146, 695071
2096921,2096921, 146321, 695116
2096921,2096921, 146030, 694761
2096921,2096921, 146265, 695054
2096921,2096921, 146286, 695015
2096921,2096921, 146436, 695302
2096921,2096921, 146631, 695400
2096921,2096921, 146290, 695439
2096921,2096921, 146568, 695522
2096921,2096921, 146689, 695397
2096921,2096921, 146792, 696250
2096921,2096921, 146609, 696190
2096921,2096921, 146824, 696100
2096921,2096921, 146689, 695792
2096921,2096921, 146771, 695749
2096921,2096921, 146638, 696382
2096921,2096921, 146758, 696448
2096921,2096921, 146698, 696495
2096921,2096921, 146620, 696708
2096921,2096921, 146846, 696630
2096921,2096921, 146967, 697128
2096921,2096921, 147247, 697185
2096921,2096921, 146716, 697192
2096921,2096921, 146758, 697045
2096921,2096921, 146732, 696828
2096921,2096921, 147024, 697435
2096921,2096921, 146998, 697429
2096921,2096921, 147266, 697332
2096921,2096921, 147165, 697608
2096921,2096921, 147097, 697641
2096921,2096921, 146911, 697989
2096921,2096921, 147272, 697994
2096921,2096921, 147335, 698232
2096921,2096921, 147402, 697973
2096921,2096921, 147217, 698136
2096921,2096921, 147455, 698311
2096921,2096921, 147432, 698459
2096921,2096921, 147550, 698531
2096921,2096921, 147386, 698549
2096921,2096921, 147345, 698426
2096921,2096921, 147718, 698802
2096921,2096921, 147590, 698697
2096921,2096921, 147565, 699006
2096921,2096921, 148007, 698954
2096921,2096921, 147723, 699019
2096921,2096921, 147796, 699119
2096921,2096921, 147770, 699124
2096921,2096921, 147944, 699245
2096921,2096921, 147822, 699503
2096921,2096921, 147839, 699259
2096921,2096921, 147853, 699707
2096921,2096921, 147803, 699853
2096921,2096921, 147785, 699875
2096921,2096921, 147977, 700002
2096921,2096921, 147870, 700050
2096921,2096921, 148159, 700283
2096921,2096921, 147669, 700437
2096921,2096921, 147752, 700125
2096921,2096921, 148075, 700248
2096921,2096921, 148085, 700420
2096921,2096921, 148268, 700830
2096921,2096921, 148470, 700669
2096921,2096921, 147929, 700821
2096921,2096921, 148007, 700882
2096921,2096921, 147966, 700761
2096921,2096921, 148213, 700967
2096921,2096921, 148071, 700974
2096921,2096921, 148233, 701004
2096921,2096921, 148132, 701051
2096921,2096921, 148498, 701067
2096921,2096921, 148165, 701247
2096921,2096921, 147910, 701140
2096921,2096921, 147963, 701055
2096921,2096921, 148094, 701273
2096921,2096921, 148402, 701239
2096921,2096921, 148473, 701102
2096921,2096921, 148053, 701363
2096921,2096921, 148123, 701544
2096921,2096921, 148334, 701309
2096921,2096921, 148205, 701567
2096921,2096921, 148378, 701276
2096921,2096921, 148379, 701401
2096921,2096921, 148296, 701322
2096921,2096921, 148224, 701221
2096921,2096921, 148051, 701032
2096921,2096921, 148297, 701076
2096921,2096921, 148389, 700919
2096921,2096921, 148409, 701312
2096921,2096921, 148182, 701246
2096921,2096921, 148533, 701510
2096921,2096921, 148241, 701389
2096921,2096921, 148155, 701343
2096921,2096921, 147932, 7010542096921,2096921, 148321, 700812
2096921,2096921, 148257, 701091
2096921,2096921, 148347, 701043
2096921,2096921, 148478, 700821
2096921,2096921, 148127, 701022
2096921,2096921, 148161, 700633
2096921,2096921, 147962, 700545
2096921,2096921, 147710, 701122
2096921,2096921, 147712, 701268
2096921,2096921, 147843, 700931
2096921,2096921, 147827, 700763
2096921,2096921, 147830, 700473
2096921,2096921, 147981, 700679
2096921,2096921, 148188, 700712
2096921,2096921, 148259, 700474
2096921,2096921, 148015, 700544
2096921,2096921, 148049, 700445
2096921,2096921, 148420, 700576
2096921,2096921, 148048, 700461
2096921,2096921, 148013, 700698
2096921,2096921, 147918, 700814
2096921,2096921, 147829, 700617
2096921,2096921, 148026, 700722
2096921,2096921, 148257, 700294
2096921,2096921, 148105, 700387
2096921,2096921, 147871, 700580
2096921,2096921, 148119, 700268
2096921,2096921, 148194, 700649
2096921,2096921, 148466, 700698
2096921,2096921, 148222, 700668
2096921,2096921, 147801, 700813
2096921,2096921, 148156, 700794
2096921,2096921, 148157, 700621
2096921,2096921, 148321, 700645
2096921,2096921, 148246, 700535
2096921,2096921, 148187, 700783
2096921,2096921, 148175, 700548
2096921,2096921, 148153, 700614
2096921,2096921, 148005, 701021
2096921,2096921, 148065, 700663
2096921,2096921, 147968, 700724
2096921,2096921, 148541, 700818
2096921,2096921, 148134, 700979
2096921,2096921, 148096, 700645
2096921,2096921, 147952, 700717
2096921,2096921, 148339, 701186
2096921,2096921, 148350, 701118
2096921,2096921, 148144, 701349
2096921,2096921, 148550, 701316
2096921,2096921, 148222, 701268
2096921,2096921, 148581, 701556
2096921,2096921, 148608, 701718
2096921,2096921, 148440, 701679
2096921,2096921, 148643, 701590
2096921,2096921, 148424, 701274
2096921,2096921, 148599, 701716
2096921,2096921, 148672, 702056
2096921,2096921, 148527, 701994
2096921,2096921, 148626, 702019
2096921,2096921, 148752, 701897
2096921,2096921, 148618, 702134
2096921,2096921, 148586, 702214
2096921,2096921, 148724, 702221
2096921,2096921, 148594, 702412
2096921,2096921, 148477, 702042
2096921,2096921, 148589, 703011
2096921,2096921, 148737, 702663
2096921,2096921, 148724, 702710
2096921,2096921, 148677, 702796
2096921,2096921, 148702, 702826
2096921,2096921, 148717, 702952
2096921,2096921, 149052, 703192
2096921,2096921, 148769, 703111
2096921,2096921, 148965, 702949
2096921,2096921, 148632, 702804
2096921,2096921, 148999, 703189
2096921,2096921, 148656, 703155
2096921,2096921, 148878, 702776
2096921,2096921, 148755, 702882
2096921,2096921, 148655, 702927
2096921,2096921, 148943, 703209
2096921,2096921, 148927, 703251
2096921,2096921, 149149, 703386
2096921,2096921, 149038, 703616
2096921,2096921, 148921, 703632
2096921,2096921, 149095, 703818
2096921,2096921, 149055, 703835
2096921,2096921, 148883, 703564
2096921,2096921, 149070, 703564
2096921,2096921, 149165, 703788
2096921,2096921, 149064, 703630
2096921,2096921, 149280, 703765
2096921,2096921, 149168, 703771
2096921,2096921, 149053, 704007
2096921,2096921, 149036, 703880
2096921,2096921, 149277, 704087
2096921,2096921, 149515, 704413
2096921,2096921, 149254, 704170
2096921,2096921, 149095, 704249
2096921,2096921, 149077, 704267
2096921,2096921, 149291, 704551
2096921,2096921, 149217, 704645
2096921,2096921, 149506, 704569
2096921,2096921, 149410, 704180
2096921,2096921, 149192, 704473
2096921,2096921, 149528, 704793
2096921,2096921, 149404, 705301
2096921,2096921, 149656, 704777
2096921,2096921, 149516, 704932
2096921,2096921, 149277, 704642
2096921,2096921, 149370, 704798
2096921,2096921, 149493, 704881
2096921,2096921, 149425, 704945
2096921,2096921, 149107, 704587
2096921,2096921, 149162, 705019
2096921,2096921, 149293, 705446
2096921,2096921, 149541, 705329
2096921,2096921, 149672, 705451
2096921,2096921, 149472, 705386
2096921,2096921, 149439, 705095
2096921,2096921, 149663, 705457
2096921,2096921, 149264, 705559
2096921,2096921, 149801, 705470
2096921,2096921, 149616, 705334
2096921,2096921, 149336, 705492
2096921,2096921, 149684, 705672
2096921,2096921, 149857, 705867
2096921,2096921, 149310, 706007
2096921,2096921, 149721, 705638
2096921,2096921, 150005, 705569
2096921,2096921, 149931, 706061
2096921,2096921, 149972, 705831
2096921,2096921, 149691, 706043
2096921,2096921, 149713, 706034
2096921,2096921, 149697, 705866
2096921,2096921, 149464, 706075
2096921,2096921, 149623, 706446
2096921,2096921, 149889, 706319
2096921,2096921, 149963, 706055
2096921,2096921, 150024, 706128
2096921,2096921, 149844, 705950
2096921,2096921, 149606, 706159
2096921,2096921, 150189, 706068
2096921,2096921, 149743, 706269
2096921,2096921, 149905, 706515
2096921,2096921, 149892, 706531
2096921,2096921, 149918, 706424
2096921,2096921, 149853, 706192
2096921,2096921, 149871, 706544
2096921,2096921, 150015, 706433
2096921,2096921, 150163, 706563
2096921,2096921, 150098, 706428
2096921,2096921, 149955, 706719
2096921,2096921, 150094, 707047
2096921,2096921, 150393, 706946
2096921,2096921, 150378, 707067
2096921,2096921, 150500, 706980
2096921,2096921, 150172, 706977
2096921,2096921, 150021, 707002
2096921,2096921, 150311, 706824
2096921,2096921, 150113, 707097
2096921,2096921, 150099, 707160
2096921,2096921, 150288, 707052
2096921,2096921, 150022, 707032
2096921,2096921, 150175, 707240
2096921,2096921, 150240, 707368
2096921,2096921, 150136, 707331
2096921,2096921, 150414, 707170
2096921,2096921, 150332, 707176
2096921,2096921, 150245, 707233
2096921,2096921, 150047, 707212
2096921,2096921, 150423, 707116
2096921,2096921, 150177, 707353
2096921,2096921, 150126, 707311
2096921,2096921, 150123, 707361
2096921,2096921, 150174, 707230
2096921,2096921, 150145, 707405
2096921,2096921, 150176, 707439
2096921,2096921, 150264, 707655
2096921,2096921, 150290, 707541
2096921,2096921, 150377, 707476
2096921,2096921, 150358, 707134
2096921,2096921, 150579, 707527
2096921,2096921, 150300, 707567
2096921,2096921, 150189, 707839
2096921,2096921, 150484, 707861
2096921,2096921, 150193, 707549
2096921,2096921, 150341, 707621
2096921,2096921, 150419, 707724
2096921,2096921, 150431, 707822
2096921,2096921, 150310, 708059
2096921,2096921, 150585, 707757
2096921,2096921, 150496, 707911
2096921,2096921, 150173, 707813
2096921,2096921, 150212, 707445
2096921,2096921, 150298, 707680
2096921,2096921, 150366, 708254
2096921,2096921, 150430, 707714
2096921,2096921, 150532, 707450
2096921,2096921, 150684, 708185
2096921,2096921, 150491, 708065
2096921,2096921, 150481, 708463
2096921,2096921, 150321, 708147
2096921,2096921, 150393, 707901
2096921,2096921, 150410, 708029
2096921,2096921, 150675, 708542
2096921,2096921, 150345, 708186
2096921,2096921, 150546, 708045
2096921,2096921, 150189, 708027
2096921,2096921, 150247, 708060
2096921,2096921, 150525, 708063
2096921,2096921, 150846, 708307
2096921,2096921, 150526, 708179
2096921,2096921, 150572, 707961
2096921,2096921, 150627, 708047
2096921,2096921, 150615, 708225
2096921,2096921, 150457, 708298
2096921,2096921, 150469, 708191
2096921,2096921, 150401, 708124
2096921,2096921, 150707, 708315
2096921,2096921, 150753, 708310
2096921,2096921, 150716, 708454
2096921,2096921, 150674, 708420
2096921,2096921, 150739, 708474
2096921,2096921, 150711, 708225
2096921,2096921, 150547, 708499
2096921,2096921, 150672, 708137
2096921,2096921, 150601, 708551
2096921,2096921, 150487, 708293
2096921,2096921, 150526, 708404
2096921,2096921, 150721, 708384
2096921,2096921, 150706, 708506
2096921,2096921, 150486, 708578
2096921,2096921, 150423, 708516
2096921,2096921, 150454, 708701
2096921,2096921, 150564, 708458
2096921,2096921, 150545, 708919
2096921,2096921, 150587, 708693
2096921,2096921, 150577, 708577
2096921,2096921, 150664, 708476
2096921,2096921, 150821, 708514
2096921,2096921, 150693, 708430
2096921,2096921, 150764, 708768
2096921,2096921, 150479, 708464
2096921,2096921, 150732, 708755
2096921,2096921, 150610, 708506
2096921,2096921, 150671, 708546
2096921,2096921, 150388, 708588
2096921,2096921, 150770, 708752
2096921,2096921, 150698, 708712
2096921,2096921, 150692, 708588
2096921,2096921, 150907, 708697
