2096921,2096921, 149650, 729763
2096921,2096921, 149527, 730147
2096921,2096921, 149861, 730094
2096921,2096921, 149676, 730257
2096921,2096921, 149470, 729996
2096921,2096921, 150054, 729814
2096921,2096921, 150095, 729973
2096921,2096921, 150184, 730004
2096921,2096921, 149835, 730045
2096921,2096921, 149846, 729920
2096921,2096921, 149768, 730024
2096921,2096921, 149462, 730017
2096921,2096921, 149632, 729951
2096921,2096921, 149762, 729965
2096921,2096921, 150151, 730162
2096921,2096921, 149874, 730196
2096921,2096921, 149992, 730241
2096921,2096921, 149934, 730244
2096921,2096921, 149866, 730448
2096921,2096921, 149915, 730419
2096921,2096921, 149976, 730285
2096921,2096921, 150176, 730614
2096921,2096921, 149919, 730067
2096921,2096921, 149793, 730062
2096921,2096921, 149901, 730322
2096921,2096921, 149708, 730390
2096921,2096921, 149877, 730398
2096921,2096921, 149891, 730453
2096921,2096921, 150025, 730629
2096921,2096921, 150091, 730805
2096921,2096921, 150031, 730652
2096921,2096921, 150077, 730385
2096921,2096921, 149890, 730485
2096921,2096921, 149796, 730418
2096921,2096921, 149879, 730497
2096921,2096921, 149700, 730251
2096921,2096921, 149955, 730630
2096921,2096921, 150115, 730510
2096921,2096921, 150238, 730592
2096921,2096921, 149849, 730530
2096921,2096921, 149941, 730875
2096921,2096921, 149821, 730627
2096921,2096921, 150002, 730672
2096921,2096921, 149882, 730449
2096921,2096921, 149759, 730472
2096921,2096921, 150004, 730800
2096921,2096921, 150177, 731020
2096921,2096921, 150116, 730858
2096921,2096921, 150025, 731063
2096921,2096921, 150048, 730983
2096921,2096921, 150073, 730775
2096921,2096921, 149920, 730880
2096921,2096921, 150061, 730770
2096921,2096921, 150069, 731039
2096921,2096921, 150015, 730968
2096921,2096921, 150171, 731022
2096921,2096921, 150073, 730852
2096921,2096921, 150220, 731207
2096921,2096921, 150059, 730993
2096921,2096921, 149979, 730963
2096921,2096921, 150019, 731411
2096921,2096921, 149979, 731199
2096921,2096921, 150033, 731310
2096921,2096921, 150076, 731310
2096921,2096921, 150123, 731457
2096921,2096921, 149926, 731095
2096921,2096921, 149923, 730877
2096921,2096921, 149870, 730808
2096921,2096921, 149801, 730838
2096921,2096921, 149690, 730741
2096921,2096921, 149655, 730504
2096921,2096921, 149690, 730525
2096921,2096921, 149441, 730328
2096921,2096921, 149304, 730387
2096921,2096921, 149685, 730664
2096921,2096921, 149395, 730247
2096921,2096921, 149365, 729867
2096921,2096921, 149456, 729857
2096921,2096921, 149362, 729627
2096921,2096921, 149138, 729888
2096921,2096921, 148804, 729514
2096921,2096921, 148729, 729068
2096921,2096921, 148887, 728472
2096921,2096921, 149048, 728413
2096921,2096921, 148890, 728706
2096921,2096921, 148725, 728275
2096921,2096921, 148445, 727980
2096921,2096921, 148400, 727777
2096921,2096921, 148353, 727442
2096921,2096921, 148344, 727668
2096921,2096921, 147285, 726923
2096921,2096921, 147177, 725531
2096921,2096921, 147285, 725351
2096921,2096921, 147170, 725413
2096921,2096921, 147140, 725329
2096921,2096921, 146199, 724092
2096921,2096921, 145950, 722864
2096921,2096921, 145736, 722346
2096921,2096921, 145562, 722299
2096921,2096921, 145865, 722447
2096921,2096921, 144901, 721546
2096921,2096921, 144782, 720358
2096921,2096921, 144674, 720095
2096921,2096921, 144730, 720006
2096921,2096921, 144694, 720282
2096921,2096921, 144273, 719260
2096921,2096921, 143993, 718525
2096921,2096921, 143932, 718505
2096921,2096921, 144064, 718658
2096921,2096921, 144042, 718661
2096921,2096921, 143531, 718118
2096921,2096921, 143217, 717795
2096921,2096921, 143011, 717093
2096921,2096921, 143020, 717049
2096921,2096921, 143113, 717177
2096921,2096921, 143073, 716762
2096921,2096921, 142884, 716695
2096921,2096921, 143064, 716598
2096921,2096921, 142866, 716239
2096921,2096921, 143128, 716058
2096921,2096921, 142944, 715843
2096921,2096921, 142672, 715843
2096921,2096921, 142723, 716004
2096921,2096921, 142561, 716001
2096921,2096921, 142653, 715768
2096921,2096921, 142577, 715717
2096921,2096921, 142679, 715786
2096921,2096921, 142667, 715580
2096921,2096921, 142877, 715915
2096921,2096921, 142501, 715810
2096921,2096921, 142576, 715626
2096921,2096921, 142415, 715775
2096921,2096921, 142740, 715552
2096921,2096921, 142968, 715832
2096921,2096921, 142661, 715735
2096921,2096921, 142762, 715615
2096921,2096921, 142574, 716019
2096921,2096921, 142957, 715922
2096921,2096921, 142653, 716225
2096921,2096921, 142566, 716042
2096921,2096921, 142667, 715984
2096921,2096921, 142618, 716263
2096921,2096921, 142395, 716383
2096921,2096921, 142489, 716522
2096921,2096921, 142655, 716418
2096921,2096921, 142783, 716622
2096921,2096921, 143038, 716968
2096921,2096921, 143266, 717039
2096921,2096921, 143294, 716926
2096921,2096921, 142821, 716788
2096921,2096921, 142713, 717091
2096921,2096921, 142878, 717277
2096921,2096921, 142822, 717413
2096921,2096921, 142898, 717276
2096921,2096921, 142874, 717195
2096921,2096921, 143257, 717589
2096921,2096921, 143474, 717834
2096921,2096921, 143410, 718061
2096921,2096921, 143208, 718145
2096921,2096921, 143277, 717978
2096921,2096921, 143361, 718484
2096921,2096921, 143513, 718590
2096921,2096921, 143668, 718640
2096921,2096921, 143764, 718702
2096921,2096921, 143816, 718835
2096921,2096921, 143948, 719021
2096921,2096921, 143951, 719297
2096921,2096921, 144197, 719685
2096921,2096921, 144102, 719417
2096921,2096921, 143756, 719689
2096921,2096921, 144032, 719896
2096921,2096921, 144222, 719884
2096921,2096921, 144062, 720383
2096921,2096921, 144588, 720205
2096921,2096921, 144345, 720141
2096921,2096921, 144365, 720554
2096921,2096921, 144140, 721022
2096921,2096921, 144446, 721380
2096921,2096921, 144420, 721124
2096921,2096921, 144413, 721280
2096921,2096921, 144926, 721582
2096921,2096921, 144662, 721887
2096921,2096921, 144782, 721883
2096921,2096921, 145025, 721970
2096921,2096921, 144493, 722148
2096921,2096921, 145020, 722387
2096921,2096921, 144995, 723007
2096921,2096921, 145305, 722603
2096921,2096921, 144891, 722829
2096921,2096921, 145133, 722645
2096921,2096921, 145295, 723377
2096921,2096921, 145429, 723161
2096921,2096921, 145514, 723436
2096921,2096921, 145377, 723696
2096921,2096921, 145097, 723592
2096921,2096921, 145540, 723668
2096921,2096921, 145575, 724217
2096921,2096921, 145653, 724650
2096921,2096921, 145676, 724520
2096921,2096921, 145588, 724708
2096921,2096921, 146031, 724212
2096921,2096921, 146001, 725135
2096921,2096921, 145830, 725085
2096921,2096921, 145652, 725196
2096921,2096921, 145980, 725514
2096921,2096921, 146496, 725690
2096921,2096921, 146187, 726100
2096921,2096921, 146477, 726052
2096921,2096921, 146556, 726522
2096921,2096921, 146556, 726074
2096921,2096921, 146942, 726492
2096921,2096921, 146803, 726525
2096921,2096921, 146515, 726859
2096921,2096921, 146576, 726643
2096921,2096921, 146709, 726858
2096921,2096921, 146641, 727316
2096921,2096921, 146905, 727611
2096921,2096921, 147048, 727874
2096921,2096921, 146807, 727634
2096921,2096921, 147122, 727507
2096921,2096921, 146989, 728030
2096921,2096921, 147329, 728022
2096921,2096921, 147118, 728093
2096921,2096921, 146883, 728341
2096921,2096921, 147252, 728583
2096921,2096921, 147287, 728878
2096921,2096921, 147531, 728834
2096921,2096921, 147485, 728675
2096921,2096921, 147579, 728816
2096921,2096921, 147729, 728992
2096921,2096921, 147658, 729171
2096921,2096921, 147386, 729240
2096921,2096921, 147408, 729390
2096921,2096921, 147189, 729411
2096921,2096921, 147628, 729638
2096921,2096921, 147719, 729741
2096921,2096921, 147861, 729773
2096921,2096921, 147720, 729869
2096921,2096921, 147649, 729848
2096921,2096921, 147680, 729765
2096921,2096921, 147534, 730075
2096921,2096921, 147803, 729819
2096921,2096921, 147474, 730067
2096921,2096921, 148070, 730254
2096921,2096921, 147883, 730010
2096921,2096921, 147892, 730108
2096921,2096921, 147733, 730220
2096921,2096921, 148163, 730593
2096921,2096921, 147864, 730504
2096921,2096921, 147907, 730557
2096921,2096921, 148059, 730352
2096921,2096921, 147865, 730404
2096921,2096921, 147876, 730468
2096921,2096921, 147685, 730272
2096921,2096921, 148201, 730492
2096921,2096921, 147821, 730332
2096921,2096921, 147820, 730357
2096921,2096921, 147874, 730876
2096921,2096921, 148054, 730691
2096921,2096921, 147773, 731009
2096921,2096921, 147788, 730703
2096921,2096921, 147730, 730716
2096921,2096921, 147755, 730577
2096921,2096921, 147677, 730706
2096921,2096921, 147686, 730729
2096921,2096921, 147490, 730526
2096921,2096921, 147544, 730808
2096921,2096921, 147651, 730757
2096921,2096921, 147619, 730744
2096921,2096921, 147438, 730902
2096921,2096921, 147535, 730722
2096921,2096921, 147626, 731173
2096921,2096921, 147649, 730912
2096921,2096921, 147774, 730816
2096921,2096921, 147683, 730910
2096921,2096921, 147772, 731049
2096921,2096921, 147795, 731019
2096921,2096921, 147837, 731011
2096921,2096921, 147656, 731091
2096921,2096921, 147878, 731251
2096921,2096921, 147635, 731294
2096921,2096921, 147809, 731549
2096921,2096921, 147598, 731530
2096921,2096921, 147684, 731324
2096921,2096921, 147810, 731555
2096921,2096921, 147843, 731632
2096921,2096921, 148006, 731296
2096921,2096921, 148011, 731873
2096921,2096921, 147780, 731970
2096921,2096921, 147736, 731742
2096921,2096921, 147717, 731829
2096921,2096921, 147874, 732076
2096921,2096921, 148007, 732011
2096921,2096921, 147844, 731798
2096921,2096921, 148104, 732050
2096921,2096921, 148064, 732020
2096921,2096921, 148164, 732669
2096921,2096921, 148314, 733040
2096921,2096921, 148244, 732791
2096921,2096921, 148266, 732722
2096921,2096921, 148534, 732983
2096921,2096921, 148304, 733099
2096921,2096921, 148522, 733377
2096921,2096921, 148508, 733750
2096921,2096921, 148468, 733444
2096921,2096921, 148804, 733450
2096921,2096921, 148654, 734072
2096921,2096921, 148674, 734192
2096921,2096921, 148643, 733950
2096921,2096921, 148665, 734196
2096921,2096921, 148716, 734551
2096921,2096921, 148736, 734374
2096921,2096921, 148807, 734652
2096921,2096921, 148723, 734872
2096921,2096921, 148770, 734580
2096921,2096921, 148996, 734855
2096921,2096921, 149404, 735127
2096921,2096921, 149340, 735129
2096921,2096921, 149315, 735552
2096921,2096921, 149165, 735521
2096921,2096921, 149207, 735805
2096921,2096921, 148955, 736101
2096921,2096921, 149195, 735914
2096921,2096921, 149353, 735901
2096921,2096921, 149418, 735771
2096921,2096921, 149243, 736117
2096921,2096921, 149659, 736475
2096921,2096921, 149629, 736640
2096921,2096921, 149384, 736347
2096921,2096921, 149463, 736566
2096921,2096921, 149770, 736991
2096921,2096921, 149690, 737106
2096921,2096921, 149514, 737048
2096921,2096921, 149662, 737328
2096921,2096921, 149754, 737018
2096921,2096921, 149829, 737198
2096921,2096921, 149721, 737950
2096921,2096921, 149822, 737819
2096921,2096921, 150201, 737819
2096921,2096921, 149760, 737765
2096921,2096921, 150316, 738044
2096921,2096921, 149948, 738196
2096921,2096921, 150214, 738235
2096921,2096921, 150142, 738679
2096921,2096921, 150227, 738530
2096921,2096921, 150303, 738731
2096921,2096921, 150195, 738981
2096921,2096921, 150754, 739339
2096921,2096921, 150730, 739114
2096921,2096921, 150133, 739018
2096921,2096921, 150531, 739277
2096921,2096921, 150398, 739169
2096921,2096921, 150412, 739189
2096921,2096921, 150334, 739651
2096921,2096921, 150361, 739428
2096921,2096921, 150955, 739499
2096921,2096921, 150827, 740176
2096921,2096921, 150886, 740097
2096921,2096921, 150796, 739964
2096921,2096921, 150721, 740142
2096921,2096921, 151078, 740360
2096921,2096921, 151192, 740505
2096921,2096921, 150821, 740451
2096921,2096921, 150939, 740555
2096921,2096921, 151031, 740479
2096921,2096921, 151141, 740850
2096921,2096921, 151183, 740932
2096921,2096921, 151184, 741326
2096921,2096921, 150940, 741417
2096921,2096921, 151135, 741220
2096921,2096921, 151335, 741521
2096921,2096921, 151322, 741786
2096921,2096921, 151266, 741612
2096921,2096921, 151485, 741611
2096921,2096921, 151469, 741730
2096921,2096921, 151307, 742109
2096921,2096921, 151419, 742704
2096921,2096921, 151614, 742648
2096921,2096921, 151629, 742275
2096921,2096921, 151671, 742522
2096921,2096921, 151560, 742573
2096921,2096921, 151476, 743047
2096921,2096921, 151642, 743124
2096921,2096921, 151575, 742908
2096921,2096921, 151803, 742714
2096921,2096921, 151932, 742941
2096921,2096921, 151970, 743233
2096921,2096921, 152117, 743608
2096921,2096921, 151897, 743341
2096921,2096921, 151715, 743415
2096921,2096921, 151522, 743797
2096921,2096921, 151880, 744001
2096921,2096921, 151914, 743967
2096921,2096921, 152231, 743720
2096921,2096921, 152249, 743865
2096921,2096921, 152376, 743931
2096921,2096921, 152064, 744280
2096921,2096921, 152125, 744241
2096921,2096921, 152199, 744357
2096921,2096921, 152405, 744684
2096921,2096921, 152265, 744542
2096921,2096921, 152194, 744966
2096921,2096921, 152237, 744906
2096921,2096921, 152494, 744911
2096921,2096921, 152390, 744709
2096921,2096921, 152600, 744818
2096921,2096921, 152622, 745418
2096921,2096921, 152707, 745397
2096921,2096921, 152566, 745604
2096921,2096921, 152580, 745244
2096921,2096921, 152410, 745267
2096921,2096921, 152413, 745453
2096921,2096921, 152797, 745448
2096921,2096921, 152669, 745718
2096921,2096921, 152820, 745734
2096921,2096921, 152836, 746028
2096921,2096921, 152866, 746076
2096921,2096921, 152892, 746082
2096921,2096921, 152980, 746332
2096921,2096921, 152795, 746740
2096921,2096921, 153156, 746394
2096921,2096921, 152945, 746460
2096921,2096921, 152740, 746479
2096921,2096921, 153025, 746405
2096921,2096921, 152823, 746550
2096921,2096921, 152762, 746877
2096921,2096921, 153061, 746733
2096921,2096921, 153270, 746925
2096921,2096921, 153042, 746873
2096921,2096921, 152841, 746888
2096921,2096921, 153001, 747415
2096921,2096921, 152786, 747346
2096921,2096921, 153143, 747364
2096921,2096921, 152918, 747167
2096921,2096921, 153029, 747307
2096921,2096921, 153067, 747427
2096921,2096921, 153078, 747580
2096921,2096921, 153446, 747945
2096921,2096921, 153402, 747562
2096921,2096921, 153498, 747673
2096921,2096921, 153301, 747915
2096921,2096921, 153461, 747953
2096921,2096921, 153181, 748341
2096921,2096921, 153506, 747997
2096921,2096921, 153307, 747858
2096921,2096921, 153269, 748133
2096921,2096921, 153528, 747908
2096921,2096921, 153676, 748273
2096921,2096921, 153876, 748553
2096921,2096921, 153829, 748300
2096921,2096921, 153638, 748095
2096921,2096921, 153199, 748393
2096921,2096921, 153520, 748443
2096921,2096921, 153717, 748717
2096921,2096921, 153585, 748615
2096921,2096921, 153758, 748631
2096921,2096921, 153292, 748738
2096921,2096921, 153794, 749092
2096921,2096921, 153705, 749201
2096921,2096921, 153813, 749005
2096921,2096921, 153973, 748853
2096921,2096921, 153779, 748627
2096921,2096921, 153433, 749007
2096921,2096921, 153548, 749075
2096921,2096921, 153757, 749328
2096921,2096921, 154038, 749505
2096921,2096921, 154098, 749417
2096921,2096921, 154131, 749633
2096921,2096921, 153943, 749592
2096921,2096921, 153675, 749522
2096921,2096921, 153818, 749476
2096921,2096921, 153712, 749824
2096921,2096921, 153754, 749655
2096921,2096921, 154219, 749743
2096921,2096921, 153833, 750033
2096921,2096921, 154078, 749790
2096921,2096921, 153984, 750011
2096921,2096921, 154166, 750143
2096921,2096921, 153771, 750084
2096921,2096921, 153695, 750231
2096921,2096921, 153854, 750547
2096921,2096921, 154224, 750093
2096921,2096921, 154196, 750319
2096921,2096921, 154194, 749962
2096921,2096921, 154085, 749916
2096921,2096921, 154063, 750469
2096921,2096921, 154410, 750492
2096921,2096921, 154350, 750600
2096921,2096921, 154218, 750672
2096921,2096921, 154162, 750502
2096921,2096921, 154506, 750643
2096921,2096921, 154287, 750829
2096921,2096921, 154187, 750877
2096921,2096921, 154112, 750859
2096921,2096921, 154232, 750700
2096921,2096921, 154284, 750763
2096921,2096921, 154231, 751029
2096921,2096921, 154439, 751065
2096921,2096921, 154292, 750996
2096921,2096921, 154391, 751230
2096921,2096921, 154439, 751214
2096921,2096921, 154272, 751089
2096921,2096921, 154587, 751279
2096921,2096921, 154247, 751354
2096921,2096921, 154240, 750963
2096921,2096921, 154415, 751128
2096921,2096921, 154382, 751301
2096921,2096921, 154383, 751497
2096921,2096921, 154357, 751592
2096921,2096921, 154373, 751573
2096921,2096921, 154577, 751426
2096921,2096921, 154639, 751632
2096921,2096921, 154630, 751739
2096921,2096921, 154680, 751560
2096921,2096921, 154361, 751450
2096921,2096921, 154888, 751429
2096921,2096921, 155000, 751705
2096921,2096921, 154612, 751760
2096921,2096921, 154638, 752039
2096921,2096921, 154588, 751808
2096921,2096921, 154305, 751596
2096921,2096921, 154443, 751989
2096921,2096921, 154495, 751968
2096921,2096921, 154333, 751878
2096921,2096921, 154598, 751831
2096921,2096921, 154604, 751783
2096921,2096921, 154941, 751713
2096921,2096921, 154932, 752168
2096921,2096921, 154677, 751982
2096921,2096921, 154681, 752214
2096921,2096921, 154336, 752110
2096921,2096921, 154593, 751856
2096921,2096921, 154315, 751746
2096921,2096921, 154567, 752104
2096921,2096921, 154225, 752171
2096921,2096921, 154268, 752192
2096921,2096921, 154220, 752203
2096921,2096921, 154442, 751922
2096921,2096921, 154652, 752064
2096921,2096921, 154493, 752158
2096921,2096921, 154678, 752246
2096921,2096921, 154637, 752341
2096921,2096921, 154340, 752212
2096921,2096921, 154540, 752065
2096921,2096921, 154485, 752119
2096921,2096921, 154907, 752385
2096921,2096921, 154692, 752342
2096921,2096921, 154647, 752650
2096921,2096921, 154584, 752342
2096921,2096921, 154513, 752526
2096921,2096921, 154666, 752364
2096921,2096921, 154532, 752606
2096921,2096921, 154579, 752360
2096921,2096921, 154554, 752278
2096921,2096921, 154651, 752350
2096921,2096921, 154540, 752222
2096921,2096921, 154778, 752303
2096921,2096921, 154736, 752564
2096921,2096921, 154842, 752349
2096921,2096921, 154660, 752336
2096921,2096921, 154857, 752172
2096921,2096921, 154776, 752285
2096921,2096921, 154778, 752285
2096921,2096921, 154750, 752061
2096921,2096921, 154348, 752316
2096921,2096921, 154473, 752358
2096921,2096921, 154336, 752107
2096921,2096921, 154782, 752107
2096921,2096921, 154625, 752070
2096921,2096921, 154760, 752212
2096921,2096921, 154438, 751924
2096921,2096921, 154113, 751455
2096921,2096921, 154294, 751307
2096921,2096921, 154367, 751140
2096921,2096921, 154536, 751237
2096921,2096921, 153956, 751002
2096921,2096921, 153915, 750553
2096921,2096921, 153930, 750634
2096921,2096921, 154191, 750375
2096921,2096921, 153985, 750665
2096921,2096921, 153261, 750308
2096921,2096921, 153228, 749705
2096921,2096921, 153260, 749420
2096921,2096921, 153234, 749364
2096921,2096921, 153208, 749694
2096921,2096921, 152904, 749007
2096921,2096921, 152892, 748303
2096921,2096921, 153005, 748288
2096921,2096921, 152692, 748414
2096921,2096921, 152616, 748340
2096921,2096921, 151932, 747709
2096921,2096921, 151556, 745976
2096921,2096921, 151571, 745538
2096921,2096921, 151685, 745359
2096921,2096921, 151558, 745327
2096921,2096921, 150467, 743994
2096921,2096921, 150403, 742663
2096921,2096921, 150413, 742274
2096921,2096921, 150091, 742091
2096921,2096921, 149947, 742494
2096921,2096921, 149184, 741223
2096921,2096921, 149080, 740096
2096921,2096921, 148871, 739659
2096921,2096921, 148486, 739507
2096921,2096921, 148726, 739437
2096921,2096921, 148042, 739029
2096921,2096921, 148055, 738125
2096921,2096921, 148114, 737933
2096921,2096921, 148209, 737656
2096921,2096921, 148282, 737694
2096921,2096921, 147662, 737499
2096921,2096921, 147406, 736652
2096921,2096921, 147410, 736367
2096921,2096921, 147433, 736688
2096921,2096921, 147209, 736483
2096921,2096921, 146984, 736081
2096921,2096921, 146994, 735705
2096921,2096921, 146980, 735570
2096921,2096921, 147085, 735491
2096921,2096921, 147141, 735794
2096921,2096921, 146394, 735438
2096921,2096921, 146790, 734786
2096921,2096921, 146611, 734698
2096921,2096921, 146720, 734974
2096921,2096921, 146448, 734845
2096921,2096921, 146649, 734687
2096921,2096921, 146559, 734762
2096921,2096921, 146671, 734348
2096921,2096921, 146492, 734151
2096921,2096921, 146419, 734225
2096921,2096921, 146381, 734157
2096921,2096921, 146390, 734544
2096921,2096921, 146494, 734321
2096921,2096921, 146346, 734120
2096921,2096921, 146127, 734243
2096921,2096921, 146166, 734377
2096921,2096921, 146494, 733983
2096921,2096921, 146579, 734175
2096921,2096921, 146354, 734291
2096921,2096921, 146590, 734175
2096921,2096921, 146623, 734502
2096921,2096921, 146511, 734388
2096921,2096921, 146311, 734132
2096921,2096921, 146695, 734258
2096921,2096921, 146589, 734417
2096921,2096921, 146830, 734549
2096921,2096921, 146604, 734960
2096921,2096921, 146575, 734614
2096921,2096921, 146806, 734445
2096921,2096921, 146672, 734458
2096921,2096921, 146632, 734689
2096921,2096921, 146908, 734800
2096921,2096921, 146751, 735179
2096921,2096921, 146704, 734679
2096921,2096921, 146705, 734851
2096921,2096921, 146730, 734965
2096921,2096921, 146834, 735062
2096921,2096921, 147139, 735278
2096921,2096921, 147215, 735541
2096921,2096921, 146915, 735627
2096921,2096921, 147243, 735378
2096921,2096921, 147064, 735953
2096921,2096921, 147251, 736072
2096921,2096921, 147012, 736087
2096921,2096921, 147206, 736256
2096921,2096921, 147158, 736169
2096921,2096921, 147647, 736452
2096921,2096921, 147751, 736619
2096921,2096921, 147569, 736771
2096921,2096921, 147565, 736886
2096921,2096921, 147792, 736788
2096921,2096921, 147587, 737046
2096921,2096921, 147427, 737148
2096921,2096921, 147775, 737138
2096921,2096921, 147626, 736882
2096921,2096921, 148064, 737418
2096921,2096921, 148064, 737745
2096921,2096921, 148017, 737780
2096921,2096921, 147954, 737704
2096921,2096921, 148104, 737682
2096921,2096921, 148300, 737816
2096921,2096921, 148380, 738254
2096921,2096921, 148270, 738014
2096921,2096921, 148153, 738218
2096921,2096921, 148074, 738138
2096921,2096921, 148276, 738424
2096921,2096921, 148217, 738637
2096921,2096921, 148385, 738834
2096921,2096921, 148363, 738897
2096921,2096921, 148437, 738789
2096921,2096921, 148738, 738936
2096921,2096921, 148514, 739178
2096921,2096921, 148725, 739121
2096921,2096921, 148896, 739194
2096921,2096921, 148850, 739149
2096921,2096921, 148906, 739499
2096921,2096921, 148728, 739648
2096921,2096921, 149094, 739933
2096921,2096921, 149086, 740208
2096921,2096921, 149111, 739971
2096921,2096921, 148878, 740393
2096921,2096921, 149066, 740555
2096921,2096921, 149268, 740366
2096921,2096921, 148914, 740643
2096921,2096921, 149093, 740492
2096921,2096921, 149217, 740685
2096921,2096921, 149467, 741208
2096921,2096921, 149527, 741198
2096921,2096921, 149579, 741067
2096921,2096921, 149473, 741118
2096921,2096921, 149410, 741496
2096921,2096921, 149758, 741729
2096921,2096921, 149646, 742124
2096921,2096921, 149763, 741711
2096921,2096921, 149649, 741651
2096921,2096921, 149725, 741931
2096921,2096921, 150048, 742035
2096921,2096921, 149996, 742186
2096921,2096921, 149788, 742474
2096921,2096921, 150015, 742164
2096921,2096921, 150577, 742191
2096921,2096921, 150412, 742334
2096921,2096921, 150574, 742522
2096921,2096921, 150010, 742847
2096921,2096921, 150280, 742918
2096921,2096921, 150280, 742612
2096921,2096921, 150450, 742827
2096921,2096921, 150326, 743145
2096921,2096921, 150261, 742887
2096921,2096921, 150247, 742957
2096921,2096921, 150201, 743168
2096921,2096921, 150613, 743212
2096921,2096921, 150557, 743263
2096921,2096921, 150613, 742806
2096921,2096921, 150502, 743146
2096921,2096921, 150624, 743194
2096921,2096921, 150549, 743181
2096921,2096921, 150399, 742960
2096921,2096921, 150516, 743390
2096921,2096921, 150562, 743653
2096921,2096921, 150771, 743457
2096921,2096921, 150723, 743338
2096921,2096921, 150430, 743413
2096921,2096921, 150409, 743266
2096921,2096921, 150372, 743179
2096921,2096921, 150286, 743427
2096921,2096921, 150679, 743421
2096921,2096921, 150726, 743284
2096921,2096921, 150708, 743284
2096921,2096921, 150790, 743060
2096921,2096921, 150417, 743365
2096921,2096921, 150482, 742943
2096921,2096921, 150442, 743113
2096921,2096921, 150339, 743159
2096921,2096921, 150233, 742816
2096921,2096921, 150458, 742821
2096921,2096921, 150272, 742963
2096921,2096921, 150199, 743082
2096921,2096921, 150218, 742851
2096921,2096921, 150155, 743191
2096921,2096921, 150065, 742643
2096921,2096921, 150207, 742696
2096921,2096921, 150125, 742365
2096921,2096921, 150263, 742494
2096921,2096921, 150152, 742500
2096921,2096921, 150474, 742614
2096921,2096921, 150154, 742333
2096921,2096921, 150093, 742575
2096921,2096921, 150117, 742459
2096921,2096921, 150162, 742755
2096921,2096921, 150146, 742330
2096921,2096921, 150180, 742247
2096921,2096921, 150194, 742496
2096921,2096921, 149775, 742038
2096921,2096921, 150076, 742171
2096921,2096921, 149967, 742400
2096921,2096921, 149997, 741981
2096921,2096921, 150301, 741896
2096921,2096921, 149935, 741951
2096921,2096921, 150287, 741918
2096921,2096921, 150382, 741651
2096921,2096921, 150075, 741626
2096921,2096921, 149989, 741783
2096921,2096921, 150115, 741823
2096921,2096921, 150294, 741937
2096921,2096921, 150354, 741770
2096921,2096921, 150305, 741787
2096921,2096921, 150215, 741766
2096921,2096921, 150210, 741974
2096921,2096921, 150161, 742267
2096921,2096921, 150254, 742245
2096921,2096921, 149965, 742045
2096921,2096921, 149791, 742057
2096921,2096921, 149762, 741882
2096921,2096921, 150270, 742203
2096921,2096921, 149994, 742037
2096921,2096921, 149788, 742144
2096921,2096921, 149982, 741945
2096921,2096921, 150210, 741752
2096921,2096921, 150207, 741973
2096921,2096921, 150058, 742240
2096921,2096921, 150038, 742486
2096921,2096921, 149969, 742321
2096921,2096921, 149971, 742220
2096921,2096921, 149999, 742117
2096921,2096921, 150673, 742389
2096921,2096921, 150650, 742897
2096921,2096921, 150566, 742674
2096921,2096921, 150519, 743014
2096921,2096921, 150438, 742902
2096921,2096921, 150433, 743072
2096921,2096921, 150802, 743205
2096921,2096921, 150724, 742809
2096921,2096921, 150651, 742905
2096921,2096921, 150669, 743003
2096921,2096921, 150696, 743334
2096921,2096921, 150525, 743065
2096921,2096921, 150856, 743396
2096921,2096921, 150713, 743283
2096921,2096921, 150823, 743686
2096921,2096921, 150804, 743561
2096921,2096921, 150782, 743639
2096921,2096921, 151018, 743519
2096921,2096921, 150977, 743560
2096921,2096921, 150895, 743510
2096921,2096921, 150850, 743389
2096921,2096921, 151000, 743711
2096921,2096921, 151013, 743410
2096921,2096921, 150875, 743319
2096921,2096921, 150783, 743596
2096921,2096921, 151076, 743654
2096921,2096921, 151182, 743827
2096921,2096921, 151020, 743957
2096921,2096921, 151239, 743852
2096921,2096921, 151319, 743763
2096921,2096921, 151318, 743948
2096921,2096921, 151212, 743930
2096921,2096921, 151325, 743887
2096921,2096921, 151384, 744190
2096921,2096921, 151644, 744244
2096921,2096921, 151475, 744349
2096921,2096921, 151541, 744519
2096921,2096921, 151677, 744228
2096921,2096921, 151843, 744410
2096921,2096921, 150989, 744259
2096921,2096921, 151478, 744575
2096921,2096921, 151653, 744643
2096921,2096921, 151396, 744451
2096921,2096921, 151436, 744143
2096921,2096921, 151403, 744273
2096921,2096921, 151603, 744590
2096921,2096921, 151714, 744749
2096921,2096921, 151467, 744763
2096921,2096921, 151448, 744726
2096921,2096921, 151454, 744302
2096921,2096921, 151815, 744678
2096921,2096921, 151556, 744709
2096921,2096921, 151859, 744687
2096921,2096921, 151781, 744517
2096921,2096921, 151854, 744499
2096921,2096921, 151714, 744718
2096921,2096921, 151772, 744590
2096921,2096921, 151663, 745009
2096921,2096921, 151784, 744814
2096921,2096921, 152011, 744766
2096921,2096921, 151922, 744870
2096921,2096921, 151861, 744786
2096921,2096921, 151827, 745176
2096921,2096921, 151706, 744997
2096921,2096921, 151969, 745137
2096921,2096921, 151946, 744834
2096921,2096921, 151766, 744783
2096921,2096921, 151915, 744936
2096921,2096921, 151796, 744843
2096921,2096921, 151788, 744824
2096921,2096921, 152002, 744992
2096921,2096921, 151955, 744939
2096921,2096921, 151918, 745430
2096921,2096921, 151975, 745093
2096921,2096921, 152284, 745256
2096921,2096921, 152270, 744994
2096921,2096921, 152496, 744920
2096921,2096921, 152465, 745040
2096921,2096921, 152301, 745281
2096921,2096921, 152223, 745298
2096921,2096921, 152224, 745175
2096921,2096921, 152433, 744649
2096921,2096921, 152256, 744960
2096921,2096921, 152191, 744900
2096921,2096921, 152283, 745329
2096921,2096921, 152074, 745508
2096921,2096921, 151934, 745344
2096921,2096921, 152050, 745126
2096921,2096921, 152202, 744892
2096921,2096921, 152098, 745282
2096921,2096921, 152147, 745449
2096921,2096921, 152244, 745144
2096921,2096921, 152449, 745207
2096921,2096921, 152279, 745213
2096921,2096921, 152070, 745294
2096921,2096921, 152480, 745221
2096921,2096921, 152046, 745241
2096921,2096921, 152172, 745085
2096921,2096921, 152310, 745112
2096921,2096921, 152414, 745489
2096921,2096921, 152634, 745631
2096921,2096921, 152485, 745398
2096921,2096921, 152412, 745543
2096921,2096921, 152549, 745448
2096921,2096921, 152778, 745346
2096921,2096921, 152709, 745402
2096921,2096921, 152524, 745492
2096921,2096921, 152516, 745144
2096921,2096921, 152489, 744901
2096921,2096921, 152512, 745006
2096921,2096921, 152468, 744853
2096921,2096921, 152653, 744957
2096921,2096921, 153090, 745273
2096921,2096921, 152752, 745223
2096921,2096921, 152901, 745295
2096921,2096921, 152798, 745422
2096921,2096921, 152177, 745240
2096921,2096921, 152249, 745068
2096921,2096921, 152278, 745012
2096921,2096921, 152498, 745265
2096921,2096921, 152828, 745063
2096921,2096921, 152430, 745022
2096921,2096921, 152545, 745048
2096921,2096921, 152475, 744906
2096921,2096921, 152470, 745226
2096921,2096921, 152260, 745247
2096921,2096921, 152738, 744978
2096921,2096921, 152604, 745298
2096921,2096921, 152538, 744642
2096921,2096921, 152476, 744934
2096921,2096921, 152475, 744956
2096921,2096921, 152969, 744784
2096921,2096921, 152598, 744975
2096921,2096921, 152720, 744924
2096921,2096921, 152660, 744901
2096921,2096921, 152611, 745031
2096921,2096921, 152412, 744795
2096921,2096921, 152558, 744586
2096921,2096921, 152632, 744860
2096921,2096921, 152530, 744755
2096921,2096921, 152705, 744849
2096921,2096921, 152643, 744778
2096921,2096921, 152556, 744793
2096921,2096921, 152755, 744544
2096921,2096921, 152890, 744481
2096921,2096921, 152375, 744680
2096921,2096921, 152641, 744393
2096921,2096921, 152357, 744279
2096921,2096921, 152491, 744422
2096921,2096921, 152501, 744405
2096921,2096921, 152214, 744525
2096921,2096921, 153011, 744547
2096921,2096921, 152718, 744320
2096921,2096921, 152834, 744392
2096921,2096921, 152432, 744275
2096921,2096921, 152426, 744222
2096921,2096921, 152528, 744505
2096921,2096921, 152687, 744293
2096921,2096921, 152512, 744249
2096921,2096921, 152559, 744038
2096921,2096921, 152619, 744262
2096921,2096921, 152483, 744104
2096921,2096921, 152416, 744030
2096921,2096921, 152552, 743976
2096921,2096921, 152795, 744126
2096921,2096921, 152650, 743899
2096921,2096921, 152577, 743938
2096921,2096921, 152685, 743913
2096921,2096921, 152515, 743926
2096921,2096921, 152675, 743823
2096921,2096921, 152635, 744051
2096921,2096921, 152349, 743974
2096921,2096921, 152777, 743765
2096921,2096921, 152687, 743798
2096921,2096921, 152785, 743901
2096921,2096921, 152494, 743871
2096921,2096921, 152601, 743761
2096921,2096921, 152470, 743608
2096921,2096921, 152656, 743464
2096921,2096921, 152563, 743496
2096921,2096921, 152594, 743418
2096921,2096921, 152773, 743155
2096921,2096921, 152428, 743126
2096921,2096921, 152441, 743400
2096921,2096921, 152562, 743273
2096921,2096921, 152372, 743613
2096921,2096921, 152385, 743023
2096921,2096921, 152586, 742948
2096921,2096921, 152341, 743266
2096921,2096921, 152382, 743316
2096921,2096921, 152566, 743364
2096921,2096921, 152763, 743170
2096921,2096921, 152414, 743042
2096921,2096921, 152519, 743251
2096921,2096921, 152498, 743450
2096921,2096921, 152443, 743194
2096921,2096921, 152572, 742970
2096921,2096921, 152672, 742818
2096921,2096921, 152602, 743138
2096921,2096921, 152337, 743065
2096921,2096921, 152201, 742770
2096921,2096921, 152545, 742612
2096921,2096921, 152481, 742713
2096921,2096921, 152615, 742602
2096921,2096921, 152470, 742630
2096921,2096921, 152656, 742469
2096921,2096921, 152272, 742720
2096921,2096921, 152334, 742420
2096921,2096921, 152388, 742540
2096921,2096921, 152566, 742293
2096921,2096921, 152506, 742482
2096921,2096921, 152467, 742091
2096921,2096921, 152415, 742163
2096921,2096921, 152609, 742274
2096921,2096921, 152645, 742128
2096921,2096921, 152310, 742016
2096921,2096921, 152307, 742028
2096921,2096921, 152125, 741872
2096921,2096921, 152394, 742097
2096921,2096921, 152236, 741955
2096921,2096921, 152075, 741717
2096921,2096921, 152243, 741345
2096921,2096921, 152340, 741713
2096921,2096921, 152449, 741771
2096921,2096921, 152474, 741662
2096921,2096921, 152624, 741806
2096921,2096921, 152529, 741235
2096921,2096921, 152559, 741150
2096921,2096921, 152066, 741247
2096921,2096921, 152224, 741216
2096921,2096921, 152149, 741426
2096921,2096921, 152049, 741131
2096921,2096921, 152180, 740916
2096921,2096921, 152175, 741282
2096921,2096921, 152512, 741283
2096921,2096921, 152352, 741007
2096921,2096921, 151837, 740672
2096921,2096921, 151934, 740550
2096921,2096921, 152046, 740735
2096921,2096921, 151759, 740752
2096921,2096921, 151663, 740752
2096921,2096921, 152113, 740496
2096921,2096921, 152136, 740610
2096921,2096921, 152318, 740595
2096921,2096921, 152156, 740715
2096921,2096921, 151971, 740878
2096921,2096921, 152181, 740543
2096921,2096921, 152036, 740542
2096921,2096921, 152007, 740420
2096921,2096921, 152034, 740099
2096921,2096921, 151927, 740160
2096921,2096921, 152104, 740048
2096921,2096921, 152352, 740284
2096921,2096921, 152038, 739988
2096921,2096921, 152017, 740279
2096921,2096921, 152076, 739919
2096921,2096921, 151924, 739759
2096921,2096921, 151977, 739969
2096921,2096921, 151876, 739798
2096921,2096921, 151815, 739783
2096921,2096921, 151272, 739011
2096921,2096921, 151722, 738802
2096921,2096921, 151852, 739109
2096921,2096921, 151591, 738793
2096921,2096921, 151535, 738731
2096921,2096921, 151386, 738783
2096921,2096921, 151180, 738164
2096921,2096921, 150956, 738188
2096921,2096921, 151124, 738257
2096921,2096921, 151100, 738026
2096921,2096921, 151067, 737467
2096921,2096921, 150902, 736629
2096921,2096921, 150949, 736557
2096921,2096921, 150977, 737287
2096921,2096921, 151188, 737052
2096921,2096921, 150368, 736388
2096921,2096921, 150061, 735675
2096921,2096921, 150381, 735505
2096921,2096921, 150210, 735623
2096921,2096921, 150202, 735688
2096921,2096921, 149937, 734875
2096921,2096921, 149795, 734219
2096921,2096921, 149803, 734080
2096921,2096921, 149914, 734196
2096921,2096921, 149556, 734354
2096921,2096921, 148590, 732903
2096921,2096921, 148512, 731812
2096921,2096921, 148137, 731196
2096921,2096921, 148378, 731086
2096921,2096921, 148130, 731049
2096921,2096921, 147166, 729729
2096921,2096921, 147112, 728103
2096921,2096921, 147018, 727698
2096921,2096921, 147284, 727497
2096921,2096921, 147220, 727402
2096921,2096921, 146277, 726632
2096921,2096921, 145903, 725477
2096921,2096921, 145811, 724940
2096921,2096921, 146014, 724904
2096921,2096921, 145777, 725143
2096921,2096921, 145104, 723942
2096921,2096921, 144896, 723171
2096921,2096921, 144734, 723023
2096921,2096921, 144623, 722849
2096921,2096921, 144896, 722677
2096921,2096921, 144306, 722245
2096921,2096921, 144546, 721540
2096921,2096921, 143970, 721352
2096921,2096921, 144203, 721095
2096921,2096921, 144355, 721185
2096921,2096921, 144029, 720664
2096921,2096921, 143594, 720026
2096921,2096921, 143701, 720102
2096921,2096921, 143920, 720020
2096921,2096921, 144019, 719805
2096921,2096921, 143387, 719699
2096921,2096921, 143390, 719391
2096921,2096921, 143294, 719168
2096921,2096921, 143458, 719314
2096921,2096921, 143402, 718934
2096921,2096921, 143012, 718844
2096921,2096921, 143103, 718699
2096921,2096921, 143319, 718585
2096921,2096921, 143315, 718396
2096921,2096921, 143407, 718462
2096921,2096921, 143190, 718192
2096921,2096921, 143094, 717960
2096921,2096921, 142951, 717711
2096921,2096921, 143166, 717821
2096921,2096921, 142964, 718236
2096921,2096921, 142874, 717839
2096921,2096921, 143052, 717977
2096921,2096921, 142995, 717877
2096921,2096921, 143394, 717782
2096921,2096921, 142935, 717701
2096921,2096921, 143003, 718015
2096921,2096921, 142922, 717900
2096921,2096921, 142973, 717794
2096921,2096921, 142656, 717810
2096921,2096921, 142751, 717692
2096921,2096921, 142843, 717643
2096921,2096921, 143156, 717626
2096921,2096921, 143207, 717710
2096921,2096921, 143121, 717928
2096921,2096921, 142864, 717820
2096921,2096921, 142935, 717923
2096921,2096921, 143230, 717662
2096921,2096921, 143248, 717961
2096921,2096921, 143049, 717744
2096921,2096921, 142956, 717456
2096921,2096921, 143160, 717607
2096921,2096921, 143201, 717559
2096921,2096921, 143090, 717709
2096921,2096921, 143261, 717965
2096921,2096921, 143149, 717918
2096921,2096921, 143580, 718129
2096921,2096921, 143776, 718213
2096921,2096921, 143258, 717836
2096921,2096921, 143551, 718105
2096921,2096921, 143285, 718323
2096921,2096921, 143527, 718224
2096921,2096921, 143558, 718567
2096921,2096921, 143504, 718585
2096921,2096921, 143446, 718707
2096921,2096921, 143700, 718399
2096921,2096921, 143574, 718904
2096921,2096921, 143474, 718847
2096921,2096921, 143806, 718858
2096921,2096921, 143935, 718954
2096921,2096921, 143785, 719101
2096921,2096921, 143839, 719130
2096921,2096921, 144300, 719084
2096921,2096921, 144145, 719328
2096921,2096921, 143956, 719248
2096921,2096921, 144204, 719428
2096921,2096921, 143962, 719631
2096921,2096921, 144036, 719813
2096921,2096921, 144141, 719743
2096921,2096921, 144349, 719668
2096921,2096921, 144015, 719553
2096921,2096921, 144419, 719625
2096921,2096921, 144365, 720086
2096921,2096921, 144272, 719962
2096921,2096921, 144219, 720198
2096921,2096921, 144451, 720436
2096921,2096921, 144864, 720545
2096921,2096921, 144694, 720392
2096921,2096921, 144337, 720364
2096921,2096921, 144605, 720085
2096921,2096921, 144505, 720291
2096921,2096921, 144919, 720541
2096921,2096921, 145074, 720758
2096921,2096921, 145054, 720661
2096921,2096921, 144844, 720567
2096921,2096921, 145003, 720457
2096921,2096921, 144929, 720852
2096921,2096921, 145179, 721260
2096921,2096921, 145236, 721001
2096921,2096921, 145178, 721124
2096921,2096921, 145213, 721290
2096921,2096921, 145238, 721229
2096921,2096921, 145147, 721548
2096921,2096921, 145250, 721662
2096921,2096921, 145366, 721624
2096921,2096921, 145259, 721432
2096921,2096921, 145555, 721761
2096921,2096921, 145486, 721646
2096921,2096921, 145448, 721697
2096921,2096921, 145457, 721929
2096921,2096921, 145428, 722025
2096921,2096921, 145384, 722102
2096921,2096921, 145970, 721843
2096921,2096921, 145657, 722214
2096921,2096921, 145548, 722161
2096921,2096921, 145821, 722710
2096921,2096921, 145766, 722474
2096921,2096921, 146038, 722360
2096921,2096921, 145908, 722409
2096921,2096921, 145848, 722395
2096921,2096921, 145771, 722552
2096921,2096921, 145842, 722422
2096921,2096921, 146059, 722505
2096921,2096921, 146052, 722581
2096921,2096921, 146026, 722569
2096921,2096921, 145907, 722589
2096921,2096921, 145980, 722684
2096921,2096921, 146324, 722718
2096921,2096921, 145774, 722743
2096921,2096921, 145643, 722460
2096921,2096921, 145922, 722520
2096921,2096921, 145882, 722540
2096921,2096921, 146278, 722264
2096921,2096921, 146322, 722584
2096921,2096921, 146042, 722839
2096921,2096921, 146118, 722519
2096921,2096921, 146028, 722414
2096921,2096921, 145947, 722313
2096921,2096921, 145895, 722445
2096921,2096921, 145823, 722426
2096921,2096921, 145870, 722618
2096921,2096921, 146031, 722736
2096921,2096921, 146154, 722440
2096921,2096921, 146200, 722379
2096921,2096921, 146110, 722467
2096921,2096921, 146078, 722286
2096921,2096921, 145998, 722362
2096921,2096921, 146023, 721870
2096921,2096921, 146081, 722265
2096921,2096921, 146104, 722031
2096921,2096921, 145958, 722158
2096921,2096921, 145744, 722104
2096921,2096921, 145896, 722197
2096921,2096921, 145903, 721818
2096921,2096921, 146001, 721958
2096921,2096921, 145858, 721928
2096921,2096921, 146127, 721889
2096921,2096921, 145805, 721308
2096921,2096921, 145649, 721512
2096921,2096921, 145623, 721266
2096921,2096921, 145736, 720954
2096921,2096921, 145813, 721178
2096921,2096921, 145523, 721211
2096921,2096921, 145602, 721226
2096921,2096921, 145604, 721133
2096921,2096921, 145860, 721058
2096921,2096921, 145680, 721015
2096921,2096921, 145463, 720976
2096921,2096921, 145283, 720934
2096921,2096921, 145484, 720861
2096921,2096921, 145258, 721420
2096921,2096921, 145304, 720973
2096921,2096921, 145538, 720678
2096921,2096921, 145676, 720714
2096921,2096921, 145620, 720801
2096921,2096921, 145538, 720779
2096921,2096921, 145450, 720880
2096921,2096921, 145543, 720764
2096921,2096921, 145818, 720205
2096921,2096921, 145603, 720466
2096921,2096921, 145583, 720794
2096921,2096921, 145423, 720629
2096921,2096921, 145544, 720793
2096921,2096921, 145587, 720612
2096921,2096921, 145326, 720692
2096921,2096921, 145699, 720708
2096921,2096921, 145605, 720803
2096921,2096921, 145311, 720691
2096921,2096921, 145450, 720982
2096921,2096921, 145790, 720840
2096921,2096921, 145514, 720825
2096921,2096921, 145759, 720695
2096921,2096921, 145775, 721037
2096921,2096921, 145524, 720717
2096921,2096921, 145714, 720806
2096921,2096921, 145462, 720987
2096921,2096921, 145762, 721358
2096921,2096921, 145703, 721242
2096921,2096921, 145741, 721275
2096921,2096921, 145676, 721116
2096921,2096921, 145819, 721215
2096921,2096921, 145715, 721562
2096921,2096921, 146027, 721450
2096921,2096921, 145881, 721624
2096921,2096921, 145889, 721882
2096921,2096921, 146134, 721518
2096921,2096921, 146301, 721904
2096921,2096921, 146503, 721798
2096921,2096921, 146285, 721827
2096921,2096921, 146085, 721655
2096921,2096921, 145987, 722028
2096921,2096921, 146235, 721864
2096921,2096921, 146239, 722030
2096921,2096921, 146310, 722479
2096921,2096921, 146243, 722396
2096921,2096921, 146457, 722295
2096921,2096921, 146547, 722435
2096921,2096921, 146435, 722557
2096921,2096921, 146576, 722256
2096921,2096921, 146635, 722666
2096921,2096921, 146424, 722552
2096921,2096921, 146625, 722827
2096921,2096921, 146654, 722694
2096921,2096921, 146895, 722804
2096921,2096921, 146725, 722537
2096921,2096921, 146732, 722999
2096921,2096921, 146627, 723097
2096921,2096921, 146620, 723108
2096921,2096921, 146777, 723311
2096921,2096921, 146830, 723110
2096921,2096921, 146745, 722982
2096921,2096921, 146550, 723250
2096921,2096921, 146917, 723101
2096921,2096921, 147087, 723296
2096921,2096921, 146823, 723515
2096921,2096921, 146918, 723224
2096921,2096921, 147054, 723453
2096921,2096921, 146897, 723805
2096921,2096921, 146837, 723507
2096921,2096921, 147097, 723612
2096921,2096921, 147002, 723802
2096921,2096921, 147336, 723975
2096921,2096921, 147042, 724143
2096921,2096921, 147481, 724220
2096921,2096921, 147011, 723808
2096921,2096921, 147285, 724254
2096921,2096921, 146982, 724201
2096921,2096921, 147205, 724275
2096921,2096921, 147446, 724191
2096921,2096921, 147200, 724576
2096921,2096921, 147157, 724142
2096921,2096921, 147274, 724246
2096921,2096921, 147349, 724675
2096921,2096921, 147502, 724700
2096921,2096921, 147412, 724765
2096921,2096921, 147454, 724556
2096921,2096921, 147821, 725043
2096921,2096921, 147765, 724931
2096921,2096921, 147392, 724890
2096921,2096921, 147416, 724829
2096921,2096921, 147526, 724893
2096921,2096921, 147465, 724949
2096921,2096921, 147742, 725042
2096921,2096921, 147766, 724985
2096921,2096921, 147614, 725179
2096921,2096921, 147677, 725255
2096921,2096921, 147696, 725507
2096921,2096921, 147920, 725626
2096921,2096921, 147518, 725614
2096921,2096921, 147715, 725553
2096921,2096921, 147371, 725663
2096921,2096921, 147731, 725779
2096921,2096921, 148185, 725521
2096921,2096921, 148120, 725715
2096921,2096921, 148020, 725953
2096921,2096921, 148144, 725896
2096921,2096921, 148063, 725825
2096921,2096921, 148176, 726192
2096921,2096921, 147884, 725885
2096921,2096921, 148128, 725749
2096921,2096921, 147974, 725984
2096921,2096921, 147810, 726117
2096921,2096921, 147944, 726484
2096921,2096921, 148170, 726553
2096921,2096921, 147864, 726356
2096921,2096921, 148114, 726626
2096921,2096921, 148247, 726360
2096921,2096921, 148128, 726774
2096921,2096921, 148145, 726751
2096921,2096921, 148055, 726773
2096921,2096921, 148319, 726528
2096921,2096921, 148386, 726657
2096921,2096921, 148353, 726575
2096921,2096921, 148358, 726561
2096921,2096921, 148309, 726833
2096921,2096921, 148530, 727131
2096921,2096921, 148343, 727058
2096921,2096921, 148714, 727008
2096921,2096921, 148543, 727001
2096921,2096921, 148411, 726809
2096921,2096921, 148489, 726848
2096921,2096921, 148690, 726766
2096921,2096921, 148646, 727103
2096921,2096921, 148603, 727107
2096921,2096921, 148589, 727075
2096921,2096921, 148470, 727275
2096921,2096921, 148878, 727369
2096921,2096921, 148847, 727540
2096921,2096921, 148969, 727396
2096921,2096921, 148438, 727483
2096921,2096921, 148403, 727708
2096921,2096921, 148721, 727662
2096921,2096921, 148721, 727555
2096921,2096921, 149033, 727829
2096921,2096921, 148867, 727624
2096921,2096921, 148756, 727758
2096921,2096921, 149153, 727939
2096921,2096921, 148962, 727744
2096921,2096921, 148779, 727825
2096921,2096921, 148666, 727790
2096921,2096921, 148931, 727674
2096921,2096921, 148882, 727641
2096921,2096921, 149050, 727827
2096921,2096921, 148713, 727989
2096921,2096921, 149028, 728213
2096921,2096921, 149156, 727886
2096921,2096921, 149171, 728039
2096921,2096921, 148837, 727921
2096921,2096921, 148875, 727872
2096921,2096921, 148866, 727929
2096921,2096921, 148845, 727893
2096921,2096921, 148876, 727900
2096921,2096921, 148934, 728487
2096921,2096921, 149072, 728375
2096921,2096921, 149035, 728203
2096921,2096921, 149055, 728356
2096921,2096921, 149356, 728859
2096921,2096921, 149283, 728547
2096921,2096921, 148913, 728149
2096921,2096921, 148962, 728170
2096921,2096921, 149171, 728286
2096921,2096921, 149106, 728540
2096921,2096921, 148882, 728696
2096921,2096921, 149009, 728825
2096921,2096921, 149163, 728597
2096921,2096921, 149116, 728392
2096921,2096921, 149333, 728459
2096921,2096921, 149243, 728839
2096921,2096921, 149171, 728681
2096921,2096921, 149196, 728847
2096921,2096921, 149043, 728813
2096921,2096921, 149293, 728486
2096921,2096921, 149522, 728503
2096921,2096921, 149427, 728883
2096921,2096921, 149505, 728836
2096921,2096921, 149505, 728730
2096921,2096921, 149857, 728811
2096921,2096921, 149274, 728972
2096921,2096921, 149286, 728935
2096921,2096921, 149069, 729112
2096921,2096921, 149194, 728805
2096921,2096921, 149712, 728969
2096921,2096921, 149532, 729088
2096921,2096921, 149286, 729105
2096921,2096921, 149675, 729193
2096921,2096921, 149573, 729136
2096921,2096921, 149638, 728935
2096921,2096921, 149525, 729044
2096921,2096921, 149241, 729368
2096921,2096921, 149528, 729274
2096921,2096921, 149267, 729461
2096921,2096921, 149342, 729242
2096921,2096921, 149088, 729263
2096921,2096921, 149275, 729407
2096921,2096921, 149481, 729260
2096921,2096921, 149624, 729466
2096921,2096921, 149827, 729344
2096921,2096921, 149577, 729192
2096921,2096921, 149502, 729082
2096921,2096921, 149607, 729042
2096921,2096921, 149422, 728942
2096921,2096921, 149458, 729323
2096921,2096921, 149622, 729340
2096921,2096921, 149546, 729422
2096921,2096921, 149592, 729357
2096921,2096921, 149607, 729996
2096921,2096921, 149718, 730066
2096921,2096921, 149599, 729839
2096921,2096921, 149388, 729653
2096921,2096921, 149403, 729668
2096921,2096921, 149684, 729948
2096921,2096921, 149523, 729839
2096921,2096921, 149549, 729946
2096921,2096921, 149661, 729782
2096921,2096921, 149633, 729928
2096921,2096921, 149682, 729629
2096921,2096921, 149492, 729890
2096921,2096921, 149537, 730041
2096921,2096921, 149700, 729537
2096921,2096921, 149345, 729705
2096921,2096921, 149800, 730022
2096921,2096921, 149950, 729637
2096921,2096921, 149698, 729892
2096921,2096921, 149698, 729894
2096921,2096921, 149747, 730173
2096921,2096921, 150143, 729965
2096921,2096921, 150094, 730094
2096921,2096921, 149901, 729995
2096921,2096921, 149976, 729910
2096921,2096921, 149900, 730117
2096921,2096921, 149670, 729974
2096921,2096921, 149991, 730381
2096921,2096921, 150164, 730271
2096921,2096921, 149958, 730248
2096921,2096921, 149869, 730408
2096921,2096921, 149817, 730341
2096921,2096921, 149898, 730034
2096921,2096921, 149776, 730550
2096921,2096921, 149698, 730123
2096921,2096921, 149923, 730262
2096921,2096921, 149965, 730266
2096921,2096921, 149679, 730299
2096921,2096921, 149933, 730281
2096921,2096921, 149837, 730280
2096921,2096921, 149712, 730187
2096921,2096921, 149785, 730138
2096921,2096921, 150254, 730242
2096921,2096921, 149863, 730032
2096921,2096921, 149879, 730319
2096921,2096921, 150155, 730335
2096921,2096921, 149810, 730468
2096921,2096921, 149775, 730199
2096921,2096921, 149687, 730551
2096921,2096921, 149902, 730636
2096921,2096921, 149966, 730662
2096921,2096921, 149906, 730812
2096921,2096921, 149814, 731083
2096921,2096921, 150030, 730440
2096921,2096921, 149929, 730552
2096921,2096921, 149853, 730643
2096921,2096921, 149943, 730619
2096921,2096921, 150050, 730604
2096921,2096921, 150000, 730607
2096921,2096921, 150133, 730469
2096921,2096921, 150158, 730850
2096921,2096921, 149896, 730813
2096921,2096921, 149904, 730668
2096921,2096921, 149942, 730841
2096921,2096921, 149963, 730780
2096921,2096921, 149941, 730980
2096921,2096921, 150274, 731101
2096921,2096921, 149924, 730849
2096921,2096921, 150021, 730778
2096921,2096921, 150180, 731063
2096921,2096921, 149892, 731196
2096921,2096921, 150103, 730864
2096921,2096921, 150187, 731171
2096921,2096921, 149669, 731237
2096921,2096921, 149813, 731118
2096921,2096921, 149970, 731163
2096921,2096921, 149983, 730997
2096921,2096921, 149703, 730704
2096921,2096921, 149733, 730694
2096921,2096921, 149932, 730930
2096921,2096921, 149776, 730633
2096921,2096921, 149765, 730712
2096921,2096921, 150088, 730664
2096921,2096921, 149714, 730185
2096921,2096921, 149567, 730423
2096921,2096921, 149717, 730589
2096921,2096921, 149743, 730452
2096921,2096921, 149267, 729766
2096921,2096921, 149150, 729812
2096921,2096921, 149447, 729602
2096921,2096921, 149192, 729432
2096921,2096921, 149361, 729497
2096921,2096921, 148936, 729192
2096921,2096921, 148875, 728620
2096921,2096921, 148875, 728976
2096921,2096921, 148850, 728702
2096921,2096921, 148635, 728918
2096921,2096921, 148464, 728179
2096921,2096921, 148516, 727776
2096921,2096921, 148597, 727728
2096921,2096921, 148362, 727774
2096921,2096921, 148073, 727784
2096921,2096921, 147586, 726319
2096921,2096921, 147314, 725254
2096921,2096921, 147103, 725057
2096921,2096921, 147171, 725026
2096921,2096921, 146877, 724949
2096921,2096921, 146159, 723521
2096921,2096921, 145937, 722204
2096921,2096921, 145891, 722074
2096921,2096921, 145693, 722170
2096921,2096921, 145599, 722147
2096921,2096921, 144638, 721130
2096921,2096921, 144731, 720080
2096921,2096921, 144197, 719837
2096921,2096921, 144562, 719694
2096921,2096921, 144606, 719960
2096921,2096921, 143777, 718404
2096921,2096921, 143883, 718088
2096921,2096921, 143832, 718216
2096921,2096921, 143828, 718127
2096921,2096921, 143836, 718332
2096921,2096921, 143152, 717459
2096921,2096921, 142957, 717045
2096921,2096921, 142972, 716858
2096921,2096921, 142934, 716889
2096921,2096921, 143166, 716893
2096921,2096921, 143151, 716224
2096921,2096921, 143180, 715925
2096921,2096921, 143007, 715996
2096921,2096921, 143230, 716068
2096921,2096921, 142901, 715714
2096921,2096921, 142315, 715718
2096921,2096921, 142292, 715430
2096921,2096921, 142394, 715572
2096921,2096921, 142404, 715468
2096921,2096921, 142668, 715441
2096921,2096921, 142405, 715114
2096921,2096921, 142386, 715299
2096921,2096921, 142365, 715268
2096921,2096921, 142248, 715202
2096921,2096921, 142520, 715485
2096921,2096921, 142297, 715490
2096921,2096921, 142764, 715673
2096921,2096921, 142538, 715551
2096921,2096921, 142429, 715627
2096921,2096921, 142293, 715478
2096921,2096921, 142238, 715599
2096921,2096921, 142303, 715697
2096921,2096921, 142391, 715447
2096921,2096921, 142492, 715636
2096921,2096921, 142230, 715560
2096921,2096921, 142451, 715968
2096921,2096921, 142627, 715860
2096921,2096921, 142699, 715870
2096921,2096921, 142379, 715849
2096921,2096921, 142570, 715706
2096921,2096921, 142627, 716258
2096921,2096921, 142842, 716173
2096921,2096921, 142490, 716677
2096921,2096921, 142594, 716660
2096921,2096921, 142738, 716131
2096921,2096921, 142725, 716547
2096921,2096921, 142679, 716861
2096921,2096921, 142666, 716921
2096921,2096921, 142847, 716728
2096921,2096921, 143057, 716730
2096921,2096921, 142975, 716940
2096921,2096921, 143023, 717356
2096921,2096921, 143183, 717275
2096921,2096921, 143333, 717449
2096921,2096921, 143116, 717602
2096921,2096921, 143327, 718184
2096921,2096921, 143405, 718232
2096921,2096921, 143517, 718058
2096921,2096921, 143441, 718310
2096921,2096921, 143556, 718373
2096921,2096921, 143900, 718682
2096921,2096921, 143657, 718810
2096921,2096921, 143906, 718845
2096921,2096921, 143816, 718838
2096921,2096921, 143719, 719076
2096921,2096921, 144003, 719597
2096921,2096921, 144056, 719675
2096921,2096921, 144181, 719824
2096921,2096921, 143779, 719852
2096921,2096921, 143786, 719890
2096921,2096921, 144208, 719892
2096921,2096921, 144370, 720522
2096921,2096921, 144441, 720677
2096921,2096921, 144422, 720976
2096921,2096921, 144178, 720876
2096921,2096921, 144724, 720912
2096921,2096921, 144464, 721240
2096921,2096921, 144474, 720915
2096921,2096921, 144674, 721263
2096921,2096921, 144734, 721297
2096921,2096921, 144837, 721807
2096921,2096921, 144599, 722057
2096921,2096921, 145101, 722054
2096921,2096921, 144857, 722199
2096921,2096921, 144906, 722121
2096921,2096921, 145461, 722422
2096921,2096921, 145242, 722744
2096921,2096921, 145450, 722719
2096921,2096921, 145108, 722469
2096921,2096921, 145172, 722852
2096921,2096921, 145229, 723341
2096921,2096921, 145516, 723719
2096921,2096921, 145664, 724171
2096921,2096921, 146004, 724374
2096921,2096921, 145742, 723729
2096921,2096921, 145725, 724057
2096921,2096921, 145848, 724604
2096921,2096921, 146099, 724690
2096921,2096921, 145868, 724687
2096921,2096921, 145859, 724790
2096921,2096921, 146170, 725095
2096921,2096921, 146280, 725499
2096921,2096921, 146080, 725551
2096921,2096921, 145973, 725688
2096921,2096921, 146228, 725341
2096921,2096921, 146319, 726004
2096921,2096921, 146554, 726220
2096921,2096921, 146813, 725902
2096921,2096921, 146625, 726063
2096921,2096921, 146339, 726446
2096921,2096921, 146553, 726816
2096921,2096921, 146885, 727195
2096921,2096921, 146699, 727158
2096921,2096921, 146972, 727167
2096921,2096921, 147022, 727197
2096921,2096921, 147170, 727453
2096921,2096921, 147099, 727613
2096921,2096921, 146733, 727749
2096921,2096921, 147129, 727699
2096921,2096921, 146928, 727962
2096921,2096921, 147135, 728112
2096921,2096921, 147411, 728289
2096921,2096921, 147251, 728336
2096921,2096921, 147385, 728399
2096921,2096921, 147409, 728529
2096921,2096921, 147474, 728759
2096921,2096921, 147443, 728793
2096921,2096921, 147425, 728794
2096921,2096921, 147154, 728796
2096921,2096921, 147284, 728779
2096921,2096921, 147319, 728714
2096921,2096921, 147844, 729031
2096921,2096921, 147598, 729183
2096921,2096921, 147601, 729526
2096921,2096921, 147635, 729320
2096921,2096921, 147650, 729465
2096921,2096921, 147632, 729611
2096921,2096921, 147425, 729896
2096921,2096921, 147630, 729656
2096921,2096921, 147553, 729699
2096921,2096921, 147684, 729961
2096921,2096921, 147649, 729910
2096921,2096921, 147465, 729912
2096921,2096921, 147547, 729916
2096921,2096921, 147631, 730062
2096921,2096921, 147797, 730133
2096921,2096921, 147488, 730097
2096921,2096921, 147594, 730020
2096921,2096921, 147617, 730285
2096921,2096921, 147560, 729973
2096921,2096921, 147766, 729604
2096921,2096921, 147625, 729694
2096921,2096921, 147630, 730124
2096921,2096921, 147735, 730431
2096921,2096921, 147764, 730014
2096921,2096921, 147341, 730225
2096921,2096921, 147505, 730258
2096921,2096921, 147349, 730211
2096921,2096921, 147279, 729790
2096921,2096921, 147427, 730075
2096921,2096921, 147847, 730283
2096921,2096921, 147863, 730446
2096921,2096921, 147663, 730550
2096921,2096921, 147594, 730402
2096921,2096921, 147463, 730327
2096921,2096921, 147767, 730416
2096921,2096921, 147637, 730250
2096921,2096921, 147335, 730382
2096921,2096921, 147738, 730041
2096921,2096921, 147554, 730293
2096921,2096921, 147846, 730532
2096921,2096921, 147591, 730550
2096921,2096921, 147883, 730735
2096921,2096921, 147457, 730860
2096921,2096921, 147820, 730698
2096921,2096921, 147397, 730777
2096921,2096921, 147540, 730869
2096921,2096921, 147747, 730470
2096921,2096921, 147808, 730638
2096921,2096921, 147547, 730627
2096921,2096921, 147520, 730880
2096921,2096921, 147835, 731285
2096921,2096921, 147839, 731169
2096921,2096921, 147756, 731182
2096921,2096921, 147978, 731180
2096921,2096921, 148351, 731385
2096921,2096921, 148153, 731641
2096921,2096921, 147728, 731919
2096921,2096921, 147949, 731543
2096921,2096921, 148130, 731920
2096921,2096921, 147864, 731857
2096921,2096921, 147880, 731891
2096921,2096921, 147961, 732046
2096921,2096921, 147774, 732257
2096921,2096921, 147867, 731770
2096921,2096921, 148157, 732006
2096921,2096921, 147988, 732678
2096921,2096921, 148037, 732880
2096921,2096921, 147895, 732330
2096921,2096921, 148137, 732665
2096921,2096921, 148282, 732889
2096921,2096921, 148387, 733410
2096921,2096921, 148508, 733768
2096921,2096921, 148445, 733774
2096921,2096921, 148607, 733747
2096921,2096921, 148800, 734258
2096921,2096921, 149119, 734192
2096921,2096921, 148909, 733894
2096921,2096921, 148800, 734029
2096921,2096921, 148655, 734432
2096921,2096921, 148609, 734459
2096921,2096921, 149126, 734859
2096921,2096921, 149235, 734835
2096921,2096921, 148964, 734702
2096921,2096921, 149104, 734699
2096921,2096921, 149263, 735303
2096921,2096921, 149288, 735294
2096921,2096921, 149195, 735438
2096921,2096921, 149130, 735549
2096921,2096921, 149166, 735622
2096921,2096921, 149424, 735754
2096921,2096921, 149591, 735890
2096921,2096921, 149460, 735968
2096921,2096921, 149408, 736414
2096921,2096921, 149563, 736043
2096921,2096921, 149719, 736574
2096921,2096921, 149616, 736513
2096921,2096921, 149443, 736576
2096921,2096921, 149581, 736230
2096921,2096921, 149607, 736536
2096921,2096921, 149573, 736831
2096921,2096921, 149717, 737051
2096921,2096921, 149495, 737179
2096921,2096921, 149968, 737146
2096921,2096921, 149675, 737310
2096921,2096921, 150222, 737587
2096921,2096921, 150041, 737956
2096921,2096921, 149943, 737967
2096921,2096921, 150031, 737999
2096921,2096921, 149796, 737757
2096921,2096921, 150002, 738294
2096921,2096921, 150208, 738374
2096921,2096921, 150351, 738633
2096921,2096921, 150078, 738536
2096921,2096921, 150293, 738677
2096921,2096921, 150348, 738923
2096921,2096921, 150346, 739183
2096921,2096921, 150466, 739179
2096921,2096921, 150274, 739209
2096921,2096921, 150429, 739187
2096921,2096921, 150599, 739309
2096921,2096921, 150765, 739534
2096921,2096921, 150812, 739861
2096921,2096921, 150906, 740040
2096921,2096921, 150623, 739862
2096921,2096921, 150907, 739943
2096921,2096921, 150779, 739952
2096921,2096921, 150784, 740295
2096921,2096921, 150813, 740275
2096921,2096921, 150789, 740117
2096921,2096921, 150940, 740589
2096921,2096921, 150857, 740676
2096921,2096921, 150995, 740766
2096921,2096921, 151028, 740943
2096921,2096921, 151028, 740874
2096921,2096921, 151089, 741048
2096921,2096921, 151099, 741349
2096921,2096921, 151422, 741017
2096921,2096921, 150784, 741147
2096921,2096921, 150893, 741281
2096921,2096921, 151061, 741837
2096921,2096921, 151338, 742004
2096921,2096921, 151597, 741784
2096921,2096921, 151236, 741790
2096921,2096921, 151624, 742129
2096921,2096921, 151494, 742096
2096921,2096921, 151654, 742520
2096921,2096921, 151903, 742508
2096921,2096921, 151721, 742647
2096921,2096921, 151651, 742358
2096921,2096921, 151655, 742686
2096921,2096921, 151691, 743106
2096921,2096921, 151658, 743171
2096921,2096921, 152108, 743146
2096921,2096921, 151803, 743300
2096921,2096921, 151742, 743439
2096921,2096921, 151710, 743444
2096921,2096921, 151871, 743474
2096921,2096921, 151782, 743322
2096921,2096921, 151955, 743414
2096921,2096921, 152090, 743683
2096921,2096921, 151879, 744024
2096921,2096921, 152245, 743942
2096921,2096921, 152371, 744175
2096921,2096921, 152191, 743727
2096921,2096921, 152482, 743999
2096921,2096921, 152510, 744371
2096921,2096921, 152079, 744293
2096921,2096921, 152124, 744407
2096921,2096921, 152195, 744585
2096921,2096921, 152245, 744448
2096921,2096921, 152151, 744807
2096921,2096921, 152398, 744813
2096921,2096921, 152193, 744915
2096921,2096921, 152559, 745042
2096921,2096921, 152509, 745215
2096921,2096921, 152600, 745290
2096921,2096921, 152618, 745413
2096921,2096921, 152491, 745420
2096921,2096921, 152491, 744858
2096921,2096921, 152527, 745255
2096921,2096921, 152652, 745376
2096921,2096921, 152956, 745777
2096921,2096921, 152727, 745712
2096921,2096921, 152677, 745748
2096921,2096921, 152634, 745688
2096921,2096921, 153035, 746111
2096921,2096921, 152735, 746371
2096921,2096921, 152496, 746175
2096921,2096921, 152807, 745811
2096921,2096921, 152883, 746390
2096921,2096921, 153139, 746410
2096921,2096921, 152514, 746263
2096921,2096921, 152798, 746332
2096921,2096921, 152904, 746424
2096921,2096921, 153208, 746603
2096921,2096921, 153168, 746955
2096921,2096921, 152987, 746689
2096921,2096921, 152953, 747091
2096921,2096921, 153293, 746702
2096921,2096921, 153221, 747245
2096921,2096921, 152918, 747004
2096921,2096921, 153172, 747430
2096921,2096921, 153018, 747315
2096921,2096921, 153334, 746905
2096921,2096921, 153127, 747676
2096921,2096921, 153280, 747588
2096921,2096921, 153303, 747516
2096921,2096921, 153411, 747407
2096921,2096921, 153027, 747484
2096921,2096921, 153460, 747582
2096921,2096921, 153531, 747838
2096921,2096921, 153183, 747985
2096921,2096921, 153416, 747944
2096921,2096921, 153486, 748241
2096921,2096921, 153552, 748129
2096921,2096921, 153498, 748492
2096921,2096921, 153412, 748171
2096921,2096921, 153431, 748086
2096921,2096921, 153147, 748066
2096921,2096921, 153256, 748387
2096921,2096921, 153492, 748334
2096921,2096921, 153509, 748588
2096921,2096921, 153636, 748651
2096921,2096921, 153430, 748574
2096921,2096921, 153687, 748499
2096921,2096921, 153365, 748600
2096921,2096921, 153668, 748883
2096921,2096921, 153679, 748656
2096921,2096921, 153853, 748731
2096921,2096921, 153861, 748433
2096921,2096921, 153882, 748773
2096921,2096921, 153677, 749124
2096921,2096921, 153547, 748934
2096921,2096921, 153740, 749133
2096921,2096921, 153760, 749148
2096921,2096921, 153967, 749370
2096921,2096921, 154040, 749466
2096921,2096921, 153754, 749282
2096921,2096921, 153529, 749170
2096921,2096921, 154013, 749424
2096921,2096921, 153725, 749819
2096921,2096921, 153867, 749625
2096921,2096921, 153955, 749884
2096921,2096921, 153872, 749933
2096921,2096921, 153867, 749971
2096921,2096921, 154170, 750061
2096921,2096921, 153987, 750072
2096921,2096921, 153810, 749672
2096921,2096921, 153773, 749578
2096921,2096921, 153814, 749985
2096921,2096921, 153951, 750132
2096921,2096921, 153944, 750279
2096921,2096921, 154121, 750165
2096921,2096921, 154101, 750391
2096921,2096921, 154049, 750436
2096921,2096921, 154168, 750427
2096921,2096921, 154333, 750323
2096921,2096921, 154206, 750155
2096921,2096921, 154076, 750523
2096921,2096921, 154264, 750369
2096921,2096921, 154113, 750600
2096921,2096921, 154391, 750591
2096921,2096921, 154475, 750761
2096921,2096921, 154498, 750806
2096921,2096921, 154249, 751046
2096921,2096921, 154527, 751241
2096921,2096921, 154669, 751114
2096921,2096921, 154061, 751058
2096921,2096921, 153890, 750829
2096921,2096921, 154249, 751161
2096921,2096921, 154143, 751181
2096921,2096921, 154386, 751322
2096921,2096921, 154062, 751444
2096921,2096921, 154071, 751460
2096921,2096921, 154326, 750992
2096921,2096921, 154497, 751345
2096921,2096921, 154353, 751459
2096921,2096921, 154357, 751278
2096921,2096921, 154341, 751113
2096921,2096921, 154403, 751070
2096921,2096921, 154379, 751184
2096921,2096921, 154443, 751232
2096921,2096921, 154530, 751583
2096921,2096921, 154231, 751485
2096921,2096921, 154756, 751671
2096921,2096921, 154355, 751655
2096921,2096921, 154614, 751508
2096921,2096921, 154325, 751570
2096921,2096921, 154527, 751426
2096921,2096921, 154691, 751662
2096921,2096921, 154284, 751805
2096921,2096921, 154423, 751748
2096921,2096921, 154268, 751719
2096921,2096921, 154463, 751901
2096921,2096921, 154506, 751982
2096921,2096921, 154691, 752092
2096921,2096921, 154747, 751935
2096921,2096921, 154246, 751617
2096921,2096921, 154462, 751484
2096921,2096921, 154504, 751898
2096921,2096921, 154883, 751915
2096921,2096921, 154626, 751958
2096921,2096921, 154642, 752027
2096921,2096921, 154398, 751950
2096921,2096921, 154571, 752048
2096921,2096921, 154554, 752321
2096921,2096921, 154287, 752167
2096921,2096921, 154491, 752186
2096921,2096921, 154296, 752141
2096921,2096921, 154441, 751981
2096921,2096921, 154575, 751877
2096921,2096921, 154696, 752087
2096921,2096921, 154966, 752241
2096921,2096921, 154816, 752278
2096921,2096921, 154780, 752120
2096921,2096921, 154695, 752203
2096921,2096921, 154526, 752377
2096921,2096921, 154393, 752326
2096921,2096921, 154620, 752010
2096921,2096921, 154658, 752143
2096921,2096921, 154565, 752340
2096921,2096921, 154242, 752406
2096921,2096921, 154831, 752430
2096921,2096921, 154760, 752200
2096921,2096921, 154747, 752432
2096921,2096921, 154667, 752390
2096921,2096921, 154376, 752266
2096921,2096921, 154411, 752061
2096921,2096921, 154366, 752274
2096921,2096921, 153908, 751737
2096921,2096921, 154031, 751920
2096921,2096921, 154365, 751562
2096921,2096921, 154213, 751834
2096921,2096921, 154198, 751760
2096921,2096921, 154347, 751675
2096921,2096921, 154130, 751159
2096921,2096921, 154193, 751262
2096921,2096921, 153929, 751262
2096921,2096921, 154183, 751574
2096921,2096921, 153785, 750945
2096921,2096921, 153927, 750599
2096921,2096921, 154079, 750650
2096921,2096921, 154064, 750264
2096921,2096921, 154133, 750689
2096921,2096921, 153779, 749933
2096921,2096921, 153558, 749648
2096921,2096921, 153406, 749199
2096921,2096921, 153214, 748972
2096921,2096921, 153105, 749427
2096921,2096921, 152832, 748792
2096921,2096921, 152631, 748365
2096921,2096921, 152530, 748181
2096921,2096921, 152815, 748351
2096921,2096921, 153026, 748523
2096921,2096921, 151868, 746910
2096921,2096921, 151378, 745790
2096921,2096921, 151653, 745680
2096921,2096921, 151420, 745382
2096921,2096921, 151421, 745483
2096921,2096921, 150323, 743797
2096921,2096921, 149939, 742506
2096921,2096921, 150025, 742245
2096921,2096921, 150214, 742264
2096921,2096921, 150313, 742315
2096921,2096921, 149156, 740963
2096921,2096921, 149069, 740112
2096921,2096921, 149094, 740205
2096921,2096921, 149069, 739736
2096921,2096921, 149018, 739906
2096921,2096921, 148432, 738629
2096921,2096921, 148181, 737901
2096921,2096921, 148283, 737827
2096921,2096921, 148335, 737901
2096921,2096921, 148363, 737746
2096921,2096921, 147795, 737114
2096921,2096921, 147598, 736647
2096921,2096921, 147318, 736335
2096921,2096921, 147230, 736562
2096921,2096921, 147296, 736571
2096921,2096921, 147010, 735799
2096921,2096921, 146905, 735558
2096921,2096921, 146858, 735685
2096921,2096921, 147050, 735696
2096921,2096921, 147152, 735421
2096921,2096921, 146839, 734888
2096921,2096921, 146366, 735070
2096921,2096921, 146499, 734680
2096921,2096921, 146470, 734803
2096921,2096921, 146586, 734730
2096921,2096921, 146394, 734482
2096921,2096921, 146349, 734302
2096921,2096921, 146744, 734269
2096921,2096921, 146462, 734448
2096921,2096921, 146357, 734418
2096921,2096921, 146535, 734290
2096921,2096921, 146561, 734356
2096921,2096921, 146183, 733915
2096921,2096921, 146336, 734058
2096921,2096921, 146180, 733961
2096921,2096921, 146065, 734204
2096921,2096921, 146453, 733987
2096921,2096921, 146331, 733944
2096921,2096921, 146349, 734477
2096921,2096921, 146507, 734209
2096921,2096921, 146930, 734536
2096921,2096921, 146755, 734311
2096921,2096921, 146491, 734324
2096921,2096921, 146300, 734348
2096921,2096921, 146642, 734094
2096921,2096921, 146547, 734392
2096921,2096921, 146686, 734634
2096921,2096921, 146622, 734967
2096921,2096921, 146744, 734327
2096921,2096921, 146678, 734517
2096921,2096921, 147010, 734921
2096921,2096921, 146592, 734672
2096921,2096921, 146559, 734636
2096921,2096921, 146740, 734782
2096921,2096921, 146529, 735070
2096921,2096921, 146876, 734984
2096921,2096921, 146949, 735145
2096921,2096921, 146759, 735340
2096921,2096921, 146386, 735240
2096921,2096921, 147041, 735401
2096921,2096921, 147194, 735537
2096921,2096921, 147037, 735985
2096921,2096921, 147179, 735707
2096921,2096921, 146914, 735877
2096921,2096921, 147208, 735885
2096921,2096921, 147567, 735899
2096921,2096921, 147313, 736080
2096921,2096921, 147395, 736509
2096921,2096921, 147325, 736798
2096921,2096921, 147302, 736589
2096921,2096921, 147527, 736810
2096921,2096921, 147561, 736921
2096921,2096921, 147619, 737112
2096921,2096921, 147564, 736983
2096921,2096921, 147511, 736810
2096921,2096921, 147733, 737220
2096921,2096921, 148053, 737629
2096921,2096921, 147922, 737729
2096921,2096921, 147752, 737666
2096921,2096921, 148210, 737800
2096921,2096921, 148311, 737921
2096921,2096921, 148457, 738098
2096921,2096921, 148262, 738123
2096921,2096921, 148070, 737724
2096921,2096921, 148109, 737905
2096921,2096921, 148486, 738628
2096921,2096921, 148380, 738282
2096921,2096921, 148474, 738571
2096921,2096921, 148424, 738632
2096921,2096921, 148662, 738715
2096921,2096921, 148729, 739159
2096921,2096921, 148658, 739178
2096921,2096921, 148841, 738947
2096921,2096921, 148866, 739217
2096921,2096921, 148765, 739251
2096921,2096921, 148856, 739357
2096921,2096921, 148990, 739805
2096921,2096921, 149085, 740113
2096921,2096921, 148959, 740239
2096921,2096921, 148956, 739939
2096921,2096921, 149218, 740267
2096921,2096921, 149205, 740564
2096921,2096921, 148984, 740700
2096921,2096921, 149107, 740478
2096921,2096921, 149171, 740338
2096921,2096921, 149570, 740564
2096921,2096921, 149543, 740905
2096921,2096921, 149656, 741098
2096921,2096921, 149570, 741118
2096921,2096921, 149805, 741049
2096921,2096921, 149851, 741767
2096921,2096921, 149629, 741763
2096921,2096921, 149781, 741922
2096921,2096921, 149584, 741795
2096921,2096921, 149972, 741892
2096921,2096921, 149696, 741778
2096921,2096921, 149888, 742037
2096921,2096921, 150007, 741932
2096921,2096921, 150334, 742087
2096921,2096921, 149904, 742198
2096921,2096921, 150328, 742425
2096921,2096921, 150245, 742796
2096921,2096921, 149912, 742533
2096921,2096921, 150379, 742492
2096921,2096921, 150323, 742606
2096921,2096921, 150304, 742870
2096921,2096921, 150373, 743029
2096921,2096921, 150252, 743126
2096921,2096921, 150476, 742955
2096921,2096921, 150509, 742888
2096921,2096921, 150450, 743712
2096921,2096921, 150414, 743542
2096921,2096921, 150796, 743119
2096921,2096921, 150465, 743106
2096921,2096921, 150451, 742885
2096921,2096921, 150178, 743026
2096921,2096921, 150577, 743192
2096921,2096921, 150505, 743409
2096921,2096921, 150513, 743465
2096921,2096921, 150664, 743269
2096921,2096921, 150586, 743476
2096921,2096921, 150537, 743187
2096921,2096921, 150625, 743086
2096921,2096921, 150453, 742994
2096921,2096921, 150307, 743076
2096921,2096921, 150659, 743231
2096921,2096921, 150403, 743243
2096921,2096921, 150273, 743135
2096921,2096921, 150662, 743060
2096921,2096921, 150479, 743028
2096921,2096921, 150570, 743310
2096921,2096921, 150511, 742944
2096921,2096921, 150560, 743011
2096921,2096921, 150356, 743220
2096921,2096921, 150654, 743213
2096921,2096921, 150400, 743268
2096921,2096921, 150138, 742923
2096921,2096921, 150411, 743140
2096921,2096921, 150269, 742983
2096921,2096921, 150296, 743058
2096921,2096921, 150206, 742876
2096921,2096921, 150266, 742683
2096921,2096921, 150289, 742694
2096921,2096921, 150081, 742753
2096921,2096921, 150443, 742586
2096921,2096921, 150418, 742369
2096921,2096921, 150248, 742626
2096921,2096921, 150191, 742462
2096921,2096921, 150378, 742645
2096921,2096921, 150067, 742523
2096921,2096921, 150066, 742352
2096921,2096921, 150291, 742299
2096921,2096921, 150369, 742242
2096921,2096921, 149904, 742153
2096921,2096921, 150005, 742022
2096921,2096921, 150089, 742218
2096921,2096921, 149780, 742059
2096921,2096921, 150172, 742290
2096921,2096921, 150246, 742315
2096921,2096921, 150175, 742015
2096921,2096921, 149947, 742185
2096921,2096921, 150092, 742129
2096921,2096921, 150113, 742118
2096921,2096921, 150195, 741851
2096921,2096921, 150053, 742179
2096921,2096921, 150036, 742065
2096921,2096921, 149967, 742009
2096921,2096921, 150380, 741781
2096921,2096921, 150121, 742133
2096921,2096921, 150040, 742227
2096921,2096921, 150045, 742451
2096921,2096921, 150019, 742328
2096921,2096921, 150049, 742049
2096921,2096921, 150146, 742130
2096921,2096921, 150426, 742061
2096921,2096921, 150165, 742140
2096921,2096921, 150193, 741963
2096921,2096921, 150222, 742139
2096921,2096921, 150293, 742003
2096921,2096921, 150423, 742434
2096921,2096921, 150423, 742530
2096921,2096921, 150297, 742652
2096921,2096921, 150374, 742687
2096921,2096921, 150267, 742605
2096921,2096921, 150502, 742432
2096921,2096921, 150684, 742688
2096921,2096921, 150529, 742758
2096921,2096921, 150267, 742624
2096921,2096921, 150631, 742810
2096921,2096921, 150375, 742943
2096921,2096921, 150833, 743233
2096921,2096921, 150825, 743236
2096921,2096921, 150468, 743140
2096921,2096921, 150407, 742989
2096921,2096921, 150739, 742904
2096921,2096921, 150491, 743192
2096921,2096921, 150704, 743414
2096921,2096921, 151054, 743530
2096921,2096921, 150705, 743738
2096921,2096921, 150747, 743503
2096921,2096921, 150796, 743613
2096921,2096921, 150904, 743363
2096921,2096921, 150640, 743488
2096921,2096921, 150637, 743500
2096921,2096921, 150970, 743605
2096921,2096921, 151150, 743687
2096921,2096921, 151001, 743848
2096921,2096921, 150972, 743963
2096921,2096921, 151229, 743840
2096921,2096921, 151338, 743927
2096921,2096921, 151116, 744087
2096921,2096921, 151274, 744042
2096921,2096921, 151537, 743963
2096921,2096921, 151322, 743814
2096921,2096921, 151363, 743634
2096921,2096921, 151217, 743783
2096921,2096921, 151414, 744322
2096921,2096921, 151443, 743829
2096921,2096921, 151361, 744209
2096921,2096921, 151429, 743962
2096921,2096921, 151174, 744371
2096921,2096921, 151733, 744542
2096921,2096921, 151503, 744653
2096921,2096921, 151672, 744643
2096921,2096921, 151554, 744481
2096921,2096921, 151270, 744542
2096921,2096921, 151516, 744275
2096921,2096921, 151659, 744696
2096921,2096921, 151487, 744764
2096921,2096921, 151520, 744578
2096921,2096921, 151897, 744644
2096921,2096921, 151850, 744652
2096921,2096921, 151476, 744667
2096921,2096921, 151896, 744434
2096921,2096921, 151653, 744314
2096921,2096921, 151834, 744671
2096921,2096921, 151674, 744634
2096921,2096921, 152011, 744784
2096921,2096921, 152104, 744938
2096921,2096921, 151963, 744921
2096921,2096921, 151870, 745017
2096921,2096921, 151955, 745042
2096921,2096921, 151911, 745146
2096921,2096921, 151535, 745072
2096921,2096921, 151814, 744959
2096921,2096921, 152075, 745331
2096921,2096921, 152240, 745111
2096921,2096921, 152136, 745132
2096921,2096921, 152335, 744902
2096921,2096921, 151962, 745223
2096921,2096921, 151900, 745158
2096921,2096921, 152329, 745191
2096921,2096921, 152119, 745517
2096921,2096921, 152011, 745356
2096921,2096921, 152062, 745338
2096921,2096921, 151715, 745112
2096921,2096921, 152014, 745335
2096921,2096921, 151993, 745368
2096921,2096921, 152257, 745182
2096921,2096921, 152175, 745563
2096921,2096921, 152341, 745558
2096921,2096921, 152261, 745400
2096921,2096921, 152116, 745218
2096921,2096921, 152177, 745236
2096921,2096921, 152262, 745491
2096921,2096921, 152441, 745283
2096921,2096921, 152167, 745468
2096921,2096921, 152567, 745403
2096921,2096921, 152029, 745390
2096921,2096921, 152293, 745149
2096921,2096921, 152311, 745773
2096921,2096921, 152442, 745464
2096921,2096921, 152445, 745294
2096921,2096921, 152495, 745226
2096921,2096921, 152127, 745258
2096921,2096921, 152075, 745297
2096921,2096921, 152334, 745206
2096921,2096921, 152428, 745512
2096921,2096921, 152374, 745420
2096921,2096921, 152506, 745669
2096921,2096921, 152262, 745824
2096921,2096921, 152763, 745534
2096921,2096921, 152310, 745483
2096921,2096921, 152314, 745739
2096921,2096921, 152282, 745250
2096921,2096921, 152396, 745550
2096921,2096921, 152354, 745634
2096921,2096921, 152614, 745461
2096921,2096921, 152752, 745794
2096921,2096921, 152580, 745837
2096921,2096921, 152464, 745481
2096921,2096921, 152615, 745759
2096921,2096921, 152614, 745657
2096921,2096921, 152197, 745313
2096921,2096921, 152502, 745500
2096921,2096921, 152597, 745700
2096921,2096921, 152730, 745462
2096921,2096921, 152633, 745329
2096921,2096921, 152449, 745533
2096921,2096921, 152661, 745711
2096921,2096921, 152652, 745553
2096921,2096921, 152518, 745539
2096921,2096921, 152458, 745587
2096921,2096921, 152573, 745304
2096921,2096921, 152648, 745426
2096921,2096921, 152711, 745649
2096921,2096921, 152591, 745405
2096921,2096921, 152470, 745177
2096921,2096921, 152914, 745154
2096921,2096921, 152610, 745514
2096921,2096921, 152875, 745490
2096921,2096921, 152833, 745521
2096921,2096921, 153055, 745373
2096921,2096921, 152830, 745167
2096921,2096921, 152512, 745140
2096921,2096921, 152675, 745405
2096921,2096921, 152732, 745332
2096921,2096921, 152944, 745780
2096921,2096921, 152830, 745573
2096921,2096921, 152830, 745550
2096921,2096921, 152739, 745424
2096921,2096921, 152808, 745363
2096921,2096921, 152785, 745387
2096921,2096921, 152688, 745412
2096921,2096921, 152580, 745465
2096921,2096921, 152704, 745701
2096921,2096921, 152960, 745591
2096921,2096921, 152829, 745183
2096921,2096921, 152948, 745668
2096921,2096921, 152719, 745218
2096921,2096921, 152876, 745276
2096921,2096921, 152701, 745177
2096921,2096921, 152772, 745082
2096921,2096921, 152574, 745146
2096921,2096921, 152643, 745053
2096921,2096921, 152726, 744950
2096921,2096921, 152841, 744970
2096921,2096921, 153063, 745291
2096921,2096921, 153029, 744693
2096921,2096921, 152927, 745055
2096921,2096921, 152955, 744869
2096921,2096921, 152777, 744781
2096921,2096921, 153027, 744755
2096921,2096921, 153113, 744687
2096921,2096921, 152887, 744686
2096921,2096921, 152509, 744556
2096921,2096921, 152690, 744591
2096921,2096921, 152905, 744361
2096921,2096921, 152766, 744797
2096921,2096921, 152426, 744804
2096921,2096921, 152727, 744540
2096921,2096921, 152586, 744645
2096921,2096921, 152727, 744654
2096921,2096921, 152619, 744372
2096921,2096921, 152617, 744519
2096921,2096921, 152660, 744390
2096921,2096921, 152683, 744191
2096921,2096921, 152914, 744258
2096921,2096921, 152778, 744322
2096921,2096921, 152863, 744561
2096921,2096921, 153031, 744404
2096921,2096921, 152782, 743977
2096921,2096921, 152716, 744146
2096921,2096921, 152655, 744071
2096921,2096921, 152707, 744068
2096921,2096921, 152839, 743813
2096921,2096921, 152940, 744098
2096921,2096921, 152781, 744069
2096921,2096921, 152724, 744059
2096921,2096921, 152686, 743911
2096921,2096921, 153019, 744198
2096921,2096921, 152926, 744079
2096921,2096921, 152819, 743829
2096921,2096921, 152830, 744038
2096921,2096921, 152574, 743693
2096921,2096921, 152614, 744199
2096921,2096921, 152524, 743571
2096921,2096921, 152832, 743625
2096921,2096921, 152577, 743387
2096921,2096921, 152772, 743495
2096921,2096921, 152817, 743579
2096921,2096921, 152700, 743637
2096921,2096921, 152794, 743740
2096921,2096921, 152847, 743294
2096921,2096921, 153155, 743432
2096921,2096921, 152527, 743248
2096921,2096921, 152627, 743198
2096921,2096921, 152646, 743017
2096921,2096921, 152611, 743529
2096921,2096921, 152598, 743402
2096921,2096921, 152746, 743086
2096921,2096921, 152958, 742987
2096921,2096921, 152788, 743152
2096921,2096921, 152748, 743110
2096921,2096921, 152661, 742914
2096921,2096921, 152809, 742751
2096921,2096921, 152597, 742667
2096921,2096921, 152510, 742514
2096921,2096921, 152352, 742750
2096921,2096921, 152558, 742786
2096921,2096921, 152773, 742851
2096921,2096921, 152489, 742582
2096921,2096921, 152395, 742397
2096921,2096921, 152441, 742392
2096921,2096921, 152267, 742382
2096921,2096921, 151986, 742272
2096921,2096921, 152422, 742035
2096921,2096921, 152299, 742044
2096921,2096921, 152636, 742324
2096921,2096921, 152618, 742247
2096921,2096921, 152615, 742091
2096921,2096921, 152200, 742053
2096921,2096921, 152112, 741965
2096921,2096921, 152191, 742124
2096921,2096921, 152229, 741698
2096921,2096921, 152232, 742034
2096921,2096921, 152388, 741662
2096921,2096921, 152529, 741631
2096921,2096921, 152391, 741694
2096921,2096921, 152309, 741626
2096921,2096921, 152280, 741684
2096921,2096921, 152103, 741477
2096921,2096921, 152130, 741233
2096921,2096921, 152146, 741416
2096921,2096921, 152259, 741310
2096921,2096921, 151851, 741419
2096921,2096921, 152051, 741086
2096921,2096921, 152477, 741542
2096921,2096921, 152395, 741371
2096921,2096921, 152269, 741167
2096921,2096921, 152048, 741120
2096921,2096921, 151955, 741109
2096921,2096921, 152282, 740987
2096921,2096921, 152090, 741240
2096921,2096921, 152216, 741186
2096921,2096921, 151978, 740911
2096921,2096921, 152022, 740640
2096921,2096921, 151915, 740571
2096921,2096921, 151761, 740660
2096921,2096921, 152129, 740808
2096921,2096921, 152108, 740521
2096921,2096921, 152169, 740115
2096921,2096921, 151894, 740186
2096921,2096921, 151751, 740215
2096921,2096921, 152033, 739895
2096921,2096921, 151952, 739668
2096921,2096921, 151568, 739654
2096921,2096921, 151431, 739274
2096921,2096921, 152022, 739406
2096921,2096921, 151700, 739465
2096921,2096921, 151640, 739056
2096921,2096921, 151593, 738987
2096921,2096921, 151273, 738718
2096921,2096921, 151464, 738799
2096921,2096921, 151383, 738584
2096921,2096921, 150853, 737795
2096921,2096921, 150890, 737512
2096921,2096921, 150909, 737691
2096921,2096921, 150912, 737805
2096921,2096921, 150791, 737778
2096921,2096921, 150787, 736897
2096921,2096921, 150486, 736516
2096921,2096921, 150542, 736292
2096921,2096921, 150226, 736040
2096921,2096921, 150334, 736156
2096921,2096921, 149778, 735144
2096921,2096921, 149780, 734751
2096921,2096921, 149886, 734903
2096921,2096921, 149677, 734865
2096921,2096921, 150037, 734685
2096921,2096921, 148730, 733318
2096921,2096921, 148430, 732192
2096921,2096921, 148386, 732012
2096921,2096921, 148201, 731839
2096921,2096921, 148619, 731919
2096921,2096921, 147407, 729663
2096921,2096921, 147250, 728418
2096921,2096921, 146888, 728325
2096921,2096921, 147251, 728008
2096921,2096921, 147322, 728165
2096921,2096921, 146321, 726649
2096921,2096921, 146324, 725794
2096921,2096921, 146222, 725600
2096921,2096921, 145956, 725352
2096921,2096921, 146017, 725348
2096921,2096921, 145367, 724147
2096921,2096921, 145009, 723556
2096921,2096921, 144984, 723616
2096921,2096921, 144867, 723433
2096921,2096921, 145009, 723465
2096921,2096921, 144618, 722536
2096921,2096921, 144348, 722124
2096921,2096921, 144460, 721841
2096921,2096921, 144401, 721735
2096921,2096921, 144496, 721505
2096921,2096921, 143688, 720791
2096921,2096921, 143799, 720520
2096921,2096921, 143993, 720575
2096921,2096921, 143902, 720658
2096921,2096921, 143876, 720851
2096921,2096921, 143658, 720063
2096921,2096921, 143554, 719663
2096921,2096921, 143666, 719774
2096921,2096921, 143572, 719744
2096921,2096921, 143271, 719608
2096921,2096921, 143244, 719176
2096921,2096921, 143354, 719124
2096921,2096921, 143364, 718764
2096921,2096921, 143377, 719196
2096921,2096921, 143366, 718969
2096921,2096921, 143060, 719019
2096921,2096921, 143398, 719050
2096921,2096921, 143225, 718704
2096921,2096921, 142979, 718526
2096921,2096921, 143205, 718495
2096921,2096921, 142922, 718560
2096921,2096921, 143349, 718317
2096921,2096921, 143181, 718426
2096921,2096921, 143122, 718315
2096921,2096921, 142728, 718242
2096921,2096921, 143020, 718356
2096921,2096921, 143328, 718399
2096921,2096921, 142928, 718235
2096921,2096921, 143052, 718249
2096921,2096921, 143301, 718331
2096921,2096921, 143309, 718300
2096921,2096921, 142926, 718507
2096921,2096921, 143075, 718190
2096921,2096921, 143498, 718048
2096921,2096921, 143404, 718110
2096921,2096921, 143268, 718584
2096921,2096921, 143142, 718352
2096921,2096921, 143368, 718260
2096921,2096921, 143172, 718472
2096921,2096921, 143206, 718263
2096921,2096921, 143156, 718621
2096921,2096921, 143476, 718595
2096921,2096921, 143266, 718518
2096921,2096921, 143732, 718078
2096921,2096921, 143757, 718316
2096921,2096921, 143735, 718573
2096921,2096921, 143929, 718977
2096921,2096921, 143522, 718496
2096921,2096921, 143702, 718420
2096921,2096921, 143262, 718763
2096921,2096921, 143428, 719039
2096921,2096921, 143651, 718923
2096921,2096921, 143843, 719087
2096921,2096921, 143777, 718963
2096921,2096921, 143686, 719030
2096921,2096921, 143942, 719303
2096921,2096921, 143937, 719519
2096921,2096921, 143856, 719799
2096921,2096921, 143657, 719361
2096921,2096921, 143981, 719526
2096921,2096921, 144319, 719659
2096921,2096921, 144051, 719660
2096921,2096921, 144392, 719886
2096921,2096921, 144224, 719646
2096921,2096921, 144273, 720023
2096921,2096921, 144275, 719916
2096921,2096921, 144486, 720266
2096921,2096921, 144269, 719879
2096921,2096921, 144713, 719975
2096921,2096921, 144583, 720105
2096921,2096921, 144506, 720194
2096921,2096921, 144559, 720090
2096921,2096921, 144830, 720717
2096921,2096921, 144581, 720383
2096921,2096921, 144515, 720511
2096921,2096921, 144816, 720892
2096921,2096921, 144863, 721137
2096921,2096921, 144801, 720631
2096921,2096921, 144602, 720865
2096921,2096921, 144918, 720803
2096921,2096921, 145239, 720979
2096921,2096921, 145156, 721169
2096921,2096921, 144917, 721277
2096921,2096921, 145024, 721007
2096921,2096921, 145095, 721298
2096921,2096921, 145207, 721402
2096921,2096921, 145243, 721516
2096921,2096921, 145232, 721654
2096921,2096921, 144993, 721731
2096921,2096921, 145134, 721549
2096921,2096921, 145250, 721766
2096921,2096921, 145681, 721838
2096921,2096921, 145942, 721726
2096921,2096921, 145714, 721953
2096921,2096921, 145302, 721991
2096921,2096921, 145688, 721969
2096921,2096921, 145970, 722579
2096921,2096921, 145747, 722536
2096921,2096921, 145399, 722281
2096921,2096921, 145762, 722204
2096921,2096921, 145848, 722345
2096921,2096921, 145617, 722227
2096921,2096921, 145784, 722773
2096921,2096921, 145825, 722772
2096921,2096921, 145960, 722813
2096921,2096921, 145897, 722801
2096921,2096921, 145858, 723078
2096921,2096921, 146092, 722899
2096921,2096921, 146033, 722981
2096921,2096921, 146119, 722770
2096921,2096921, 145880, 723215
2096921,2096921, 146021, 723113
2096921,2096921, 146132, 722865
2096921,2096921, 146164, 722992
2096921,2096921, 146125, 723053
2096921,2096921, 145973, 723307
2096921,2096921, 145939, 723385
2096921,2096921, 146112, 722980
2096921,2096921, 146424, 723265
2096921,2096921, 145949, 723166
2096921,2096921, 146106, 723366
2096921,2096921, 146161, 722826
2096921,2096921, 146255, 723069
2096921,2096921, 146238, 722963
2096921,2096921, 146049, 722726
2096921,2096921, 146129, 723011
2096921,2096921, 146099, 722964
2096921,2096921, 146317, 723024
2096921,2096921, 146099, 722812
2096921,2096921, 146074, 722901
2096921,2096921, 145973, 722814
2096921,2096921, 145950, 722583
2096921,2096921, 146107, 722713
2096921,2096921, 146087, 722656
2096921,2096921, 146322, 722844
2096921,2096921, 146090, 722711
2096921,2096921, 146077, 722670
2096921,2096921, 145752, 722547
2096921,2096921, 146186, 722370
2096921,2096921, 146188, 722443
2096921,2096921, 146032, 722215
2096921,2096921, 145948, 722268
2096921,2096921, 145775, 722090
2096921,2096921, 146087, 722311
2096921,2096921, 145771, 722351
2096921,2096921, 145941, 721965
2096921,2096921, 145702, 721865
2096921,2096921, 145731, 722014
2096921,2096921, 145818, 721586
2096921,2096921, 145447, 721616
2096921,2096921, 145487, 721581
2096921,2096921, 145870, 721390
2096921,2096921, 145615, 721610
2096921,2096921, 145692, 721518
2096921,2096921, 145477, 721712
2096921,2096921, 145642, 721301
2096921,2096921, 145346, 721459
2096921,2096921, 145785, 721448
2096921,2096921, 145764, 721550
2096921,2096921, 145657, 721349
2096921,2096921, 145527, 720999
2096921,2096921, 145660, 721010
2096921,2096921, 145946, 721224
2096921,2096921, 145751, 721150
2096921,2096921, 145611, 721278
2096921,2096921, 145596, 721257
2096921,2096921, 145686, 721329
2096921,2096921, 145697, 720708
2096921,2096921, 145913, 721080
2096921,2096921, 145541, 721046
2096921,2096921, 145341, 720927
2096921,2096921, 145328, 720841
2096921,2096921, 145430, 721209
2096921,2096921, 145349, 720806
2096921,2096921, 145352, 720884
2096921,2096921, 145671, 721002
2096921,2096921, 145478, 721117
2096921,2096921, 145436, 721012
2096921,2096921, 145381, 720447
2096921,2096921, 145558, 720862
2096921,2096921, 145888, 721157
2096921,2096921, 145913, 721463
2096921,2096921, 145871, 721132
2096921,2096921, 145519, 721211
2096921,2096921, 145784, 721368
2096921,2096921, 145851, 721427
2096921,2096921, 145937, 721535
2096921,2096921, 145691, 721388
2096921,2096921, 145777, 721462
2096921,2096921, 145845, 721482
2096921,2096921, 145674, 721591
2096921,2096921, 145971, 721842
2096921,2096921, 146031, 722132
2096921,2096921, 146089, 721925
2096921,2096921, 146175, 721658
2096921,2096921, 146113, 721757
2096921,2096921, 145794, 721959
2096921,2096921, 146426, 722341
2096921,2096921, 145960, 722301
2096921,2096921, 146009, 722025
2096921,2096921, 146095, 722358
2096921,2096921, 146273, 722445
2096921,2096921, 146264, 722366
2096921,2096921, 146566, 722296
2096921,2096921, 146352, 722452
2096921,2096921, 146413, 722547
2096921,2096921, 146943, 722719
2096921,2096921, 146532, 722638
2096921,2096921, 146436, 722721
2096921,2096921, 146490, 722853
2096921,2096921, 146819, 723151
2096921,2096921, 146392, 722752
2096921,2096921, 146799, 722680
2096921,2096921, 146562, 722983
2096921,2096921, 146252, 723008
2096921,2096921, 146628, 723189
2096921,2096921, 146796, 723159
2096921,2096921, 146643, 723065
2096921,2096921, 146691, 723161
2096921,2096921, 146509, 723365
2096921,2096921, 146649, 723569
2096921,2096921, 147011, 723382
2096921,2096921, 146953, 723732
2096921,2096921, 147108, 723614
2096921,2096921, 147108, 723472
2096921,2096921, 147000, 723669
2096921,2096921, 147184, 724054
2096921,2096921, 147359, 723831
2096921,2096921, 147006, 723872
2096921,2096921, 146900, 724015
2096921,2096921, 147089, 723972
2096921,2096921, 147119, 724330
2096921,2096921, 147041, 723900
2096921,2096921, 147527, 724083
2096921,2096921, 147416, 724175
2096921,2096921, 147680, 724460
2096921,2096921, 147684, 724597
2096921,2096921, 147558, 724641
2096921,2096921, 147273, 724684
2096921,2096921, 147284, 724395
2096921,2096921, 147581, 724725
2096921,2096921, 147347, 724622
2096921,2096921, 147212, 724664
2096921,2096921, 147322, 724878
2096921,2096921, 147326, 725161
2096921,2096921, 147653, 725119
2096921,2096921, 147578, 725041
2096921,2096921, 147618, 725199
2096921,2096921, 147357, 724860
2096921,2096921, 147201, 725266
2096921,2096921, 147466, 725184
2096921,2096921, 147596, 725229
2096921,2096921, 147516, 725437
2096921,2096921, 147570, 725439
2096921,2096921, 147328, 725709
2096921,2096921, 147728, 725736
2096921,2096921, 147711, 726005
2096921,2096921, 147850, 725406
2096921,2096921, 147921, 725636
2096921,2096921, 148041, 725542
2096921,2096921, 147970, 725826
2096921,2096921, 147724, 725720
2096921,2096921, 147940, 725993
2096921,2096921, 147923, 726323
2096921,2096921, 148126, 726199
2096921,2096921, 148280, 726440
2096921,2096921, 148010, 726678
2096921,2096921, 148094, 726431
2096921,2096921, 147885, 726316
2096921,2096921, 148230, 726108
2096921,2096921, 147926, 726381
2096921,2096921, 148072, 726268
2096921,2096921, 147983, 726320
2096921,2096921, 148290, 726327
2096921,2096921, 148336, 726285
2096921,2096921, 148434, 726666
2096921,2096921, 148228, 726891
2096921,2096921, 148146, 726642
2096921,2096921, 148124, 726580
2096921,2096921, 148083, 726565
2096921,2096921, 148249, 726798
2096921,2096921, 147996, 726669
2096921,2096921, 148449, 727047
2096921,2096921, 148585, 727116
2096921,2096921, 148479, 727118
2096921,2096921, 148422, 727393
2096921,2096921, 148589, 726931
2096921,2096921, 148471, 727166
2096921,2096921, 148535, 726726
2096921,2096921, 148716, 726684
2096921,2096921, 148208, 726775
2096921,2096921, 148427, 727229
2096921,2096921, 148358, 727139
2096921,2096921, 148601, 727452
2096921,2096921, 148430, 727558
2096921,2096921, 148465, 727462
2096921,2096921, 148699, 727681
2096921,2096921, 148332, 727537
2096921,2096921, 148437, 727708
2096921,2096921, 148609, 727638
2096921,2096921, 148806, 727811
2096921,2096921, 148987, 727706
2096921,2096921, 148991, 727635
2096921,2096921, 148716, 727666
2096921,2096921, 148928, 727849
2096921,2096921, 149067, 727823
2096921,2096921, 149180, 727915
2096921,2096921, 149083, 728007
2096921,2096921, 149226, 728048
2096921,2096921, 149131, 727916
2096921,2096921, 148912, 727995
2096921,2096921, 149112, 727744
2096921,2096921, 149036, 727857
2096921,2096921, 149124, 728022
2096921,2096921, 148939, 727832
2096921,2096921, 149174, 727857
2096921,2096921, 149201, 728082
2096921,2096921, 148679, 728065
2096921,2096921, 148868, 728407
2096921,2096921, 149067, 728146
2096921,2096921, 148880, 727983
2096921,2096921, 149173, 728369
2096921,2096921, 149007, 728151
2096921,2096921, 149184, 728375
2096921,2096921, 149045, 728230
2096921,2096921, 149167, 728565
2096921,2096921, 149290, 728688
2096921,2096921, 149151, 728462
2096921,2096921, 148972, 728157
2096921,2096921, 149066, 728199
2096921,2096921, 149187, 728939
2096921,2096921, 149117, 728608
2096921,2096921, 149009, 729013
2096921,2096921, 149222, 728829
2096921,2096921, 149156, 728703
2096921,2096921, 149258, 728752
2096921,2096921, 149273, 728854
2096921,2096921, 149217, 729025
2096921,2096921, 149199, 728809
2096921,2096921, 149265, 728314
2096921,2096921, 149222, 728678
2096921,2096921, 149145, 728695
2096921,2096921, 149252, 728536
2096921,2096921, 149434, 728788
2096921,2096921, 149139, 728799
2096921,2096921, 149682, 728838
2096921,2096921, 149349, 728775
2096921,2096921, 149089, 728797
2096921,2096921, 149223, 728963
2096921,2096921, 149212, 728695
2096921,2096921, 149268, 728849
2096921,2096921, 149096, 729064
2096921,2096921, 149499, 729084
2096921,2096921, 149304, 729336
2096921,2096921, 149535, 729107
2096921,2096921, 149427, 729307
2096921,2096921, 149531, 729103
2096921,2096921, 149619, 729466
2096921,2096921, 149530, 729336
2096921,2096921, 149396, 729153
2096921,2096921, 149356, 729101
2096921,2096921, 149623, 729114
2096921,2096921, 149456, 728913
2096921,2096921, 149544, 729117
2096921,2096921, 149354, 729385
2096921,2096921, 149743, 729040
2096921,2096921, 149303, 729322
2096921,2096921, 149448, 729338
2096921,2096921, 149197, 729367
2096921,2096921, 149537, 729729
2096921,2096921, 149810, 729515
2096921,2096921, 149446, 729493
2096921,2096921, 149682, 729238
2096921,2096921, 149522, 729131
2096921,2096921, 149663, 729569
2096921,2096921, 149552, 729665
2096921,2096921, 149468, 729656
2096921,2096921, 149703, 729610
2096921,2096921, 149887, 729303
2096921,2096921, 149817, 729619
2096921,2096921, 149373, 729576
2096921,2096921, 149583, 729521
2096921,2096921, 149819, 729493
2096921,2096921, 149700, 729553
2096921,2096921, 149888, 729770
2096921,2096921, 149872, 729686
2096921,2096921, 149584, 729794
2096921,2096921, 149774, 729778
2096921,2096921, 149847, 729709
2096921,2096921, 149622, 729586
2096921,2096921, 149626, 729644
2096921,2096921, 149801, 729807
2096921,2096921, 149506, 729559
2096921,2096921, 149799, 729744
2096921,2096921, 149613, 729582
2096921,2096921, 149558, 729777
2096921,2096921, 149788, 730075
2096921,2096921, 149830, 730087
2096921,2096921, 149679, 730010
2096921,2096921, 149847, 730339
2096921,2096921, 149601, 730330
2096921,2096921, 149712, 729820
2096921,2096921, 149990, 730041
2096921,2096921, 149899, 730055
2096921,2096921, 149884, 730093
2096921,2096921, 150006, 730111
2096921,2096921, 149672, 730293
2096921,2096921, 149750, 730144
2096921,2096921, 149747, 730169
2096921,2096921, 149781, 729901
2096921,2096921, 149791, 730149
2096921,2096921, 150030, 729962
2096921,2096921, 150002, 730229
2096921,2096921, 149737, 730424
2096921,2096921, 149554, 729862
2096921,2096921, 149672, 730202
2096921,2096921, 149465, 730071
2096921,2096921, 149870, 730212
2096921,2096921, 149776, 730145
2096921,2096921, 149967, 730138
2096921,2096921, 149890, 730286
2096921,2096921, 149738, 730159
2096921,2096921, 149780, 730505
2096921,2096921, 150152, 730348
2096921,2096921, 149848, 730240
2096921,2096921, 150102, 730228
2096921,2096921, 149971, 730455
2096921,2096921, 149934, 730201
2096921,2096921, 149986, 730089
2096921,2096921, 150001, 730306
2096921,2096921, 149856, 730263
2096921,2096921, 149609, 730355
2096921,2096921, 150040, 730288
2096921,2096921, 149976, 730434
2096921,2096921, 149813, 730320
2096921,2096921, 149861, 730574
2096921,2096921, 149936, 730369
2096921,2096921, 149755, 730380
2096921,2096921, 149795, 730509
2096921,2096921, 149937, 730391
2096921,2096921, 149808, 730505
2096921,2096921, 149844, 730458
2096921,2096921, 149906, 730800
2096921,2096921, 149573, 730456
2096921,2096921, 149880, 730684
2096921,2096921, 149676, 730500
2096921,2096921, 149750, 730553
2096921,2096921, 150087, 730936
2096921,2096921, 150103, 730557
2096921,2096921, 150071, 730789
2096921,2096921, 149958, 730515
2096921,2096921, 150098, 730250
2096921,2096921, 150061, 730509
2096921,2096921, 149997, 730448
2096921,2096921, 149987, 730357
2096921,2096921, 149635, 730372
2096921,2096921, 149709, 730036
2096921,2096921, 149715, 730381
2096921,2096921, 149557, 730271
2096921,2096921, 149470, 730288
2096921,2096921, 149185, 729714
2096921,2096921, 149217, 729151
2096921,2096921, 149465, 729410
2096921,2096921, 149235, 729347
2096921,2096921, 149262, 729349
2096921,2096921, 148834, 728638
2096921,2096921, 148854, 728381
2096921,2096921, 148699, 728330
2096921,2096921, 148712, 728057
2096921,2096921, 149132, 728501
2096921,2096921, 148282, 727756
2096921,2096921, 148172, 727712
2096921,2096921, 148435, 727309
2096921,2096921, 148410, 727501
2096921,2096921, 148292, 727545
2096921,2096921, 147467, 725742
2096921,2096921, 147291, 725241
2096921,2096921, 147135, 724921
2096921,2096921, 147067, 724804
2096921,2096921, 147088, 724835
2096921,2096921, 146175, 722880
2096921,2096921, 145459, 721787
2096921,2096921, 145893, 721564
2096921,2096921, 145702, 721641
2096921,2096921, 145923, 721656
2096921,2096921, 144985, 720552
2096921,2096921, 144579, 719607
2096921,2096921, 144549, 719491
2096921,2096921, 144521, 719267
2096921,2096921, 144460, 719402
2096921,2096921, 143763, 718172
2096921,2096921, 144079, 717925
2096921,2096921, 143728, 717793
2096921,2096921, 143855, 717729
2096921,2096921, 143945, 717900
2096921,2096921, 143384, 717345
2096921,2096921, 143307, 716935
2096921,2096921, 143202, 716584
2096921,2096921, 143037, 716669
2096921,2096921, 143036, 716814
2096921,2096921, 142657, 716171
2096921,2096921, 142817, 715927
2096921,2096921, 142826, 715803
2096921,2096921, 142924, 716001
2096921,2096921, 143158, 716000
2096921,2096921, 142560, 715507
2096921,2096921, 142605, 715548
2096921,2096921, 142423, 715472
2096921,2096921, 142304, 715667
2096921,2096921, 142559, 714837
2096921,2096921, 142329, 714990
2096921,2096921, 142277, 714996
2096921,2096921, 142518, 714977
2096921,2096921, 142616, 715089
2096921,2096921, 142551, 715138
2096921,2096921, 142444, 715056
2096921,2096921, 142515, 715148
2096921,2096921, 142527, 715545
2096921,2096921, 142413, 715035
2096921,2096921, 142194, 714868
2096921,2096921, 142446, 714999
2096921,2096921, 142493, 715318
2096921,2096921, 142576, 715038
2096921,2096921, 142528, 715210
2096921,2096921, 142433, 715252
2096921,2096921, 142698, 715562
2096921,2096921, 142571, 716103
2096921,2096921, 142697, 715869
2096921,2096921, 142420, 715590
2096921,2096921, 142657, 715618
2096921,2096921, 142787, 716093
2096921,2096921, 142703, 715939
2096921,2096921, 143044, 715640
2096921,2096921, 142610, 715852
2096921,2096921, 142733, 715724
2096921,2096921, 142799, 716031
2096921,2096921, 142527, 716433
2096921,2096921, 142981, 716518
2096921,2096921, 142909, 716366
2096921,2096921, 142673, 716443
2096921,2096921, 142927, 716846
2096921,2096921, 142996, 717164
2096921,2096921, 143004, 717328
2096921,2096921, 143079, 717415
2096921,2096921, 143332, 717240
2096921,2096921, 143476, 717879
2096921,2096921, 143441, 718110
2096921,2096921, 143652, 718001
2096921,2096921, 143288, 718180
2096921,2096921, 142933, 717839
2096921,2096921, 143262, 718246
2096921,2096921, 143646, 718530
2096921,2096921, 143700, 718370
2096921,2096921, 143568, 719034
2096921,2096921, 143738, 719042
2096921,2096921, 144033, 719060
2096921,2096921, 144025, 719469
2096921,2096921, 143880, 719549
2096921,2096921, 143983, 719481
2096921,2096921, 144270, 719559
2096921,2096921, 144210, 719910
2096921,2096921, 144366, 720479
2096921,2096921, 144309, 720316
2096921,2096921, 144537, 720348
2096921,2096921, 144326, 720379
2096921,2096921, 144565, 720730
2096921,2096921, 144462, 721089
2096921,2096921, 144580, 721169
2096921,2096921, 144770, 720977
2096921,2096921, 144527, 721168
2096921,2096921, 144711, 721815
2096921,2096921, 144734, 721784
2096921,2096921, 144794, 721805
2096921,2096921, 145041, 722059
2096921,2096921, 145122, 721943
2096921,2096921, 145476, 722496
2096921,2096921, 145461, 722727
2096921,2096921, 145158, 722974
2096921,2096921, 145124, 722691
2096921,2096921, 144976, 722824
2096921,2096921, 145574, 723263
2096921,2096921, 145671, 723797
2096921,2096921, 145591, 723709
2096921,2096921, 145361, 723461
2096921,2096921, 145505, 723617
2096921,2096921, 145562, 723904
2096921,2096921, 146129, 724295
2096921,2096921, 145973, 724314
2096921,2096921, 145810, 724111
2096921,2096921, 145604, 724551
2096921,2096921, 145769, 724833
2096921,2096921, 146110, 725281
2096921,2096921, 146203, 725324
2096921,2096921, 146349, 725638
2096921,2096921, 146661, 725534
2096921,2096921, 146757, 725766
2096921,2096921, 146522, 726190
2096921,2096921, 146536, 725945
2096921,2096921, 146440, 726210
2096921,2096921, 146402, 726251
2096921,2096921, 146645, 726743
2096921,2096921, 147068, 726872
2096921,2096921, 146619, 726855
2096921,2096921, 146552, 726954
2096921,2096921, 146945, 726916
2096921,2096921, 147095, 727273
2096921,2096921, 147533, 727693
2096921,2096921, 147005, 727755
2096921,2096921, 147171, 727870
2096921,2096921, 146888, 727408
2096921,2096921, 147105, 727767
2096921,2096921, 147183, 728340
2096921,2096921, 147278, 727818
2096921,2096921, 147446, 727935
2096921,2096921, 147534, 728233
2096921,2096921, 147701, 728367
2096921,2096921, 147295, 728760
2096921,2096921, 147325, 728750
2096921,2096921, 147355, 728940
2096921,2096921, 147129, 728613
2096921,2096921, 147272, 728924
2096921,2096921, 147372, 728848
2096921,2096921, 147649, 729070
2096921,2096921, 147476, 729117
2096921,2096921, 147646, 729090
2096921,2096921, 147518, 729272
2096921,2096921, 147742, 729351
2096921,2096921, 147702, 729413
2096921,2096921, 147818, 729388
2096921,2096921, 147406, 729339
2096921,2096921, 147271, 729347
2096921,2096921, 147434, 729611
2096921,2096921, 147383, 729822
2096921,2096921, 147685, 729513
2096921,2096921, 147711, 729656
2096921,2096921, 147446, 729826
2096921,2096921, 147718, 729778
2096921,2096921, 147635, 729613
2096921,2096921, 147541, 729597
2096921,2096921, 147694, 729671
2096921,2096921, 147591, 729522
2096921,2096921, 147583, 729684
2096921,2096921, 147715, 729797
2096921,2096921, 147781, 729709
2096921,2096921, 147440, 729922
2096921,2096921, 147427, 729806
2096921,2096921, 147457, 729775
2096921,2096921, 147884, 730111
2096921,2096921, 147603, 729863
2096921,2096921, 147784, 729900
2096921,2096921, 147357, 729967
2096921,2096921, 147503, 729585
2096921,2096921, 147831, 729541
2096921,2096921, 147490, 729882
2096921,2096921, 147409, 729731
2096921,2096921, 147377, 729537
2096921,2096921, 147352, 730085
2096921,2096921, 147331, 729926
2096921,2096921, 147250, 729866
2096921,2096921, 147466, 729763
2096921,2096921, 147535, 729835
2096921,2096921, 147567, 729921
2096921,2096921, 147740, 729908
2096921,2096921, 147511, 730090
2096921,2096921, 147708, 729935
2096921,2096921, 147472, 730246
2096921,2096921, 147647, 730516
2096921,2096921, 147629, 730480
2096921,2096921, 147618, 730044
2096921,2096921, 147351, 730110
2096921,2096921, 147489, 730350
2096921,2096921, 147906, 730648
2096921,2096921, 147778, 730664
2096921,2096921, 147628, 730227
2096921,2096921, 147797, 730629
2096921,2096921, 147609, 730619
2096921,2096921, 147856, 731085
2096921,2096921, 147814, 731155
2096921,2096921, 147665, 730964
2096921,2096921, 147409, 730919
2096921,2096921, 147927, 731208
2096921,2096921, 148027, 731003
2096921,2096921, 147898, 731219
2096921,2096921, 147928, 731513
2096921,2096921, 148057, 731671
2096921,2096921, 148136, 731930
2096921,2096921, 148109, 732500
2096921,2096921, 148360, 732342
2096921,2096921, 148009, 732327
2096921,2096921, 148308, 731959
2096921,2096921, 148141, 732438
2096921,2096921, 148240, 732873
2096921,2096921, 148554, 732780
2096921,2096921, 148389, 732936
2096921,2096921, 148161, 733006
2096921,2096921, 148496, 733403
2096921,2096921, 148895, 733412
2096921,2096921, 148477, 733748
2096921,2096921, 148484, 733184
2096921,2096921, 148465, 733561
2096921,2096921, 148628, 733834
2096921,2096921, 149264, 734410
2096921,2096921, 149041, 734116
2096921,2096921, 148762, 734208
2096921,2096921, 148761, 734563
2096921,2096921, 149222, 734568
2096921,2096921, 149000, 734623
2096921,2096921, 149025, 735073
2096921,2096921, 149149, 734806
2096921,2096921, 148632, 734540
2096921,2096921, 148795, 735129
2096921,2096921, 149143, 735069
2096921,2096921, 149120, 735120
2096921,2096921, 149289, 735073
2096921,2096921, 149400, 735532
2096921,2096921, 149324, 735680
2096921,2096921, 149475, 736008
2096921,2096921, 149252, 736104
2096921,2096921, 149240, 735884
2096921,2096921, 149484, 736049
2096921,2096921, 149860, 736343
2096921,2096921, 149848, 736659
2096921,2096921, 149744, 736544
2096921,2096921, 149714, 736717
2096921,2096921, 149609, 736809
2096921,2096921, 149991, 737113
2096921,2096921, 149764, 737346
2096921,2096921, 149724, 737069
2096921,2096921, 149653, 737209
2096921,2096921, 149779, 737241
2096921,2096921, 149984, 737681
2096921,2096921, 149870, 737708
2096921,2096921, 149912, 737976
2096921,2096921, 149900, 738209
2096921,2096921, 150101, 738203
2096921,2096921, 150182, 738387
2096921,2096921, 150371, 738487
2096921,2096921, 150593, 738591
2096921,2096921, 150614, 738603
2096921,2096921, 150502, 738555
2096921,2096921, 150379, 738923
2096921,2096921, 150470, 738986
2096921,2096921, 150607, 739020
2096921,2096921, 150617, 738862
2096921,2096921, 150451, 739746
2096921,2096921, 150928, 739499
2096921,2096921, 150868, 739531
2096921,2096921, 150750, 739752
2096921,2096921, 150721, 739652
2096921,2096921, 150560, 739674
2096921,2096921, 150515, 739796
2096921,2096921, 150725, 740166
2096921,2096921, 151173, 740182
2096921,2096921, 150996, 740184
2096921,2096921, 150891, 740240
2096921,2096921, 150907, 740542
2096921,2096921, 150987, 740726
2096921,2096921, 151442, 740555
2096921,2096921, 150915, 740670
2096921,2096921, 151101, 740442
2096921,2096921, 150876, 740948
2096921,2096921, 151295, 741240
2096921,2096921, 151611, 741185
2096921,2096921, 151745, 741097
2096921,2096921, 151204, 741360
2096921,2096921, 151451, 741997
2096921,2096921, 151388, 742073
2096921,2096921, 151639, 741886
2096921,2096921, 151779, 741846
2096921,2096921, 151492, 742093
2096921,2096921, 151324, 742075
2096921,2096921, 151760, 742293
2096921,2096921, 151776, 742574
2096921,2096921, 151647, 742499
2096921,2096921, 151592, 742146
2096921,2096921, 151998, 742485
2096921,2096921, 151945, 742706
2096921,2096921, 151652, 742970
2096921,2096921, 151699, 742835
2096921,2096921, 151630, 742922
2096921,2096921, 152165, 743228
2096921,2096921, 151777, 743401
2096921,2096921, 151673, 743167
2096921,2096921, 151939, 743261
2096921,2096921, 152044, 743566
2096921,2096921, 152236, 743714
2096921,2096921, 151982, 744035
2096921,2096921, 152301, 743809
2096921,2096921, 152348, 743852
2096921,2096921, 152045, 743645
2096921,2096921, 152236, 744147
2096921,2096921, 151918, 744161
2096921,2096921, 152234, 744131
2096921,2096921, 152416, 744529
2096921,2096921, 152291, 744710
2096921,2096921, 152633, 744648
2096921,2096921, 152294, 744963
2096921,2096921, 152473, 744707
2096921,2096921, 152499, 744466
2096921,2096921, 152532, 744721
2096921,2096921, 152448, 745107
2096921,2096921, 152590, 744954
2096921,2096921, 152706, 745298
2096921,2096921, 152594, 744950
2096921,2096921, 152545, 745035
2096921,2096921, 152528, 745157
2096921,2096921, 152871, 745488
2096921,2096921, 152739, 746004
2096921,2096921, 152873, 745774
2096921,2096921, 152497, 745670
2096921,2096921, 152724, 745710
2096921,2096921, 152818, 745686
2096921,2096921, 152772, 745840
2096921,2096921, 153156, 746007
2096921,2096921, 153046, 745976
2096921,2096921, 152843, 746364
2096921,2096921, 152832, 746574
2096921,2096921, 152804, 746436
2096921,2096921, 153018, 746156
2096921,2096921, 152779, 746310
2096921,2096921, 153196, 746649
2096921,2096921, 152894, 746652
2096921,2096921, 153038, 746782
2096921,2096921, 153090, 746691
2096921,2096921, 153180, 746741
2096921,2096921, 153201, 747179
2096921,2096921, 152905, 747181
2096921,2096921, 153193, 747242
2096921,2096921, 153030, 746891
2096921,2096921, 153292, 746938
2096921,2096921, 152995, 747337
2096921,2096921, 153265, 747440
2096921,2096921, 153044, 747276
2096921,2096921, 153343, 747356
2096921,2096921, 153331, 747644
2096921,2096921, 153456, 747635
2096921,2096921, 153441, 747959
2096921,2096921, 153569, 748103
2096921,2096921, 153357, 747874
2096921,2096921, 153196, 747576
2096921,2096921, 153432, 747873
2096921,2096921, 153616, 747989
2096921,2096921, 153153, 748332
2096921,2096921, 153601, 748325
2096921,2096921, 153613, 748105
2096921,2096921, 153795, 748403
2096921,2096921, 153632, 748613
2096921,2096921, 153519, 748597
2096921,2096921, 153662, 748345
2096921,2096921, 153751, 748004
2096921,2096921, 153765, 748173
2096921,2096921, 153706, 748575
2096921,2096921, 153691, 748804
2096921,2096921, 153437, 748816
2096921,2096921, 153782, 748736
2096921,2096921, 153648, 748754
2096921,2096921, 154032, 748904
2096921,2096921, 153795, 749010
2096921,2096921, 153632, 749152
2096921,2096921, 153503, 748851
2096921,2096921, 153742, 749167
2096921,2096921, 153670, 749367
2096921,2096921, 154070, 749310
2096921,2096921, 153973, 749224
2096921,2096921, 153797, 749473
2096921,2096921, 154313, 749514
2096921,2096921, 153979, 749892
2096921,2096921, 154266, 749896
2096921,2096921, 153942, 749801
2096921,2096921, 153768, 749612
2096921,2096921, 153874, 749913
2096921,2096921, 154216, 749493
2096921,2096921, 154160, 749792
2096921,2096921, 153967, 749829
2096921,2096921, 154127, 749828
2096921,2096921, 154184, 750035
2096921,2096921, 154013, 750231
2096921,2096921, 153877, 750385
2096921,2096921, 153998, 750257
2096921,2096921, 153843, 750229
2096921,2096921, 153962, 750141
2096921,2096921, 154378, 750246
2096921,2096921, 154000, 750275
2096921,2096921, 154189, 750214
2096921,2096921, 154236, 750232
2096921,2096921, 154394, 750430
2096921,2096921, 154198, 750779
2096921,2096921, 154246, 750624
2096921,2096921, 154102, 750768
2096921,2096921, 154207, 750415
2096921,2096921, 154631, 750815
2096921,2096921, 154359, 751120
2096921,2096921, 154309, 750692
2096921,2096921, 154473, 751013
2096921,2096921, 154410, 750609
2096921,2096921, 154280, 750815
2096921,2096921, 154407, 751094
2096921,2096921, 154643, 751264
2096921,2096921, 154519, 751176
2096921,2096921, 154402, 751065
2096921,2096921, 154408, 751121
2096921,2096921, 154317, 750939
2096921,2096921, 154213, 751156
2096921,2096921, 154501, 751266
2096921,2096921, 154376, 751307
2096921,2096921, 154395, 751372
2096921,2096921, 154638, 751473
2096921,2096921, 154659, 751091
2096921,2096921, 154521, 751405
2096921,2096921, 154217, 751157
2096921,2096921, 154617, 751436
2096921,2096921, 154342, 751548
2096921,2096921, 154470, 751480
2096921,2096921, 154311, 751425
2096921,2096921, 154284, 751283
2096921,2096921, 154403, 751720
2096921,2096921, 154476, 751588
2096921,2096921, 154421, 751525
2096921,2096921, 154387, 751674
2096921,2096921, 154427, 751323
2096921,2096921, 154382, 751767
2096921,2096921, 154267, 751824
2096921,2096921, 154445, 751351
2096921,2096921, 154575, 751578
2096921,2096921, 154301, 751630
2096921,2096921, 154326, 751749
2096921,2096921, 154691, 751968
2096921,2096921, 154511, 751716
2096921,2096921, 154588, 752021
2096921,2096921, 154513, 751938
2096921,2096921, 154326, 751934
2096921,2096921, 154424, 751927
2096921,2096921, 154583, 751967
2096921,2096921, 154695, 752013
2096921,2096921, 154783, 752048
2096921,2096921, 154809, 752183
2096921,2096921, 154749, 752069
2096921,2096921, 154657, 752514
2096921,2096921, 154646, 752074
2096921,2096921, 154181, 751931
2096921,2096921, 154513, 751863
2096921,2096921, 154757, 752070
2096921,2096921, 154315, 752140
2096921,2096921, 154685, 752152
2096921,2096921, 154944, 752197
2096921,2096921, 154817, 751965
2096921,2096921, 154764, 752274
2096921,2096921, 154476, 752328
2096921,2096921, 154486, 751907
2096921,2096921, 154597, 751975
2096921,2096921, 154400, 751671
2096921,2096921, 154097, 751882
2096921,2096921, 154333, 751814
2096921,2096921, 154565, 751790
2096921,2096921, 154443, 751477
2096921,2096921, 154198, 751097
2096921,2096921, 154262, 751480
2096921,2096921, 154284, 751042
2096921,2096921, 154206, 751237
2096921,2096921, 154165, 751356
2096921,2096921, 154078, 750521
2096921,2096921, 154076, 750223
2096921,2096921, 153995, 750676
2096921,2096921, 153790, 750374
2096921,2096921, 153870, 750752
2096921,2096921, 153601, 749595
2096921,2096921, 153533, 749345
2096921,2096921, 153525, 749184
2096921,2096921, 153379, 749126
2096921,2096921, 153209, 749320
2096921,2096921, 152847, 748280
2096921,2096921, 152890, 748033
2096921,2096921, 152819, 748146
2096921,2096921, 152868, 748162
2096921,2096921, 152772, 748328
2096921,2096921, 151781, 746350
2096921,2096921, 151772, 745652
2096921,2096921, 151630, 745466
2096921,2096921, 151672, 745125
2096921,2096921, 151498, 745434
2096921,2096921, 150453, 743327
2096921,2096921, 150052, 742263
2096921,2096921, 150365, 742235
2096921,2096921, 150048, 742355
2096921,2096921, 150123, 742467
2096921,2096921, 149266, 740851
2096921,2096921, 149140, 740149
2096921,2096921, 149243, 739987
2096921,2096921, 148934, 739752
2096921,2096921, 149050, 739567
2096921,2096921, 148363, 738431
2096921,2096921, 148081, 737903
2096921,2096921, 147722, 737652
2096921,2096921, 148130, 737805
2096921,2096921, 148393, 738021
2096921,2096921, 147549, 736789
2096921,2096921, 147603, 736612
2096921,2096921, 147225, 736594
2096921,2096921, 147388, 736814
2096921,2096921, 147735, 736550
2096921,2096921, 147279, 735820
2096921,2096921, 146928, 735405
2096921,2096921, 147105, 735421
2096921,2096921, 147082, 735710
2096921,2096921, 146964, 735486
2096921,2096921, 146982, 735088
2096921,2096921, 146882, 735143
2096921,2096921, 146798, 734976
2096921,2096921, 146989, 734638
2096921,2096921, 146682, 734745
2096921,2096921, 146597, 734455
2096921,2096921, 146783, 734199
2096921,2096921, 146609, 734134
2096921,2096921, 146424, 734883
2096921,2096921, 146528, 734627
2096921,2096921, 146474, 734192
2096921,2096921, 146636, 734384
2096921,2096921, 146525, 733985
2096921,2096921, 146391, 734146
2096921,2096921, 146037, 734184
2096921,2096921, 146175, 734318
2096921,2096921, 146399, 733900
2096921,2096921, 146710, 733964
2096921,2096921, 146543, 734350
2096921,2096921, 146536, 734108
2096921,2096921, 146426, 734638
2096921,2096921, 146592, 734406
2096921,2096921, 146718, 734498
2096921,2096921, 146769, 734664
2096921,2096921, 146449, 734423
2096921,2096921, 146573, 734507
2096921,2096921, 146405, 734635
2096921,2096921, 146420, 734656
2096921,2096921, 146708, 734919
2096921,2096921, 146726, 734770
2096921,2096921, 146722, 734930
2096921,2096921, 146794, 735002
2096921,2096921, 146908, 735135
2096921,2096921, 146852, 734805
2096921,2096921, 146400, 734651
2096921,2096921, 146810, 735182
2096921,2096921, 146671, 735427
2096921,2096921, 147014, 734984
2096921,2096921, 146901, 735513
2096921,2096921, 147341, 735180
2096921,2096921, 147323, 735865
2096921,2096921, 146995, 735851
2096921,2096921, 147098, 735628
2096921,2096921, 146835, 735735
2096921,2096921, 146813, 736014
2096921,2096921, 147076, 736149
2096921,2096921, 147450, 736315
2096921,2096921, 147246, 736236
2096921,2096921, 147312, 736756
2096921,2096921, 147283, 736688
2096921,2096921, 147659, 736863
2096921,2096921, 147643, 737017
2096921,2096921, 147738, 737215
2096921,2096921, 147599, 737315
2096921,2096921, 147571, 737289
2096921,2096921, 147588, 737595
2096921,2096921, 147734, 737756
2096921,2096921, 147918, 737671
2096921,2096921, 148153, 737668
2096921,2096921, 147881, 737698
2096921,2096921, 148167, 737936
2096921,2096921, 148358, 737928
2096921,2096921, 148193, 738065
2096921,2096921, 147883, 738244
2096921,2096921, 148069, 738165
2096921,2096921, 148343, 738589
2096921,2096921, 148455, 738746
2096921,2096921, 148537, 738554
2096921,2096921, 148850, 738507
2096921,2096921, 148888, 738908
2096921,2096921, 148927, 738871
2096921,2096921, 148990, 739421
2096921,2096921, 148692, 739761
2096921,2096921, 148645, 739154
2096921,2096921, 148689, 739040
2096921,2096921, 148961, 739968
2096921,2096921, 148919, 739918
2096921,2096921, 149004, 739838
2096921,2096921, 149194, 739736
2096921,2096921, 148995, 739765
2096921,2096921, 149379, 740269
2096921,2096921, 149221, 740759
2096921,2096921, 149006, 740600
2096921,2096921, 149158, 740873
2096921,2096921, 149234, 740386
2096921,2096921, 149529, 740861
2096921,2096921, 149231, 741112
2096921,2096921, 149409, 741005
2096921,2096921, 149276, 741290
2096921,2096921, 149552, 741027
2096921,2096921, 149673, 741498
2096921,2096921, 149808, 741632
2096921,2096921, 149652, 741710
2096921,2096921, 150039, 741519
2096921,2096921, 149966, 741695
2096921,2096921, 149825, 741933
2096921,2096921, 149755, 741821
2096921,2096921, 149911, 742177
2096921,2096921, 149972, 742114
2096921,2096921, 150132, 742384
2096921,2096921, 150383, 742472
2096921,2096921, 150315, 742791
2096921,2096921, 150274, 742487
2096921,2096921, 150247, 742700
2096921,2096921, 150315, 742506
2096921,2096921, 149951, 742772
2096921,2096921, 150096, 742939
2096921,2096921, 150332, 742565
2096921,2096921, 150500, 742667
2096921,2096921, 150363, 742782
2096921,2096921, 150109, 743153
2096921,2096921, 150358, 742996
2096921,2096921, 150642, 743042
2096921,2096921, 150311, 742996
2096921,2096921, 150294, 742975
2096921,2096921, 150458, 742997
2096921,2096921, 150342, 743121
2096921,2096921, 150317, 743088
2096921,2096921, 150620, 743135
2096921,2096921, 150589, 743499
2096921,2096921, 150368, 743191
2096921,2096921, 150622, 743671
2096921,2096921, 150483, 743674
2096921,2096921, 150701, 743535
2096921,2096921, 150621, 743242
2096921,2096921, 150589, 743288
2096921,2096921, 150533, 743468
2096921,2096921, 150650, 742919
2096921,2096921, 150458, 743313
2096921,2096921, 150583, 743213
