2096921,2096921,217088,571420,0
2096921,2096921,217181,571308,0
2096921,2096921,217147,571110,0
2096921,2096921,216839,571150,0
2096921,2096921,217087,571172,0
2096921,2096921,217135,571165,0
2096921,2096921,216635,571298,0
2096921,2096921,216786,571327,0
2096921,2096921,216967,571255,0
2096921,2096921,217139,571297,0
2096921,2096921,217364,571567,0
2096921,2096921,217049,571288,0
2096921,2096921,216780,570998,0
2096921,2096921,216834,571357,0
2096921,2096921,216859,571241,0
2096921,2096921,217039,571215,0
2096921,2096921,217150,571120,0
2096921,2096921,216951,571331,0
2096921,2096921,217346,571407,0
2096921,2096921,217339,571674,0
2096921,2096921,217331,571802,0
2096921,2096921,217222,571418,0
2096921,2096921,217296,571291,0
2096921,2096921,217234,571239,0
2096921,2096921,216885,571290,0
2096921,2096921,217246,571511,0
2096921,2096921,217258,571528,0
2096921,2096921,217566,571519,0
2096921,2096921,217524,571652,0
2096921,2096921,217548,571817,0
2096921,2096921,217463,571863,0
2096921,2096921,217267,571680,0
2096921,2096921,217343,571789,0
2096921,2096921,217264,571773,0
2096921,2096921,217071,571739,0
2096921,2096921,216926,571447,0
2096921,2096921,217308,571720,0
2096921,2096921,217633,571773,0
2096921,2096921,217559,571705,0
2096921,2096921,217400,571864,0
2096921,2096921,217161,571830,0
2096921,2096921,217311,571896,0
2096921,2096921,217504,571722,0
2096921,2096921,217027,571641,0
2096921,2096921,217189,571630,0
2096921,2096921,217527,571619,0
2096921,2096921,217094,571775,0
2096921,2096921,217596,571398,0
2096921,2096921,217757,571600,0
2096921,2096921,217774,571753,0
2096921,2096921,217468,571752,0
2096921,2096921,217483,571769,0
2096921,2096921,217288,571948,0
2096921,2096921,217343,571748,0
2096921,2096921,217299,571740,0
2096921,2096921,217387,571685,0
2096921,2096921,217302,571880,0
2096921,2096921,217755,571552,0
2096921,2096921,217686,571948,0
2096921,2096921,217725,571929,0
2096921,2096921,217755,571686,0
2096921,2096921,217439,571653,0
2096921,2096921,217285,571696,0
2096921,2096921,217297,572000,0
2096921,2096921,217386,571821,0
2096921,2096921,217296,571846,0
2096921,2096921,217644,571644,0
2096921,2096921,217755,571963,0
2096921,2096921,217739,571959,0
2096921,2096921,217464,571881,0
2096921,2096921,217508,571478,0
2096921,2096921,217501,571929,0
2096921,2096921,217376,571932,0
2096921,2096921,217081,571835,0
2096921,2096921,217369,571991,0
2096921,2096921,217386,571852,0
2096921,2096921,217469,571921,0
2096921,2096921,217433,571863,0
2096921,2096921,217349,572099,0
2096921,2096921,217590,571958,0
2096921,2096921,217417,571935,0
2096921,2096921,217509,571821,0
2096921,2096921,217589,571913,0
2096921,2096921,217442,571760,0
2096921,2096921,217431,571701,0
2096921,2096921,217174,571670,0
2096921,2096921,217148,572057,0
2096921,2096921,217301,571960,0
2096921,2096921,217510,572331,0
2096921,2096921,217886,571906,0
2096921,2096921,217675,572042,0
2096921,2096921,217447,571619,0
2096921,2096921,217061,572050,0
2096921,2096921,217227,571836,0
2096921,2096921,217627,571939,0
2096921,2096921,217577,571902,0
2096921,2096921,217385,571799,0
2096921,2096921,217576,571824,0
2096921,2096921,217718,572098,0
2096921,2096921,217504,572211,0
2096921,2096921,217394,571936,0
2096921,2096921,217261,572419,0
2096921,2096921,217496,572285,0
2096921,2096921,217521,572007,0
2096921,2096921,217425,571777,0
2096921,2096921,217535,572092,0
2096921,2096921,217265,571543,0
2096921,2096921,217220,571397,0
2096921,2096921,217257,571744,0
2096921,2096921,217564,571366,0
2096921,2096921,217143,571647,0
2096921,2096921,217076,571725,0
2096921,2096921,217142,571568,0
2096921,2096921,216952,571593,0
2096921,2096921,216890,571165,0
2096921,2096921,216821,571275,0
2096921,2096921,216813,571318,0
2096921,2096921,216853,571292,0
2096921,2096921,217041,570899,0
2096921,2096921,217293,570949,0
2096921,2096921,217046,571337,0
2096921,2096921,216672,570990,0
2096921,2096921,216390,570499,0
2096921,2096921,216352,570032,0
2096921,2096921,216224,570252,0
2096921,2096921,216203,570090,0
2096921,2096921,216169,570304,0
2096921,2096921,215826,570260,0
2096921,2096921,216051,569859,0
2096921,2096921,216118,569706,0
2096921,2096921,216003,569669,0
2096921,2096921,215717,569424,0
2096921,2096921,215541,568537,0
2096921,2096921,215236,568817,0
2096921,2096921,214978,568637,0
2096921,2096921,215101,568518,0
2096921,2096921,214785,568430,0
2096921,2096921,214236,566942,0
2096921,2096921,213891,566875,0
2096921,2096921,214111,567089,0
2096921,2096921,214067,566927,0
2096921,2096921,213814,566622,0
2096921,2096921,213145,565494,0
2096921,2096921,213067,565075,0
2096921,2096921,212991,564973,0
2096921,2096921,212920,564817,0
2096921,2096921,212584,565060,0
2096921,2096921,212674,564722,0
2096921,2096921,212244,564436,0
2096921,2096921,212268,564406,0
2096921,2096921,212269,564161,0
2096921,2096921,211606,564088,0
2096921,2096921,211523,563741,0
2096921,2096921,211542,563322,0
2096921,2096921,211914,563308,0
2096921,2096921,211805,563342,0
2096921,2096921,211432,563289,0
2096921,2096921,211382,562914,0
2096921,2096921,211381,562918,0
2096921,2096921,211358,562936,0
2096921,2096921,211544,562719,0
2096921,2096921,211276,562753,0
2096921,2096921,211090,562338,0
2096921,2096921,210886,562544,0
2096921,2096921,210764,562298,0
2096921,2096921,211199,562348,0
2096921,2096921,211039,562192,0
2096921,2096921,210851,562399,0
2096921,2096921,211139,562152,0
2096921,2096921,211072,561873,0
2096921,2096921,211223,562042,0
2096921,2096921,211220,562062,0
2096921,2096921,210956,562001,0
2096921,2096921,210924,562080,0
2096921,2096921,210820,561827,0
2096921,2096921,210604,562275,0
2096921,2096921,210680,562253,0
2096921,2096921,211041,562428,0
2096921,2096921,210783,562398,0
2096921,2096921,211149,562333,0
2096921,2096921,210991,562243,0
2096921,2096921,211197,562268,0
2096921,2096921,210876,562234,0
2096921,2096921,210880,562444,0
2096921,2096921,210929,562353,0
2096921,2096921,210876,562339,0
2096921,2096921,211009,562238,0
2096921,2096921,210995,562457,0
2096921,2096921,211169,562482,0
2096921,2096921,211398,562704,0
2096921,2096921,211628,562758,0
2096921,2096921,210997,562443,0
2096921,2096921,211185,562541,0
2096921,2096921,210924,562531,0
2096921,2096921,211087,562544,0
2096921,2096921,211211,562800,0
2096921,2096921,211265,562872,0
2096921,2096921,211311,563111,0
2096921,2096921,211460,563038,0
2096921,2096921,211211,563046,0
2096921,2096921,211322,563281,0
2096921,2096921,211286,563367,0
2096921,2096921,211576,563437,0
2096921,2096921,211302,563367,0
2096921,2096921,211299,563243,0
2096921,2096921,211429,563345,0
2096921,2096921,211733,563476,0
2096921,2096921,212116,563707,0
2096921,2096921,211914,563839,0
2096921,2096921,211777,564097,0
2096921,2096921,212025,564038,0
2096921,2096921,212028,563881,0
2096921,2096921,211782,564303,0
2096921,2096921,211913,564373,0
2096921,2096921,212011,564217,0
2096921,2096921,211760,563992,0
2096921,2096921,211900,564364,0
2096921,2096921,212053,564566,0
2096921,2096921,212301,564659,0
2096921,2096921,212335,564770,0
2096921,2096921,212338,565069,0
2096921,2096921,212313,564837,0
2096921,2096921,212629,565106,0
2096921,2096921,212308,565078,0
2096921,2096921,212441,565218,0
2096921,2096921,212179,564983,0
2096921,2096921,212731,564640,0
2096921,2096921,212855,565115,0
2096921,2096921,212766,564929,0
2096921,2096921,212754,565372,0
2096921,2096921,212739,565520,0
2096921,2096921,212835,565305,0
2096921,2096921,212676,565665,0
2096921,2096921,212504,565758,0
2096921,2096921,212671,565658,0
2096921,2096921,212925,565814,0
2096921,2096921,213146,565471,0
2096921,2096921,213459,566274,0
2096921,2096921,213641,566308,0
2096921,2096921,213529,566309,0
2096921,2096921,213528,566464,0
2096921,2096921,213750,566726,0
2096921,2096921,213625,566744,0
2096921,2096921,213435,566512,0
2096921,2096921,213632,566790,0
2096921,2096921,213736,566535,0
2096921,2096921,213756,566785,0
2096921,2096921,213891,566611,0
2096921,2096921,213964,566982,0
2096921,2096921,214093,567179,0
2096921,2096921,213980,567132,0
2096921,2096921,213990,566947,0
2096921,2096921,213887,567184,0
2096921,2096921,213827,567330,0
2096921,2096921,213954,567272,0
2096921,2096921,213923,567381,0
2096921,2096921,214096,567285,0
2096921,2096921,214195,567619,0
2096921,2096921,214615,567929,0
2096921,2096921,214456,567952,0
2096921,2096921,214374,568049,0
2096921,2096921,214466,567974,0
2096921,2096921,214494,568136,0
2096921,2096921,214518,568369,0
2096921,2096921,214350,568558,0
2096921,2096921,214751,568528,0
2096921,2096921,214632,568169,0
2096921,2096921,214793,568627,0
2096921,2096921,214748,568653,0
2096921,2096921,214771,568716,0
2096921,2096921,214664,568641,0
2096921,2096921,214684,568888,0
2096921,2096921,214566,568789,0
2096921,2096921,214652,569006,0
2096921,2096921,214551,568759,0
2096921,2096921,214846,568576,0
2096921,2096921,214958,568798,0
2096921,2096921,214925,568746,0
2096921,2096921,214962,569059,0
2096921,2096921,215176,568771,0
2096921,2096921,215107,569210,0
2096921,2096921,215288,569127,0
2096921,2096921,215132,569266,0
2096921,2096921,215015,569167,0
2096921,2096921,214944,569213,0
2096921,2096921,214834,569383,0
2096921,2096921,215023,569386,0
2096921,2096921,215299,569139,0
2096921,2096921,215418,569563,0
2096921,2096921,215433,569423,0
2096921,2096921,214957,569711,0
2096921,2096921,214994,569243,0
2096921,2096921,215109,569207,0
2096921,2096921,215162,569600,0
2096921,2096921,214943,569414,0
2096921,2096921,214678,569466,0
2096921,2096921,215118,569487,0
2096921,2096921,214741,569147,0
2096921,2096921,215443,569230,0
2096921,2096921,215415,569559,0
2096921,2096921,214958,569555,0
2096921,2096921,215009,569563,0
2096921,2096921,214700,569597,0
2096921,2096921,215065,569525,0
2096921,2096921,214836,569484,0
2096921,2096921,215194,569529,0
2096921,2096921,214963,569590,0
2096921,2096921,214899,569458,0
2096921,2096921,215114,569232,0
2096921,2096921,215190,569743,0
2096921,2096921,215236,569745,0
2096921,2096921,215010,569547,0
2096921,2096921,214888,569711,0
2096921,2096921,215029,569205,0
2096921,2096921,214575,569581,0
2096921,2096921,214962,569122,0
2096921,2096921,215178,569189,0
2096921,2096921,215340,569441,0
2096921,2096921,215141,569387,0
2096921,2096921,215072,569679,0
2096921,2096921,215304,569403,0
2096921,2096921,215155,569694,0
2096921,2096921,215025,569938,0
2096921,2096921,215097,569963,0
2096921,2096921,214899,569610,0
2096921,2096921,215001,569550,0
2096921,2096921,215115,569510,0
2096921,2096921,215388,569938,0
2096921,2096921,215240,569977,0
2096921,2096921,214842,570145,0
2096921,2096921,215098,569820,0
2096921,2096921,215104,569980,0
2096921,2096921,215246,569822,0
2096921,2096921,215124,570118,0
2096921,2096921,215247,570097,0
2096921,2096921,215111,570054,0
2096921,2096921,214814,569780,0
2096921,2096921,215435,570291,0
2096921,2096921,215224,570444,0
2096921,2096921,215269,570385,0
2096921,2096921,215162,570252,0
2096921,2096921,215417,570351,0
2096921,2096921,215456,570489,0
2096921,2096921,215451,570679,0
2096921,2096921,215499,570668,0
2096921,2096921,215332,570867,0
2096921,2096921,215692,570599,0
2096921,2096921,215580,571165,0
2096921,2096921,216067,571287,0
2096921,2096921,215825,571332,0
2096921,2096921,216056,571394,0
2096921,2096921,215581,571376,0
2096921,2096921,215952,571364,0
2096921,2096921,215721,571192,0
2096921,2096921,216268,571393,0
2096921,2096921,216140,571111,0
2096921,2096921,215913,571076,0
2096921,2096921,216088,571658,0
2096921,2096921,216230,571979,0
2096921,2096921,216497,571996,0
2096921,2096921,216292,571735,0
2096921,2096921,216413,571772,0
2096921,2096921,216399,572339,0
2096921,2096921,216126,572204,0
2096921,2096921,216289,572141,0
2096921,2096921,216560,572322,0
2096921,2096921,216267,572023,0
2096921,2096921,216380,572301,0
2096921,2096921,216480,572584,0
2096921,2096921,216674,572871,0
2096921,2096921,216598,572569,0
2096921,2096921,216510,572609,0
2096921,2096921,216656,572728,0
2096921,2096921,216613,572943,0
2096921,2096921,216430,572726,0
2096921,2096921,216690,572812,0
2096921,2096921,216854,572975,0
2096921,2096921,216830,573009,0
2096921,2096921,217210,573010,0
2096921,2096921,216900,573083,0
2096921,2096921,217116,573254,0
2096921,2096921,217079,573308,0
2096921,2096921,217281,573684,0
2096921,2096921,217103,573579,0
2096921,2096921,216980,573357,0
2096921,2096921,216773,573344,0
2096921,2096921,216887,573443,0
2096921,2096921,217405,573880,0
2096921,2096921,217547,573878,0
2096921,2096921,217382,573997,0
2096921,2096921,217711,573931,0
2096921,2096921,217226,573994,0
2096921,2096921,217216,573957,0
2096921,2096921,217305,574264,0
2096921,2096921,217112,574310,0
2096921,2096921,217205,574210,0
2096921,2096921,217268,574103,0
2096921,2096921,217639,574226,0
2096921,2096921,217695,574686,0
2096921,2096921,217595,574689,0
2096921,2096921,217706,574602,0
2096921,2096921,217849,574509,0
2096921,2096921,217765,574771,0
2096921,2096921,217692,574439,0
2096921,2096921,217709,574733,0
2096921,2096921,217529,574785,0
2096921,2096921,217632,574881,0
2096921,2096921,218071,574865,0
2096921,2096921,218230,575046,0
2096921,2096921,218307,575021,0
2096921,2096921,218227,575473,0
2096921,2096921,218184,575215,0
2096921,2096921,218435,575231,0
2096921,2096921,218215,575467,0
2096921,2096921,217997,575196,0
2096921,2096921,218110,575455,0
2096921,2096921,218052,575159,0
2096921,2096921,218237,575582,0
2096921,2096921,218400,575667,0
2096921,2096921,218244,576217,0
2096921,2096921,218336,575663,0
2096921,2096921,218596,575762,0
2096921,2096921,218363,576002,0
2096921,2096921,218661,575953,0
2096921,2096921,218733,575842,0
2096921,2096921,218680,575803,0
2096921,2096921,218578,576039,0
2096921,2096921,218921,576432,0
2096921,2096921,218861,576463,0
2096921,2096921,218853,576460,0
2096921,2096921,219113,576570,0
2096921,2096921,218816,576318,0
2096921,2096921,218591,576650,0
2096921,2096921,218548,576381,0
2096921,2096921,218668,576220,0
2096921,2096921,218699,576407,0
2096921,2096921,218782,576599,0
2096921,2096921,219060,576682,0
2096921,2096921,219119,576945,0
2096921,2096921,218804,577029,0
2096921,2096921,219004,576839,0
2096921,2096921,218886,576648,0
2096921,2096921,219202,577216,0
2096921,2096921,218792,577002,0
2096921,2096921,219055,576994,0
2096921,2096921,219117,576881,0
2096921,2096921,219112,577139,0
2096921,2096921,219498,577277,0
2096921,2096921,219537,577559,0
2096921,2096921,219321,577721,0
2096921,2096921,219083,577481,0
2096921,2096921,219285,577612,0
2096921,2096921,219441,577889,0
2096921,2096921,219055,577570,0
2096921,2096921,219150,577352,0
2096921,2096921,219362,577546,0
2096921,2096921,219464,577548,0
2096921,2096921,219544,577624,0
2096921,2096921,219587,577934,0
2096921,2096921,219589,577960,0
2096921,2096921,219602,578166,0
2096921,2096921,219660,578132,0
2096921,2096921,219471,578464,0
2096921,2096921,219569,578112,0
2096921,2096921,219581,577929,0
2096921,2096921,219691,577906,0
2096921,2096921,219925,578103,0
2096921,2096921,219736,578206,0
2096921,2096921,219889,578645,0
2096921,2096921,219852,578445,0
2096921,2096921,219751,578338,0
2096921,2096921,219829,578515,0
2096921,2096921,220049,578600,0
2096921,2096921,219831,578710,0
2096921,2096921,219805,578252,0
2096921,2096921,219579,578513,0
2096921,2096921,219977,578725,0
2096921,2096921,220026,578763,0
2096921,2096921,220026,578992,0
2096921,2096921,219941,578885,0
2096921,2096921,219926,579056,0
2096921,2096921,220103,578764,0
2096921,2096921,220062,578749,0
2096921,2096921,220217,579153,0
2096921,2096921,219923,578801,0
2096921,2096921,219953,579206,0
2096921,2096921,219975,578986,0
2096921,2096921,220200,579282,0
2096921,2096921,220160,579396,0
2096921,2096921,220404,579416,0
2096921,2096921,220705,579618,0
2096921,2096921,220526,579463,0
2096921,2096921,220253,579515,0
2096921,2096921,220283,579602,0
2096921,2096921,219970,579389,0
2096921,2096921,220169,579162,0
2096921,2096921,220519,579446,0
2096921,2096921,220254,579570,0
2096921,2096921,220199,579894,0
2096921,2096921,220339,579544,0
2096921,2096921,220507,580022,0
2096921,2096921,220469,579797,0
2096921,2096921,220410,579796,0
2096921,2096921,220155,579779,0
2096921,2096921,220320,579845,0
2096921,2096921,220329,579711,0
2096921,2096921,220427,579742,0
2096921,2096921,220226,579669,0
2096921,2096921,220793,579737,0
2096921,2096921,220461,579725,0
2096921,2096921,220542,580180,0
2096921,2096921,220727,580081,0
2096921,2096921,220587,579834,0
2096921,2096921,220393,580105,0
2096921,2096921,220506,579935,0
2096921,2096921,220576,579845,0
2096921,2096921,220537,579830,0
2096921,2096921,221031,580394,0
2096921,2096921,220915,580401,0
2096921,2096921,220592,580471,0
2096921,2096921,220605,580647,0
2096921,2096921,220541,580322,0
2096921,2096921,220455,580544,0
2096921,2096921,220697,580364,0
2096921,2096921,220761,580278,0
2096921,2096921,220641,580181,0
2096921,2096921,220815,580140,0
2096921,2096921,220985,580683,0
2096921,2096921,220846,581019,0
2096921,2096921,220968,580972,0
2096921,2096921,221135,580953,0
2096921,2096921,221313,580679,0
2096921,2096921,221139,580830,0
2096921,2096921,220691,580782,0
2096921,2096921,220930,581099,0
2096921,2096921,221006,580920,0
2096921,2096921,221136,580731,0
2096921,2096921,221173,581264,0
2096921,2096921,220848,580882,0
2096921,2096921,221022,581102,0
2096921,2096921,221083,580945,0
2096921,2096921,221181,580892,0
2096921,2096921,221415,581123,0
2096921,2096921,220929,581031,0
2096921,2096921,220789,581058,0
2096921,2096921,221029,580951,0
2096921,2096921,221126,580906,0
2096921,2096921,221206,581531,0
2096921,2096921,221293,581507,0
2096921,2096921,221546,581482,0
2096921,2096921,221591,581195,0
2096921,2096921,221520,581542,0
2096921,2096921,221318,581624,0
2096921,2096921,221240,581467,0
2096921,2096921,221361,581559,0
2096921,2096921,221125,581817,0
2096921,2096921,221182,581448,0
2096921,2096921,221475,581849,0
2096921,2096921,221332,581554,0
2096921,2096921,221352,581872,0
2096921,2096921,221447,582060,0
2096921,2096921,221221,581712,0
2096921,2096921,221242,581560,0
2096921,2096921,221619,581582,0
2096921,2096921,221535,581530,0
2096921,2096921,221296,581119,0
2096921,2096921,221406,581825,0
2096921,2096921,221515,581721,0
2096921,2096921,221562,581873,0
2096921,2096921,221615,581993,0
2096921,2096921,221321,581939,0
2096921,2096921,221277,581758,0
2096921,2096921,221506,581732,0
2096921,2096921,221537,581799,0
2096921,2096921,221532,581566,0
2096921,2096921,221427,581957,0
2096921,2096921,221491,581840,0
2096921,2096921,221474,582211,0
2096921,2096921,221298,582130,0
2096921,2096921,221643,582204,0
2096921,2096921,221784,582089,0
2096921,2096921,221568,582082,0
2096921,2096921,221346,582028,0
2096921,2096921,221439,582331,0
2096921,2096921,221658,582224,0
2096921,2096921,221432,581956,0
2096921,2096921,221362,582389,0
2096921,2096921,221688,582121,0
2096921,2096921,221667,582257,0
2096921,2096921,221900,582368,0
2096921,2096921,221909,582453,0
2096921,2096921,222014,582287,0
2096921,2096921,221961,582234,0
2096921,2096921,221588,582416,0
2096921,2096921,221505,582601,0
2096921,2096921,221593,582351,0
2096921,2096921,221475,582422,0
2096921,2096921,221609,582520,0
2096921,2096921,221693,582494,0
2096921,2096921,222046,582486,0
2096921,2096921,221647,582496,0
2096921,2096921,221482,582624,0
2096921,2096921,221652,582606,0
2096921,2096921,221600,582545,0
2096921,2096921,221307,582165,0
2096921,2096921,221684,582682,0
2096921,2096921,221812,582336,0
2096921,2096921,221357,582278,0
2096921,2096921,221727,582282,0
2096921,2096921,221417,582264,0
2096921,2096921,221665,582555,0
2096921,2096921,221529,582345,0
2096921,2096921,221480,581913,0
2096921,2096921,221526,582025,0
2096921,2096921,221044,581886,0
2096921,2096921,221688,582004,0
2096921,2096921,220839,581979,0
2096921,2096921,221078,581795,0
2096921,2096921,221158,581692,0
2096921,2096921,221391,581670,0
2096921,2096921,221385,582101,0
2096921,2096921,220791,582064,0
2096921,2096921,220660,581279,0
2096921,2096921,220798,581188,0
2096921,2096921,220656,581050,0
2096921,2096921,220485,580748,0
2096921,2096921,220166,581418,0
2096921,2096921,220191,580679,0
2096921,2096921,220573,580541,0
2096921,2096921,220432,580553,0
2096921,2096921,220457,580714,0
2096921,2096921,219689,580705,0
2096921,2096921,219551,579569,0
2096921,2096921,219612,579326,0
2096921,2096921,219489,579350,0
2096921,2096921,219553,579063,0
2096921,2096921,218739,579146,0
2096921,2096921,218222,578152,0
2096921,2096921,218112,577789,0
2096921,2096921,218435,577270,0
2096921,2096921,218299,577433,0
2096921,2096921,217768,577764,0
2096921,2096921,217483,576460,0
2096921,2096921,217053,576177,0
2096921,2096921,217186,576059,0
2096921,2096921,217379,575733,0
2096921,2096921,216686,575449,0
2096921,2096921,216533,575111,0
2096921,2096921,216595,575315,0
2096921,2096921,216751,575015,0
2096921,2096921,216637,575393,0
2096921,2096921,216316,575189,0
2096921,2096921,216092,574515,0
2096921,2096921,216105,574286,0
2096921,2096921,215742,574507,0
2096921,2096921,216045,574215,0
2096921,2096921,215826,574233,0
2096921,2096921,215718,573831,0
2096921,2096921,215518,573773,0
2096921,2096921,215700,573957,0
2096921,2096921,215151,573938,0
2096921,2096921,215182,573761,0
2096921,2096921,215353,573538,0
2096921,2096921,215065,573380,0
2096921,2096921,215193,573356,0
2096921,2096921,215270,573166,0
2096921,2096921,215131,573413,0
2096921,2096921,214916,573123,0
2096921,2096921,215265,573395,0
2096921,2096921,215164,573402,0
2096921,2096921,215341,573290,0
2096921,2096921,215175,573479,0
2096921,2096921,215134,573368,0
2096921,2096921,214967,573218,0
2096921,2096921,214923,572997,0
2096921,2096921,214942,573338,0
2096921,2096921,215090,572951,0
2096921,2096921,214987,572935,0
2096921,2096921,214923,573118,0
2096921,2096921,215357,572919,0
2096921,2096921,214942,573107,0
2096921,2096921,215220,573163,0
2096921,2096921,215252,573304,0
2096921,2096921,215000,573365,0
2096921,2096921,215084,573140,0
2096921,2096921,215211,572960,0
2096921,2096921,215358,573248,0
2096921,2096921,215341,573267,0
2096921,2096921,215200,573271,0
2096921,2096921,215534,573383,0
2096921,2096921,215409,573653,0
2096921,2096921,215263,573507,0
2096921,2096921,215371,573883,0
2096921,2096921,215316,573867,0
2096921,2096921,215362,573559,0
2096921,2096921,215014,573287,0
2096921,2096921,215251,573522,0
2096921,2096921,215722,573544,0
2096921,2096921,215735,573744,0
2096921,2096921,216030,573819,0
2096921,2096921,215683,573787,0
2096921,2096921,215670,574029,0
2096921,2096921,215967,574242,0
2096921,2096921,215728,574274,0
2096921,2096921,215608,574192,0
2096921,2096921,215493,574111,0
2096921,2096921,215866,573881,0
2096921,2096921,215913,574295,0
2096921,2096921,215786,574181,0
2096921,2096921,216161,574299,0
2096921,2096921,215929,574562,0
2096921,2096921,215973,574819,0
2096921,2096921,216273,574844,0
2096921,2096921,216130,574775,0
2096921,2096921,216183,574848,0
2096921,2096921,215838,575045,0
2096921,2096921,216173,574796,0
2096921,2096921,216353,575319,0
2096921,2096921,216391,575406,0
2096921,2096921,216561,575418,0
2096921,2096921,216546,575481,0
2096921,2096921,216465,575313,0
2096921,2096921,216441,575614,0
2096921,2096921,216493,575328,0
2096921,2096921,216582,575283,0
2096921,2096921,216757,575432,0
2096921,2096921,216804,575368,0
2096921,2096921,216688,575793,0
2096921,2096921,216848,575613,0
2096921,2096921,216896,575777,0
2096921,2096921,217294,576001,0
2096921,2096921,216738,575801,0
2096921,2096921,216926,576381,0
2096921,2096921,217084,576113,0
2096921,2096921,217152,576102,0
2096921,2096921,217134,575990,0
2096921,2096921,217155,575864,0
2096921,2096921,217440,576152,0
2096921,2096921,217414,576313,0
2096921,2096921,217237,576748,0
2096921,2096921,217096,576526,0
2096921,2096921,216991,576326,0
2096921,2096921,217166,576827,0
2096921,2096921,217524,576629,0
2096921,2096921,217240,576685,0
2096921,2096921,217607,576890,0
2096921,2096921,217486,576499,0
2096921,2096921,217828,576782,0
2096921,2096921,217731,577236,0
2096921,2096921,217866,577256,0
2096921,2096921,217899,577045,0
2096921,2096921,217900,577137,0
2096921,2096921,218193,577549,0
2096921,2096921,217803,577497,0
2096921,2096921,217730,577282,0
2096921,2096921,217732,577046,0
2096921,2096921,218016,577358,0
2096921,2096921,218235,577222,0
2096921,2096921,218240,577665,0
2096921,2096921,218457,578067,0
2096921,2096921,218210,577498,0
2096921,2096921,217850,577687,0
2096921,2096921,218283,577743,0
2096921,2096921,217975,577787,0
2096921,2096921,218161,577817,0
2096921,2096921,218068,577761,0
2096921,2096921,218076,577856,0
2096921,2096921,218349,577934,0
2096921,2096921,218385,577633,0
2096921,2096921,218567,578263,0
2096921,2096921,218170,578196,0
2096921,2096921,218377,578499,0
2096921,2096921,218688,577881,0
2096921,2096921,218504,578000,0
2096921,2096921,218212,578167,0
2096921,2096921,218541,578272,0
2096921,2096921,218701,578394,0
2096921,2096921,218685,578462,0
2096921,2096921,218743,578647,0
2096921,2096921,218928,578224,0
2096921,2096921,218611,578422,0
2096921,2096921,218341,578481,0
2096921,2096921,218326,578660,0
2096921,2096921,218460,578475,0
2096921,2096921,218668,578295,0
2096921,2096921,218576,578179,0
2096921,2096921,218829,578418,0
2096921,2096921,218572,578381,0
2096921,2096921,218719,578436,0
2096921,2096921,218674,578583,0
2096921,2096921,218949,578535,0
2096921,2096921,218491,578510,0
2096921,2096921,218594,578300,0
2096921,2096921,218502,578424,0
2096921,2096921,218454,578036,0
2096921,2096921,218446,578157,0
2096921,2096921,218839,578493,0
2096921,2096921,218722,578415,0
2096921,2096921,218183,578157,0
2096921,2096921,218463,578442,0
2096921,2096921,218571,578663,0
2096921,2096921,218429,578533,0
2096921,2096921,218241,578095,0
2096921,2096921,218674,577932,0
2096921,2096921,218265,577783,0
2096921,2096921,218363,577982,0
2096921,2096921,218215,577958,0
2096921,2096921,218556,577751,0
2096921,2096921,218377,577840,0
2096921,2096921,218575,578226,0
2096921,2096921,218496,578380,0
2096921,2096921,218275,578243,0
2096921,2096921,217999,577658,0
2096921,2096921,218227,577693,0
2096921,2096921,218195,577979,0
2096921,2096921,218173,577655,0
2096921,2096921,218103,577759,0
2096921,2096921,218253,577405,0
2096921,2096921,218288,577774,0
2096921,2096921,218462,577840,0
2096921,2096921,218186,578090,0
2096921,2096921,218419,578143,0
2096921,2096921,218274,578079,0
2096921,2096921,218225,577745,0
2096921,2096921,218452,578058,0
2096921,2096921,218027,577906,0
2096921,2096921,218095,577759,0
2096921,2096921,217864,577716,0
2096921,2096921,218331,577889,0
2096921,2096921,218112,577635,0
2096921,2096921,218317,577791,0
2096921,2096921,218220,578293,0
2096921,2096921,218291,577973,0
2096921,2096921,218286,578348,0
2096921,2096921,218575,577972,0
2096921,2096921,218488,578004,0
2096921,2096921,218131,577699,0
2096921,2096921,218168,577978,0
2096921,2096921,218623,577980,0
2096921,2096921,218592,577828,0
2096921,2096921,218319,578056,0
2096921,2096921,218869,578239,0
2096921,2096921,218743,578487,0
2096921,2096921,218653,578128,0
2096921,2096921,218425,578148,0
2096921,2096921,218588,578313,0
2096921,2096921,218430,578162,0
2096921,2096921,218660,578322,0
2096921,2096921,218437,578430,0
2096921,2096921,218815,578728,0
2096921,2096921,219084,578297,0
2096921,2096921,218741,578535,0
2096921,2096921,219122,579012,0
2096921,2096921,218760,578869,0
2096921,2096921,218986,578896,0
2096921,2096921,219167,578686,0
2096921,2096921,218814,578752,0
2096921,2096921,218948,578833,0
2096921,2096921,219169,579374,0
2096921,2096921,219065,579087,0
2096921,2096921,219466,579042,0
2096921,2096921,219349,578966,0
2096921,2096921,219353,578983,0
2096921,2096921,219068,579036,0
2096921,2096921,218935,578965,0
2096921,2096921,219083,578933,0
2096921,2096921,219009,579330,0
2096921,2096921,218957,579538,0
2096921,2096921,219363,579397,0
2096921,2096921,219139,579601,0
2096921,2096921,219532,579360,0
2096921,2096921,219642,579451,0
2096921,2096921,219287,579174,0
2096921,2096921,219194,579288,0
2096921,2096921,219403,579371,0
2096921,2096921,219501,579153,0
2096921,2096921,219187,579533,0
2096921,2096921,219581,579559,0
2096921,2096921,219197,580125,0
2096921,2096921,219591,580082,0
2096921,2096921,219393,580007,0
2096921,2096921,219741,579856,0
2096921,2096921,219442,579912,0
2096921,2096921,219449,579752,0
2096921,2096921,219159,579866,0
2096921,2096921,219527,579587,0
2096921,2096921,219760,579875,0
2096921,2096921,219645,580104,0
2096921,2096921,219744,580422,0
2096921,2096921,219749,580230,0
2096921,2096921,219877,580027,0
2096921,2096921,220101,579937,0
2096921,2096921,219942,580281,0
2096921,2096921,219844,580418,0
2096921,2096921,219709,580517,0
2096921,2096921,219742,580190,0
2096921,2096921,219812,580326,0
2096921,2096921,219955,580409,0
2096921,2096921,220049,580480,0
2096921,2096921,219976,580361,0
2096921,2096921,219967,580487,0
2096921,2096921,219977,580464,0
2096921,2096921,220101,580760,0
2096921,2096921,219766,580628,0
2096921,2096921,219918,580524,0
2096921,2096921,220043,580161,0
2096921,2096921,219790,580343,0
2096921,2096921,220107,580675,0
2096921,2096921,220140,580637,0
2096921,2096921,220203,580800,0
2096921,2096921,220525,580694,0
2096921,2096921,220166,580408,0
2096921,2096921,220092,580741,0
2096921,2096921,220013,580852,0
2096921,2096921,220092,580774,0
2096921,2096921,220316,580383,0
2096921,2096921,220540,580839,0
2096921,2096921,220355,581131,0
2096921,2096921,220801,580975,0
2096921,2096921,220928,580968,0
2096921,2096921,220233,581231,0
2096921,2096921,220447,581058,0
2096921,2096921,220653,581117,0
2096921,2096921,220370,580688,0
2096921,2096921,220552,581048,0
2096921,2096921,220461,581212,0
2096921,2096921,220688,580996,0
2096921,2096921,220640,581270,0
2096921,2096921,220709,581223,0
2096921,2096921,220738,581085,0
2096921,2096921,220790,580918,0
2096921,2096921,220637,581282,0
2096921,2096921,220693,580979,0
2096921,2096921,220694,581142,0
2096921,2096921,220479,580962,0
2096921,2096921,220323,581306,0
2096921,2096921,220763,581350,0
2096921,2096921,220562,581210,0
2096921,2096921,220864,581373,0
2096921,2096921,220883,581405,0
2096921,2096921,220602,581505,0
2096921,2096921,220669,581194,0
2096921,2096921,220954,581220,0
2096921,2096921,220614,581366,0
2096921,2096921,220373,581106,0
2096921,2096921,220798,581078,0
2096921,2096921,220784,581316,0
2096921,2096921,220729,581242,0
2096921,2096921,220790,581415,0
2096921,2096921,220833,581520,0
2096921,2096921,220931,581394,0
2096921,2096921,220765,581384,0
2096921,2096921,221056,581228,0
2096921,2096921,220696,581257,0
2096921,2096921,220524,581440,0
2096921,2096921,220654,581116,0
2096921,2096921,220752,581208,0
2096921,2096921,220606,581456,0
2096921,2096921,220881,581444,0
2096921,2096921,220972,581836,0
2096921,2096921,220951,581837,0
2096921,2096921,221136,581545,0
2096921,2096921,221140,581439,0
2096921,2096921,220929,581004,0
2096921,2096921,220849,581007,0
2096921,2096921,220564,581431,0
2096921,2096921,220910,581313,0
2096921,2096921,220757,581146,0
2096921,2096921,220760,581309,0
2096921,2096921,221036,581596,0
2096921,2096921,221154,581801,0
2096921,2096921,220839,581612,0
2096921,2096921,221183,581275,0
2096921,2096921,221032,581374,0
2096921,2096921,221143,581445,0
2096921,2096921,220878,581355,0
2096921,2096921,220994,581310,0
2096921,2096921,220998,581263,0
2096921,2096921,221081,581427,0
2096921,2096921,221064,581524,0
2096921,2096921,220954,581398,0
2096921,2096921,220889,581561,0
2096921,2096921,221000,581579,0
2096921,2096921,221261,581292,0
2096921,2096921,221018,581280,0
2096921,2096921,220872,581260,0
2096921,2096921,220793,581078,0
2096921,2096921,220984,581407,0
2096921,2096921,221088,581661,0
2096921,2096921,221320,581554,0
2096921,2096921,221191,581257,0
2096921,2096921,220996,581766,0
2096921,2096921,221062,581343,0
2096921,2096921,220781,581172,0
2096921,2096921,220629,581380,0
2096921,2096921,220963,581196,0
2096921,2096921,220923,581078,0
2096921,2096921,220938,581387,0
2096921,2096921,220844,581444,0
2096921,2096921,221140,581419,0
2096921,2096921,220989,581359,0
2096921,2096921,220931,581479,0
2096921,2096921,220996,581428,0
2096921,2096921,220966,581253,0
2096921,2096921,221053,580989,0
2096921,2096921,220832,581085,0
2096921,2096921,220708,581426,0
2096921,2096921,220860,581307,0
2096921,2096921,221053,581698,0
2096921,2096921,221619,581631,0
2096921,2096921,221032,581436,0
2096921,2096921,221510,581409,0
2096921,2096921,220864,581035,0
2096921,2096921,221017,581229,0
2096921,2096921,221067,581110,0
2096921,2096921,220800,581078,0
2096921,2096921,221072,580952,0
2096921,2096921,220900,581208,0
2096921,2096921,221196,581210,0
2096921,2096921,221053,581414,0
2096921,2096921,221139,581254,0
2096921,2096921,221049,580924,0
2096921,2096921,220926,581056,0
2096921,2096921,221058,581201,0
2096921,2096921,220944,581127,0
2096921,2096921,221228,581190,0
2096921,2096921,221217,580885,0
2096921,2096921,221074,580901,0
2096921,2096921,221317,581061,0
2096921,2096921,221446,580863,0
2096921,2096921,220931,581201,0
2096921,2096921,220912,581061,0
2096921,2096921,221199,580790,0
2096921,2096921,220933,580813,0
2096921,2096921,221124,581060,0
2096921,2096921,221124,581296,0
2096921,2096921,220713,580753,0
2096921,2096921,221134,580653,0
2096921,2096921,221193,580876,0
2096921,2096921,221122,580878,0
2096921,2096921,221067,581201,0
2096921,2096921,221193,581057,0
2096921,2096921,220786,580638,0
2096921,2096921,220955,580643,0
2096921,2096921,220806,580590,0
2096921,2096921,220798,580390,0
2096921,2096921,220857,580509,0
2096921,2096921,220851,580693,0
2096921,2096921,220996,580965,0
2096921,2096921,221271,580895,0
2096921,2096921,221057,580791,0
2096921,2096921,220868,580957,0
2096921,2096921,220808,580737,0
2096921,2096921,220780,580831,0
2096921,2096921,220795,580678,0
2096921,2096921,220923,580777,0
2096921,2096921,220889,580524,0
2096921,2096921,220806,580617,0
2096921,2096921,220912,580771,0
2096921,2096921,221040,580718,0
2096921,2096921,220870,580713,0
2096921,2096921,221216,580536,0
2096921,2096921,220878,580402,0
2096921,2096921,220749,580481,0
2096921,2096921,220523,580505,0
2096921,2096921,220584,580554,0
2096921,2096921,221045,580284,0
2096921,2096921,220699,580453,0
2096921,2096921,220887,580576,0
2096921,2096921,220579,580442,0
2096921,2096921,220877,580537,0
2096921,2096921,220869,580200,0
2096921,2096921,220968,580306,0
2096921,2096921,220526,580036,0
2096921,2096921,220574,580320,0
2096921,2096921,220493,580013,0
2096921,2096921,220509,580149,0
2096921,2096921,220756,580208,0
2096921,2096921,220416,579804,0
2096921,2096921,220674,580026,0
2096921,2096921,220723,580515,0
2096921,2096921,220888,580180,0
2096921,2096921,220689,580288,0
2096921,2096921,220797,579743,0
2096921,2096921,220644,579846,0
2096921,2096921,220297,579666,0
2096921,2096921,220496,579853,0
2096921,2096921,220432,579670,0
2096921,2096921,220549,579692,0
2096921,2096921,220701,579739,0
2096921,2096921,220893,579817,0
2096921,2096921,220390,579783,0
2096921,2096921,220557,579538,0
2096921,2096921,220621,579540,0
2096921,2096921,220410,579586,0
2096921,2096921,220486,579542,0
2096921,2096921,220650,579544,0
2096921,2096921,220902,579040,0
2096921,2096921,220597,579533,0
2096921,2096921,220559,579451,0
2096921,2096921,220214,579460,0
2096921,2096921,220441,579468,0
2096921,2096921,220402,578948,0
2096921,2096921,220366,579291,0
2096921,2096921,220296,579400,0
2096921,2096921,220332,579072,0
2096921,2096921,220195,579169,0
2096921,2096921,220182,578899,0
2096921,2096921,220000,578919,0
2096921,2096921,219848,578926,0
2096921,2096921,220353,579006,0
2096921,2096921,220287,579191,0
2096921,2096921,219991,578567,0
2096921,2096921,219700,578394,0
2096921,2096921,219919,578334,0
2096921,2096921,219890,578392,0
2096921,2096921,219718,578301,0
2096921,2096921,219497,578023,0
2096921,2096921,219506,578124,0
2096921,2096921,219720,577917,0
2096921,2096921,219918,577560,0
2096921,2096921,219780,577925,0
2096921,2096921,219535,577024,0
2096921,2096921,218989,577104,0
2096921,2096921,219026,577002,0
2096921,2096921,219124,577024,0
2096921,2096921,218892,577061,0
2096921,2096921,218843,576638,0
2096921,2096921,218493,576565,0
2096921,2096921,218648,576853,0
2096921,2096921,218772,576723,0
2096921,2096921,218455,576368,0
2096921,2096921,217888,574951,0
2096921,2096921,217719,575016,0
2096921,2096921,217587,574872,0
2096921,2096921,217398,574738,0
2096921,2096921,216875,574926,0
2096921,2096921,216819,573178,0
2096921,2096921,216411,573059,0
2096921,2096921,216472,572742,0
2096921,2096921,216750,573047,0
2096921,2096921,216156,573120,0
2096921,2096921,215503,571598,0
2096921,2096921,215170,571284,0
2096921,2096921,215495,571292,0
2096921,2096921,215160,571264,0
2096921,2096921,214818,571247,0
2096921,2096921,214591,569907,0
2096921,2096921,214710,569980,0
2096921,2096921,214405,570148,0
2096921,2096921,214916,570130,0
2096921,2096921,214151,570190,0
2096921,2096921,213738,569280,0
2096921,2096921,213693,568954,0
2096921,2096921,213836,568866,0
2096921,2096921,213760,568924,0
2096921,2096921,213618,569111,0
2096921,2096921,213446,568312,0
2096921,2096921,213422,568542,0
2096921,2096921,213708,568368,0
2096921,2096921,213678,568508,0
2096921,2096921,213072,568422,0
2096921,2096921,213104,568035,0
2096921,2096921,212976,567588,0
2096921,2096921,212878,567493,0
2096921,2096921,212849,567625,0
2096921,2096921,212765,567718,0
2096921,2096921,212978,567338,0
2096921,2096921,213175,567406,0
2096921,2096921,212943,567481,0
2096921,2096921,212884,567529,0
2096921,2096921,212433,567404,0
2096921,2096921,212589,567046,0
2096921,2096921,212473,566945,0
2096921,2096921,212396,567174,0
2096921,2096921,212646,566970,0
2096921,2096921,212778,566885,0
2096921,2096921,212550,567075,0
2096921,2096921,212570,567136,0
2096921,2096921,212674,567006,0
2096921,2096921,212872,567068,0
2096921,2096921,212963,567135,0
2096921,2096921,212486,567316,0
2096921,2096921,212632,566938,0
2096921,2096921,212729,566803,0
2096921,2096921,212790,566940,0
2096921,2096921,212628,566878,0
2096921,2096921,212704,566619,0
2096921,2096921,212470,566891,0
2096921,2096921,212958,566756,0
2096921,2096921,212689,566780,0
2096921,2096921,212868,567326,0
2096921,2096921,212520,567157,0
2096921,2096921,212840,566825,0
2096921,2096921,212749,567056,0
2096921,2096921,212823,566956,0
2096921,2096921,212811,566745,0
2096921,2096921,212908,566711,0
2096921,2096921,212976,567056,0
2096921,2096921,212932,567140,0
2096921,2096921,212817,567309,0
2096921,2096921,213119,567386,0
2096921,2096921,212828,567551,0
2096921,2096921,213047,566975,0
2096921,2096921,213247,567128,0
2096921,2096921,212924,567062,0
2096921,2096921,213060,567295,0
2096921,2096921,213305,567012,0
2096921,2096921,213476,567076,0
2096921,2096921,213426,567379,0
2096921,2096921,213260,567424,0
2096921,2096921,213133,567390,0
2096921,2096921,213228,567485,0
2096921,2096921,213346,567648,0
2096921,2096921,213463,567447,0
2096921,2096921,213432,567594,0
2096921,2096921,213162,567237,0
2096921,2096921,213608,567810,0
2096921,2096921,213685,567922,0
2096921,2096921,213752,567996,0
2096921,2096921,213780,567665,0
2096921,2096921,213841,567729,0
2096921,2096921,213610,567891,0
2096921,2096921,213388,567789,0
2096921,2096921,213358,567582,0
2096921,2096921,213406,567872,0
2096921,2096921,213548,567791,0
2096921,2096921,213477,567886,0
2096921,2096921,213668,567841,0
2096921,2096921,213837,567884,0
2096921,2096921,213864,568217,0
2096921,2096921,214098,568334,0
2096921,2096921,214284,568363,0
2096921,2096921,213842,568051,0
2096921,2096921,213683,568122,0
2096921,2096921,213597,568015,0
2096921,2096921,214197,567983,0
2096921,2096921,214224,568198,0
2096921,2096921,214230,568369,0
2096921,2096921,213984,568262,0
2096921,2096921,214284,568682,0
2096921,2096921,214170,568550,0
2096921,2096921,214349,568646,0
2096921,2096921,214415,568389,0
2096921,2096921,214368,568242,0
2096921,2096921,214159,568368,0
2096921,2096921,214180,568409,0
2096921,2096921,214145,569131,0
2096921,2096921,214309,568770,0
2096921,2096921,214742,569075,0
2096921,2096921,214603,568835,0
2096921,2096921,214588,569026,0
2096921,2096921,214635,569163,0
2096921,2096921,214421,569208,0
2096921,2096921,214540,568945,0
2096921,2096921,214691,569048,0
2096921,2096921,214493,569047,0
2096921,2096921,214810,569132,0
2096921,2096921,215035,569108,0
2096921,2096921,215125,569144,0
2096921,2096921,215206,568902,0
2096921,2096921,215294,569183,0
2096921,2096921,214909,569458,0
2096921,2096921,214968,569103,0
2096921,2096921,215152,569106,0
2096921,2096921,214886,569211,0
2096921,2096921,214907,569379,0
2096921,2096921,214871,569523,0
2096921,2096921,214814,569703,0
2096921,2096921,214758,569219,0
2096921,2096921,215470,569409,0
2096921,2096921,215338,569568,0
2096921,2096921,215547,569322,0
2096921,2096921,214860,569206,0
2096921,2096921,215010,569103,0
2096921,2096921,215005,569006,0
2096921,2096921,214852,569034,0
2096921,2096921,214753,569149,0
2096921,2096921,215207,569728,0
2096921,2096921,215206,569607,0
2096921,2096921,215284,569185,0
2096921,2096921,215035,569375,0
2096921,2096921,214956,569071,0
2096921,2096921,215158,569216,0
2096921,2096921,214869,569256,0
2096921,2096921,214960,569210,0
2096921,2096921,215283,569166,0
2096921,2096921,215048,568934,0
2096921,2096921,214944,569222,0
2096921,2096921,215038,569458,0
2096921,2096921,214818,569271,0
2096921,2096921,215142,568829,0
2096921,2096921,215146,568906,0
2096921,2096921,215098,568728,0
2096921,2096921,214536,568991,0
2096921,2096921,214847,569041,0
2096921,2096921,215013,568922,0
2096921,2096921,215025,568968,0
2096921,2096921,214825,568792,0
2096921,2096921,215166,568848,0
2096921,2096921,214904,568923,0
2096921,2096921,214809,569071,0
2096921,2096921,214858,569072,0
2096921,2096921,214555,568278,0
2096921,2096921,214719,568536,0
2096921,2096921,214673,568317,0
2096921,2096921,214532,568411,0
2096921,2096921,214636,568562,0
2096921,2096921,214683,568466,0
2096921,2096921,214710,568620,0
2096921,2096921,214693,568943,0
2096921,2096921,214541,568537,0
2096921,2096921,214566,568347,0
2096921,2096921,214505,568365,0
2096921,2096921,214352,567895,0
2096921,2096921,214575,568065,0
2096921,2096921,214463,568016,0
2096921,2096921,214361,567939,0
2096921,2096921,214591,568306,0
2096921,2096921,214515,568382,0
2096921,2096921,214418,568064,0
2096921,2096921,214572,568132,0
2096921,2096921,214161,567882,0
2096921,2096921,213952,567871,0
2096921,2096921,214181,567659,0
2096921,2096921,214248,567657,0
2096921,2096921,214483,568213,0
2096921,2096921,214177,568068,0
2096921,2096921,214407,568019,0
2096921,2096921,214605,567877,0
2096921,2096921,214562,567869,0
2096921,2096921,214495,568052,0
2096921,2096921,214404,567824,0
2096921,2096921,214460,567750,0
2096921,2096921,214221,567674,0
2096921,2096921,214200,567606,0
2096921,2096921,214161,568051,0
2096921,2096921,214467,567568,0
2096921,2096921,214251,567740,0
2096921,2096921,214507,567803,0
2096921,2096921,214200,567759,0
2096921,2096921,214527,567800,0
2096921,2096921,214489,568195,0
2096921,2096921,214438,567820,0
2096921,2096921,214368,567972,0
2096921,2096921,214251,567715,0
2096921,2096921,214317,567655,0
2096921,2096921,214829,568080,0
2096921,2096921,214461,568267,0
2096921,2096921,214606,568172,0
2096921,2096921,214756,568456,0
2096921,2096921,214638,568422,0
2096921,2096921,214688,568607,0
2096921,2096921,214937,568147,0
2096921,2096921,214677,568274,0
2096921,2096921,214566,568147,0
2096921,2096921,214617,568302,0
2096921,2096921,214964,568321,0
2096921,2096921,214999,568547,0
2096921,2096921,214929,568651,0
2096921,2096921,214844,568664,0
2096921,2096921,214772,568588,0
2096921,2096921,215188,568593,0
2096921,2096921,214770,568458,0
2096921,2096921,214731,568319,0
2096921,2096921,214650,568176,0
2096921,2096921,214905,568274,0
2096921,2096921,215070,568369,0
2096921,2096921,215248,568654,0
2096921,2096921,214981,568532,0
2096921,2096921,215133,568935,0
2096921,2096921,215009,568766,0
2096921,2096921,215009,569049,0
2096921,2096921,214871,568668,0
2096921,2096921,214914,568486,0
2096921,2096921,215228,568768,0
2096921,2096921,215007,568465,0
2096921,2096921,215109,568707,0
2096921,2096921,215473,568954,0
2096921,2096921,215453,568847,0
2096921,2096921,215228,569047,0
2096921,2096921,215239,569090,0
2096921,2096921,215388,569243,0
2096921,2096921,215387,568953,0
2096921,2096921,215142,568856,0
2096921,2096921,215270,568680,0
2096921,2096921,215492,569106,0
2096921,2096921,215151,568986,0
2096921,2096921,215202,569282,0
2096921,2096921,215380,569360,0
2096921,2096921,215700,569415,0
2096921,2096921,215509,569225,0
2096921,2096921,215765,569405,0
2096921,2096921,215828,569123,0
2096921,2096921,215478,568969,0
2096921,2096921,215410,569285,0
2096921,2096921,215672,569181,0
2096921,2096921,215408,569232,0
2096921,2096921,215830,569110,0
2096921,2096921,215710,569317,0
2096921,2096921,215657,569637,0
2096921,2096921,215595,569819,0
2096921,2096921,215554,569523,0
2096921,2096921,215807,569460,0
2096921,2096921,215476,569224,0
2096921,2096921,215971,568944,0
2096921,2096921,215867,569293,0
2096921,2096921,216118,569134,0
2096921,2096921,216057,569262,0
2096921,2096921,215949,569431,0
2096921,2096921,215828,569716,0
2096921,2096921,216011,569400,0
2096921,2096921,215893,570134,0
2096921,2096921,215492,569780,0
2096921,2096921,215741,569687,0
2096921,2096921,216329,569469,0
2096921,2096921,216104,569606,0
2096921,2096921,215741,569828,0
2096921,2096921,215793,569833,0
2096921,2096921,216114,569624,0
2096921,2096921,215835,570034,0
2096921,2096921,216080,569759,0
2096921,2096921,216265,570307,0
2096921,2096921,216356,570063,0
2096921,2096921,215876,569700,0
2096921,2096921,215884,569540,0
2096921,2096921,216109,569599,0
2096921,2096921,215954,569896,0
2096921,2096921,216023,569892,0
2096921,2096921,216184,569905,0
2096921,2096921,216319,569828,0
2096921,2096921,216218,570111,0
2096921,2096921,216143,570009,0
2096921,2096921,216257,570085,0
2096921,2096921,216025,570042,0
2096921,2096921,216153,570019,0
2096921,2096921,216297,570272,0
2096921,2096921,216325,570289,0
2096921,2096921,216293,570319,0
2096921,2096921,216323,570127,0
2096921,2096921,216344,570476,0
2096921,2096921,216619,570583,0
2096921,2096921,216447,569906,0
2096921,2096921,216242,570177,0
2096921,2096921,216284,570225,0
2096921,2096921,215984,569998,0
2096921,2096921,216341,570122,0
2096921,2096921,216404,570357,0
2096921,2096921,216570,570435,0
2096921,2096921,216574,570276,0
2096921,2096921,216721,570642,0
2096921,2096921,216481,570591,0
2096921,2096921,216345,570440,0
2096921,2096921,216963,570162,0
2096921,2096921,216693,570474,0
2096921,2096921,216797,570288,0
2096921,2096921,216734,570635,0
2096921,2096921,216384,570744,0
2096921,2096921,216848,570409,0
2096921,2096921,216389,570652,0
2096921,2096921,216696,570690,0
2096921,2096921,216594,570644,0
2096921,2096921,216588,570664,0
2096921,2096921,216659,570485,0
2096921,2096921,216456,570692,0
2096921,2096921,216373,570591,0
2096921,2096921,216523,570660,0
2096921,2096921,216566,570885,0
2096921,2096921,216844,570827,0
2096921,2096921,216903,570886,0
2096921,2096921,216949,570878,0
2096921,2096921,216514,571005,0
2096921,2096921,216973,571133,0
2096921,2096921,216766,570868,0
2096921,2096921,216604,570742,0
2096921,2096921,217074,570904,0
2096921,2096921,216767,570863,0
2096921,2096921,216923,571116,0
2096921,2096921,217012,570937,0
2096921,2096921,216946,570920,0
2096921,2096921,216796,571118,0
2096921,2096921,216691,571152,0
2096921,2096921,216713,571288,0
2096921,2096921,216796,570825,0
2096921,2096921,216875,571093,0
2096921,2096921,216783,570829,0
2096921,2096921,216968,571016,0
2096921,2096921,217018,570662,0
2096921,2096921,216714,571021,0
2096921,2096921,217114,571301,0
2096921,2096921,217326,571218,0
2096921,2096921,216973,570972,0
2096921,2096921,216738,570920,0
2096921,2096921,216998,571050,0
2096921,2096921,217073,571042,0
2096921,2096921,216967,570943,0
2096921,2096921,216989,571032,0
2096921,2096921,216882,570926,0
2096921,2096921,216939,571397,0
2096921,2096921,217064,571605,0
2096921,2096921,217056,571153,0
2096921,2096921,217155,571414,0
2096921,2096921,217249,571337,0
2096921,2096921,216951,571261,0
2096921,2096921,217125,571120,0
2096921,2096921,217022,571192,0
2096921,2096921,216635,571091,0
2096921,2096921,217023,571193,0
2096921,2096921,217149,570959,0
2096921,2096921,217232,571239,0
2096921,2096921,217257,571413,0
2096921,2096921,217264,571138,0
2096921,2096921,217175,571778,0
2096921,2096921,217176,571616,0
2096921,2096921,217135,571578,0
2096921,2096921,217079,571254,0
2096921,2096921,217026,571280,0
2096921,2096921,216991,571398,0
2096921,2096921,217092,571701,0
2096921,2096921,217451,571561,0
2096921,2096921,217472,571769,0
2096921,2096921,217329,571548,0
2096921,2096921,217462,571244,0
2096921,2096921,217262,571238,0
2096921,2096921,216988,571518,0
2096921,2096921,217084,571361,0
2096921,2096921,217174,571321,0
2096921,2096921,217054,571690,0
2096921,2096921,217241,571486,0
2096921,2096921,217629,571599,0
2096921,2096921,217518,571988,0
2096921,2096921,217328,571522,0
2096921,2096921,217211,571358,0
2096921,2096921,217508,571773,0
2096921,2096921,217371,571509,0
2096921,2096921,217163,571407,0
2096921,2096921,217516,571494,0
2096921,2096921,217419,571562,0
2096921,2096921,217359,571550,0
2096921,2096921,217527,572057,0
2096921,2096921,217539,572196,0
2096921,2096921,217544,571954,0
2096921,2096921,217391,571973,0
2096921,2096921,217672,571536,0
2096921,2096921,217488,571806,0
2096921,2096921,217323,571735,0
2096921,2096921,217526,571832,0
2096921,2096921,217402,571447,0
2096921,2096921,217231,571771,0
2096921,2096921,217331,571732,0
2096921,2096921,217427,571874,0
2096921,2096921,217304,571700,0
2096921,2096921,217369,571671,0
2096921,2096921,217611,571755,0
2096921,2096921,217298,571599,0
2096921,2096921,217471,572103,0
2096921,2096921,217525,571751,0
2096921,2096921,217219,571908,0
2096921,2096921,217422,571543,0
2096921,2096921,217741,571807,0
2096921,2096921,217453,571878,0
2096921,2096921,217753,571996,0
2096921,2096921,217476,571705,0
2096921,2096921,217675,572139,0
2096921,2096921,217262,571800,0
2096921,2096921,217076,571906,0
2096921,2096921,217311,571938,0
2096921,2096921,217577,571768,0
2096921,2096921,217639,571703,0
2096921,2096921,217795,571923,0
2096921,2096921,217382,571918,0
2096921,2096921,217629,571740,0
2096921,2096921,217487,571812,0
2096921,2096921,217379,571701,0
2096921,2096921,217475,571873,0
2096921,2096921,217364,571766,0
2096921,2096921,217527,571859,0
2096921,2096921,217383,571982,0
2096921,2096921,217451,571651,0
2096921,2096921,217621,571990,0
2096921,2096921,217910,572246,0
2096921,2096921,217635,571811,0
2096921,2096921,217585,571687,0
2096921,2096921,217553,572217,0
2096921,2096921,217234,572021,0
2096921,2096921,217351,571884,0
2096921,2096921,217762,571726,0
2096921,2096921,217230,571708,0
2096921,2096921,217425,571867,0
2096921,2096921,217761,571628,0
2096921,2096921,217518,571936,0
2096921,2096921,217482,571851,0
2096921,2096921,217476,571850,0
2096921,2096921,217262,571838,0
2096921,2096921,217258,571576,0
2096921,2096921,217639,571937,0
2096921,2096921,217647,571667,0
2096921,2096921,217587,571880,0
2096921,2096921,217444,571755,0
2096921,2096921,217453,572072,0
2096921,2096921,217175,571842,0
2096921,2096921,217531,571880,0
2096921,2096921,217765,571979,0
2096921,2096921,217642,572106,0
2096921,2096921,217290,571805,0
2096921,2096921,217261,571687,0
2096921,2096921,216978,571973,0
2096921,2096921,217159,571596,0
2096921,2096921,217340,571708,0
2096921,2096921,217381,571821,0
2096921,2096921,217237,571804,0
2096921,2096921,217398,571776,0
2096921,2096921,217466,571399,0
2096921,2096921,217265,571316,0
2096921,2096921,216963,571403,0
2096921,2096921,216765,571510,0
2096921,2096921,216902,571368,0
2096921,2096921,216899,571020,0
2096921,2096921,217130,570856,0
2096921,2096921,216986,571101,0
2096921,2096921,217162,571291,0
2096921,2096921,216589,571030,0
2096921,2096921,216388,570335,0
2096921,2096921,216515,570501,0
2096921,2096921,216339,570307,0
2096921,2096921,216080,570285,0
2096921,2096921,216140,570058,0
2096921,2096921,216004,569768,0
2096921,2096921,216045,569752,0
2096921,2096921,216082,569701,0
2096921,2096921,215794,569688,0
2096921,2096921,215493,569826,0
2096921,2096921,215072,568801,0
2096921,2096921,214937,568507,0
2096921,2096921,214883,568717,0
2096921,2096921,215051,568334,0
2096921,2096921,214398,568113,0
2096921,2096921,213993,567030,0
2096921,2096921,213883,566673,0
2096921,2096921,214236,566457,0
2096921,2096921,214018,566782,0
2096921,2096921,213465,566926,0
2096921,2096921,212818,565538,0
2096921,2096921,212689,564931,0
2096921,2096921,212686,565204,0
2096921,2096921,212662,564943,0
2096921,2096921,212384,564757,0
2096921,2096921,211896,564050,0
2096921,2096921,212019,564104,0
2096921,2096921,212226,563979,0
2096921,2096921,212479,564098,0
2096921,2096921,211826,564135,0
2096921,2096921,211397,563275,0
2096921,2096921,211494,563135,0
2096921,2096921,211730,563370,0
2096921,2096921,211592,563115,0
2096921,2096921,211277,563159,0
2096921,2096921,211525,562832,0
2096921,2096921,211256,562713,0
2096921,2096921,211140,562923,0
2096921,2096921,211182,562736,0
2096921,2096921,211291,562734,0
2096921,2096921,211186,562253,0
2096921,2096921,211047,562382,0
2096921,2096921,211023,562315,0
2096921,2096921,211046,562510,0
2096921,2096921,210850,562241,0
2096921,2096921,211159,561858,0
2096921,2096921,210826,562047,0
2096921,2096921,211074,562150,0
2096921,2096921,210962,562311,0
2096921,2096921,210881,562391,0
2096921,2096921,210944,562223,0
2096921,2096921,210557,561860,0
2096921,2096921,210810,561840,0
2096921,2096921,210667,562143,0
2096921,2096921,210855,562202,0
2096921,2096921,210712,561947,0
2096921,2096921,210847,561976,0
2096921,2096921,210948,562107,0
2096921,2096921,210932,562233,0
2096921,2096921,210886,562183,0
2096921,2096921,211219,562266,0
2096921,2096921,210951,562065,0
2096921,2096921,210843,562200,0
2096921,2096921,210778,562107,0
2096921,2096921,210847,562062,0
2096921,2096921,210868,562177,0
2096921,2096921,211193,562163,0
2096921,2096921,210997,562354,0
2096921,2096921,210902,562299,0
2096921,2096921,210852,562455,0
2096921,2096921,210837,562610,0
2096921,2096921,211328,562650,0
2096921,2096921,210853,562392,0
2096921,2096921,210941,562282,0
2096921,2096921,211127,562420,0
2096921,2096921,211617,562613,0
2096921,2096921,211207,563037,0
2096921,2096921,211524,563081,0
2096921,2096921,211346,562931,0
2096921,2096921,211436,563294,0
2096921,2096921,211351,563602,0
2096921,2096921,211565,563226,0
2096921,2096921,211230,563328,0
2096921,2096921,211344,562854,0
2096921,2096921,211634,563273,0
2096921,2096921,211853,563437,0
2096921,2096921,211841,563616,0
2096921,2096921,211613,563663,0
2096921,2096921,211640,563882,0
2096921,2096921,211655,563480,0
2096921,2096921,212235,563887,0
2096921,2096921,211741,563807,0
2096921,2096921,211686,563925,0
2096921,2096921,211426,564108,0
2096921,2096921,211964,564044,0
2096921,2096921,212069,564211,0
2096921,2096921,212091,564480,0
2096921,2096921,212265,564678,0
2096921,2096921,212299,564594,0
2096921,2096921,212331,564806,0
2096921,2096921,212424,564601,0
2096921,2096921,212493,564918,0
2096921,2096921,212294,564715,0
2096921,2096921,212496,564783,0
2096921,2096921,212499,564831,0
2096921,2096921,212757,565054,0
2096921,2096921,212752,565366,0
2096921,2096921,212882,565305,0
2096921,2096921,212679,565466,0
2096921,2096921,212798,565390,0
2096921,2096921,213001,565713,0
2096921,2096921,212711,565567,0
2096921,2096921,212899,565406,0
2096921,2096921,213286,565556,0
2096921,2096921,213166,565901,0
2096921,2096921,212843,565851,0
2096921,2096921,213180,565799,0
2096921,2096921,213347,566067,0
2096921,2096921,213032,566057,0
2096921,2096921,213468,565920,0
2096921,2096921,213514,566257,0
2096921,2096921,213363,566280,0
2096921,2096921,213608,566417,0
2096921,2096921,213577,566226,0
2096921,2096921,213671,566372,0
2096921,2096921,213652,566762,0
2096921,2096921,213871,566795,0
2096921,2096921,213967,567120,0
2096921,2096921,213941,567145,0
2096921,2096921,213833,567142,0
2096921,2096921,214174,567319,0
2096921,2096921,214209,567550,0
2096921,2096921,213615,567407,0
2096921,2096921,213727,567477,0
2096921,2096921,214120,567171,0
2096921,2096921,214024,567536,0
2096921,2096921,214077,567950,0
2096921,2096921,214288,567710,0
2096921,2096921,214357,567802,0
2096921,2096921,214522,567952,0
2096921,2096921,214433,568144,0
2096921,2096921,214300,568067,0
2096921,2096921,214227,568306,0
2096921,2096921,214216,568073,0
2096921,2096921,214367,568087,0
2096921,2096921,214724,568406,0
2096921,2096921,214670,568498,0
2096921,2096921,214505,568584,0
2096921,2096921,214906,568678,0
2096921,2096921,215052,568599,0
2096921,2096921,214962,568557,0
2096921,2096921,214613,568649,0
2096921,2096921,214538,568378,0
2096921,2096921,214488,568573,0
2096921,2096921,214943,568394,0
2096921,2096921,214823,568738,0
2096921,2096921,214985,568633,0
2096921,2096921,214928,568780,0
2096921,2096921,215148,568772,0
2096921,2096921,214897,568944,0
2096921,2096921,215183,569026,0
2096921,2096921,214657,569349,0
2096921,2096921,214771,568752,0
2096921,2096921,215030,569017,0
2096921,2096921,214932,568540,0
2096921,2096921,215049,568738,0
2096921,2096921,215329,568933,0
2096921,2096921,215217,569108,0
2096921,2096921,215077,569249,0
2096921,2096921,214805,569136,0
2096921,2096921,215369,569218,0
2096921,2096921,215093,569230,0
2096921,2096921,214774,568873,0
2096921,2096921,214737,568778,0
2096921,2096921,214743,569123,0
2096921,2096921,215112,569153,0
2096921,2096921,214912,568920,0
2096921,2096921,214776,569252,0
2096921,2096921,215220,569368,0
2096921,2096921,214897,569079,0
2096921,2096921,215130,568972,0
2096921,2096921,214916,569108,0
2096921,2096921,214954,569279,0
2096921,2096921,214957,568821,0
2096921,2096921,214928,568889,0
2096921,2096921,214904,569150,0
2096921,2096921,215254,569171,0
2096921,2096921,215342,569109,0
2096921,2096921,215149,569488,0
2096921,2096921,214890,569492,0
2096921,2096921,214425,569472,0
2096921,2096921,214473,569382,0
2096921,2096921,214932,569235,0
2096921,2096921,214768,568852,0
2096921,2096921,214806,569035,0
2096921,2096921,214682,569354,0
2096921,2096921,214996,569406,0
2096921,2096921,215190,569490,0
2096921,2096921,214839,569361,0
2096921,2096921,214923,569452,0
2096921,2096921,214994,569187,0
2096921,2096921,214739,569282,0
2096921,2096921,215152,569356,0
2096921,2096921,215194,569380,0
2096921,2096921,214877,569315,0
2096921,2096921,214962,569513,0
2096921,2096921,214880,569491,0
2096921,2096921,215369,570144,0
2096921,2096921,215164,570036,0
2096921,2096921,215299,569928,0
2096921,2096921,215231,569867,0
2096921,2096921,215063,569721,0
2096921,2096921,215417,569450,0
2096921,2096921,214761,569574,0
2096921,2096921,215029,569663,0
2096921,2096921,215009,569782,0
2096921,2096921,215229,569942,0
2096921,2096921,215358,570060,0
2096921,2096921,215238,570017,0
2096921,2096921,215459,570024,0
2096921,2096921,215335,570259,0
2096921,2096921,215279,570283,0
2096921,2096921,215509,570204,0
2096921,2096921,215257,570320,0
2096921,2096921,215524,570412,0
2096921,2096921,215622,570600,0
2096921,2096921,215512,570888,0
2096921,2096921,215762,570854,0
2096921,2096921,215631,570991,0
2096921,2096921,215802,571072,0
2096921,2096921,216170,571126,0
2096921,2096921,215655,571146,0
2096921,2096921,215589,571018,0
2096921,2096921,215867,571151,0
2096921,2096921,216118,571333,0
2096921,2096921,215969,571131,0
2096921,2096921,216405,571573,0
2096921,2096921,216128,571409,0
2096921,2096921,215751,571649,0
2096921,2096921,216239,571691,0
2096921,2096921,216186,572093,0
2096921,2096921,216194,571871,0
2096921,2096921,216049,571636,0
2096921,2096921,216457,571807,0
2096921,2096921,216279,571839,0
2096921,2096921,216526,571739,0
2096921,2096921,216371,572143,0
2096921,2096921,216431,572166,0
2096921,2096921,216272,572286,0
2096921,2096921,216444,572089,0
2096921,2096921,216697,572276,0
2096921,2096921,216688,572517,0
2096921,2096921,216323,572442,0
2096921,2096921,216397,572336,0
2096921,2096921,216349,572266,0
2096921,2096921,216555,572896,0
2096921,2096921,216951,572820,0
2096921,2096921,216707,572597,0
2096921,2096921,216901,572913,0
2096921,2096921,217035,572981,0
2096921,2096921,216927,573389,0
2096921,2096921,216947,573306,0
2096921,2096921,216864,572916,0
2096921,2096921,216834,572998,0
2096921,2096921,216826,572941,0
2096921,2096921,216962,573490,0
2096921,2096921,216963,573547,0
2096921,2096921,217428,573746,0
2096921,2096921,217325,573707,0
2096921,2096921,217438,573445,0
2096921,2096921,217484,573785,0
2096921,2096921,217684,573895,0
2096921,2096921,217232,573881,0
2096921,2096921,216906,573622,0
2096921,2096921,217285,573645,0
2096921,2096921,217664,573711,0
2096921,2096921,217656,574194,0
2096921,2096921,217623,574424,0
2096921,2096921,217869,574078,0
2096921,2096921,217652,574252,0
2096921,2096921,217777,574216,0
2096921,2096921,217583,574214,0
2096921,2096921,217827,574400,0
2096921,2096921,217446,574368,0
2096921,2096921,217563,573956,0
2096921,2096921,218012,574589,0
2096921,2096921,217838,574727,0
2096921,2096921,217856,574859,0
2096921,2096921,217971,574686,0
2096921,2096921,217907,574814,0
2096921,2096921,218151,575259,0
2096921,2096921,218065,575160,0
2096921,2096921,217754,574965,0
2096921,2096921,218258,575180,0
2096921,2096921,218111,575205,0
2096921,2096921,218039,575298,0
2096921,2096921,218043,575543,0
2096921,2096921,218469,575694,0
2096921,2096921,218124,575646,0
2096921,2096921,218144,575666,0
2096921,2096921,217984,575563,0
2096921,2096921,218092,575584,0
2096921,2096921,218203,575508,0
2096921,2096921,218261,575382,0
2096921,2096921,218445,575707,0
2096921,2096921,218229,575939,0
2096921,2096921,218682,575744,0
2096921,2096921,218751,575768,0
2096921,2096921,218852,575711,0
2096921,2096921,218627,576072,0
2096921,2096921,218539,576396,0
2096921,2096921,218642,576210,0
2096921,2096921,218667,576181,0
2096921,2096921,218506,575963,0
2096921,2096921,218799,576033,0
2096921,2096921,218753,576364,0
2096921,2096921,218936,576179,0
2096921,2096921,218624,576662,0
2096921,2096921,218898,576614,0
2096921,2096921,219097,576454,0
2096921,2096921,219263,576760,0
2096921,2096921,218677,576645,0
2096921,2096921,218803,576767,0
2096921,2096921,218874,576955,0
2096921,2096921,218805,576634,0
2096921,2096921,218640,577259,0
2096921,2096921,218885,577043,0
2096921,2096921,219222,577465,0
2096921,2096921,219131,577260,0
2096921,2096921,219139,577099,0
2096921,2096921,219201,577247,0
2096921,2096921,219106,577171,0
2096921,2096921,218828,577130,0
2096921,2096921,219074,577114,0
2096921,2096921,219334,577030,0
2096921,2096921,219176,577242,0
2096921,2096921,219293,577434,0
2096921,2096921,219498,577594,0
2096921,2096921,219189,577779,0
2096921,2096921,219178,577749,0
2096921,2096921,219617,577856,0
2096921,2096921,219469,577706,0
2096921,2096921,219143,577788,0
2096921,2096921,219194,577796,0
2096921,2096921,219504,577504,0
2096921,2096921,219612,578097,0
2096921,2096921,220195,578080,0
2096921,2096921,220093,578089,0
2096921,2096921,219836,578292,0
2096921,2096921,219920,577961,0
2096921,2096921,219821,578381,0
2096921,2096921,219755,578522,0
2096921,2096921,219672,578611,0
2096921,2096921,219840,578179,0
2096921,2096921,219643,578412,0
2096921,2096921,219533,578546,0
2096921,2096921,219816,578390,0
2096921,2096921,219788,578306,0
2096921,2096921,219943,578661,0
2096921,2096921,219812,578711,0
2096921,2096921,220038,578992,0
2096921,2096921,219789,578971,0
2096921,2096921,219960,578644,0
2096921,2096921,219771,578318,0
2096921,2096921,219827,578685,0
2096921,2096921,219957,579091,0
2096921,2096921,220045,579247,0
2096921,2096921,220244,579260,0
2096921,2096921,220166,579196,0
2096921,2096921,219945,578840,0
2096921,2096921,219760,579022,0
2096921,2096921,220240,579160,0
2096921,2096921,219940,579144,0
2096921,2096921,219895,578791,0
2096921,2096921,220018,579009,0
2096921,2096921,220221,579096,0
2096921,2096921,220107,579160,0
2096921,2096921,220261,579681,0
2096921,2096921,220652,579500,0
2096921,2096921,220330,579664,0
2096921,2096921,220466,579534,0
2096921,2096921,220432,579778,0
2096921,2096921,220413,579599,0
2096921,2096921,220330,579611,0
2096921,2096921,220221,579504,0
2096921,2096921,220624,579874,0
2096921,2096921,220501,579681,0
2096921,2096921,220592,579925,0
2096921,2096921,220596,580360,0
2096921,2096921,220422,579994,0
2096921,2096921,220827,580216,0
2096921,2096921,220584,580157,0
2096921,2096921,220867,579865,0
2096921,2096921,220648,580255,0
2096921,2096921,220566,579989,0
2096921,2096921,220713,579912,0
2096921,2096921,220515,580430,0
2096921,2096921,220678,580119,0
2096921,2096921,220654,580230,0
2096921,2096921,220917,580157,0
2096921,2096921,220742,580502,0
2096921,2096921,220508,580400,0
2096921,2096921,220670,580390,0
2096921,2096921,220678,580394,0
2096921,2096921,220712,580340,0
2096921,2096921,220810,580278,0
2096921,2096921,221116,580261,0
2096921,2096921,220841,580569,0
2096921,2096921,221055,580477,0
2096921,2096921,220910,580872,0
2096921,2096921,220852,580887,0
2096921,2096921,220811,580716,0
2096921,2096921,221014,580889,0
2096921,2096921,220639,580749,0
2096921,2096921,221149,580710,0
2096921,2096921,221119,580837,0
2096921,2096921,220825,580756,0
2096921,2096921,220985,580699,0
2096921,2096921,220991,580999,0
2096921,2096921,221019,581296,0
2096921,2096921,220932,581003,0
2096921,2096921,221056,581083,0
2096921,2096921,221012,580897,0
2096921,2096921,221040,580910,0
2096921,2096921,220943,580867,0
2096921,2096921,220939,581090,0
2096921,2096921,221136,581364,0
2096921,2096921,221177,581007,0
2096921,2096921,221259,581311,0
2096921,2096921,221423,581038,0
2096921,2096921,221257,581385,0
2096921,2096921,221303,581569,0
2096921,2096921,221135,581360,0
2096921,2096921,220899,581416,0
2096921,2096921,221210,581412,0
2096921,2096921,221162,581576,0
2096921,2096921,221351,581821,0
2096921,2096921,221330,581788,0
2096921,2096921,221151,581720,0
2096921,2096921,221383,581707,0
2096921,2096921,221438,581862,0
2096921,2096921,221101,581644,0
2096921,2096921,221203,581532,0
2096921,2096921,221110,581484,0
2096921,2096921,221140,581505,0
2096921,2096921,221073,581808,0
2096921,2096921,221238,581750,0
2096921,2096921,221632,581636,0
2096921,2096921,221483,581653,0
2096921,2096921,221460,581767,0
2096921,2096921,221326,581759,0
2096921,2096921,221583,581810,0
2096921,2096921,221501,581690,0
2096921,2096921,221421,582031,0
2096921,2096921,221527,581953,0
2096921,2096921,221427,581804,0
2096921,2096921,221516,581896,0
2096921,2096921,221391,582179,0
2096921,2096921,221368,582328,0
2096921,2096921,221622,582348,0
2096921,2096921,221642,581987,0
2096921,2096921,221683,581962,0
2096921,2096921,221048,581863,0
2096921,2096921,221362,581712,0
2096921,2096921,221547,582243,0
2096921,2096921,221510,582261,0
2096921,2096921,221495,582118,0
2096921,2096921,221495,582135,0
2096921,2096921,221430,582360,0
2096921,2096921,221573,582147,0
2096921,2096921,221745,582463,0
2096921,2096921,221622,582335,0
2096921,2096921,221493,582254,0
2096921,2096921,221519,582109,0
2096921,2096921,221344,582156,0
2096921,2096921,221530,582051,0
2096921,2096921,221681,582503,0
2096921,2096921,221678,582499,0
2096921,2096921,221621,582485,0
2096921,2096921,221474,582391,0
2096921,2096921,221786,582797,0
2096921,2096921,221446,582347,0
2096921,2096921,221673,582530,0
2096921,2096921,221509,582382,0
2096921,2096921,221477,582260,0
2096921,2096921,221381,582291,0
2096921,2096921,221477,581969,0
2096921,2096921,221731,582399,0
2096921,2096921,221630,582509,0
2096921,2096921,221558,581917,0
2096921,2096921,221592,582061,0
2096921,2096921,221586,582242,0
2096921,2096921,221204,582215,0
2096921,2096921,221380,581980,0
2096921,2096921,221178,582042,0
2096921,2096921,220943,581922,0
2096921,2096921,220989,581498,0
2096921,2096921,220913,581752,0
2096921,2096921,221058,581828,0
2096921,2096921,220700,581504,0
2096921,2096921,220728,581427,0
2096921,2096921,220367,581253,0
2096921,2096921,220771,581354,0
2096921,2096921,220690,581193,0
2096921,2096921,220478,581117,0
2096921,2096921,220255,580579,0
2096921,2096921,220289,580446,0
2096921,2096921,220359,580334,0
2096921,2096921,220524,580728,0
2096921,2096921,220048,580665,0
2096921,2096921,219777,579449,0
2096921,2096921,219506,579161,0
2096921,2096921,219339,579463,0
2096921,2096921,219213,579511,0
2096921,2096921,218731,579237,0
2096921,2096921,218255,577867,0
2096921,2096921,218149,577161,0
2096921,2096921,218013,577415,0
2096921,2096921,218336,577422,0
2096921,2096921,217543,577777,0
2096921,2096921,217304,576547,0
2096921,2096921,217212,576130,0
2096921,2096921,217156,576123,0
2096921,2096921,217012,575963,0
2096921,2096921,216834,575967,0
2096921,2096921,216791,575285,0
2096921,2096921,216446,574998,0
2096921,2096921,216530,574445,0
2096921,2096921,216343,574870,0
2096921,2096921,216073,574967,0
2096921,2096921,215650,574791,0
2096921,2096921,215697,574346,0
2096921,2096921,215818,574293,0
2096921,2096921,215811,573995,0
2096921,2096921,215314,574109,0
2096921,2096921,215384,573833,0
2096921,2096921,215428,573703,0
2096921,2096921,215561,573769,0
2096921,2096921,215601,573653,0
2096921,2096921,215590,573856,0
2096921,2096921,215554,573365,0
2096921,2096921,215354,573232,0
2096921,2096921,215224,573246,0
2096921,2096921,214806,573377,0
2096921,2096921,215030,573232,0
2096921,2096921,215073,573046,0
2096921,2096921,214902,572981,0
2096921,2096921,215143,572984,0
2096921,2096921,214899,573069,0
2096921,2096921,215347,572739,0
2096921,2096921,214962,572829,0
2096921,2096921,214896,573157,0
2096921,2096921,214652,572913,0
2096921,2096921,214924,572951,0
2096921,2096921,214687,573229,0
2096921,2096921,215199,573053,0
2096921,2096921,215233,572689,0
2096921,2096921,215092,573112,0
2096921,2096921,214907,573391,0
2096921,2096921,215363,573061,0
2096921,2096921,215366,573268,0
2096921,2096921,214768,573531,0
2096921,2096921,214997,573165,0
2096921,2096921,214783,573027,0
2096921,2096921,215189,573211,0
2096921,2096921,215210,573011,0
2096921,2096921,215473,573289,0
2096921,2096921,215201,573313,0
2096921,2096921,215144,573252,0
2096921,2096921,215350,573377,0
2096921,2096921,215573,573324,0
2096921,2096921,215562,573223,0
2096921,2096921,215340,573566,0
2096921,2096921,215296,573465,0
2096921,2096921,215055,573517,0
2096921,2096921,215523,573734,0
2096921,2096921,215708,573614,0
2096921,2096921,215459,573628,0
2096921,2096921,215606,573861,0
2096921,2096921,215878,573917,0
2096921,2096921,215692,573828,0
2096921,2096921,215779,574158,0
2096921,2096921,215536,573600,0
2096921,2096921,215593,574130,0
2096921,2096921,215642,573931,0
2096921,2096921,215962,574178,0
2096921,2096921,216181,574053,0
2096921,2096921,216011,574369,0
2096921,2096921,215909,574446,0
2096921,2096921,215967,574398,0
2096921,2096921,216374,574746,0
2096921,2096921,215983,574615,0
2096921,2096921,216168,574797,0
2096921,2096921,215966,574888,0
2096921,2096921,215997,574956,0
2096921,2096921,216325,574833,0
2096921,2096921,216531,575369,0
2096921,2096921,216546,575238,0
2096921,2096921,216857,575484,0
2096921,2096921,216759,575336,0
2096921,2096921,217038,575393,0
2096921,2096921,216832,575667,0
2096921,2096921,216568,575833,0
2096921,2096921,216389,575360,0
2096921,2096921,216486,575549,0
2096921,2096921,216642,575637,0
2096921,2096921,216731,575395,0
2096921,2096921,217140,575417,0
2096921,2096921,217042,575900,0
2096921,2096921,216916,576044,0
2096921,2096921,217074,575991,0
2096921,2096921,216938,575573,0
2096921,2096921,216796,575989,0
2096921,2096921,216858,576087,0
2096921,2096921,217114,575706,0
2096921,2096921,217181,576159,0
2096921,2096921,217425,576323,0
2096921,2096921,216966,576344,0
2096921,2096921,216974,576409,0
2096921,2096921,217554,576569,0
2096921,2096921,217452,576697,0
2096921,2096921,217501,576631,0
2096921,2096921,217478,576634,0
2096921,2096921,217073,576399,0
2096921,2096921,217555,576553,0
2096921,2096921,217734,577006,0
2096921,2096921,217685,577252,0
2096921,2096921,217876,577260,0
2096921,2096921,217937,577048,0
2096921,2096921,217683,577048,0
2096921,2096921,218063,577440,0
2096921,2096921,217725,577546,0
2096921,2096921,217899,577664,0
2096921,2096921,217728,577251,0
2096921,2096921,217965,577205,0
2096921,2096921,217959,577619,0
2096921,2096921,218411,577755,0
2096921,2096921,218327,577603,0
2096921,2096921,218312,577407,0
2096921,2096921,218305,577690,0
2096921,2096921,218291,578035,0
2096921,2096921,218193,577944,0
2096921,2096921,218232,577694,0
2096921,2096921,218452,577623,0
2096921,2096921,218054,577371,0
2096921,2096921,218229,578170,0
2096921,2096921,218371,578376,0
2096921,2096921,218703,578238,0
2096921,2096921,218164,578238,0
2096921,2096921,218324,578413,0
2096921,2096921,218734,578339,0
2096921,2096921,218499,578179,0
2096921,2096921,218400,578429,0
2096921,2096921,218481,578056,0
2096921,2096921,218191,578214,0
2096921,2096921,218271,578343,0
2096921,2096921,218628,578699,0
2096921,2096921,218651,578698,0
2096921,2096921,218495,578552,0
2096921,2096921,218681,578277,0
2096921,2096921,218753,578369,0
2096921,2096921,218702,578415,0
2096921,2096921,218657,578419,0
2096921,2096921,218403,578338,0
2096921,2096921,218578,578369,0
2096921,2096921,218677,578171,0
2096921,2096921,218799,578190,0
2096921,2096921,218525,578402,0
2096921,2096921,218609,578431,0
2096921,2096921,218604,578387,0
2096921,2096921,218609,578344,0
2096921,2096921,218525,578494,0
2096921,2096921,218451,578335,0
2096921,2096921,218269,578310,0
2096921,2096921,218080,578243,0
2096921,2096921,218288,577872,0
2096921,2096921,218454,578286,0
2096921,2096921,218661,578651,0
2096921,2096921,218289,578287,0
2096921,2096921,218322,578158,0
2096921,2096921,218419,578271,0
2096921,2096921,218327,578321,0
2096921,2096921,218015,578061,0
2096921,2096921,218601,577978,0
2096921,2096921,218344,578102,0
2096921,2096921,218196,578012,0
2096921,2096921,218476,578132,0
2096921,2096921,218360,578096,0
2096921,2096921,218468,578173,0
2096921,2096921,218486,578186,0
2096921,2096921,218231,577923,0
2096921,2096921,218294,578126,0
2096921,2096921,218260,577793,0
2096921,2096921,218263,577698,0
2096921,2096921,217884,577645,0
2096921,2096921,218290,577865,0
2096921,2096921,218331,577661,0
2096921,2096921,218735,577740,0
2096921,2096921,218510,578173,0
2096921,2096921,218440,578185,0
2096921,2096921,218439,577968,0
2096921,2096921,218076,578271,0
2096921,2096921,218130,577927,0
2096921,2096921,218215,577816,0
2096921,2096921,218291,577919,0
2096921,2096921,217878,577838,0
2096921,2096921,217916,577685,0
2096921,2096921,218080,578081,0
2096921,2096921,218070,578085,0
2096921,2096921,218549,577848,0
2096921,2096921,218426,577765,0
2096921,2096921,218352,577914,0
2096921,2096921,218328,577900,0
2096921,2096921,218105,577923,0
2096921,2096921,218180,578248,0
2096921,2096921,218388,578005,0
2096921,2096921,218210,577956,0
2096921,2096921,218104,578098,0
2096921,2096921,218309,578032,0
2096921,2096921,218406,578109,0
2096921,2096921,218564,578687,0
2096921,2096921,218615,578337,0
2096921,2096921,218649,578270,0
2096921,2096921,218417,578012,0
2096921,2096921,218432,577826,0
2096921,2096921,218704,578227,0
2096921,2096921,218551,578086,0
2096921,2096921,218833,578393,0
2096921,2096921,218648,578626,0
2096921,2096921,218815,578490,0
2096921,2096921,218811,578661,0
2096921,2096921,218911,578670,0
2096921,2096921,219006,578600,0
2096921,2096921,218649,578748,0
2096921,2096921,219026,578667,0
2096921,2096921,218976,578590,0
2096921,2096921,219071,578797,0
2096921,2096921,219045,579272,0
2096921,2096921,219038,578773,0
2096921,2096921,219231,579415,0
2096921,2096921,219298,579297,0
2096921,2096921,218875,579186,0
2096921,2096921,218983,579018,0
2096921,2096921,219282,579160,0
2096921,2096921,219171,578911,0
2096921,2096921,219054,579081,0
2096921,2096921,219332,579375,0
2096921,2096921,219361,579436,0
2096921,2096921,219258,579206,0
2096921,2096921,219224,579901,0
2096921,2096921,219483,579806,0
2096921,2096921,219419,579338,0
2096921,2096921,219330,579415,0
2096921,2096921,219424,579400,0
2096921,2096921,219128,579679,0
2096921,2096921,219214,579539,0
2096921,2096921,219381,579739,0
2096921,2096921,219451,579550,0
2096921,2096921,219558,579490,0
2096921,2096921,219754,579862,0
2096921,2096921,219630,579921,0
2096921,2096921,219757,579870,0
2096921,2096921,219352,580147,0
2096921,2096921,219428,579832,0
2096921,2096921,219700,579826,0
2096921,2096921,219717,579884,0
2096921,2096921,219804,580099,0
2096921,2096921,219511,580217,0
2096921,2096921,219640,580080,0
2096921,2096921,219614,580082,0
2096921,2096921,219850,580162,0
2096921,2096921,219481,580043,0
2096921,2096921,219213,580101,0
2096921,2096921,219701,580062,0
2096921,2096921,219698,579848,0
2096921,2096921,220172,580027,0
2096921,2096921,219982,580133,0
2096921,2096921,220109,580169,0
2096921,2096921,219862,580332,0
2096921,2096921,220023,580473,0
2096921,2096921,220072,580605,0
2096921,2096921,219962,580613,0
2096921,2096921,219757,580265,0
2096921,2096921,219901,579877,0
2096921,2096921,219899,580245,0
2096921,2096921,219888,580378,0
2096921,2096921,220240,580732,0
2096921,2096921,220301,580821,0
2096921,2096921,220242,580728,0
2096921,2096921,220093,580570,0
2096921,2096921,220236,580656,0
2096921,2096921,220208,580933,0
2096921,2096921,220077,580708,0
2096921,2096921,219857,580634,0
2096921,2096921,220270,581037,0
2096921,2096921,220214,581046,0
2096921,2096921,220282,580653,0
2096921,2096921,220312,581075,0
2096921,2096921,220110,580848,0
2096921,2096921,220155,580900,0
2096921,2096921,220318,581244,0
2096921,2096921,220442,581311,0
2096921,2096921,220289,581010,0
2096921,2096921,220415,580898,0
2096921,2096921,220454,580841,0
2096921,2096921,220423,581149,0
2096921,2096921,220385,581061,0
2096921,2096921,220491,581143,0
2096921,2096921,220865,581163,0
2096921,2096921,220846,581108,0
2096921,2096921,220834,581334,0
2096921,2096921,220969,581226,0
2096921,2096921,220524,581391,0
2096921,2096921,220367,581133,0
2096921,2096921,220405,580932,0
2096921,2096921,220373,581316,0
2096921,2096921,220498,581285,0
2096921,2096921,220372,581103,0
2096921,2096921,220693,581163,0
2096921,2096921,220653,581514,0
2096921,2096921,220764,581443,0
2096921,2096921,220653,581176,0
2096921,2096921,220635,581382,0
2096921,2096921,220300,581246,0
2096921,2096921,220663,581140,0
2096921,2096921,220682,581329,0
2096921,2096921,220872,581154,0
2096921,2096921,220837,581595,0
2096921,2096921,220947,581571,0
2096921,2096921,221174,581849,0
2096921,2096921,220998,581372,0
2096921,2096921,220813,581279,0
2096921,2096921,221065,581328,0
2096921,2096921,220823,581204,0
2096921,2096921,220408,581348,0
2096921,2096921,220903,581660,0
2096921,2096921,220878,581500,0
2096921,2096921,221167,581372,0
2096921,2096921,220749,581929,0
2096921,2096921,221138,581402,0
2096921,2096921,220618,581711,0
2096921,2096921,220748,581436,0
2096921,2096921,220889,581804,0
2096921,2096921,220963,581626,0
2096921,2096921,220657,581883,0
2096921,2096921,220925,581537,0
2096921,2096921,221030,581690,0
2096921,2096921,220931,581155,0
2096921,2096921,221215,581675,0
2096921,2096921,220854,581584,0
2096921,2096921,220920,581940,0
2096921,2096921,220671,581445,0
2096921,2096921,220840,581716,0
2096921,2096921,220826,581387,0
2096921,2096921,220981,581171,0
2096921,2096921,220783,581397,0
2096921,2096921,220982,581629,0
2096921,2096921,221004,581577,0
2096921,2096921,220756,581423,0
2096921,2096921,221093,581650,0
2096921,2096921,221014,581648,0
2096921,2096921,220967,581823,0
2096921,2096921,220937,581282,0
2096921,2096921,221007,581441,0
2096921,2096921,220818,581394,0
2096921,2096921,220938,581328,0
2096921,2096921,221068,581370,0
2096921,2096921,221011,581768,0
2096921,2096921,220872,581789,0
2096921,2096921,221054,581819,0
2096921,2096921,221164,581714,0
2096921,2096921,221087,581590,0
2096921,2096921,220764,581341,0
2096921,2096921,220670,581148,0
2096921,2096921,220988,581553,0
2096921,2096921,220703,581493,0
2096921,2096921,221220,581859,0
2096921,2096921,221176,581668,0
2096921,2096921,221095,581333,0
2096921,2096921,220854,581423,0
2096921,2096921,221085,581529,0
2096921,2096921,221246,581415,0
2096921,2096921,220942,581758,0
2096921,2096921,220812,581384,0
2096921,2096921,220987,581174,0
2096921,2096921,220929,581050,0
2096921,2096921,221376,581673,0
2096921,2096921,221151,581515,0
2096921,2096921,221263,581365,0
2096921,2096921,221051,581550,0
2096921,2096921,221200,581249,0
2096921,2096921,220894,581171,0
2096921,2096921,220955,581266,0
2096921,2096921,221012,581251,0
2096921,2096921,220947,581411,0
2096921,2096921,221175,581370,0
2096921,2096921,221270,581285,0
2096921,2096921,221270,581707,0
2096921,2096921,220876,581371,0
2096921,2096921,221328,581501,0
2096921,2096921,221409,581242,0
2096921,2096921,221047,580979,0
2096921,2096921,220902,581346,0
2096921,2096921,221127,581288,0
2096921,2096921,221040,581092,0
2096921,2096921,220864,581254,0
2096921,2096921,221103,581307,0
2096921,2096921,220897,581203,0
2096921,2096921,221056,581199,0
2096921,2096921,220995,581007,0
2096921,2096921,221061,581294,0
2096921,2096921,220967,581159,0
2096921,2096921,220844,581044,0
2096921,2096921,220816,581055,0
2096921,2096921,221055,581110,0
2096921,2096921,221019,580998,0
2096921,2096921,221168,580938,0
2096921,2096921,220938,581272,0
2096921,2096921,221184,581171,0
2096921,2096921,220916,581323,0
2096921,2096921,221181,581136,0
2096921,2096921,220843,581227,0
2096921,2096921,220785,580990,0
2096921,2096921,220721,580967,0
2096921,2096921,220985,580792,0
2096921,2096921,220905,580752,0
2096921,2096921,221242,580780,0
2096921,2096921,221429,580898,0
2096921,2096921,220629,580914,0
2096921,2096921,220916,580864,0
2096921,2096921,220996,580751,0
2096921,2096921,221342,580838,0
2096921,2096921,220891,580879,0
2096921,2096921,220872,581174,0
2096921,2096921,220555,580786,0
2096921,2096921,220892,580680,0
2096921,2096921,221200,580623,0
2096921,2096921,221199,580827,0
2096921,2096921,220844,581275,0
2096921,2096921,220995,581124,0
2096921,2096921,220994,581010,0
2096921,2096921,221001,580587,0
2096921,2096921,220905,580522,0
2096921,2096921,220749,580693,0
2096921,2096921,220910,580575,0
2096921,2096921,220846,580628,0
2096921,2096921,221152,580539,0
2096921,2096921,221198,580587,0
2096921,2096921,220930,580415,0
2096921,2096921,220985,580703,0
2096921,2096921,220949,580531,0
2096921,2096921,221017,580416,0
2096921,2096921,220841,580403,0
2096921,2096921,220797,580264,0
2096921,2096921,220980,580203,0
2096921,2096921,220724,580173,0
2096921,2096921,220764,579857,0
2096921,2096921,220828,580480,0
2096921,2096921,220730,579914,0
2096921,2096921,220671,580091,0
2096921,2096921,220730,580330,0
2096921,2096921,220355,580360,0
2096921,2096921,220397,580238,0
2096921,2096921,220720,579828,0
2096921,2096921,220750,579768,0
2096921,2096921,220714,579574,0
2096921,2096921,220784,579899,0
2096921,2096921,220905,580283,0
2096921,2096921,220876,580305,0
2096921,2096921,220703,579978,0
2096921,2096921,220810,579991,0
2096921,2096921,220561,580018,0
2096921,2096921,220835,579892,0
2096921,2096921,220595,579807,0
2096921,2096921,220490,579820,0
2096921,2096921,220479,579579,0
2096921,2096921,220517,580017,0
2096921,2096921,220368,579900,0
2096921,2096921,220354,579603,0
2096921,2096921,220607,579563,0
2096921,2096921,220750,579565,0
2096921,2096921,220406,579474,0
2096921,2096921,220402,579626,0
2096921,2096921,220741,579442,0
2096921,2096921,220234,579459,0
2096921,2096921,220057,579130,0
2096921,2096921,220152,578821,0
2096921,2096921,220324,579301,0
2096921,2096921,220306,579130,0
2096921,2096921,220306,579467,0
2096921,2096921,220304,578837,0
2096921,2096921,220266,578699,0
2096921,2096921,220060,578731,0
2096921,2096921,220211,578431,0
2096921,2096921,220098,578624,0
2096921,2096921,219786,578007,0
2096921,2096921,219344,578123,0
2096921,2096921,219780,578205,0
2096921,2096921,219574,578327,0
2096921,2096921,219527,578285,0
2096921,2096921,219291,577636,0
2096921,2096921,219465,577328,0
2096921,2096921,219203,577337,0
2096921,2096921,218912,577447,0
2096921,2096921,218828,577619,0
2096921,2096921,218473,577142,0
2096921,2096921,218675,576594,0
2096921,2096921,218720,576530,0
2096921,2096921,218889,576657,0
2096921,2096921,218227,576923,0
2096921,2096921,217712,575752,0
2096921,2096921,218042,575332,0
2096921,2096921,217966,575225,0
2096921,2096921,217884,575128,0
2096921,2096921,217063,575116,0
2096921,2096921,216651,573813,0
2096921,2096921,216416,573157,0
2096921,2096921,216686,573096,0
2096921,2096921,216994,573339,0
2096921,2096921,216106,573252,0
2096921,2096921,215524,572076,0
2096921,2096921,215214,571684,0
2096921,2096921,215340,571335,0
2096921,2096921,215312,571160,0
2096921,2096921,214584,571157,0
2096921,2096921,214653,570423,0
2096921,2096921,214618,570157,0
2096921,2096921,214539,570385,0
2096921,2096921,214904,570216,0
2096921,2096921,214414,570584,0
2096921,2096921,214209,569821,0
2096921,2096921,213892,569497,0
2096921,2096921,213712,569504,0
2096921,2096921,213924,569275,0
2096921,2096921,213707,569068,0
2096921,2096921,213444,568544,0
2096921,2096921,213421,568497,0
2096921,2096921,213532,568392,0
2096921,2096921,213540,568801,0
2096921,2096921,213511,568578,0
2096921,2096921,213217,567892,0
2096921,2096921,213313,567690,0
2096921,2096921,213352,567579,0
2096921,2096921,213179,567365,0
2096921,2096921,212987,567353,0
2096921,2096921,212852,567607,0
2096921,2096921,212710,567530,0
2096921,2096921,213116,567416,0
2096921,2096921,212952,567520,0
2096921,2096921,212760,567554,0
2096921,2096921,212884,567699,0
2096921,2096921,212804,567487,0
2096921,2096921,212677,567244,0
2096921,2096921,212744,567290,0
2096921,2096921,212649,567288,0
2096921,2096921,213345,567391,0
2096921,2096921,213001,567305,0
2096921,2096921,213070,567273,0
2096921,2096921,212792,567118,0
2096921,2096921,212846,567362,0
2096921,2096921,212672,567205,0
2096921,2096921,212652,567346,0
2096921,2096921,212664,567174,0
2096921,2096921,212506,566842,0
2096921,2096921,212766,567160,0
2096921,2096921,212515,567180,0
2096921,2096921,212866,567082,0
2096921,2096921,212621,567234,0
2096921,2096921,213022,567276,0
2096921,2096921,212997,567031,0
2096921,2096921,212936,567148,0
2096921,2096921,212739,567195,0
2096921,2096921,212744,567069,0
2096921,2096921,212472,567011,0
2096921,2096921,212763,566999,0
2096921,2096921,212818,567201,0
2096921,2096921,212940,567460,0
2096921,2096921,212912,567243,0
2096921,2096921,213069,567543,0
2096921,2096921,213157,567157,0
2096921,2096921,212916,567605,0
2096921,2096921,212906,567402,0
2096921,2096921,212970,567380,0
2096921,2096921,212764,567390,0
2096921,2096921,213231,567147,0
2096921,2096921,213293,567083,0
2096921,2096921,213417,567232,0
2096921,2096921,213228,567653,0
2096921,2096921,213227,567812,0
2096921,2096921,213493,567571,0
2096921,2096921,213276,567777,0
2096921,2096921,213704,567822,0
2096921,2096921,213157,567608,0
2096921,2096921,213527,567674,0
2096921,2096921,213535,567359,0
2096921,2096921,213773,567764,0
2096921,2096921,213730,567947,0
2096921,2096921,213601,568074,0
2096921,2096921,213550,567927,0
2096921,2096921,213774,567932,0
2096921,2096921,213808,568048,0
2096921,2096921,213494,567929,0
2096921,2096921,213476,567984,0
2096921,2096921,214020,568213,0
2096921,2096921,213951,567797,0
2096921,2096921,213670,568152,0
2096921,2096921,213972,568216,0
2096921,2096921,213951,568381,0
2096921,2096921,214247,568319,0
2096921,2096921,214015,568498,0
2096921,2096921,214157,568581,0
2096921,2096921,214205,568699,0
2096921,2096921,213711,568433,0
2096921,2096921,214060,568003,0
2096921,2096921,214447,568119,0
2096921,2096921,214094,568591,0
2096921,2096921,214018,568753,0
2096921,2096921,214328,568719,0
2096921,2096921,214346,568920,0
2096921,2096921,214451,568598,0
2096921,2096921,214308,568946,0
2096921,2096921,214381,569077,0
2096921,2096921,214188,568906,0
2096921,2096921,214248,568762,0
2096921,2096921,214439,568796,0
2096921,2096921,214459,569091,0
2096921,2096921,214460,569065,0
2096921,2096921,214873,568995,0
2096921,2096921,214755,569282,0
2096921,2096921,214801,569392,0
2096921,2096921,214755,569497,0
2096921,2096921,214888,569117,0
2096921,2096921,214748,569241,0
2096921,2096921,214786,569338,0
2096921,2096921,214821,568836,0
2096921,2096921,214837,569072,0
2096921,2096921,215035,569481,0
2096921,2096921,214788,569211,0
2096921,2096921,215018,569302,0
2096921,2096921,215166,569606,0
2096921,2096921,215196,569530,0
2096921,2096921,215080,569661,0
2096921,2096921,214940,569366,0
2096921,2096921,214857,569317,0
2096921,2096921,214836,569569,0
2096921,2096921,215002,569490,0
2096921,2096921,215338,569687,0
2096921,2096921,215024,569552,0
2096921,2096921,215602,569496,0
2096921,2096921,215375,569568,0
2096921,2096921,215006,569762,0
2096921,2096921,215095,569451,0
2096921,2096921,215014,569599,0
2096921,2096921,215260,569209,0
2096921,2096921,215112,569668,0
2096921,2096921,215270,569570,0
2096921,2096921,215375,569847,0
2096921,2096921,215298,569848,0
2096921,2096921,215183,569957,0
2096921,2096921,215268,569853,0
2096921,2096921,215309,569337,0
2096921,2096921,215004,569362,0
2096921,2096921,214741,569284,0
2096921,2096921,215202,569367,0
2096921,2096921,215092,569403,0
2096921,2096921,215220,569200,0
2096921,2096921,215143,569224,0
2096921,2096921,215001,569492,0
2096921,2096921,215186,569490,0
2096921,2096921,215099,569293,0
2096921,2096921,215106,569699,0
2096921,2096921,214813,569229,0
2096921,2096921,214552,569153,0
2096921,2096921,215072,569193,0
2096921,2096921,214864,568973,0
2096921,2096921,214882,568747,0
2096921,2096921,214993,568674,0
2096921,2096921,214995,569058,0
2096921,2096921,214990,569212,0
2096921,2096921,214913,569164,0
2096921,2096921,214944,568741,0
2096921,2096921,214550,568460,0
2096921,2096921,214403,568714,0
2096921,2096921,214439,568303,0
2096921,2096921,214602,568494,0
2096921,2096921,214499,568300,0
2096921,2096921,214650,568433,0
2096921,2096921,214848,568468,0
2096921,2096921,214667,568728,0
2096921,2096921,214523,568659,0
2096921,2096921,214456,568479,0
2096921,2096921,214360,568379,0
2096921,2096921,214266,568196,0
2096921,2096921,214398,568175,0
2096921,2096921,214625,568272,0
2096921,2096921,214432,567875,0
2096921,2096921,214452,567847,0
2096921,2096921,214461,568038,0
2096921,2096921,214647,568124,0
2096921,2096921,214445,568241,0
2096921,2096921,214530,568121,0
2096921,2096921,214284,568239,0
2096921,2096921,214359,567980,0
2096921,2096921,213957,567666,0
2096921,2096921,214011,567784,0
2096921,2096921,214127,567982,0
2096921,2096921,214230,568059,0
2096921,2096921,214305,568110,0
2096921,2096921,214482,567996,0
2096921,2096921,214403,567970,0
2096921,2096921,213994,567904,0
2096921,2096921,214499,567914,0
2096921,2096921,214378,567995,0
2096921,2096921,214217,567784,0
2096921,2096921,214476,567705,0
2096921,2096921,214415,567740,0
2096921,2096921,214270,567896,0
2096921,2096921,214511,567892,0
2096921,2096921,214487,567894,0
2096921,2096921,214467,568066,0
2096921,2096921,214316,568002,0
2096921,2096921,214346,568149,0
2096921,2096921,214615,568375,0
2096921,2096921,214358,568170,0
2096921,2096921,214427,567858,0
2096921,2096921,214811,567714,0
2096921,2096921,214561,568080,0
2096921,2096921,214469,567794,0
2096921,2096921,214664,568033,0
2096921,2096921,214962,568187,0
2096921,2096921,214606,568469,0
2096921,2096921,214573,568425,0
2096921,2096921,214775,568207,0
2096921,2096921,214316,568351,0
2096921,2096921,214637,568044,0
2096921,2096921,215028,568182,0
2096921,2096921,215013,568424,0
2096921,2096921,214916,568694,0
2096921,2096921,214810,568432,0
2096921,2096921,215034,568358,0
2096921,2096921,215154,568560,0
2096921,2096921,215058,568878,0
2096921,2096921,214843,568609,0
2096921,2096921,214946,568438,0
2096921,2096921,214862,568168,0
2096921,2096921,214968,568502,0
2096921,2096921,214805,568426,0
2096921,2096921,215309,568624,0
2096921,2096921,215049,568391,0
2096921,2096921,215340,568765,0
2096921,2096921,215106,568810,0
2096921,2096921,214927,568694,0
2096921,2096921,215139,568600,0
2096921,2096921,215032,568609,0
2096921,2096921,215167,568535,0
2096921,2096921,215130,568804,0
2096921,2096921,215185,568968,0
2096921,2096921,215221,568700,0
2096921,2096921,215301,568849,0
2096921,2096921,215452,569083,0
2096921,2096921,215518,568993,0
2096921,2096921,215058,569045,0
2096921,2096921,215538,568943,0
2096921,2096921,215369,568820,0
2096921,2096921,215370,568759,0
2096921,2096921,215116,569205,0
2096921,2096921,215298,569266,0
2096921,2096921,215767,569142,0
2096921,2096921,215621,569003,0
2096921,2096921,215716,568690,0
2096921,2096921,215404,569100,0
2096921,2096921,215353,569222,0
2096921,2096921,215577,568969,0
2096921,2096921,215530,569258,0
2096921,2096921,215385,569177,0
2096921,2096921,215808,569301,0
2096921,2096921,215779,569145,0
2096921,2096921,215636,569488,0
2096921,2096921,215576,569330,0
2096921,2096921,215800,569458,0
2096921,2096921,215766,569482,0
2096921,2096921,215704,569603,0
2096921,2096921,215906,569667,0
2096921,2096921,215631,569734,0
2096921,2096921,215487,569475,0
2096921,2096921,215689,569302,0
2096921,2096921,215679,569574,0
2096921,2096921,215712,569325,0
2096921,2096921,216053,569764,0
2096921,2096921,216125,569248,0
2096921,2096921,216106,569712,0
2096921,2096921,215635,569933,0
2096921,2096921,215931,569853,0
2096921,2096921,215903,569553,0
2096921,2096921,216041,569466,0
2096921,2096921,216029,569769,0
2096921,2096921,216024,569729,0
2096921,2096921,216090,570041,0
2096921,2096921,216413,570021,0
2096921,2096921,216153,569764,0
2096921,2096921,216008,570192,0
2096921,2096921,216297,569845,0
2096921,2096921,215997,570114,0
2096921,2096921,216001,569941,0
2096921,2096921,216201,569662,0
2096921,2096921,216235,570082,0
2096921,2096921,215845,569883,0
2096921,2096921,216289,570094,0
2096921,2096921,216868,570190,0
2096921,2096921,216630,570054,0
2096921,2096921,216350,570167,0
2096921,2096921,216231,570030,0
2096921,2096921,216344,569839,0
2096921,2096921,216209,570099,0
2096921,2096921,216219,570056,0
2096921,2096921,216349,570252,0
2096921,2096921,216264,570084,0
2096921,2096921,216404,570346,0
2096921,2096921,216408,570365,0
2096921,2096921,216576,570459,0
2096921,2096921,216258,570267,0
2096921,2096921,216446,570115,0
2096921,2096921,216476,570491,0
2096921,2096921,216397,570336,0
2096921,2096921,216612,570037,0
2096921,2096921,216501,570332,0
2096921,2096921,216614,570488,0
2096921,2096921,216316,570407,0
2096921,2096921,216426,570619,0
2096921,2096921,216454,570597,0
2096921,2096921,216687,570704,0
2096921,2096921,216571,570802,0
2096921,2096921,216379,570475,0
2096921,2096921,216609,570446,0
2096921,2096921,216669,570576,0
2096921,2096921,216410,570571,0
2096921,2096921,216528,570527,0
2096921,2096921,216732,570736,0
2096921,2096921,216821,570723,0
2096921,2096921,216987,570557,0
2096921,2096921,216918,570971,0
2096921,2096921,216718,570751,0
2096921,2096921,216390,570546,0
2096921,2096921,216412,570829,0
2096921,2096921,216454,570854,0
2096921,2096921,216730,570699,0
2096921,2096921,216918,570615,0
2096921,2096921,216670,570701,0
2096921,2096921,216725,571005,0
2096921,2096921,216623,570617,0
2096921,2096921,216845,570882,0
2096921,2096921,216840,571112,0
2096921,2096921,216683,571035,0
2096921,2096921,216429,570830,0
2096921,2096921,216583,570928,0
2096921,2096921,216531,570823,0
2096921,2096921,216672,570588,0
2096921,2096921,216738,570853,0
2096921,2096921,217027,571316,0
2096921,2096921,217031,570981,0
2096921,2096921,217224,570898,0
2096921,2096921,216889,570999,0
2096921,2096921,216951,570854,0
2096921,2096921,216869,570698,0
2096921,2096921,216875,570747,0
2096921,2096921,216747,570821,0
2096921,2096921,216724,571093,0
2096921,2096921,216853,571207,0
2096921,2096921,217041,570904,0
2096921,2096921,217113,571214,0
2096921,2096921,217111,571358,0
2096921,2096921,217259,571239,0
2096921,2096921,217018,571121,0
2096921,2096921,216865,570887,0
2096921,2096921,217062,571020,0
2096921,2096921,216886,571305,0
2096921,2096921,217023,571220,0
2096921,2096921,217345,571271,0
2096921,2096921,217206,571571,0
2096921,2096921,217079,571292,0
2096921,2096921,216816,571523,0
2096921,2096921,217197,571308,0
2096921,2096921,217251,571392,0
2096921,2096921,216929,571238,0
2096921,2096921,216940,571413,0
2096921,2096921,217350,571152,0
2096921,2096921,217222,571045,0
2096921,2096921,217077,570817,0
2096921,2096921,217052,571155,0
2096921,2096921,217132,571426,0
2096921,2096921,217199,571258,0
2096921,2096921,217300,571142,0
2096921,2096921,217152,571478,0
2096921,2096921,217155,571583,0
2096921,2096921,217349,571163,0
2096921,2096921,216992,571363,0
2096921,2096921,217279,571218,0
2096921,2096921,217003,571396,0
2096921,2096921,217095,571424,0
2096921,2096921,217412,571406,0
2096921,2096921,217350,571529,0
2096921,2096921,217370,571308,0
2096921,2096921,217164,571372,0
2096921,2096921,216714,571232,0
2096921,2096921,217091,571320,0
2096921,2096921,217059,571385,0
2096921,2096921,217091,571478,0
2096921,2096921,217291,571580,0
2096921,2096921,217583,571334,0
2096921,2096921,217377,571666,0
2096921,2096921,217252,571950,0
2096921,2096921,217201,571861,0
2096921,2096921,217359,571484,0
2096921,2096921,217291,571545,0
2096921,2096921,217112,571437,0
2096921,2096921,217077,571595,0
2096921,2096921,217106,571670,0
2096921,2096921,217256,571566,0
2096921,2096921,217383,571703,0
2096921,2096921,217335,571893,0
2096921,2096921,217495,571960,0
2096921,2096921,217228,571723,0
2096921,2096921,217334,571758,0
2096921,2096921,217207,571485,0
2096921,2096921,217405,571256,0
2096921,2096921,217300,571621,0
2096921,2096921,217333,571596,0
2096921,2096921,217405,571648,0
2096921,2096921,217374,571611,0
2096921,2096921,217423,571845,0
2096921,2096921,217552,571777,0
2096921,2096921,217292,571768,0
2096921,2096921,217052,571595,0
2096921,2096921,217201,571860,0
2096921,2096921,217483,571786,0
2096921,2096921,217429,571731,0
2096921,2096921,217261,571764,0
2096921,2096921,217028,571992,0
2096921,2096921,217585,571980,0
2096921,2096921,217379,571683,0
2096921,2096921,217715,571709,0
2096921,2096921,217636,571647,0
2096921,2096921,217458,571658,0
2096921,2096921,217561,571812,0
2096921,2096921,216913,571576,0
2096921,2096921,217260,571588,0
2096921,2096921,217412,571731,0
2096921,2096921,217497,571769,0
2096921,2096921,217541,572240,0
2096921,2096921,217620,571918,0
2096921,2096921,217376,571913,0
2096921,2096921,217233,571764,0
2096921,2096921,217667,571739,0
2096921,2096921,217225,571435,0
2096921,2096921,217199,571629,0
2096921,2096921,217364,571479,0
2096921,2096921,217408,571600,0
2096921,2096921,217396,571713,0
2096921,2096921,217681,571940,0
2096921,2096921,217386,571987,0
2096921,2096921,217527,571983,0
2096921,2096921,217323,571816,0
2096921,2096921,217399,571911,0
2096921,2096921,217285,571922,0
2096921,2096921,217257,571947,0
2096921,2096921,217408,572074,0
2096921,2096921,217420,571873,0
2096921,2096921,217514,571869,0
2096921,2096921,217169,571965,0
2096921,2096921,217606,572080,0
2096921,2096921,217309,571979,0
2096921,2096921,217524,571827,0
2096921,2096921,217806,571664,0
2096921,2096921,217762,571767,0
2096921,2096921,217512,571825,0
2096921,2096921,217502,571737,0
2096921,2096921,217420,571852,0
2096921,2096921,217413,572203,0
2096921,2096921,217721,571974,0
2096921,2096921,217658,572106,0
2096921,2096921,217672,571829,0
2096921,2096921,217657,571730,0
2096921,2096921,217599,571677,0
2096921,2096921,217635,571861,0
2096921,2096921,217395,572067,0
2096921,2096921,217124,571656,0
2096921,2096921,217252,571616,0
2096921,2096921,217261,571657,0
2096921,2096921,217356,571811,0
2096921,2096921,217282,571614,0
2096921,2096921,217143,571357,0
2096921,2096921,216950,571685,0
2096921,2096921,216923,571204,0
2096921,2096921,217030,571221,0
2096921,2096921,217039,571075,0
2096921,2096921,217005,570945,0
2096921,2096921,216898,570932,0
2096921,2096921,216980,570878,0
2096921,2096921,216719,570873,0
2096921,2096921,216605,571148,0
2096921,2096921,216346,570621,0
2096921,2096921,216459,570094,0
2096921,2096921,216388,570173,0
2096921,2096921,216427,570258,0
2096921,2096921,216043,570198,0
2096921,2096921,216006,569671,0
2096921,2096921,216049,569558,0
2096921,2096921,215866,569558,0
2096921,2096921,216123,570156,0
2096921,2096921,215416,569720,0
2096921,2096921,215155,568750,0
2096921,2096921,215130,568478,0
2096921,2096921,214775,568423,0
2096921,2096921,214809,568007,0
2096921,2096921,214254,568295,0
2096921,2096921,214127,567000,0
2096921,2096921,214032,566420,0
2096921,2096921,213919,566512,0
2096921,2096921,214063,566558,0
2096921,2096921,213227,566641,0
2096921,2096921,213167,565692,0
2096921,2096921,213114,565166,0
2096921,2096921,212826,565155,0
2096921,2096921,212756,565116,0
2096921,2096921,212432,564981,0
2096921,2096921,212235,564208,0
2096921,2096921,211975,564040,0
2096921,2096921,212477,564005,0
2096921,2096921,212699,563889,0
2096921,2096921,211705,564079,0
2096921,2096921,211413,563360,0
2096921,2096921,211670,562986,0
2096921,2096921,211548,563291,0
2096921,2096921,211464,563217,0
2096921,2096921,211499,563257,0
2096921,2096921,211270,562414,0
2096921,2096921,211291,562475,0
2096921,2096921,211317,562749,0
2096921,2096921,211459,563063,0
2096921,2096921,211146,562946,0
2096921,2096921,210998,562531,0
2096921,2096921,211237,562007,0
2096921,2096921,210984,562150,0
2096921,2096921,210750,562084,0
2096921,2096921,210828,561995,0
2096921,2096921,210462,561692,0
2096921,2096921,211003,561831,0
2096921,2096921,210783,562027,0
2096921,2096921,210920,561938,0
2096921,2096921,210851,562205,0
2096921,2096921,210800,562177,0
2096921,2096921,210401,562025,0
2096921,2096921,210575,561880,0
2096921,2096921,210600,561840,0
2096921,2096921,210687,561934,0
2096921,2096921,210610,561845,0
2096921,2096921,210742,562013,0
2096921,2096921,210871,561898,0
2096921,2096921,210930,561771,0
2096921,2096921,211112,561965,0
2096921,2096921,210729,562010,0
2096921,2096921,210819,562045,0
2096921,2096921,211039,561911,0
2096921,2096921,210838,561919,0
2096921,2096921,210895,562146,0
2096921,2096921,210747,562086,0
2096921,2096921,210988,562204,0
2096921,2096921,210946,562250,0
2096921,2096921,210980,562022,0
2096921,2096921,211065,562194,0
2096921,2096921,210832,562426,0
2096921,2096921,210923,562240,0
2096921,2096921,210794,562122,0
2096921,2096921,210700,562175,0
2096921,2096921,211035,562362,0
2096921,2096921,210889,562328,0
2096921,2096921,211178,562734,0
2096921,2096921,211142,562734,0
2096921,2096921,211227,562958,0
2096921,2096921,211184,563062,0
2096921,2096921,211388,562926,0
2096921,2096921,211559,563236,0
2096921,2096921,211749,563194,0
2096921,2096921,211343,562974,0
2096921,2096921,211733,562941,0
2096921,2096921,211724,563228,0
2096921,2096921,211902,563393,0
2096921,2096921,211387,563861,0
2096921,2096921,212029,563492,0
2096921,2096921,212352,563756,0
2096921,2096921,211933,563858,0
2096921,2096921,212104,563993,0
2096921,2096921,211863,563898,0
2096921,2096921,211818,563826,0
2096921,2096921,212031,563530,0
2096921,2096921,212006,563943,0
2096921,2096921,211989,564411,0
2096921,2096921,212010,564552,0
2096921,2096921,212107,564319,0
2096921,2096921,212723,564277,0
2096921,2096921,212533,564944,0
2096921,2096921,212526,564760,0
2096921,2096921,212357,564434,0
2096921,2096921,212303,564441,0
2096921,2096921,212326,564736,0
2096921,2096921,212664,564952,0
2096921,2096921,212682,565100,0
2096921,2096921,213057,564967,0
2096921,2096921,213055,565322,0
2096921,2096921,212898,565031,0
2096921,2096921,212775,565671,0
2096921,2096921,212689,565770,0
2096921,2096921,212672,565163,0
2096921,2096921,212966,565404,0
2096921,2096921,213247,565368,0
2096921,2096921,213004,565367,0
2096921,2096921,213208,565735,0
2096921,2096921,213366,565790,0
2096921,2096921,213053,566001,0
2096921,2096921,213257,565809,0
2096921,2096921,213527,566023,0
2096921,2096921,213287,566578,0
2096921,2096921,213377,566192,0
2096921,2096921,213374,566599,0
2096921,2096921,213405,566374,0
2096921,2096921,213680,566870,0
2096921,2096921,213592,566755,0
2096921,2096921,213913,566811,0
2096921,2096921,213830,567050,0
2096921,2096921,214011,566827,0
2096921,2096921,213952,567363,0
2096921,2096921,213941,567390,0
2096921,2096921,213576,567448,0
2096921,2096921,213582,567041,0
2096921,2096921,213516,566992,0
2096921,2096921,214046,567246,0
2096921,2096921,214142,567518,0
2096921,2096921,214365,567438,0
2096921,2096921,214089,567819,0
2096921,2096921,214527,567396,0
2096921,2096921,214733,568020,0
2096921,2096921,214363,567933,0
2096921,2096921,214297,567862,0
2096921,2096921,214239,568050,0
2096921,2096921,214547,567810,0
2096921,2096921,214432,568277,0
2096921,2096921,214419,568267,0
2096921,2096921,214501,568285,0
2096921,2096921,214583,568524,0
2096921,2096921,214689,568245,0
2096921,2096921,214665,568247,0
2096921,2096921,214445,568113,0
2096921,2096921,214618,568171,0
2096921,2096921,214639,568271,0
2096921,2096921,214686,568130,0
2096921,2096921,214703,568577,0
2096921,2096921,214789,568562,0
2096921,2096921,215041,568505,0
2096921,2096921,215148,568645,0
2096921,2096921,214961,568754,0
2096921,2096921,215187,568742,0
2096921,2096921,214833,568785,0
2096921,2096921,215015,568644,0
2096921,2096921,214992,568441,0
2096921,2096921,214724,568732,0
2096921,2096921,214873,569137,0
2096921,2096921,214612,569252,0
2096921,2096921,214993,569020,0
2096921,2096921,214957,569056,0
2096921,2096921,214972,568800,0
2096921,2096921,214938,569099,0
2096921,2096921,214895,569014,0
2096921,2096921,214913,568875,0
2096921,2096921,214710,568723,0
2096921,2096921,214852,568824,0
2096921,2096921,214670,568959,0
2096921,2096921,214757,569113,0
2096921,2096921,214610,568953,0
2096921,2096921,214971,568685,0
2096921,2096921,214892,568659,0
2096921,2096921,214863,569199,0
2096921,2096921,214756,569082,0
2096921,2096921,214787,568900,0
2096921,2096921,214869,568918,0
2096921,2096921,214829,569068,0
2096921,2096921,214903,568865,0
2096921,2096921,214998,568662,0
2096921,2096921,215091,569048,0
2096921,2096921,214876,569182,0
2096921,2096921,214829,569053,0
2096921,2096921,214669,569081,0
2096921,2096921,214885,568833,0
2096921,2096921,214646,569089,0
2096921,2096921,214746,569078,0
2096921,2096921,214818,568824,0
2096921,2096921,214647,568833,0
2096921,2096921,214697,568919,0
2096921,2096921,214975,569139,0
2096921,2096921,214814,569229,0
2096921,2096921,215025,569032,0
2096921,2096921,214717,569021,0
2096921,2096921,214900,569090,0
2096921,2096921,214840,569071,0
2096921,2096921,214921,569048,0
2096921,2096921,215043,568964,0
2096921,2096921,214735,569012,0
2096921,2096921,215201,569583,0
2096921,2096921,214864,569446,0
2096921,2096921,215074,569689,0
2096921,2096921,215162,569677,0
2096921,2096921,215172,569878,0
2096921,2096921,214971,569713,0
2096921,2096921,214978,569617,0
2096921,2096921,214975,569624,0
2096921,2096921,214988,569625,0
2096921,2096921,214786,569798,0
2096921,2096921,214899,569662,0
2096921,2096921,214723,569727,0
2096921,2096921,215226,569949,0
2096921,2096921,215421,569773,0
2096921,2096921,215343,570055,0
2096921,2096921,215508,570121,0
2096921,2096921,215426,569800,0
2096921,2096921,215222,569893,0
2096921,2096921,215197,570158,0
2096921,2096921,215328,570565,0
2096921,2096921,215440,570420,0
2096921,2096921,215724,570615,0
2096921,2096921,215639,570418,0
2096921,2096921,215753,570861,0
2096921,2096921,215741,570870,0
2096921,2096921,215806,570897,0
2096921,2096921,215920,571221,0
2096921,2096921,215657,570726,0
2096921,2096921,215658,570746,0
2096921,2096921,215891,571056,0
2096921,2096921,216102,571376,0
2096921,2096921,216000,570915,0
2096921,2096921,216113,571181,0
2096921,2096921,216362,570957,0
2096921,2096921,216316,571756,0
2096921,2096921,216057,571756,0
2096921,2096921,216194,571884,0
2096921,2096921,216203,571652,0
2096921,2096921,216280,571269,0
2096921,2096921,216276,571864,0
2096921,2096921,216416,572031,0
2096921,2096921,216481,572318,0
2096921,2096921,216205,572113,0
2096921,2096921,216579,572151,0
2096921,2096921,216719,572239,0
2096921,2096921,216605,572295,0
2096921,2096921,216603,572237,0
2096921,2096921,216340,572165,0
2096921,2096921,216292,572145,0
2096921,2096921,216810,572272,0
2096921,2096921,216645,572351,0
2096921,2096921,216915,572620,0
2096921,2096921,216562,572573,0
2096921,2096921,216911,572573,0
2096921,2096921,216787,572643,0
2096921,2096921,216888,572894,0
2096921,2096921,216821,572605,0
2096921,2096921,216827,572812,0
2096921,2096921,216984,572969,0
2096921,2096921,217080,573268,0
2096921,2096921,216915,573183,0
2096921,2096921,216918,573300,0
2096921,2096921,217158,573178,0
2096921,2096921,217338,573224,0
2096921,2096921,217664,573599,0
2096921,2096921,217383,573306,0
2096921,2096921,217189,573668,0
2096921,2096921,217072,573403,0
2096921,2096921,217396,573275,0
2096921,2096921,217357,573835,0
2096921,2096921,217543,573660,0
2096921,2096921,217517,573848,0
2096921,2096921,217536,574137,0
2096921,2096921,217800,574149,0
2096921,2096921,217566,574132,0
2096921,2096921,217679,574211,0
2096921,2096921,217515,573761,0
2096921,2096921,217315,574272,0
2096921,2096921,217782,574111,0
2096921,2096921,217505,574405,0
2096921,2096921,217747,574588,0
2096921,2096921,217804,574492,0
2096921,2096921,218063,574854,0
2096921,2096921,218295,574765,0
2096921,2096921,217861,574771,0
2096921,2096921,218070,575075,0
2096921,2096921,217692,574836,0
2096921,2096921,217599,574849,0
2096921,2096921,218084,574844,0
2096921,2096921,218084,574999,0
2096921,2096921,217979,575268,0
2096921,2096921,218146,575134,0
2096921,2096921,218312,575540,0
2096921,2096921,218477,575180,0
2096921,2096921,218215,575398,0
2096921,2096921,218220,575521,0
2096921,2096921,218662,575099,0
2096921,2096921,218429,575604,0
2096921,2096921,217922,575413,0
2096921,2096921,218414,575695,0
2096921,2096921,218282,575724,0
2096921,2096921,218402,575840,0
2096921,2096921,218505,575848,0
2096921,2096921,218692,575967,0
2096921,2096921,218456,576013,0
2096921,2096921,218585,576035,0
2096921,2096921,218494,575951,0
2096921,2096921,218668,575874,0
2096921,2096921,218576,575910,0
2096921,2096921,218555,576393,0
2096921,2096921,218632,576223,0
2096921,2096921,218582,576624,0
2096921,2096921,218662,576390,0
2096921,2096921,218939,576402,0
2096921,2096921,219073,576949,0
2096921,2096921,218997,576393,0
2096921,2096921,218819,576477,0
2096921,2096921,219109,576514,0
2096921,2096921,218742,576484,0
2096921,2096921,218704,576598,0
2096921,2096921,218925,576496,0
2096921,2096921,219110,576640,0
2096921,2096921,219051,577157,0
2096921,2096921,219219,576903,0
2096921,2096921,219312,577142,0
2096921,2096921,219156,577148,0
2096921,2096921,218941,577280,0
2096921,2096921,218817,577216,0
2096921,2096921,218880,577057,0
2096921,2096921,219199,577498,0
2096921,2096921,219181,577341,0
2096921,2096921,219379,577369,0
2096921,2096921,219480,577450,0
2096921,2096921,219309,577316,0
2096921,2096921,219485,577639,0
2096921,2096921,219177,577963,0
2096921,2096921,219124,577574,0
2096921,2096921,219333,577299,0
2096921,2096921,219301,577463,0
2096921,2096921,219587,577601,0
2096921,2096921,219589,577635,0
2096921,2096921,219652,577770,0
2096921,2096921,219477,577683,0
2096921,2096921,219583,577595,0
2096921,2096921,219589,578061,0
2096921,2096921,219370,578323,0
2096921,2096921,219472,578312,0
2096921,2096921,219487,578121,0
2096921,2096921,219738,577920,0
2096921,2096921,219862,578327,0
2096921,2096921,219904,578211,0
2096921,2096921,219914,578420,0
2096921,2096921,219751,578229,0
2096921,2096921,219737,578475,0
2096921,2096921,220032,578734,0
2096921,2096921,219725,578631,0
2096921,2096921,219806,578725,0
2096921,2096921,219487,578395,0
2096921,2096921,219734,578551,0
2096921,2096921,219841,578262,0
2096921,2096921,219826,578665,0
2096921,2096921,220102,578745,0
2096921,2096921,220198,578686,0
2096921,2096921,220101,578647,0
2096921,2096921,220041,579056,0
2096921,2096921,219824,578985,0
2096921,2096921,220144,578697,0
2096921,2096921,219742,578727,0
2096921,2096921,220040,578799,0
2096921,2096921,220152,579021,0
2096921,2096921,219795,578845,0
2096921,2096921,219942,578696,0
2096921,2096921,220197,578965,0
2096921,2096921,220425,579292,0
2096921,2096921,220364,579425,0
2096921,2096921,220249,579439,0
2096921,2096921,219724,579200,0
2096921,2096921,219768,579196,0
2096921,2096921,219919,579449,0
2096921,2096921,220132,579298,0
2096921,2096921,220188,579376,0
2096921,2096921,220252,579153,0
2096921,2096921,220555,579427,0
2096921,2096921,220509,579764,0
2096921,2096921,220591,579721,0
2096921,2096921,220642,579744,0
2096921,2096921,220418,579631,0
2096921,2096921,220322,579743,0
2096921,2096921,220509,579726,0
2096921,2096921,220845,579742,0
2096921,2096921,220550,580037,0
2096921,2096921,220732,580010,0
2096921,2096921,220673,579883,0
2096921,2096921,220703,579946,0
2096921,2096921,220621,580085,0
2096921,2096921,220396,580405,0
2096921,2096921,220507,580240,0
2096921,2096921,220299,580026,0
2096921,2096921,220699,580108,0
2096921,2096921,220577,580183,0
2096921,2096921,220562,579993,0
2096921,2096921,220765,580274,0
2096921,2096921,220686,580416,0
2096921,2096921,220899,580382,0
2096921,2096921,221040,580588,0
2096921,2096921,221062,580487,0
2096921,2096921,220980,580556,0
2096921,2096921,220372,580696,0
2096921,2096921,220889,580577,0
2096921,2096921,220945,580551,0
2096921,2096921,221138,580625,0
2096921,2096921,220858,580493,0
2096921,2096921,220935,580691,0
2096921,2096921,221030,580876,0
2096921,2096921,220884,581154,0
2096921,2096921,220899,580890,0
2096921,2096921,220901,580730,0
2096921,2096921,220561,580928,0
2096921,2096921,220532,581027,0
2096921,2096921,220883,581143,0
2096921,2096921,220882,581067,0
2096921,2096921,220979,580978,0
2096921,2096921,221258,580845,0
2096921,2096921,221390,581092,0
2096921,2096921,221336,581199,0
2096921,2096921,221230,581049,0
2096921,2096921,221315,581131,0
2096921,2096921,221066,580867,0
2096921,2096921,221407,581068,0
2096921,2096921,221062,581160,0
2096921,2096921,220905,581342,0
2096921,2096921,221184,581547,0
2096921,2096921,221237,581334,0
2096921,2096921,221321,581456,0
2096921,2096921,221422,581503,0
2096921,2096921,221353,581347,0
2096921,2096921,221417,581419,0
2096921,2096921,221268,581657,0
2096921,2096921,220904,581157,0
2096921,2096921,220885,581569,0
2096921,2096921,220937,581664,0
2096921,2096921,221530,581538,0
2096921,2096921,221035,581643,0
2096921,2096921,221684,581789,0
2096921,2096921,221460,581651,0
2096921,2096921,221335,581601,0
2096921,2096921,221164,581984,0
2096921,2096921,221256,581749,0
2096921,2096921,221389,581717,0
2096921,2096921,221131,581845,0
2096921,2096921,221257,581733,0
2096921,2096921,221195,581954,0
2096921,2096921,221642,581805,0
2096921,2096921,221447,581854,0
2096921,2096921,221442,582116,0
2096921,2096921,221425,581827,0
2096921,2096921,221383,581923,0
2096921,2096921,221267,581862,0
2096921,2096921,221360,581897,0
2096921,2096921,221560,581988,0
2096921,2096921,221392,581700,0
2096921,2096921,221261,581833,0
2096921,2096921,221400,582143,0
2096921,2096921,221580,582228,0
2096921,2096921,221655,581850,0
2096921,2096921,221576,582416,0
2096921,2096921,221579,582005,0
2096921,2096921,221698,582021,0
2096921,2096921,221403,582083,0
2096921,2096921,221763,581754,0
2096921,2096921,221525,582064,0
2096921,2096921,221582,581921,0
2096921,2096921,221768,582253,0
2096921,2096921,221707,582232,0
2096921,2096921,221477,582008,0
2096921,2096921,221691,581993,0
2096921,2096921,221775,581996,0
2096921,2096921,221995,582423,0
2096921,2096921,221346,582079,0
2096921,2096921,221380,581911,0
2096921,2096921,221435,581524,0
2096921,2096921,221516,581616,0
2096921,2096921,221374,581943,0
2096921,2096921,221346,581967,0
2096921,2096921,221577,582084,0
2096921,2096921,221435,581726,0
2096921,2096921,221275,581661,0
2096921,2096921,221271,581735,0
2096921,2096921,221280,582055,0
2096921,2096921,220795,581767,0
2096921,2096921,220726,581768,0
2096921,2096921,220870,581918,0
2096921,2096921,221135,581624,0
2096921,2096921,220897,581729,0
2096921,2096921,220613,581219,0
2096921,2096921,220428,581423,0
2096921,2096921,220750,580970,0
2096921,2096921,220786,581246,0
2096921,2096921,220181,581168,0
2096921,2096921,220421,580402,0
2096921,2096921,220141,580378,0
2096921,2096921,220087,580399,0
2096921,2096921,220430,580460,0
2096921,2096921,219738,580569,0
2096921,2096921,219493,579757,0
2096921,2096921,219291,579518,0
2096921,2096921,219304,579229,0
2096921,2096921,219228,579382,0
2096921,2096921,218430,579157,0
2096921,2096921,218224,577330,0
2096921,2096921,218155,577160,0
2096921,2096921,218452,577169,0
2096921,2096921,218066,577353,0
2096921,2096921,217868,577381,0
2096921,2096921,217421,576254,0
2096921,2096921,217458,575899,0
2096921,2096921,217109,575825,0
2096921,2096921,217053,576054,0
2096921,2096921,216584,575976,0
2096921,2096921,216316,575050,0
2096921,2096921,216337,574797,0
2096921,2096921,216392,574655,0
2096921,2096921,216566,574726,0
2096921,2096921,216093,575084,0
2096921,2096921,216185,574549,0
2096921,2096921,215903,574238,0
2096921,2096921,215636,574005,0
2096921,2096921,215770,574081,0
2096921,2096921,215381,574012,0
2096921,2096921,215228,573531,0
2096921,2096921,215398,573243,0
2096921,2096921,215508,573420,0
2096921,2096921,215538,573652,0
2096921,2096921,215393,573757,0
2096921,2096921,214780,572896,0
2096921,2096921,215324,573070,0
2096921,2096921,215257,572928,0
2096921,2096921,215059,573263,0
2096921,2096921,214729,573217,0
2096921,2096921,214939,572904,0
2096921,2096921,214863,572817,0
2096921,2096921,215184,572709,0
2096921,2096921,215212,572876,0
2096921,2096921,215018,573108,0
2096921,2096921,215138,573211,0
2096921,2096921,214996,572711,0
2096921,2096921,214890,572665,0
2096921,2096921,214838,572696,0
2096921,2096921,215119,572584,0
2096921,2096921,214876,572786,0
2096921,2096921,215150,573079,0
2096921,2096921,215202,573075,0
2096921,2096921,215260,572921,0
2096921,2096921,215320,573083,0
2096921,2096921,215061,573174,0
2096921,2096921,214966,573500,0
2096921,2096921,214997,573097,0
2096921,2096921,215131,572996,0
2096921,2096921,215219,573154,0
2096921,2096921,215165,573202,0
2096921,2096921,215109,572968,0
2096921,2096921,215100,573198,0
2096921,2096921,215290,573390,0
2096921,2096921,215452,573412,0
2096921,2096921,215292,573343,0
2096921,2096921,215165,573324,0
2096921,2096921,215172,573170,0
2096921,2096921,214902,573290,0
2096921,2096921,215171,573668,0
2096921,2096921,215290,573703,0
2096921,2096921,215332,573398,0
2096921,2096921,215390,573337,0
2096921,2096921,215388,573474,0
2096921,2096921,215494,573666,0
2096921,2096921,215665,573969,0
2096921,2096921,215678,574215,0
2096921,2096921,215649,573971,0
2096921,2096921,215328,573932,0
2096921,2096921,215640,573975,0
2096921,2096921,215718,574246,0
2096921,2096921,215987,574446,0
2096921,2096921,215913,574417,0
2096921,2096921,216238,574409,0
2096921,2096921,215909,574418,0
2096921,2096921,216475,574822,0
2096921,2096921,216234,574765,0
2096921,2096921,216155,574593,0
2096921,2096921,216038,574618,0
2096921,2096921,216330,574772,0
2096921,2096921,216336,574790,0
2096921,2096921,216392,575041,0
2096921,2096921,216253,574979,0
2096921,2096921,216271,575003,0
2096921,2096921,216485,575277,0
2096921,2096921,216521,575607,0
2096921,2096921,216903,575476,0
2096921,2096921,216520,575314,0
2096921,2096921,216386,574998,0
2096921,2096921,216687,575085,0
2096921,2096921,216518,575882,0
2096921,2096921,216640,575589,0
2096921,2096921,216698,575880,0
2096921,2096921,216619,576051,0
2096921,2096921,217027,575772,0
2096921,2096921,217004,575941,0
2096921,2096921,217120,576159,0
2096921,2096921,216956,576022,0
2096921,2096921,216956,576275,0
2096921,2096921,216911,575831,0
2096921,2096921,217455,576170,0
2096921,2096921,217434,576256,0
2096921,2096921,217452,576514,0
2096921,2096921,217559,576471,0
2096921,2096921,217356,576126,0
2096921,2096921,217618,576646,0
2096921,2096921,217599,576689,0
2096921,2096921,217353,576570,0
2096921,2096921,217004,576649,0
2096921,2096921,217423,576485,0
2096921,2096921,217514,576906,0
2096921,2096921,217577,576901,0
2096921,2096921,217762,576927,0
