2096921,2096921,217540,574475,0
2096921,2096921,217756,574329,0
2096921,2096921,217770,574227,0
2096921,2096921,217504,574021,0
2096921,2096921,217609,573941,0
2096921,2096921,217416,573729,0
2096921,2096921,217495,574033,0
2096921,2096921,217583,574085,0
2096921,2096921,217520,573603,0
2096921,2096921,217567,574210,0
2096921,2096921,217676,574426,0
2096921,2096921,217478,574377,0
2096921,2096921,217661,574323,0
2096921,2096921,217372,574343,0
2096921,2096921,217643,574421,0
2096921,2096921,217624,574285,0
2096921,2096921,217799,574027,0
2096921,2096921,217428,574076,0
2096921,2096921,217401,574026,0
2096921,2096921,217587,574217,0
2096921,2096921,217664,574273,0
2096921,2096921,217629,574092,0
2096921,2096921,217779,574534,0
2096921,2096921,217923,574353,0
2096921,2096921,217844,574536,0
2096921,2096921,217596,574534,0
2096921,2096921,217643,574252,0
2096921,2096921,217595,574078,0
2096921,2096921,217617,574195,0
2096921,2096921,217990,574298,0
2096921,2096921,217969,574462,0
2096921,2096921,217875,574385,0
2096921,2096921,217760,574311,0
2096921,2096921,218255,574482,0
2096921,2096921,217759,574231,0
2096921,2096921,217827,574188,0
2096921,2096921,217457,574076,0
2096921,2096921,217789,574200,0
2096921,2096921,217611,574445,0
2096921,2096921,217729,574429,0
2096921,2096921,217973,574334,0
2096921,2096921,217666,574446,0
2096921,2096921,217953,574365,0
2096921,2096921,217644,574185,0
2096921,2096921,217474,574618,0
2096921,2096921,217919,573972,0
2096921,2096921,217590,574371,0
2096921,2096921,217544,574376,0
2096921,2096921,217709,574494,0
2096921,2096921,217780,574343,0
2096921,2096921,217906,574387,0
2096921,2096921,218059,574473,0
2096921,2096921,218164,574465,0
2096921,2096921,217738,574480,0
2096921,2096921,217873,574239,0
2096921,2096921,217633,574481,0
2096921,2096921,217943,574362,0
2096921,2096921,217743,574047,0
2096921,2096921,217742,574304,0
2096921,2096921,217806,574198,0
2096921,2096921,217809,574340,0
2096921,2096921,218119,574489,0
2096921,2096921,218039,574357,0
2096921,2096921,217898,574530,0
2096921,2096921,218024,574560,0
2096921,2096921,217863,574418,0
2096921,2096921,217840,574604,0
2096921,2096921,217695,574133,0
2096921,2096921,217600,574308,0
2096921,2096921,217838,574434,0
2096921,2096921,217965,574471,0
2096921,2096921,218180,574268,0
2096921,2096921,217797,574507,0
2096921,2096921,218046,574454,0
2096921,2096921,218087,574505,0
2096921,2096921,218114,574572,0
2096921,2096921,217981,574515,0
2096921,2096921,217834,574475,0
2096921,2096921,217635,574336,0
2096921,2096921,218093,574435,0
2096921,2096921,218046,574621,0
2096921,2096921,218000,574973,0
2096921,2096921,217893,574660,0
2096921,2096921,217930,574525,0
2096921,2096921,217969,574196,0
2096921,2096921,217537,574338,0
2096921,2096921,217883,574406,0
2096921,2096921,217965,574427,0
2096921,2096921,218017,574785,0
2096921,2096921,218024,574750,0
2096921,2096921,217840,574492,0
2096921,2096921,217839,574415,0
2096921,2096921,217738,574702,0
2096921,2096921,218009,574601,0
2096921,2096921,217769,574388,0
2096921,2096921,217718,574471,0
2096921,2096921,217844,574263,0
2096921,2096921,217603,574474,0
2096921,2096921,217906,574296,0
2096921,2096921,218064,574403,0
2096921,2096921,218372,574375,0
2096921,2096921,218112,574670,0
2096921,2096921,218101,574548,0
2096921,2096921,218272,574348,0
2096921,2096921,217743,574248,0
2096921,2096921,217777,574511,0
2096921,2096921,217698,574401,0
2096921,2096921,217981,574808,0
2096921,2096921,217732,574597,0
2096921,2096921,217714,574107,0
2096921,2096921,218061,574214,0
2096921,2096921,218086,574567,0
2096921,2096921,217943,574650,0
2096921,2096921,217594,574538,0
2096921,2096921,217944,574470,0
2096921,2096921,217925,574292,0
2096921,2096921,217724,574304,0
2096921,2096921,217804,574337,0
2096921,2096921,217703,574223,0
2096921,2096921,217771,574074,0
2096921,2096921,218080,574105,0
2096921,2096921,217975,574384,0
2096921,2096921,218075,574485,0
2096921,2096921,217934,574361,0
2096921,2096921,217708,574245,0
2096921,2096921,217577,574163,0
2096921,2096921,217753,574167,0
2096921,2096921,217471,574050,0
2096921,2096921,217487,573751,0
2096921,2096921,217743,574034,0
2096921,2096921,217678,573660,0
2096921,2096921,217655,573866,0
2096921,2096921,217714,573958,0
2096921,2096921,217687,574045,0
2096921,2096921,217188,573915,0
2096921,2096921,216967,573294,0
2096921,2096921,217089,573197,0
2096921,2096921,216894,573123,0
2096921,2096921,217226,573169,0
2096921,2096921,216933,573278,0
2096921,2096921,216762,573041,0
2096921,2096921,216912,572830,0
2096921,2096921,216866,572775,0
2096921,2096921,217145,572809,0
2096921,2096921,216655,572803,0
2096921,2096921,216521,571991,0
2096921,2096921,216230,571902,0
2096921,2096921,216281,571736,0
2096921,2096921,216602,571912,0
2096921,2096921,215824,571960,0
2096921,2096921,215789,571294,0
2096921,2096921,215610,571159,0
2096921,2096921,215843,570740,0
2096921,2096921,215437,570834,0
2096921,2096921,214500,570783,0
2096921,2096921,214117,568907,0
2096921,2096921,214281,568802,0
2096921,2096921,214228,568653,0
2096921,2096921,214190,568838,0
2096921,2096921,213460,568908,0
2096921,2096921,213376,567698,0
2096921,2096921,213483,567386,0
2096921,2096921,213609,567549,0
2096921,2096921,213005,567644,0
2096921,2096921,212657,567332,0
2096921,2096921,212730,566377,0
2096921,2096921,212399,566107,0
2096921,2096921,212690,566298,0
2096921,2096921,212507,566340,0
2096921,2096921,211998,566316,0
2096921,2096921,212116,565624,0
2096921,2096921,212251,565429,0
2096921,2096921,212042,565504,0
2096921,2096921,212250,565453,0
2096921,2096921,211679,565181,0
2096921,2096921,211499,564706,0
2096921,2096921,211294,564546,0
2096921,2096921,211322,565105,0
2096921,2096921,211401,564705,0
2096921,2096921,211313,564613,0
2096921,2096921,211345,564729,0
2096921,2096921,211238,564626,0
2096921,2096921,211404,564441,0
2096921,2096921,211478,564540,0
2096921,2096921,211258,564338,0
2096921,2096921,210934,564027,0
2096921,2096921,211046,563927,0
2096921,2096921,211106,564190,0
2096921,2096921,211017,564044,0
2096921,2096921,211156,564275,0
2096921,2096921,210928,564063,0
2096921,2096921,211184,564225,0
2096921,2096921,210766,563950,0
2096921,2096921,210981,564093,0
2096921,2096921,210822,563844,0
2096921,2096921,210974,563890,0
2096921,2096921,210702,563804,0
2096921,2096921,210954,563878,0
2096921,2096921,211053,563951,0
2096921,2096921,211052,563991,0
2096921,2096921,210961,564191,0
2096921,2096921,211183,564229,0
2096921,2096921,211222,564192,0
2096921,2096921,211067,564233,0
2096921,2096921,211184,564285,0
2096921,2096921,211106,564216,0
2096921,2096921,211012,564185,0
2096921,2096921,211142,564214,0
2096921,2096921,211012,564181,0
2096921,2096921,211136,564212,0
2096921,2096921,211514,564186,0
2096921,2096921,211751,564299,0
2096921,2096921,211741,564376,0
2096921,2096921,211467,564166,0
2096921,2096921,211341,564037,0
2096921,2096921,211426,564292,0
2096921,2096921,211571,564182,0
2096921,2096921,211329,564617,0
2096921,2096921,211593,564885,0
2096921,2096921,211562,564509,0
2096921,2096921,211807,564885,0
2096921,2096921,211739,565119,0
2096921,2096921,211976,564971,0
2096921,2096921,211775,564908,0
2096921,2096921,211713,564748,0
2096921,2096921,211865,565239,0
2096921,2096921,211854,565203,0
2096921,2096921,211791,565021,0
2096921,2096921,211700,565242,0
2096921,2096921,212151,564970,0
2096921,2096921,212319,565130,0
2096921,2096921,212204,565437,0
2096921,2096921,212214,565345,0
2096921,2096921,211987,565677,0
2096921,2096921,212024,565573,0
2096921,2096921,212202,565984,0
2096921,2096921,212011,565759,0
2096921,2096921,212181,565872,0
2096921,2096921,212093,565916,0
2096921,2096921,212435,565686,0
2096921,2096921,212465,565915,0
2096921,2096921,212592,566031,0
2096921,2096921,212569,566250,0
2096921,2096921,212787,566208,0
2096921,2096921,212731,566223,0
2096921,2096921,212724,566397,0
2096921,2096921,212484,566343,0
2096921,2096921,212447,566479,0
2096921,2096921,212459,566258,0
2096921,2096921,213116,566581,0
2096921,2096921,213249,566709,0
2096921,2096921,212782,567141,0
2096921,2096921,213060,567166,0
2096921,2096921,212896,567045,0
2096921,2096921,213046,566884,0
2096921,2096921,212760,566916,0
2096921,2096921,212976,566966,0
2096921,2096921,213030,567399,0
2096921,2096921,212941,567033,0
2096921,2096921,213306,567066,0
2096921,2096921,213351,567570,0
2096921,2096921,213531,567738,0
2096921,2096921,213318,567360,0
2096921,2096921,213468,567717,0
2096921,2096921,213867,567666,0
2096921,2096921,213731,567898,0
2096921,2096921,213608,567728,0
2096921,2096921,213684,567637,0
2096921,2096921,213377,567714,0
2096921,2096921,213828,567687,0
2096921,2096921,213670,567968,0
2096921,2096921,213839,568190,0
2096921,2096921,213953,568426,0
2096921,2096921,213680,568438,0
2096921,2096921,213768,568008,0
2096921,2096921,213852,568066,0
2096921,2096921,213767,568376,0
2096921,2096921,213887,568433,0
2096921,2096921,213803,568295,0
2096921,2096921,213960,568456,0
2096921,2096921,214123,568674,0
2096921,2096921,214205,568871,0
2096921,2096921,214356,569036,0
2096921,2096921,214421,568679,0
2096921,2096921,214466,568660,0
2096921,2096921,214434,568769,0
2096921,2096921,214237,568979,0
2096921,2096921,213990,568919,0
2096921,2096921,214192,568846,0
2096921,2096921,214353,568822,0
2096921,2096921,214323,569127,0
2096921,2096921,214543,569105,0
2096921,2096921,214382,569166,0
2096921,2096921,214138,569104,0
2096921,2096921,214324,568942,0
2096921,2096921,214293,569220,0
2096921,2096921,214314,568923,0
2096921,2096921,214241,569227,0
2096921,2096921,214253,568975,0
2096921,2096921,214533,568829,0
2096921,2096921,214453,568863,0
2096921,2096921,214656,569002,0
2096921,2096921,214538,569027,0
2096921,2096921,214484,568841,0
2096921,2096921,214447,568814,0
2096921,2096921,214448,568737,0
2096921,2096921,214363,568987,0
2096921,2096921,214316,569045,0
2096921,2096921,214328,569225,0
2096921,2096921,214227,569196,0
2096921,2096921,214549,569086,0
2096921,2096921,214344,568985,0
2096921,2096921,214597,569159,0
2096921,2096921,214533,569469,0
2096921,2096921,214683,569384,0
2096921,2096921,214038,568755,0
2096921,2096921,214236,568824,0
2096921,2096921,214163,568897,0
2096921,2096921,214274,569006,0
2096921,2096921,214181,569011,0
2096921,2096921,214207,568923,0
2096921,2096921,214010,568841,0
2096921,2096921,214136,569123,0
2096921,2096921,214275,569360,0
2096921,2096921,213990,568649,0
2096921,2096921,213948,568583,0
2096921,2096921,214054,568875,0
2096921,2096921,214143,569021,0
2096921,2096921,214125,568546,0
2096921,2096921,214155,568747,0
2096921,2096921,214298,568802,0
2096921,2096921,214427,568672,0
2096921,2096921,214177,568494,0
2096921,2096921,214266,568711,0
2096921,2096921,214166,568517,0
2096921,2096921,214147,568579,0
2096921,2096921,213667,568447,0
2096921,2096921,213764,568804,0
2096921,2096921,213969,568449,0
2096921,2096921,214108,568602,0
2096921,2096921,213949,568579,0
2096921,2096921,214210,568668,0
2096921,2096921,214202,568628,0
2096921,2096921,214313,568886,0
2096921,2096921,214024,568580,0
2096921,2096921,214010,568539,0
2096921,2096921,213950,568665,0
2096921,2096921,213842,568582,0
2096921,2096921,213847,568570,0
2096921,2096921,214408,568847,0
2096921,2096921,214305,568489,0
2096921,2096921,214162,568446,0
2096921,2096921,214498,568475,0
2096921,2096921,214244,568651,0
2096921,2096921,214105,568754,0
2096921,2096921,213976,568683,0
2096921,2096921,214081,568560,0
2096921,2096921,214121,568759,0
2096921,2096921,214117,568868,0
2096921,2096921,214209,568841,0
2096921,2096921,214273,569109,0
2096921,2096921,214554,569089,0
2096921,2096921,214482,569218,0
2096921,2096921,214575,569108,0
2096921,2096921,214302,568963,0
2096921,2096921,214674,569450,0
2096921,2096921,214750,569381,0
2096921,2096921,214677,569257,0
2096921,2096921,214795,569222,0
2096921,2096921,214595,569324,0
2096921,2096921,214342,569282,0
2096921,2096921,214881,569392,0
2096921,2096921,214915,569396,0
2096921,2096921,214808,569626,0
2096921,2096921,214924,569609,0
2096921,2096921,215058,569946,0
2096921,2096921,214762,569672,0
2096921,2096921,214823,569402,0
2096921,2096921,214819,569564,0
2096921,2096921,215015,569546,0
2096921,2096921,215194,569994,0
2096921,2096921,215108,569874,0
2096921,2096921,215106,569994,0
2096921,2096921,215131,570168,0
2096921,2096921,215151,570123,0
2096921,2096921,215058,569938,0
2096921,2096921,215183,569880,0
2096921,2096921,214951,570353,0
2096921,2096921,214742,570321,0
2096921,2096921,215196,570548,0
2096921,2096921,215255,570199,0
2096921,2096921,215329,570397,0
2096921,2096921,215457,570310,0
2096921,2096921,215640,570136,0
2096921,2096921,215543,570608,0
2096921,2096921,215531,570624,0
2096921,2096921,215354,570269,0
2096921,2096921,215109,570443,0
2096921,2096921,215223,570430,0
2096921,2096921,215462,570484,0
2096921,2096921,215519,570627,0
2096921,2096921,215861,570766,0
2096921,2096921,215714,570738,0
2096921,2096921,215705,570715,0
2096921,2096921,216013,570897,0
2096921,2096921,215662,570541,0
2096921,2096921,215492,570707,0
2096921,2096921,215932,570865,0
2096921,2096921,215554,570892,0
2096921,2096921,215818,571088,0
2096921,2096921,215679,571460,0
2096921,2096921,216080,571075,0
2096921,2096921,216015,571273,0
2096921,2096921,216042,571020,0
2096921,2096921,215803,571233,0
2096921,2096921,215980,571283,0
2096921,2096921,215925,571352,0
2096921,2096921,215609,571256,0
2096921,2096921,215887,571406,0
2096921,2096921,215783,571476,0
2096921,2096921,216084,571554,0
2096921,2096921,216018,571534,0
2096921,2096921,216311,571549,0
2096921,2096921,216345,571522,0
2096921,2096921,216114,571550,0
2096921,2096921,215932,571897,0
2096921,2096921,216310,571827,0
2096921,2096921,216240,571846,0
2096921,2096921,216224,571708,0
2096921,2096921,216430,571821,0
2096921,2096921,216282,571824,0
2096921,2096921,216517,572028,0
2096921,2096921,216361,572231,0
2096921,2096921,216400,571972,0
2096921,2096921,216157,572279,0
2096921,2096921,216288,571779,0
2096921,2096921,216230,571836,0
2096921,2096921,216434,572018,0
2096921,2096921,216437,571978,0
2096921,2096921,216208,572301,0
2096921,2096921,216464,572156,0
2096921,2096921,216393,572318,0
2096921,2096921,216354,572493,0
2096921,2096921,216566,572397,0
2096921,2096921,216659,572601,0
2096921,2096921,216199,572506,0
2096921,2096921,216514,572259,0
2096921,2096921,216152,572311,0
2096921,2096921,216423,572384,0
2096921,2096921,216589,572532,0
2096921,2096921,216674,572773,0
2096921,2096921,216830,572546,0
2096921,2096921,216821,572572,0
2096921,2096921,216635,572588,0
2096921,2096921,216858,572845,0
2096921,2096921,216849,572877,0
2096921,2096921,216997,572732,0
2096921,2096921,216697,572727,0
2096921,2096921,216808,572521,0
2096921,2096921,216771,572773,0
2096921,2096921,216610,572891,0
2096921,2096921,217098,572928,0
2096921,2096921,217243,572808,0
2096921,2096921,216867,573022,0
2096921,2096921,216645,573280,0
2096921,2096921,216860,572847,0
2096921,2096921,216759,573118,0
2096921,2096921,216733,573272,0
2096921,2096921,216845,572852,0
2096921,2096921,216688,572925,0
2096921,2096921,217020,573076,0
2096921,2096921,217228,573442,0
2096921,2096921,217168,573550,0
2096921,2096921,217382,573618,0
2096921,2096921,217411,573382,0
2096921,2096921,217174,573241,0
2096921,2096921,217118,573059,0
2096921,2096921,217286,573282,0
2096921,2096921,217260,573190,0
2096921,2096921,217417,573458,0
2096921,2096921,217112,573410,0
2096921,2096921,217222,573596,0
2096921,2096921,217369,573665,0
2096921,2096921,216928,573636,0
2096921,2096921,217165,573344,0
2096921,2096921,217241,573562,0
2096921,2096921,217032,573703,0
2096921,2096921,217021,573620,0
2096921,2096921,217219,573573,0
2096921,2096921,217561,573980,0
2096921,2096921,217446,573694,0
2096921,2096921,217184,573991,0
2096921,2096921,217388,574056,0
2096921,2096921,217462,574392,0
2096921,2096921,217594,573972,0
2096921,2096921,217374,573937,0
2096921,2096921,217244,573882,0
2096921,2096921,217431,573758,0
2096921,2096921,217624,573865,0
2096921,2096921,217399,573595,0
2096921,2096921,217412,574131,0
2096921,2096921,217753,574277,0
2096921,2096921,217404,574080,0
2096921,2096921,217505,574080,0
2096921,2096921,217364,573968,0
2096921,2096921,217507,574139,0
2096921,2096921,217564,574202,0
2096921,2096921,217656,573919,0
2096921,2096921,217531,574162,0
2096921,2096921,217706,573897,0
2096921,2096921,217382,574468,0
2096921,2096921,217622,574099,0
2096921,2096921,217714,574410,0
2096921,2096921,217913,574105,0
2096921,2096921,217936,574365,0
2096921,2096921,217668,574628,0
2096921,2096921,217796,574351,0
2096921,2096921,217598,574358,0
2096921,2096921,217563,574318,0
2096921,2096921,217549,574255,0
2096921,2096921,217808,574291,0
2096921,2096921,217702,574519,0
2096921,2096921,217616,574677,0
2096921,2096921,217778,574335,0
2096921,2096921,217872,574427,0
2096921,2096921,217616,574683,0
2096921,2096921,217689,574447,0
2096921,2096921,217585,574586,0
2096921,2096921,217903,574238,0
2096921,2096921,218010,574507,0
2096921,2096921,217957,574746,0
2096921,2096921,218056,574591,0
2096921,2096921,218008,574750,0
2096921,2096921,217959,574665,0
2096921,2096921,218031,574827,0
2096921,2096921,217940,574642,0
2096921,2096921,217547,574528,0
2096921,2096921,217796,574761,0
2096921,2096921,218132,574647,0
2096921,2096921,218010,574457,0
2096921,2096921,217922,574814,0
2096921,2096921,217950,574771,0
2096921,2096921,218020,574984,0
2096921,2096921,217941,574821,0
2096921,2096921,217731,574582,0
2096921,2096921,218113,574921,0
2096921,2096921,217875,574585,0
2096921,2096921,217788,574799,0
2096921,2096921,218222,575112,0
2096921,2096921,218256,574747,0
2096921,2096921,218345,574859,0
2096921,2096921,218354,575333,0
2096921,2096921,218353,575027,0
2096921,2096921,218153,575202,0
2096921,2096921,218024,574950,0
2096921,2096921,218100,575110,0
2096921,2096921,217886,574880,0
2096921,2096921,218178,575338,0
2096921,2096921,218254,574931,0
2096921,2096921,218214,575035,0
2096921,2096921,218218,575045,0
2096921,2096921,218188,575370,0
2096921,2096921,218278,575147,0
2096921,2096921,218375,575007,0
2096921,2096921,218476,575061,0
2096921,2096921,218634,575246,0
2096921,2096921,218483,575484,0
2096921,2096921,218278,575200,0
2096921,2096921,218384,575114,0
2096921,2096921,218217,575088,0
2096921,2096921,218215,575168,0
2096921,2096921,218295,575235,0
2096921,2096921,218320,575212,0
2096921,2096921,218164,575168,0
2096921,2096921,218510,575547,0
2096921,2096921,218457,575583,0
2096921,2096921,218169,575487,0
2096921,2096921,218419,575467,0
2096921,2096921,218133,575347,0
2096921,2096921,218332,575516,0
2096921,2096921,218661,575544,0
2096921,2096921,218644,575461,0
2096921,2096921,218587,575298,0
2096921,2096921,218478,575539,0
2096921,2096921,218597,575634,0
2096921,2096921,218588,575525,0
2096921,2096921,218549,575405,0
2096921,2096921,218558,575597,0
2096921,2096921,218249,575330,0
2096921,2096921,218544,575417,0
2096921,2096921,218698,575674,0
2096921,2096921,218532,575789,0
2096921,2096921,218497,575306,0
2096921,2096921,218322,575671,0
2096921,2096921,218162,575540,0
2096921,2096921,218244,575717,0
2096921,2096921,218133,575544,0
2096921,2096921,218230,575573,0
2096921,2096921,218199,575359,0
2096921,2096921,218318,575541,0
2096921,2096921,218171,575536,0
2096921,2096921,218661,575421,0
2096921,2096921,218446,575556,0
2096921,2096921,218390,575609,0
2096921,2096921,218476,576018,0
2096921,2096921,218113,575765,0
2096921,2096921,218141,575330,0
2096921,2096921,218277,575509,0
2096921,2096921,218644,575853,0
2096921,2096921,218430,575966,0
2096921,2096921,218756,575646,0
2096921,2096921,218650,575951,0
2096921,2096921,218573,575793,0
2096921,2096921,218400,575634,0
2096921,2096921,218616,575881,0
2096921,2096921,218321,575879,0
2096921,2096921,218190,575934,0
2096921,2096921,218408,575889,0
2096921,2096921,218405,575788,0
2096921,2096921,218274,575733,0
2096921,2096921,218383,575603,0
2096921,2096921,218649,575711,0
2096921,2096921,218626,575969,0
2096921,2096921,218527,576061,0
2096921,2096921,218453,575539,0
2096921,2096921,218180,575454,0
2096921,2096921,218170,575528,0
2096921,2096921,217890,575415,0
2096921,2096921,218145,575577,0
2096921,2096921,218368,575870,0
2096921,2096921,218351,575902,0
2096921,2096921,218710,575571,0
2096921,2096921,218114,575869,0
2096921,2096921,218298,575652,0
2096921,2096921,218105,575623,0
2096921,2096921,218136,575264,0
2096921,2096921,217850,575095,0
2096921,2096921,217702,575205,0
2096921,2096921,217902,574789,0
2096921,2096921,217489,574773,0
2096921,2096921,217700,574379,0
2096921,2096921,217948,574266,0
2096921,2096921,217814,574470,0
2096921,2096921,217617,574426,0
2096921,2096921,217453,574517,0
2096921,2096921,217035,573968,0
2096921,2096921,216578,573967,0
2096921,2096921,216900,573750,0
2096921,2096921,216668,573875,0
2096921,2096921,216303,573837,0
2096921,2096921,216452,573037,0
2096921,2096921,216354,573176,0
2096921,2096921,216584,572981,0
2096921,2096921,216456,572706,0
2096921,2096921,215423,572835,0
2096921,2096921,215022,571461,0
2096921,2096921,215056,571201,0
2096921,2096921,214557,570858,0
2096921,2096921,214916,570781,0
2096921,2096921,214342,570852,0
2096921,2096921,214028,569509,0
2096921,2096921,214183,569364,0
2096921,2096921,214257,569228,0
2096921,2096921,213897,569587,0
2096921,2096921,213589,569382,0
2096921,2096921,213443,568568,0
2096921,2096921,213241,568513,0
2096921,2096921,213353,568480,0
2096921,2096921,213163,568559,0
2096921,2096921,212912,568516,0
2096921,2096921,212911,567633,0
2096921,2096921,213330,567384,0
2096921,2096921,212969,567707,0
2096921,2096921,212809,567826,0
2096921,2096921,212517,567597,0
2096921,2096921,212314,567135,0
2096921,2096921,212460,567203,0
2096921,2096921,212570,567253,0
2096921,2096921,212585,567087,0
2096921,2096921,212520,567227,0
2096921,2096921,212510,566884,0
2096921,2096921,212149,566662,0
2096921,2096921,212297,567128,0
2096921,2096921,212292,566532,0
2096921,2096921,212127,566619,0
2096921,2096921,212023,566356,0
2096921,2096921,212012,566293,0
2096921,2096921,211871,566353,0
2096921,2096921,211862,566386,0
2096921,2096921,211931,566463,0
2096921,2096921,212299,566399,0
2096921,2096921,212090,566587,0
2096921,2096921,212074,566703,0
2096921,2096921,211828,566443,0
2096921,2096921,212103,566237,0
2096921,2096921,212013,566386,0
2096921,2096921,211800,566392,0
2096921,2096921,212098,566268,0
2096921,2096921,211913,566243,0
2096921,2096921,211823,566673,0
2096921,2096921,212035,566607,0
2096921,2096921,212415,566847,0
2096921,2096921,212140,566960,0
2096921,2096921,211988,566937,0
2096921,2096921,211858,567158,0
2096921,2096921,212064,567016,0
2096921,2096921,212081,566676,0
2096921,2096921,212422,566646,0
2096921,2096921,212039,566486,0
2096921,2096921,212320,566686,0
2096921,2096921,212159,566709,0
2096921,2096921,212425,566983,0
2096921,2096921,212114,567210,0
2096921,2096921,212236,567368,0
2096921,2096921,212448,567191,0
2096921,2096921,212457,567448,0
2096921,2096921,212370,567366,0
2096921,2096921,212533,567299,0
2096921,2096921,212662,567197,0
2096921,2096921,212668,567266,0
2096921,2096921,212710,567601,0
2096921,2096921,212615,567696,0
2096921,2096921,212838,568013,0
2096921,2096921,212583,567876,0
2096921,2096921,212750,567816,0
2096921,2096921,212924,567843,0
2096921,2096921,212812,567700,0
2096921,2096921,212981,567778,0
2096921,2096921,212854,567707,0
2096921,2096921,213179,568329,0
2096921,2096921,213374,568363,0
2096921,2096921,213034,568574,0
2096921,2096921,213275,568479,0
2096921,2096921,213155,568334,0
2096921,2096921,213336,568334,0
2096921,2096921,213575,568893,0
2096921,2096921,213322,568956,0
2096921,2096921,213186,568652,0
2096921,2096921,213221,568788,0
2096921,2096921,213507,568847,0
2096921,2096921,213815,569645,0
2096921,2096921,213984,569182,0
2096921,2096921,213654,569231,0
2096921,2096921,213632,569413,0
2096921,2096921,213967,569291,0
2096921,2096921,213820,569605,0
2096921,2096921,213651,569416,0
2096921,2096921,213751,569379,0
2096921,2096921,213872,569248,0
2096921,2096921,214093,569243,0
2096921,2096921,214038,569930,0
2096921,2096921,214168,570068,0
2096921,2096921,214143,570032,0
2096921,2096921,214127,569782,0
2096921,2096921,214382,569925,0
2096921,2096921,214163,570096,0
2096921,2096921,214288,570044,0
2096921,2096921,214297,570282,0
2096921,2096921,214259,570260,0
2096921,2096921,214224,570037,0
2096921,2096921,214489,570323,0
2096921,2096921,214621,570630,0
2096921,2096921,214702,570710,0
2096921,2096921,214543,570585,0
2096921,2096921,214634,570680,0
2096921,2096921,214821,571009,0
2096921,2096921,214600,570975,0
2096921,2096921,214738,570993,0
2096921,2096921,214873,571091,0
2096921,2096921,215167,571028,0
2096921,2096921,214988,571461,0
2096921,2096921,215030,571344,0
2096921,2096921,214931,571492,0
2096921,2096921,215073,571569,0
2096921,2096921,215038,571696,0
2096921,2096921,215296,571945,0
2096921,2096921,215461,571952,0
2096921,2096921,215403,571745,0
2096921,2096921,215222,571801,0
2096921,2096921,215734,571740,0
2096921,2096921,215846,571685,0
2096921,2096921,215308,572288,0
2096921,2096921,215431,572198,0
2096921,2096921,215304,572185,0
2096921,2096921,215646,572049,0
2096921,2096921,215677,572422,0
2096921,2096921,215338,572199,0
2096921,2096921,215507,572536,0
2096921,2096921,215312,572209,0
2096921,2096921,215855,572245,0
2096921,2096921,216123,572505,0
2096921,2096921,215951,572961,0
2096921,2096921,215759,572775,0
2096921,2096921,215949,572985,0
2096921,2096921,215964,572454,0
2096921,2096921,215928,572902,0
2096921,2096921,215749,572816,0
2096921,2096921,215714,572723,0
2096921,2096921,215845,573176,0
2096921,2096921,215995,573050,0
2096921,2096921,215853,573041,0
2096921,2096921,215921,572901,0
2096921,2096921,216037,572970,0
2096921,2096921,216102,573085,0
2096921,2096921,216159,572846,0
2096921,2096921,215883,572824,0
2096921,2096921,215863,572797,0
2096921,2096921,215837,573042,0
2096921,2096921,215644,572908,0
2096921,2096921,215725,572796,0
2096921,2096921,215920,572556,0
2096921,2096921,216008,572931,0
2096921,2096921,216108,573089,0
2096921,2096921,216040,573023,0
2096921,2096921,215991,572858,0
2096921,2096921,215847,572721,0
2096921,2096921,215901,572748,0
2096921,2096921,215884,572700,0
2096921,2096921,215831,572935,0
2096921,2096921,215928,572929,0
2096921,2096921,215721,572890,0
2096921,2096921,215869,573062,0
2096921,2096921,215883,572756,0
2096921,2096921,215719,573003,0
2096921,2096921,215835,572825,0
2096921,2096921,215749,572826,0
2096921,2096921,215730,572495,0
2096921,2096921,215268,572610,0
2096921,2096921,215248,572828,0
2096921,2096921,215631,572791,0
2096921,2096921,215670,572627,0
2096921,2096921,215751,572551,0
2096921,2096921,216037,572796,0
2096921,2096921,215872,572526,0
2096921,2096921,215542,572631,0
2096921,2096921,215506,572535,0
2096921,2096921,215735,572351,0
2096921,2096921,215808,572337,0
2096921,2096921,215662,572391,0
2096921,2096921,215533,572307,0
2096921,2096921,215610,572455,0
2096921,2096921,215577,572573,0
2096921,2096921,215828,572477,0
2096921,2096921,215838,572458,0
2096921,2096921,215950,572706,0
2096921,2096921,215753,572790,0
2096921,2096921,215629,572516,0
2096921,2096921,215636,572657,0
2096921,2096921,215848,572905,0
2096921,2096921,216015,572671,0
2096921,2096921,215701,572854,0
2096921,2096921,216063,572685,0
2096921,2096921,216068,572916,0
2096921,2096921,215910,573164,0
2096921,2096921,216302,573236,0
2096921,2096921,215938,573175,0
2096921,2096921,215769,572866,0
2096921,2096921,215865,572917,0
2096921,2096921,216043,572948,0
2096921,2096921,216079,573082,0
2096921,2096921,216014,572902,0
2096921,2096921,216134,573296,0
2096921,2096921,216240,573300,0
2096921,2096921,216278,573297,0
2096921,2096921,215829,573562,0
2096921,2096921,216190,573730,0
2096921,2096921,216128,573811,0
2096921,2096921,216321,573837,0
2096921,2096921,216387,573465,0
2096921,2096921,216516,573322,0
2096921,2096921,216303,573664,0
2096921,2096921,216818,574012,0
2096921,2096921,216438,573872,0
2096921,2096921,216371,573954,0
2096921,2096921,216439,574034,0
2096921,2096921,216497,574320,0
2096921,2096921,216400,574240,0
2096921,2096921,216305,574084,0
2096921,2096921,216347,574362,0
2096921,2096921,216550,574253,0
2096921,2096921,217007,574258,0
2096921,2096921,216944,574600,0
2096921,2096921,217013,574551,0
2096921,2096921,216713,574338,0
2096921,2096921,216902,574536,0
2096921,2096921,216701,574981,0
2096921,2096921,216805,574506,0
2096921,2096921,216779,574452,0
2096921,2096921,216513,574540,0
2096921,2096921,216922,574645,0
2096921,2096921,217269,574948,0
2096921,2096921,217140,575089,0
2096921,2096921,217346,575002,0
2096921,2096921,217303,574507,0
2096921,2096921,217252,575018,0
2096921,2096921,217498,574990,0
2096921,2096921,217398,574726,0
2096921,2096921,217107,574888,0
2096921,2096921,217211,574984,0
2096921,2096921,217147,575104,0
2096921,2096921,217299,575018,0
2096921,2096921,217594,575317,0
2096921,2096921,217388,575515,0
2096921,2096921,217461,575564,0
2096921,2096921,217550,575557,0
2096921,2096921,217052,575313,0
2096921,2096921,217143,575699,0
2096921,2096921,217107,575389,0
2096921,2096921,217074,575401,0
2096921,2096921,217609,575445,0
2096921,2096921,217599,575772,0
2096921,2096921,217638,576039,0
2096921,2096921,217906,576034,0
2096921,2096921,217791,575779,0
2096921,2096921,217643,576076,0
2096921,2096921,217692,576086,0
2096921,2096921,217643,575999,0
2096921,2096921,217446,576188,0
2096921,2096921,217875,576050,0
2096921,2096921,218047,575898,0
2096921,2096921,218039,576406,0
2096921,2096921,218060,576816,0
2096921,2096921,217777,576604,0
2096921,2096921,218085,576520,0
2096921,2096921,218014,576285,0
2096921,2096921,218035,576445,0
2096921,2096921,217888,576403,0
2096921,2096921,218118,576085,0
2096921,2096921,217962,576531,0
2096921,2096921,218118,576658,0
2096921,2096921,218412,576814,0
2096921,2096921,218523,576785,0
2096921,2096921,218133,577101,0
2096921,2096921,218414,576588,0
2096921,2096921,218049,576579,0
2096921,2096921,218190,576559,0
2096921,2096921,217842,576966,0
2096921,2096921,218212,576811,0
2096921,2096921,218225,576802,0
2096921,2096921,218341,576923,0
2096921,2096921,218059,577022,0
2096921,2096921,218352,577455,0
2096921,2096921,218511,577495,0
2096921,2096921,218515,577246,0
2096921,2096921,218464,577461,0
2096921,2096921,218496,577210,0
2096921,2096921,218429,577234,0
2096921,2096921,218388,577073,0
2096921,2096921,218336,577415,0
2096921,2096921,218258,577296,0
2096921,2096921,218642,577427,0
2096921,2096921,218344,577546,0
2096921,2096921,218834,577690,0
2096921,2096921,218712,577633,0
2096921,2096921,218899,577321,0
2096921,2096921,218704,577774,0
2096921,2096921,218571,577471,0
2096921,2096921,218403,577715,0
2096921,2096921,218593,577618,0
2096921,2096921,218895,577438,0
2096921,2096921,218499,577723,0
2096921,2096921,218869,577994,0
2096921,2096921,218730,578026,0
2096921,2096921,219056,578112,0
2096921,2096921,218647,577620,0
2096921,2096921,218754,577800,0
2096921,2096921,218998,578069,0
2096921,2096921,219131,577866,0
2096921,2096921,218903,577733,0
2096921,2096921,218836,577742,0
2096921,2096921,218819,578035,0
2096921,2096921,218973,578219,0
2096921,2096921,219075,578310,0
2096921,2096921,219460,578175,0
2096921,2096921,219117,578244,0
2096921,2096921,219188,578058,0
2096921,2096921,219056,578114,0
2096921,2096921,218821,577844,0
2096921,2096921,218990,577997,0
2096921,2096921,218911,578006,0
2096921,2096921,219129,578203,0
2096921,2096921,219209,578333,0
2096921,2096921,219214,578295,0
2096921,2096921,218885,578606,0
2096921,2096921,219260,578302,0
2096921,2096921,218810,578210,0
2096921,2096921,219017,578502,0
2096921,2096921,219336,578431,0
2096921,2096921,219284,578435,0
2096921,2096921,219226,578516,0
2096921,2096921,219556,578487,0
2096921,2096921,219279,578824,0
2096921,2096921,219512,578436,0
2096921,2096921,219709,578620,0
2096921,2096921,219686,578875,0
2096921,2096921,219308,578987,0
2096921,2096921,219147,578848,0
2096921,2096921,219197,578619,0
2096921,2096921,219506,578630,0
2096921,2096921,219586,578530,0
2096921,2096921,219423,578631,0
2096921,2096921,219511,578901,0
2096921,2096921,219502,579135,0
2096921,2096921,219545,579329,0
2096921,2096921,219496,579015,0
2096921,2096921,219274,579129,0
2096921,2096921,219175,578999,0
2096921,2096921,219317,578981,0
2096921,2096921,219502,579198,0
2096921,2096921,219436,578953,0
2096921,2096921,219545,579188,0
2096921,2096921,219811,579340,0
2096921,2096921,219912,579266,0
2096921,2096921,219745,579467,0
2096921,2096921,219796,579293,0
2096921,2096921,219523,579045,0
2096921,2096921,219735,578899,0
2096921,2096921,219704,579205,0
2096921,2096921,219654,579182,0
2096921,2096921,219546,579126,0
2096921,2096921,219995,579274,0
2096921,2096921,219789,579442,0
2096921,2096921,219755,579683,0
2096921,2096921,219799,579210,0
2096921,2096921,219817,579417,0
2096921,2096921,219940,579284,0
2096921,2096921,219788,579400,0
2096921,2096921,219605,579355,0
2096921,2096921,219581,579279,0
2096921,2096921,219547,578955,0
2096921,2096921,219677,579368,0
2096921,2096921,219939,579425,0
2096921,2096921,219806,579502,0
2096921,2096921,219930,579523,0
2096921,2096921,219896,579414,0
2096921,2096921,219912,579642,0
2096921,2096921,219652,579527,0
2096921,2096921,219586,579486,0
2096921,2096921,219759,579659,0
2096921,2096921,219790,579385,0
2096921,2096921,219855,579767,0
2096921,2096921,219792,579445,0
2096921,2096921,220025,579600,0
2096921,2096921,220334,579718,0
2096921,2096921,220065,579771,0
2096921,2096921,220093,579792,0
2096921,2096921,220008,579702,0
2096921,2096921,219810,579459,0
2096921,2096921,219556,579520,0
2096921,2096921,219670,579751,0
2096921,2096921,219877,579890,0
2096921,2096921,220001,579469,0
2096921,2096921,220045,579510,0
2096921,2096921,220249,579554,0
2096921,2096921,220046,580036,0
2096921,2096921,220053,579783,0
2096921,2096921,219882,579529,0
2096921,2096921,219943,580013,0
2096921,2096921,219785,579737,0
2096921,2096921,220278,579811,0
2096921,2096921,220268,579784,0
2096921,2096921,220264,579843,0
2096921,2096921,220097,579914,0
2096921,2096921,220096,579832,0
2096921,2096921,219844,579937,0
2096921,2096921,220110,580188,0
2096921,2096921,219762,579784,0
2096921,2096921,219818,579746,0
2096921,2096921,219988,579826,0
2096921,2096921,219874,579795,0
2096921,2096921,220120,579931,0
2096921,2096921,220476,579974,0
2096921,2096921,220421,580012,0
2096921,2096921,220113,580259,0
2096921,2096921,220144,580082,0
2096921,2096921,220132,579865,0
2096921,2096921,220245,579756,0
2096921,2096921,220276,579803,0
2096921,2096921,220210,579857,0
2096921,2096921,220097,579681,0
2096921,2096921,220202,579864,0
2096921,2096921,220360,579985,0
2096921,2096921,220364,580076,0
2096921,2096921,220279,580097,0
2096921,2096921,220251,580066,0
2096921,2096921,219896,579751,0
2096921,2096921,220117,579777,0
2096921,2096921,220191,580023,0
2096921,2096921,219881,579658,0
2096921,2096921,220277,580025,0
2096921,2096921,220141,579910,0
2096921,2096921,220256,580269,0
2096921,2096921,220522,580127,0
2096921,2096921,220301,580287,0
2096921,2096921,220089,579910,0
2096921,2096921,220219,580035,0
2096921,2096921,220024,580026,0
2096921,2096921,220308,579965,0
2096921,2096921,220252,579846,0
2096921,2096921,220281,579897,0
2096921,2096921,220209,580320,0
2096921,2096921,219888,580290,0
2096921,2096921,219999,580031,0
2096921,2096921,220108,580170,0
2096921,2096921,220334,579978,0
2096921,2096921,220166,580064,0
2096921,2096921,219894,580000,0
2096921,2096921,220044,580037,0
2096921,2096921,220102,579611,0
2096921,2096921,220060,579998,0
2096921,2096921,220149,579861,0
2096921,2096921,220220,579954,0
2096921,2096921,220348,580103,0
2096921,2096921,220265,580266,0
2096921,2096921,220601,580005,0
2096921,2096921,220278,580049,0
2096921,2096921,220093,580131,0
2096921,2096921,220350,579967,0
2096921,2096921,220231,579904,0
2096921,2096921,220363,579882,0
2096921,2096921,220298,579841,0
2096921,2096921,220183,580174,0
2096921,2096921,220285,580146,0
2096921,2096921,220247,580144,0
2096921,2096921,220435,580626,0
2096921,2096921,220058,579978,0
2096921,2096921,219761,579651,0
2096921,2096921,220117,579622,0
2096921,2096921,219933,579840,0
2096921,2096921,220006,579806,0
2096921,2096921,219841,579478,0
2096921,2096921,219673,579291,0
2096921,2096921,219794,579481,0
2096921,2096921,219915,579574,0
2096921,2096921,219465,579800,0
2096921,2096921,219365,579237,0
2096921,2096921,219472,579102,0
2096921,2096921,219304,579045,0
2096921,2096921,219404,579266,0
2096921,2096921,219325,578935,0
2096921,2096921,219224,578684,0
2096921,2096921,219089,578371,0
2096921,2096921,219346,578493,0
2096921,2096921,219118,578595,0
2096921,2096921,218900,578272,0
2096921,2096921,218828,577823,0
2096921,2096921,218678,577761,0
2096921,2096921,218469,577784,0
2096921,2096921,218607,577711,0
2096921,2096921,218031,577687,0
2096921,2096921,217670,576900,0
2096921,2096921,217880,576642,0
2096921,2096921,218035,576343,0
2096921,2096921,218030,576422,0
2096921,2096921,216910,576206,0
2096921,2096921,216358,575130,0
2096921,2096921,216261,574229,0
2096921,2096921,216318,574430,0
2096921,2096921,216399,574768,0
2096921,2096921,215891,574622,0
2096921,2096921,215468,573309,0
2096921,2096921,215736,573059,0
2096921,2096921,215497,573116,0
2096921,2096921,215656,573180,0
2096921,2096921,214891,573172,0
2096921,2096921,214590,572016,0
2096921,2096921,214543,571896,0
2096921,2096921,214617,571612,0
2096921,2096921,214589,571754,0
2096921,2096921,214074,571889,0
2096921,2096921,214044,571121,0
2096921,2096921,214232,571226,0
2096921,2096921,214200,571433,0
2096921,2096921,214281,570949,0
2096921,2096921,213892,571137,0
2096921,2096921,214055,570765,0
2096921,2096921,213905,570703,0
2096921,2096921,213664,570388,0
2096921,2096921,214135,570359,0
2096921,2096921,213615,570642,0
2096921,2096921,213696,570121,0
2096921,2096921,213524,570095,0
2096921,2096921,213606,570075,0
2096921,2096921,213577,570056,0
2096921,2096921,213369,570024,0
2096921,2096921,213358,570164,0
2096921,2096921,213144,569708,0
2096921,2096921,213103,569906,0
2096921,2096921,213370,569677,0
2096921,2096921,213224,569880,0
2096921,2096921,213046,569878,0
2096921,2096921,212882,569921,0
2096921,2096921,213072,569849,0
2096921,2096921,213421,570032,0
2096921,2096921,213218,569883,0
2096921,2096921,213129,569933,0
2096921,2096921,213119,569561,0
2096921,2096921,213299,569648,0
2096921,2096921,213152,569669,0
2096921,2096921,213064,569538,0
2096921,2096921,213219,569725,0
2096921,2096921,213446,569702,0
2096921,2096921,213603,570213,0
2096921,2096921,213501,570102,0
2096921,2096921,213479,570079,0
2096921,2096921,213578,570006,0
2096921,2096921,213343,569795,0
2096921,2096921,213432,569752,0
2096921,2096921,213200,569939,0
2096921,2096921,213133,569928,0
2096921,2096921,213593,570109,0
2096921,2096921,213606,570221,0
2096921,2096921,213677,570200,0
2096921,2096921,213696,570084,0
2096921,2096921,213512,569918,0
2096921,2096921,213146,570010,0
2096921,2096921,213643,570461,0
2096921,2096921,213784,570696,0
2096921,2096921,213527,570445,0
2096921,2096921,213499,570324,0
2096921,2096921,213772,570349,0
2096921,2096921,213823,570598,0
2096921,2096921,213849,570766,0
2096921,2096921,214003,571213,0
2096921,2096921,214080,570852,0
2096921,2096921,214035,571167,0
2096921,2096921,214117,571128,0
2096921,2096921,214148,570728,0
2096921,2096921,213901,571074,0
2096921,2096921,214007,570957,0
2096921,2096921,214381,571187,0
2096921,2096921,214510,571117,0
2096921,2096921,214617,571519,0
2096921,2096921,214710,571208,0
2096921,2096921,214536,571312,0
2096921,2096921,214486,571380,0
2096921,2096921,214560,571675,0
2096921,2096921,214467,571547,0
2096921,2096921,214609,571582,0
2096921,2096921,214789,571510,0
2096921,2096921,214972,572028,0
2096921,2096921,215213,571728,0
2096921,2096921,215047,572252,0
2096921,2096921,214753,571881,0
2096921,2096921,215332,572074,0
2096921,2096921,214930,572170,0
2096921,2096921,215000,572260,0
2096921,2096921,215061,572099,0
2096921,2096921,215067,571970,0
2096921,2096921,214864,571983,0
2096921,2096921,215158,572561,0
2096921,2096921,214992,572516,0
2096921,2096921,215104,572559,0
2096921,2096921,215177,572651,0
2096921,2096921,215329,572509,0
2096921,2096921,215560,572937,0
2096921,2096921,215622,572749,0
2096921,2096921,215166,572859,0
2096921,2096921,215528,572976,0
2096921,2096921,215431,573209,0
2096921,2096921,215433,573416,0
2096921,2096921,215799,573334,0
2096921,2096921,215848,573421,0
2096921,2096921,215919,573406,0
2096921,2096921,215591,573516,0
2096921,2096921,215745,573706,0
2096921,2096921,215455,573669,0
2096921,2096921,215776,573722,0
2096921,2096921,215755,573567,0
2096921,2096921,215966,573560,0
2096921,2096921,216085,573611,0
2096921,2096921,216126,574163,0
2096921,2096921,216114,574492,0
2096921,2096921,216363,574380,0
2096921,2096921,216154,573923,0
2096921,2096921,216120,574289,0
2096921,2096921,216177,574259,0
2096921,2096921,216224,574224,0
2096921,2096921,216400,574124,0
2096921,2096921,216603,574320,0
2096921,2096921,216679,574421,0
2096921,2096921,216796,574904,0
2096921,2096921,216275,574672,0
2096921,2096921,216627,574671,0
2096921,2096921,216340,574673,0
2096921,2096921,216502,574355,0
2096921,2096921,216233,574628,0
2096921,2096921,216484,574730,0
2096921,2096921,216482,574407,0
2096921,2096921,216649,574822,0
2096921,2096921,216460,574808,0
2096921,2096921,216633,574927,0
2096921,2096921,216361,574606,0
2096921,2096921,216956,574883,0
2096921,2096921,216581,574906,0
2096921,2096921,216729,574815,0
2096921,2096921,216434,574843,0
2096921,2096921,216657,574705,0
2096921,2096921,216462,574962,0
2096921,2096921,216843,574888,0
2096921,2096921,216708,574888,0
2096921,2096921,216799,575034,0
2096921,2096921,216976,575103,0
2096921,2096921,216828,574825,0
2096921,2096921,216885,574972,0
2096921,2096921,216862,575006,0
2096921,2096921,216720,575207,0
2096921,2096921,216734,575139,0
2096921,2096921,216696,574801,0
2096921,2096921,216233,575032,0
2096921,2096921,216884,574925,0
2096921,2096921,216788,574960,0
2096921,2096921,216891,575020,0
2096921,2096921,216788,575033,0
2096921,2096921,216874,574674,0
2096921,2096921,216642,574863,0
2096921,2096921,216657,574731,0
2096921,2096921,216362,575014,0
2096921,2096921,216578,574776,0
2096921,2096921,216587,574411,0
2096921,2096921,216586,574460,0
2096921,2096921,216443,574697,0
2096921,2096921,216662,574678,0
2096921,2096921,216647,574596,0
2096921,2096921,216631,574622,0
2096921,2096921,216614,574614,0
2096921,2096921,216484,574550,0
2096921,2096921,216257,574343,0
2096921,2096921,216366,574218,0
2096921,2096921,216358,574304,0
2096921,2096921,216218,574278,0
2096921,2096921,216786,574540,0
2096921,2096921,216668,574454,0
2096921,2096921,216510,574392,0
2096921,2096921,216451,574563,0
2096921,2096921,216417,574293,0
2096921,2096921,216298,574395,0
2096921,2096921,216360,574276,0
2096921,2096921,216388,574572,0
2096921,2096921,216277,574296,0
2096921,2096921,216532,574175,0
2096921,2096921,216602,574087,0
2096921,2096921,216277,574643,0
2096921,2096921,216260,574383,0
2096921,2096921,216569,574309,0
2096921,2096921,216506,574549,0
2096921,2096921,216332,574434,0
2096921,2096921,216213,574607,0
2096921,2096921,216069,574266,0
2096921,2096921,216227,574216,0
2096921,2096921,216256,574406,0
2096921,2096921,216498,574843,0
2096921,2096921,216497,574490,0
2096921,2096921,216386,574515,0
2096921,2096921,216237,574446,0
2096921,2096921,216206,574556,0
2096921,2096921,216520,574330,0
2096921,2096921,216329,574423,0
2096921,2096921,216468,574201,0
2096921,2096921,216707,574683,0
2096921,2096921,216667,574636,0
2096921,2096921,216599,574753,0
2096921,2096921,216917,574841,0
2096921,2096921,216685,574966,0
2096921,2096921,216586,574678,0
2096921,2096921,216844,574687,0
2096921,2096921,216442,575067,0
2096921,2096921,216656,574586,0
2096921,2096921,216695,574913,0
2096921,2096921,216851,574836,0
2096921,2096921,216700,575236,0
2096921,2096921,216906,575145,0
2096921,2096921,216843,575264,0
2096921,2096921,216962,575357,0
2096921,2096921,216980,575355,0
2096921,2096921,217017,575025,0
2096921,2096921,216792,575182,0
2096921,2096921,217131,575321,0
2096921,2096921,216996,575087,0
2096921,2096921,217195,575498,0
2096921,2096921,217058,575391,0
2096921,2096921,217132,575468,0
2096921,2096921,217249,575638,0
2096921,2096921,217398,575728,0
2096921,2096921,217264,575700,0
2096921,2096921,217175,575743,0
2096921,2096921,216912,575625,0
2096921,2096921,217074,575837,0
2096921,2096921,217454,575661,0
2096921,2096921,217447,575932,0
2096921,2096921,217361,575888,0
2096921,2096921,217286,575819,0
2096921,2096921,217638,575972,0
2096921,2096921,217691,576115,0
2096921,2096921,217347,575555,0
2096921,2096921,217456,575712,0
2096921,2096921,217415,575663,0
2096921,2096921,217363,575842,0
2096921,2096921,217110,575999,0
2096921,2096921,217223,575639,0
2096921,2096921,217440,576198,0
2096921,2096921,217523,576116,0
2096921,2096921,217749,576339,0
2096921,2096921,217710,576310,0
2096921,2096921,217814,576308,0
2096921,2096921,217808,576274,0
2096921,2096921,217721,576196,0
2096921,2096921,217728,576054,0
2096921,2096921,217747,576418,0
2096921,2096921,217723,576422,0
2096921,2096921,217751,576344,0
2096921,2096921,218047,576784,0
2096921,2096921,217973,576602,0
2096921,2096921,217820,576401,0
2096921,2096921,217884,576359,0
2096921,2096921,218027,576892,0
2096921,2096921,217822,576457,0
2096921,2096921,217496,576394,0
2096921,2096921,217748,576442,0
2096921,2096921,218011,576468,0
2096921,2096921,217893,576619,0
2096921,2096921,218240,576896,0
2096921,2096921,218253,577064,0
2096921,2096921,218375,577055,0
2096921,2096921,218307,576702,0
2096921,2096921,218142,577197,0
2096921,2096921,218240,576798,0
2096921,2096921,218084,576734,0
2096921,2096921,218146,576901,0
2096921,2096921,218455,576854,0
2096921,2096921,218383,576972,0
2096921,2096921,218476,577130,0
2096921,2096921,218438,577248,0
2096921,2096921,218261,577125,0
2096921,2096921,218215,577097,0
2096921,2096921,218325,577202,0
2096921,2096921,218231,577265,0
2096921,2096921,218516,577114,0
2096921,2096921,218533,577051,0
2096921,2096921,218541,577356,0
2096921,2096921,218712,577407,0
2096921,2096921,218607,577520,0
2096921,2096921,218499,577440,0
2096921,2096921,218537,577361,0
2096921,2096921,218677,577315,0
2096921,2096921,218693,577263,0
2096921,2096921,218800,577456,0
2096921,2096921,218554,577128,0
2096921,2096921,218481,577261,0
2096921,2096921,218568,577527,0
2096921,2096921,218631,577343,0
2096921,2096921,218680,577503,0
2096921,2096921,218508,577643,0
2096921,2096921,218557,577574,0
2096921,2096921,218860,577482,0
2096921,2096921,218619,577634,0
2096921,2096921,218249,577402,0
2096921,2096921,218585,577297,0
2096921,2096921,218591,577271,0
2096921,2096921,218853,577283,0
2096921,2096921,218762,577294,0
2096921,2096921,218612,577597,0
2096921,2096921,218640,577588,0
2096921,2096921,218937,577848,0
2096921,2096921,218903,577814,0
2096921,2096921,218801,578019,0
2096921,2096921,218618,577814,0
2096921,2096921,218886,577785,0
2096921,2096921,218966,577574,0
2096921,2096921,218770,577618,0
2096921,2096921,218704,577753,0
2096921,2096921,218948,577875,0
2096921,2096921,219220,578000,0
2096921,2096921,218907,577835,0
2096921,2096921,218822,577798,0
2096921,2096921,218985,577846,0
2096921,2096921,218994,578071,0
2096921,2096921,219031,577754,0
2096921,2096921,219049,577879,0
2096921,2096921,218770,578220,0
2096921,2096921,219075,578238,0
2096921,2096921,218890,578180,0
2096921,2096921,218958,577997,0
2096921,2096921,218904,578111,0
2096921,2096921,218998,578165,0
2096921,2096921,218778,578251,0
2096921,2096921,218923,577887,0
2096921,2096921,218731,577796,0
2096921,2096921,218904,577606,0
2096921,2096921,219126,578015,0
2096921,2096921,219158,577906,0
2096921,2096921,219221,578078,0
2096921,2096921,219140,578126,0
2096921,2096921,219374,578265,0
2096921,2096921,219101,578082,0
2096921,2096921,218797,578072,0
2096921,2096921,218798,577960,0
2096921,2096921,219130,577794,0
2096921,2096921,219034,578088,0
2096921,2096921,218886,577659,0
2096921,2096921,218827,577951,0
2096921,2096921,219244,578285,0
2096921,2096921,219107,578200,0
2096921,2096921,219372,578547,0
2096921,2096921,219022,578313,0
2096921,2096921,218819,578347,0
2096921,2096921,219085,578287,0
2096921,2096921,218762,578262,0
2096921,2096921,219157,578335,0
2096921,2096921,218963,578125,0
2096921,2096921,218861,578169,0
2096921,2096921,218956,578249,0
2096921,2096921,219339,578478,0
2096921,2096921,219206,578363,0
2096921,2096921,219050,578099,0
2096921,2096921,219293,578204,0
2096921,2096921,218911,577738,0
2096921,2096921,218699,578335,0
2096921,2096921,219432,578201,0
2096921,2096921,218805,578218,0
2096921,2096921,218946,578203,0
2096921,2096921,219234,578330,0
2096921,2096921,219332,578275,0
2096921,2096921,219133,578455,0
2096921,2096921,219267,578240,0
2096921,2096921,219378,578052,0
2096921,2096921,219163,578232,0
2096921,2096921,219465,577999,0
2096921,2096921,219117,578023,0
2096921,2096921,219424,578132,0
2096921,2096921,219143,578159,0
2096921,2096921,219394,578502,0
2096921,2096921,219156,578619,0
2096921,2096921,219494,578391,0
2096921,2096921,219400,578479,0
2096921,2096921,219416,578250,0
2096921,2096921,219274,578201,0
2096921,2096921,219111,577901,0
2096921,2096921,219305,578182,0
2096921,2096921,219353,578280,0
2096921,2096921,219367,578194,0
2096921,2096921,219609,578466,0
2096921,2096921,219640,578415,0
2096921,2096921,219624,578513,0
2096921,2096921,219777,578543,0
2096921,2096921,219467,578346,0
2096921,2096921,219581,577990,0
2096921,2096921,219274,578416,0
2096921,2096921,219380,578419,0
2096921,2096921,219199,578292,0
2096921,2096921,219471,577943,0
2096921,2096921,219601,578209,0
2096921,2096921,219513,578579,0
2096921,2096921,219429,578575,0
2096921,2096921,219203,578426,0
2096921,2096921,219260,578490,0
2096921,2096921,219304,578268,0
2096921,2096921,219335,577827,0
2096921,2096921,219270,578018,0
2096921,2096921,219590,577927,0
2096921,2096921,219592,578117,0
2096921,2096921,219819,578597,0
2096921,2096921,219580,578546,0
2096921,2096921,219381,578422,0
2096921,2096921,219516,578286,0
2096921,2096921,219846,578133,0
2096921,2096921,219561,578255,0
2096921,2096921,219271,578343,0
2096921,2096921,219435,578017,0
2096921,2096921,219145,578414,0
2096921,2096921,219376,578397,0
2096921,2096921,219797,578239,0
2096921,2096921,219548,578402,0
2096921,2096921,219703,578278,0
2096921,2096921,219754,578273,0
2096921,2096921,219515,578288,0
2096921,2096921,219376,577921,0
2096921,2096921,219242,578265,0
2096921,2096921,219079,578157,0
2096921,2096921,219322,578489,0
2096921,2096921,219509,578242,0
2096921,2096921,219498,578309,0
2096921,2096921,219636,578284,0
2096921,2096921,219606,578345,0
2096921,2096921,219603,578030,0
2096921,2096921,219575,578166,0
2096921,2096921,219483,578099,0
2096921,2096921,219295,577855,0
2096921,2096921,219375,577855,0
2096921,2096921,219496,578305,0
2096921,2096921,219544,578168,0
2096921,2096921,219679,578260,0
2096921,2096921,219431,578128,0
2096921,2096921,219124,578089,0
2096921,2096921,219406,578186,0
2096921,2096921,219507,577835,0
2096921,2096921,219144,578092,0
2096921,2096921,219374,577794,0
2096921,2096921,219251,577544,0
2096921,2096921,219358,578030,0
2096921,2096921,219555,578016,0
2096921,2096921,219602,577851,0
2096921,2096921,219366,578325,0
2096921,2096921,219322,578199,0
2096921,2096921,219379,577996,0
2096921,2096921,219319,578271,0
2096921,2096921,219236,577981,0
2096921,2096921,219199,578082,0
2096921,2096921,219463,577959,0
2096921,2096921,219063,578014,0
2096921,2096921,219231,577995,0
2096921,2096921,219419,577824,0
2096921,2096921,219435,577852,0
2096921,2096921,219620,578054,0
2096921,2096921,219290,577883,0
2096921,2096921,219172,577753,0
2096921,2096921,219446,577767,0
2096921,2096921,219227,577541,0
2096921,2096921,218905,577587,0
2096921,2096921,219026,577584,0
2096921,2096921,219172,577511,0
2096921,2096921,219470,577738,0
2096921,2096921,219791,577692,0
2096921,2096921,219733,577909,0
2096921,2096921,219168,577671,0
2096921,2096921,219006,577384,0
2096921,2096921,219189,577329,0
2096921,2096921,218971,577405,0
2096921,2096921,218993,577063,0
2096921,2096921,218898,577060,0
2096921,2096921,218669,576831,0
2096921,2096921,219267,577100,0
2096921,2096921,218907,576914,0
2096921,2096921,218920,577049,0
2096921,2096921,218695,577093,0
2096921,2096921,218447,576547,0
2096921,2096921,218558,576492,0
2096921,2096921,218515,576466,0
2096921,2096921,218540,576640,0
2096921,2096921,218024,576751,0
2096921,2096921,218340,576305,0
2096921,2096921,218431,576124,0
2096921,2096921,218452,576152,0
2096921,2096921,218445,575818,0
2096921,2096921,217864,575766,0
2096921,2096921,217749,575701,0
2096921,2096921,217839,575326,0
2096921,2096921,217513,575367,0
2096921,2096921,217573,575243,0
2096921,2096921,216770,575105,0
2096921,2096921,216800,574011,0
2096921,2096921,217017,574078,0
2096921,2096921,216771,574098,0
2096921,2096921,216840,573916,0
2096921,2096921,216058,573870,0
2096921,2096921,215658,572534,0
2096921,2096921,215402,572190,0
2096921,2096921,215316,571778,0
2096921,2096921,215503,571963,0
2096921,2096921,214754,571835,0
2096921,2096921,214419,570695,0
2096921,2096921,214724,570618,0
2096921,2096921,214354,570336,0
2096921,2096921,214682,570185,0
2096921,2096921,213869,570497,0
2096921,2096921,213900,569746,0
2096921,2096921,213408,569319,0
2096921,2096921,213529,568874,0
2096921,2096921,213487,569053,0
2096921,2096921,213220,569144,0
2096921,2096921,213250,568647,0
2096921,2096921,213220,568364,0
2096921,2096921,212883,568482,0
2096921,2096921,213016,568223,0
2096921,2096921,212774,567936,0
2096921,2096921,212760,567563,0
2096921,2096921,212566,567266,0
2096921,2096921,212244,567358,0
2096921,2096921,212564,567216,0
2096921,2096921,212402,567501,0
2096921,2096921,212465,567289,0
2096921,2096921,212524,567352,0
2096921,2096921,212689,567268,0
2096921,2096921,212674,567523,0
2096921,2096921,212420,567083,0
2096921,2096921,211904,566911,0
2096921,2096921,211830,566692,0
2096921,2096921,212142,566676,0
2096921,2096921,212112,566898,0
2096921,2096921,211985,566704,0
2096921,2096921,211697,566919,0
2096921,2096921,211890,566901,0
2096921,2096921,211758,566873,0
2096921,2096921,212015,567123,0
2096921,2096921,212003,566715,0
2096921,2096921,212221,566554,0
2096921,2096921,212143,566580,0
2096921,2096921,211916,566312,0
2096921,2096921,212015,566555,0
2096921,2096921,212352,566463,0
2096921,2096921,212237,566704,0
2096921,2096921,212100,566412,0
2096921,2096921,212098,566901,0
2096921,2096921,212064,566561,0
2096921,2096921,212260,566460,0
2096921,2096921,212508,566827,0
2096921,2096921,212086,567215,0
2096921,2096921,211741,566606,0
2096921,2096921,212077,566611,0
2096921,2096921,211894,566503,0
2096921,2096921,212215,566691,0
2096921,2096921,212505,567006,0
2096921,2096921,212105,567102,0
2096921,2096921,211821,566895,0
2096921,2096921,212251,566642,0
2096921,2096921,212253,566824,0
2096921,2096921,212518,567068,0
2096921,2096921,212274,566724,0
2096921,2096921,212508,566908,0
2096921,2096921,212740,566800,0
2096921,2096921,212692,567066,0
2096921,2096921,212664,567198,0
2096921,2096921,212693,567386,0
2096921,2096921,212664,567513,0
2096921,2096921,212615,567251,0
2096921,2096921,212680,567421,0
2096921,2096921,212592,567603,0
2096921,2096921,212603,567389,0
2096921,2096921,212168,567510,0
2096921,2096921,213107,567209,0
2096921,2096921,212984,567680,0
2096921,2096921,212911,567682,0
2096921,2096921,213018,568074,0
2096921,2096921,212828,567775,0
2096921,2096921,213213,567910,0
2096921,2096921,213048,568225,0
2096921,2096921,212969,568021,0
2096921,2096921,212890,567817,0
2096921,2096921,212859,568019,0
2096921,2096921,213186,568042,0
2096921,2096921,213500,568343,0
2096921,2096921,213609,568089,0
2096921,2096921,213534,568373,0
2096921,2096921,213329,568778,0
2096921,2096921,213560,568291,0
2096921,2096921,213461,568585,0
2096921,2096921,213316,568638,0
2096921,2096921,213322,568573,0
2096921,2096921,213457,568397,0
2096921,2096921,213430,568577,0
2096921,2096921,213538,568922,0
2096921,2096921,213690,569208,0
2096921,2096921,213660,568734,0
2096921,2096921,213576,569212,0
2096921,2096921,213607,569020,0
2096921,2096921,214060,569243,0
2096921,2096921,213881,569090,0
2096921,2096921,213636,569155,0
2096921,2096921,213657,569005,0
2096921,2096921,213903,569042,0
2096921,2096921,214154,569452,0
2096921,2096921,214407,569412,0
2096921,2096921,214041,569347,0
2096921,2096921,214131,569359,0
2096921,2096921,214240,569467,0
2096921,2096921,214546,569470,0
2096921,2096921,214394,569540,0
2096921,2096921,214168,569297,0
2096921,2096921,214104,569467,0
2096921,2096921,214073,569314,0
2096921,2096921,214275,569457,0
2096921,2096921,214348,569778,0
2096921,2096921,214760,570228,0
2096921,2096921,214593,570155,0
2096921,2096921,215070,570221,0
2096921,2096921,214860,570128,0
2096921,2096921,214623,570228,0
2096921,2096921,214537,569990,0
2096921,2096921,214617,570017,0
2096921,2096921,214643,569832,0
2096921,2096921,214572,570273,0
2096921,2096921,214818,570471,0
2096921,2096921,215021,570679,0
2096921,2096921,214859,570436,0
2096921,2096921,215158,570614,0
2096921,2096921,214741,570356,0
2096921,2096921,215189,570412,0
2096921,2096921,214727,570345,0
2096921,2096921,214833,570482,0
2096921,2096921,214863,570343,0
2096921,2096921,214880,570617,0
2096921,2096921,214977,570459,0
2096921,2096921,215261,570652,0
2096921,2096921,215090,570795,0
2096921,2096921,215141,570817,0
2096921,2096921,215029,570694,0
2096921,2096921,214634,570915,0
2096921,2096921,214906,570794,0
2096921,2096921,214870,570526,0
2096921,2096921,214755,570477,0
2096921,2096921,214813,570570,0
2096921,2096921,214981,570974,0
2096921,2096921,215277,571011,0
2096921,2096921,215070,570725,0
2096921,2096921,214874,570575,0
2096921,2096921,215086,570344,0
2096921,2096921,215198,570677,0
2096921,2096921,214573,570749,0
2096921,2096921,214844,570782,0
2096921,2096921,215055,570389,0
2096921,2096921,215278,570421,0
2096921,2096921,215160,570498,0
2096921,2096921,215321,570335,0
2096921,2096921,215085,570528,0
2096921,2096921,215049,570505,0
2096921,2096921,214760,570704,0
2096921,2096921,215065,570298,0
2096921,2096921,214805,570447,0
2096921,2096921,214695,570087,0
2096921,2096921,214876,570171,0
2096921,2096921,214825,569863,0
2096921,2096921,215134,570061,0
2096921,2096921,214985,569985,0
2096921,2096921,214602,569940,0
2096921,2096921,214732,570413,0
2096921,2096921,214735,570146,0
2096921,2096921,214780,569966,0
2096921,2096921,214795,569701,0
2096921,2096921,214783,569826,0
2096921,2096921,214356,569994,0
2096921,2096921,214292,569874,0
2096921,2096921,214836,569814,0
2096921,2096921,214654,569663,0
2096921,2096921,214875,569694,0
2096921,2096921,214721,569902,0
2096921,2096921,214612,569776,0
2096921,2096921,214464,569700,0
2096921,2096921,214104,569581,0
2096921,2096921,214488,569677,0
2096921,2096921,214531,569634,0
2096921,2096921,214565,570014,0
2096921,2096921,214675,569815,0
2096921,2096921,214823,569827,0
2096921,2096921,215032,569849,0
2096921,2096921,214661,569714,0
2096921,2096921,214822,569583,0
2096921,2096921,214654,569455,0
2096921,2096921,214296,569558,0
2096921,2096921,214567,569833,0
2096921,2096921,214333,569884,0
2096921,2096921,214691,569807,0
2096921,2096921,214588,569859,0
2096921,2096921,214534,569473,0
2096921,2096921,214749,569762,0
2096921,2096921,214507,569692,0
2096921,2096921,214644,569916,0
2096921,2096921,214617,569670,0
2096921,2096921,214656,569762,0
2096921,2096921,214359,569699,0
2096921,2096921,214624,569806,0
2096921,2096921,214689,570034,0
2096921,2096921,215042,569987,0
2096921,2096921,215136,570272,0
2096921,2096921,215080,570050,0
2096921,2096921,215067,569881,0
2096921,2096921,215000,570019,0
2096921,2096921,214775,569941,0
2096921,2096921,214795,569797,0
2096921,2096921,214745,570140,0
2096921,2096921,214824,570048,0
2096921,2096921,214900,570504,0
2096921,2096921,215131,570459,0
2096921,2096921,215142,570475,0
2096921,2096921,214796,570516,0
2096921,2096921,215288,570088,0
2096921,2096921,215299,570676,0
2096921,2096921,214811,570469,0
2096921,2096921,214817,570355,0
2096921,2096921,214974,570525,0
2096921,2096921,215261,570507,0
2096921,2096921,215103,570539,0
2096921,2096921,215158,570818,0
2096921,2096921,215314,571037,0
2096921,2096921,215453,570918,0
2096921,2096921,215423,570720,0
2096921,2096921,215603,570696,0
2096921,2096921,215366,570592,0
2096921,2096921,215033,570744,0
2096921,2096921,215209,570744,0
2096921,2096921,215409,570708,0
2096921,2096921,215620,570860,0
2096921,2096921,215418,571062,0
2096921,2096921,215981,571011,0
2096921,2096921,215899,571213,0
2096921,2096921,215592,571056,0
2096921,2096921,215752,571145,0
2096921,2096921,215524,570955,0
2096921,2096921,215496,570686,0
2096921,2096921,215428,570813,0
2096921,2096921,215731,570917,0
2096921,2096921,215701,571323,0
2096921,2096921,215680,571288,0
2096921,2096921,215980,571306,0
2096921,2096921,215443,571210,0
2096921,2096921,215923,571500,0
2096921,2096921,215916,571518,0
2096921,2096921,215875,571293,0
2096921,2096921,215738,571204,0
2096921,2096921,215727,571306,0
2096921,2096921,216134,571199,0
2096921,2096921,216429,571463,0
2096921,2096921,215858,571653,0
2096921,2096921,215874,571657,0
2096921,2096921,216111,571581,0
2096921,2096921,216284,571786,0
2096921,2096921,216195,571708,0
2096921,2096921,216161,571614,0
2096921,2096921,215875,571796,0
2096921,2096921,215953,571176,0
2096921,2096921,216127,571464,0
2096921,2096921,215913,571886,0
2096921,2096921,216451,571791,0
2096921,2096921,216362,571821,0
2096921,2096921,216548,572066,0
2096921,2096921,216350,571820,0
2096921,2096921,216490,571620,0
2096921,2096921,216382,571976,0
2096921,2096921,216243,571876,0
2096921,2096921,216378,571976,0
2096921,2096921,216373,571827,0
2096921,2096921,216352,571900,0
2096921,2096921,216433,572164,0
2096921,2096921,216405,572255,0
2096921,2096921,216398,572017,0
2096921,2096921,216545,572305,0
2096921,2096921,216358,572222,0
2096921,2096921,216498,572143,0
2096921,2096921,216510,571910,0
2096921,2096921,216312,572361,0
2096921,2096921,216193,572142,0
2096921,2096921,216735,572465,0
2096921,2096921,216744,572145,0
2096921,2096921,216841,572354,0
2096921,2096921,216652,572644,0
2096921,2096921,216682,572289,0
2096921,2096921,216635,572473,0
2096921,2096921,216945,572495,0
2096921,2096921,216708,572451,0
2096921,2096921,216609,572533,0
2096921,2096921,216579,572546,0
2096921,2096921,216611,572594,0
2096921,2096921,216645,572781,0
2096921,2096921,217052,572518,0
2096921,2096921,216952,572674,0
2096921,2096921,216768,572738,0
2096921,2096921,216792,572485,0
2096921,2096921,216739,572693,0
2096921,2096921,216388,572458,0
2096921,2096921,216804,572530,0
2096921,2096921,216802,572646,0
2096921,2096921,216678,572880,0
2096921,2096921,216837,572953,0
2096921,2096921,216972,572819,0
2096921,2096921,217276,572827,0
2096921,2096921,217171,573224,0
2096921,2096921,217140,573225,0
2096921,2096921,217115,572828,0
2096921,2096921,216782,572653,0
2096921,2096921,216774,572690,0
2096921,2096921,217145,572851,0
2096921,2096921,217002,572772,0
2096921,2096921,217139,573149,0
2096921,2096921,217155,573090,0
2096921,2096921,217140,572999,0
2096921,2096921,216985,573204,0
2096921,2096921,216856,573449,0
2096921,2096921,217065,573337,0
2096921,2096921,217039,573203,0
2096921,2096921,217008,573214,0
2096921,2096921,217132,573069,0
2096921,2096921,217089,573127,0
2096921,2096921,216861,573226,0
2096921,2096921,217151,573127,0
2096921,2096921,217373,573074,0
2096921,2096921,217391,573163,0
2096921,2096921,217248,573376,0
2096921,2096921,216873,573258,0
2096921,2096921,217070,573314,0
2096921,2096921,217264,573138,0
2096921,2096921,217299,573578,0
2096921,2096921,217334,573383,0
2096921,2096921,217105,573446,0
2096921,2096921,217331,573254,0
2096921,2096921,217365,573347,0
2096921,2096921,217199,573493,0
2096921,2096921,217058,573129,0
2096921,2096921,217183,573303,0
2096921,2096921,217366,573321,0
2096921,2096921,217364,573472,0
2096921,2096921,217326,573239,0
2096921,2096921,217338,573125,0
2096921,2096921,217352,573252,0
2096921,2096921,217641,573308,0
2096921,2096921,217592,573449,0
2096921,2096921,217541,573484,0
2096921,2096921,217280,573228,0
2096921,2096921,217286,573526,0
2096921,2096921,217356,573330,0
2096921,2096921,217401,573351,0
2096921,2096921,217387,573273,0
2096921,2096921,217808,573529,0
2096921,2096921,217639,573753,0
2096921,2096921,217666,573833,0
2096921,2096921,217591,573363,0
2096921,2096921,217435,573754,0
2096921,2096921,217492,573398,0
2096921,2096921,217402,573424,0
2096921,2096921,217148,573702,0
2096921,2096921,217513,573494,0
2096921,2096921,217391,573575,0
2096921,2096921,217355,573628,0
2096921,2096921,217605,573668,0
2096921,2096921,217706,573800,0
2096921,2096921,217607,573757,0
2096921,2096921,217591,573706,0
2096921,2096921,217470,574061,0
2096921,2096921,217385,573642,0
2096921,2096921,217418,573538,0
2096921,2096921,217315,573763,0
2096921,2096921,217551,573491,0
2096921,2096921,217697,573545,0
2096921,2096921,218062,573681,0
2096921,2096921,217731,573848,0
2096921,2096921,217623,574041,0
2096921,2096921,217611,573874,0
2096921,2096921,217424,574228,0
2096921,2096921,217576,573853,0
2096921,2096921,217243,573631,0
2096921,2096921,217591,573652,0
2096921,2096921,217604,573567,0
2096921,2096921,217473,573757,0
2096921,2096921,217541,573875,0
2096921,2096921,217592,573918,0
2096921,2096921,217485,574007,0
2096921,2096921,217536,574090,0
2096921,2096921,217546,574281,0
2096921,2096921,217819,573886,0
2096921,2096921,217604,574148,0
2096921,2096921,217691,573952,0
2096921,2096921,217604,573807,0
2096921,2096921,217439,574176,0
2096921,2096921,217880,574123,0
2096921,2096921,217661,573986,0
2096921,2096921,217695,574340,0
2096921,2096921,217737,574221,0
2096921,2096921,217848,574082,0
2096921,2096921,217707,573954,0
2096921,2096921,217659,573931,0
2096921,2096921,217793,573886,0
2096921,2096921,217981,573959,0
2096921,2096921,217736,574025,0
2096921,2096921,217858,574334,0
2096921,2096921,217727,574268,0
2096921,2096921,217688,574010,0
2096921,2096921,217697,574127,0
2096921,2096921,217850,574450,0
2096921,2096921,217728,574210,0
2096921,2096921,217678,573963,0
2096921,2096921,217813,574281,0
2096921,2096921,217792,574238,0
2096921,2096921,218049,574226,0
2096921,2096921,218016,574189,0
2096921,2096921,218107,574285,0
2096921,2096921,218142,574132,0
2096921,2096921,218071,574557,0
2096921,2096921,218071,574214,0
2096921,2096921,217980,574206,0
2096921,2096921,217764,574122,0
2096921,2096921,217954,573736,0
2096921,2096921,217812,573978,0
2096921,2096921,217883,574214,0
2096921,2096921,217751,574396,0
2096921,2096921,217817,574247,0
2096921,2096921,217774,574023,0
2096921,2096921,217945,574385,0
2096921,2096921,217683,574358,0
2096921,2096921,217929,574245,0
2096921,2096921,217698,574107,0
2096921,2096921,217529,574018,0
2096921,2096921,217687,574253,0
2096921,2096921,217874,574094,0
2096921,2096921,217871,574404,0
2096921,2096921,217934,573895,0
2096921,2096921,218209,574141,0
2096921,2096921,217827,574428,0
2096921,2096921,217993,574234,0
2096921,2096921,217881,574286,0
2096921,2096921,217745,574108,0
2096921,2096921,217674,574346,0
2096921,2096921,217751,574294,0
2096921,2096921,217923,574095,0
2096921,2096921,217668,574364,0
2096921,2096921,217869,574352,0
2096921,2096921,218060,574324,0
2096921,2096921,218079,573954,0
2096921,2096921,217794,574086,0
2096921,2096921,217789,574050,0
2096921,2096921,217692,573904,0
2096921,2096921,217681,574248,0
2096921,2096921,217871,574146,0
2096921,2096921,217826,573881,0
2096921,2096921,217997,574174,0
2096921,2096921,217946,574215,0
2096921,2096921,217839,574428,0
2096921,2096921,217694,574228,0
2096921,2096921,217766,574301,0
2096921,2096921,217754,574230,0
2096921,2096921,217661,574114,0
2096921,2096921,217728,574001,0
2096921,2096921,217793,574649,0
2096921,2096921,217763,574262,0
2096921,2096921,218025,574146,0
2096921,2096921,218092,574387,0
2096921,2096921,217973,573983,0
2096921,2096921,217778,574125,0
2096921,2096921,217701,573931,0
2096921,2096921,217799,573938,0
2096921,2096921,217739,573882,0
2096921,2096921,217658,573843,0
2096921,2096921,217486,573929,0
2096921,2096921,217529,573804,0
2096921,2096921,217814,573624,0
2096921,2096921,217679,573769,0
2096921,2096921,217277,573769,0
2096921,2096921,217304,574004,0
2096921,2096921,217107,573175,0
2096921,2096921,217447,573231,0
2096921,2096921,217216,573015,0
2096921,2096921,217205,573292,0
2096921,2096921,216682,573124,0
2096921,2096921,216818,572908,0
2096921,2096921,216785,572934,0
2096921,2096921,216711,572776,0
2096921,2096921,216856,573031,0
2096921,2096921,216626,572921,0
2096921,2096921,216526,572305,0
2096921,2096921,216460,572161,0
2096921,2096921,216077,571635,0
2096921,2096921,216501,571938,0
2096921,2096921,215753,572267,0
2096921,2096921,215586,570884,0
2096921,2096921,215528,570907,0
2096921,2096921,215373,570758,0
2096921,2096921,215591,570939,0
2096921,2096921,214429,570983,0
2096921,2096921,214239,569376,0
2096921,2096921,214538,568933,0
2096921,2096921,214232,568995,0
2096921,2096921,213931,568986,0
2096921,2096921,213040,568718,0
2096921,2096921,213193,567708,0
2096921,2096921,213098,567374,0
2096921,2096921,213245,567434,0
2096921,2096921,213522,567132,0
2096921,2096921,212687,567225,0
2096921,2096921,212413,566227,0
2096921,2096921,212499,566109,0
2096921,2096921,212413,565946,0
2096921,2096921,212547,566173,0
2096921,2096921,212116,565986,0
2096921,2096921,211888,565372,0
2096921,2096921,211984,565522,0
2096921,2096921,212032,565473,0
2096921,2096921,211769,565521,0
2096921,2096921,211794,565702,0
2096921,2096921,211624,565155,0
2096921,2096921,211749,565138,0
2096921,2096921,211622,564579,0
2096921,2096921,211421,564787,0
2096921,2096921,211423,564617,0
2096921,2096921,211166,564579,0
2096921,2096921,210722,564452,0
2096921,2096921,210888,564435,0
2096921,2096921,211123,564281,0
2096921,2096921,211241,564232,0
2096921,2096921,211042,564538,0
2096921,2096921,211029,564070,0
2096921,2096921,211029,564227,0
2096921,2096921,211134,564195,0
2096921,2096921,211018,563937,0
2096921,2096921,210973,564234,0
2096921,2096921,211278,564088,0
2096921,2096921,210990,564304,0
2096921,2096921,211315,564257,0
2096921,2096921,211359,564141,0
2096921,2096921,211191,564070,0
2096921,2096921,210887,563971,0
2096921,2096921,210964,563587,0
2096921,2096921,210920,564021,0
2096921,2096921,211023,563544,0
2096921,2096921,211118,564210,0
2096921,2096921,211235,563894,0
2096921,2096921,211196,564000,0
2096921,2096921,211341,564020,0
2096921,2096921,211419,564094,0
2096921,2096921,211354,564379,0
2096921,2096921,211060,564142,0
2096921,2096921,211038,564101,0
2096921,2096921,210848,564167,0
2096921,2096921,211100,564312,0
2096921,2096921,211469,564198,0
2096921,2096921,211261,564321,0
2096921,2096921,211158,564394,0
2096921,2096921,211260,564350,0
2096921,2096921,211235,564127,0
2096921,2096921,211347,564781,0
2096921,2096921,211611,564834,0
2096921,2096921,211583,564625,0
2096921,2096921,211395,564702,0
2096921,2096921,211524,564376,0
2096921,2096921,212028,565086,0
2096921,2096921,212001,564878,0
2096921,2096921,212004,564700,0
2096921,2096921,211917,564510,0
2096921,2096921,211925,564704,0
2096921,2096921,211765,565016,0
2096921,2096921,211759,564939,0
2096921,2096921,211446,565007,0
2096921,2096921,211600,565079,0
2096921,2096921,212039,565022,0
2096921,2096921,212048,565613,0
2096921,2096921,212226,565376,0
2096921,2096921,212125,565709,0
2096921,2096921,212197,565899,0
2096921,2096921,212284,565703,0
2096921,2096921,212333,565664,0
2096921,2096921,212248,565856,0
2096921,2096921,212360,565674,0
2096921,2096921,212097,565978,0
2096921,2096921,212453,565843,0
2096921,2096921,212540,565873,0
2096921,2096921,212309,565917,0
2096921,2096921,212400,566280,0
2096921,2096921,212613,566309,0
2096921,2096921,212908,566214,0
2096921,2096921,212652,566258,0
2096921,2096921,212595,566402,0
2096921,2096921,212605,565998,0
2096921,2096921,212543,566361,0
2096921,2096921,212466,566205,0
2096921,2096921,212741,566665,0
2096921,2096921,213021,566512,0
2096921,2096921,213084,566933,0
2096921,2096921,213213,567089,0
2096921,2096921,212757,566859,0
2096921,2096921,213420,566939,0
2096921,2096921,213223,566649,0
2096921,2096921,213157,566998,0
2096921,2096921,213115,567126,0
2096921,2096921,213205,567182,0
2096921,2096921,213336,567208,0
2096921,2096921,213508,567684,0
2096921,2096921,213703,567581,0
2096921,2096921,213750,567618,0
2096921,2096921,213501,567430,0
2096921,2096921,213546,567813,0
2096921,2096921,213534,567991,0
2096921,2096921,213486,567840,0
2096921,2096921,213406,567793,0
2096921,2096921,213636,567716,0
2096921,2096921,213688,568291,0
2096921,2096921,213966,568387,0
2096921,2096921,214208,568310,0
2096921,2096921,214009,568155,0
2096921,2096921,213770,568152,0
2096921,2096921,214077,568401,0
2096921,2096921,214035,568276,0
2096921,2096921,213932,568388,0
2096921,2096921,213681,568240,0
2096921,2096921,213943,568666,0
2096921,2096921,214337,568482,0
2096921,2096921,213940,568573,0
2096921,2096921,213838,568736,0
2096921,2096921,213953,568865,0
2096921,2096921,214187,568873,0
2096921,2096921,214434,569039,0
2096921,2096921,214322,568569,0
2096921,2096921,214166,568827,0
2096921,2096921,214053,568848,0
2096921,2096921,214323,568674,0
2096921,2096921,214346,568773,0
2096921,2096921,214480,568901,0
2096921,2096921,214322,569083,0
2096921,2096921,214451,568968,0
2096921,2096921,214472,569056,0
2096921,2096921,214856,569148,0
2096921,2096921,214043,569061,0
2096921,2096921,214616,568958,0
2096921,2096921,214293,569119,0
2096921,2096921,214547,569132,0
2096921,2096921,214467,569030,0
2096921,2096921,214453,569094,0
2096921,2096921,214846,569663,0
2096921,2096921,214678,569065,0
2096921,2096921,214414,569091,0
2096921,2096921,214396,569166,0
2096921,2096921,214454,569158,0
2096921,2096921,214623,568939,0
2096921,2096921,214478,569264,0
2096921,2096921,214416,569105,0
2096921,2096921,214538,568957,0
2096921,2096921,214399,569103,0
2096921,2096921,214609,569225,0
2096921,2096921,214521,569465,0
2096921,2096921,214601,569179,0
2096921,2096921,214421,569316,0
2096921,2096921,214489,569012,0
2096921,2096921,214344,568932,0
2096921,2096921,214135,568922,0
2096921,2096921,214331,569174,0
2096921,2096921,214500,569015,0
2096921,2096921,214415,569018,0
2096921,2096921,214494,569073,0
2096921,2096921,214648,569285,0
2096921,2096921,214317,569129,0
2096921,2096921,214401,568969,0
2096921,2096921,214299,568587,0
2096921,2096921,214236,568683,0
2096921,2096921,214047,568783,0
2096921,2096921,213988,568673,0
2096921,2096921,214138,568762,0
2096921,2096921,214236,568874,0
2096921,2096921,214410,568875,0
2096921,2096921,214188,568817,0
2096921,2096921,214296,568955,0
2096921,2096921,214261,568842,0
2096921,2096921,214162,569175,0
2096921,2096921,214072,568906,0
2096921,2096921,213603,568827,0
2096921,2096921,214131,568627,0
2096921,2096921,214033,568915,0
2096921,2096921,214075,568601,0
2096921,2096921,214216,568958,0
2096921,2096921,214192,568888,0
2096921,2096921,214147,569086,0
2096921,2096921,214098,569129,0
2096921,2096921,214294,568883,0
2096921,2096921,214038,568742,0
2096921,2096921,214130,568905,0
2096921,2096921,214001,568994,0
2096921,2096921,214255,569235,0
2096921,2096921,214312,569214,0
2096921,2096921,214281,569245,0
2096921,2096921,214064,568841,0
2096921,2096921,214358,569074,0
2096921,2096921,214462,569104,0
2096921,2096921,214266,569018,0
2096921,2096921,214207,569161,0
2096921,2096921,214292,568654,0
2096921,2096921,214622,568881,0
2096921,2096921,214381,569341,0
2096921,2096921,214599,569363,0
2096921,2096921,214582,569328,0
2096921,2096921,214641,569409,0
2096921,2096921,215006,569599,0
2096921,2096921,214807,569938,0
2096921,2096921,214524,569603,0
2096921,2096921,214264,569413,0
2096921,2096921,214412,569504,0
2096921,2096921,214877,569697,0
2096921,2096921,214852,569973,0
2096921,2096921,214752,569746,0
2096921,2096921,215205,570012,0
2096921,2096921,214749,570043,0
2096921,2096921,215189,570397,0
2096921,2096921,214809,570146,0
2096921,2096921,215104,570086,0
2096921,2096921,215077,570199,0
2096921,2096921,215095,570254,0
2096921,2096921,214975,570289,0
2096921,2096921,214873,570443,0
2096921,2096921,214981,570282,0
2096921,2096921,215209,570547,0
2096921,2096921,215315,570598,0
2096921,2096921,215592,570639,0
2096921,2096921,215550,570622,0
2096921,2096921,215233,570701,0
2096921,2096921,215240,570267,0
2096921,2096921,215151,570300,0
2096921,2096921,215177,570447,0
2096921,2096921,215294,570703,0
2096921,2096921,215438,570706,0
2096921,2096921,215624,571044,0
2096921,2096921,215616,570971,0
2096921,2096921,215386,570866,0
2096921,2096921,215690,571047,0
2096921,2096921,215159,570935,0
2096921,2096921,215603,570919,0
2096921,2096921,215422,570936,0
2096921,2096921,215765,570953,0
2096921,2096921,215697,571053,0
2096921,2096921,216037,571380,0
2096921,2096921,215900,571247,0
2096921,2096921,215958,571419,0
2096921,2096921,216057,571221,0
2096921,2096921,216003,571257,0
2096921,2096921,215759,571504,0
2096921,2096921,215588,571395,0
2096921,2096921,215636,571357,0
2096921,2096921,215742,571464,0
2096921,2096921,215809,571397,0
2096921,2096921,215961,571756,0
2096921,2096921,215943,571683,0
2096921,2096921,216062,571310,0
2096921,2096921,216141,571468,0
2096921,2096921,216155,572054,0
2096921,2096921,216035,572254,0
2096921,2096921,216088,571817,0
2096921,2096921,215925,571670,0
2096921,2096921,215757,571525,0
2096921,2096921,216361,571611,0
2096921,2096921,216476,572123,0
2096921,2096921,216293,572151,0
2096921,2096921,216454,572470,0
2096921,2096921,216224,572415,0
2096921,2096921,216315,572403,0
2096921,2096921,216493,572219,0
2096921,2096921,216280,572012,0
2096921,2096921,216318,572486,0
2096921,2096921,216594,572184,0
2096921,2096921,216363,572374,0
2096921,2096921,216497,572805,0
2096921,2096921,216666,572494,0
2096921,2096921,216766,572744,0
2096921,2096921,216732,572945,0
2096921,2096921,216659,572765,0
2096921,2096921,216473,572720,0
2096921,2096921,216383,572660,0
2096921,2096921,216293,572847,0
2096921,2096921,216805,572710,0
2096921,2096921,216605,572810,0
2096921,2096921,216648,572713,0
2096921,2096921,216506,573195,0
2096921,2096921,216894,573202,0
2096921,2096921,216923,572840,0
2096921,2096921,216721,573370,0
2096921,2096921,216818,572738,0
2096921,2096921,216552,572963,0
2096921,2096921,216555,572853,0
2096921,2096921,217004,573234,0
2096921,2096921,216930,573389,0
2096921,2096921,216995,573637,0
2096921,2096921,216831,573621,0
2096921,2096921,217074,573590,0
2096921,2096921,217024,573443,0
2096921,2096921,216959,573561,0
2096921,2096921,216901,573519,0
2096921,2096921,216903,573497,0
2096921,2096921,217150,573506,0
2096921,2096921,217057,573360,0
2096921,2096921,217075,573635,0
2096921,2096921,217591,573752,0
2096921,2096921,217436,573808,0
2096921,2096921,217151,573821,0
2096921,2096921,217317,573976,0
2096921,2096921,217248,573977,0
2096921,2096921,217310,574057,0
2096921,2096921,217374,573946,0
2096921,2096921,217311,573878,0
2096921,2096921,217309,573711,0
2096921,2096921,217195,574116,0
2096921,2096921,217561,574333,0
2096921,2096921,217500,574417,0
2096921,2096921,217537,574370,0
2096921,2096921,217459,574417,0
2096921,2096921,217302,574310,0
2096921,2096921,217475,573940,0
2096921,2096921,217314,574129,0
2096921,2096921,217613,574433,0
2096921,2096921,217700,574219,0
2096921,2096921,217598,574125,0
2096921,2096921,217523,574721,0
2096921,2096921,217794,574951,0
2096921,2096921,217565,574644,0
2096921,2096921,217796,574802,0
2096921,2096921,217706,574551,0
2096921,2096921,217702,574810,0
2096921,2096921,217578,574857,0
2096921,2096921,217669,574309,0
2096921,2096921,217541,574797,0
2096921,2096921,217574,574349,0
2096921,2096921,217882,574760,0
2096921,2096921,217986,574786,0
2096921,2096921,217941,575125,0
2096921,2096921,217897,574678,0
2096921,2096921,217879,575110,0
2096921,2096921,217964,574857,0
2096921,2096921,217899,574806,0
2096921,2096921,217970,574831,0
2096921,2096921,218054,574688,0
2096921,2096921,217842,574812,0
2096921,2096921,218123,574968,0
2096921,2096921,217984,575125,0
2096921,2096921,217824,574890,0
2096921,2096921,218065,575255,0
2096921,2096921,218100,575154,0
2096921,2096921,217968,575126,0
2096921,2096921,218014,574934,0
2096921,2096921,218261,574962,0
2096921,2096921,218407,574746,0
2096921,2096921,218385,575169,0
2096921,2096921,217960,575081,0
2096921,2096921,218038,575143,0
2096921,2096921,218021,574994,0
2096921,2096921,218363,575219,0
2096921,2096921,218161,575339,0
2096921,2096921,217969,575159,0
2096921,2096921,217980,575279,0
2096921,2096921,218156,575403,0
2096921,2096921,217971,575330,0
2096921,2096921,217848,575212,0
2096921,2096921,218090,575197,0
2096921,2096921,218290,575357,0
2096921,2096921,218122,575466,0
2096921,2096921,218297,575698,0
2096921,2096921,218402,575576,0
2096921,2096921,218297,575377,0
2096921,2096921,217901,575590,0
2096921,2096921,217836,575219,0
2096921,2096921,218007,575413,0
2096921,2096921,218290,575661,0
2096921,2096921,218275,575621,0
2096921,2096921,218289,575681,0
2096921,2096921,218418,575705,0
2096921,2096921,218473,575703,0
2096921,2096921,218589,575528,0
2096921,2096921,218247,575604,0
2096921,2096921,218374,575664,0
2096921,2096921,218238,575632,0
2096921,2096921,218435,575763,0
2096921,2096921,218600,576115,0
2096921,2096921,218554,575859,0
2096921,2096921,218513,575970,0
2096921,2096921,218604,575727,0
2096921,2096921,218686,575983,0
2096921,2096921,218677,576127,0
2096921,2096921,218383,575642,0
2096921,2096921,218315,576035,0
2096921,2096921,218345,575890,0
2096921,2096921,218409,576022,0
2096921,2096921,218655,576042,0
2096921,2096921,218437,576176,0
2096921,2096921,218455,575958,0
2096921,2096921,218436,576429,0
2096921,2096921,218599,576054,0
2096921,2096921,218784,576285,0
2096921,2096921,218523,576224,0
2096921,2096921,218590,575990,0
2096921,2096921,218502,576030,0
2096921,2096921,218688,576262,0
2096921,2096921,218894,576118,0
2096921,2096921,218638,576193,0
2096921,2096921,218516,576318,0
2096921,2096921,218566,576461,0
2096921,2096921,218753,576679,0
2096921,2096921,218687,576768,0
2096921,2096921,218529,576515,0
2096921,2096921,218669,576352,0
2096921,2096921,218630,576128,0
2096921,2096921,218656,576618,0
2096921,2096921,218570,576366,0
2096921,2096921,218550,576167,0
2096921,2096921,218659,576558,0
2096921,2096921,218386,576337,0
2096921,2096921,218727,576355,0
2096921,2096921,219067,576699,0
2096921,2096921,218931,576932,0
2096921,2096921,218583,576402,0
2096921,2096921,218781,576547,0
2096921,2096921,218224,576447,0
2096921,2096921,218435,576519,0
2096921,2096921,218756,576653,0
2096921,2096921,218911,576604,0
2096921,2096921,218850,576896,0
2096921,2096921,218888,576826,0
2096921,2096921,218739,576878,0
2096921,2096921,218812,576966,0
2096921,2096921,218662,576667,0
2096921,2096921,218863,576453,0
2096921,2096921,218516,576564,0
2096921,2096921,218646,576546,0
2096921,2096921,218844,576926,0
2096921,2096921,218973,577049,0
2096921,2096921,218860,576854,0
2096921,2096921,218746,576809,0
2096921,2096921,218980,576740,0
2096921,2096921,218920,576828,0
2096921,2096921,218969,577028,0
2096921,2096921,218815,576663,0
2096921,2096921,218874,576558,0
2096921,2096921,218784,576812,0
2096921,2096921,218956,576701,0
2096921,2096921,218995,576954,0
2096921,2096921,218800,577118,0
2096921,2096921,218958,577094,0
2096921,2096921,218917,576919,0
2096921,2096921,219189,576858,0
2096921,2096921,219100,576784,0
2096921,2096921,218869,576772,0
2096921,2096921,218920,576682,0
2096921,2096921,219075,576671,0
2096921,2096921,219048,577065,0
2096921,2096921,218906,576980,0
2096921,2096921,218995,577147,0
2096921,2096921,219023,577221,0
2096921,2096921,218744,577192,0
2096921,2096921,218919,577232,0
2096921,2096921,219232,577284,0
2096921,2096921,218917,576983,0
2096921,2096921,218783,577066,0
2096921,2096921,219054,576998,0
2096921,2096921,219129,577060,0
2096921,2096921,219164,577150,0
2096921,2096921,219195,577386,0
2096921,2096921,218905,577246,0
2096921,2096921,219033,577149,0
2096921,2096921,218685,576914,0
2096921,2096921,218822,576944,0
2096921,2096921,218721,576861,0
2096921,2096921,218809,576594,0
2096921,2096921,218393,576577,0
2096921,2096921,218753,576605,0
2096921,2096921,218782,576945,0
2096921,2096921,218819,576607,0
2096921,2096921,218531,576872,0
2096921,2096921,218575,576572,0
2096921,2096921,218375,576578,0
2096921,2096921,218480,576507,0
2096921,2096921,218187,576329,0
2096921,2096921,217813,576274,0
2096921,2096921,217873,575779,0
2096921,2096921,218185,575792,0
2096921,2096921,218085,575743,0
2096921,2096921,217792,575547,0
2096921,2096921,217749,575796,0
2096921,2096921,217502,575441,0
2096921,2096921,217849,575076,0
2096921,2096921,217550,574893,0
2096921,2096921,217309,574940,0
2096921,2096921,216699,575157,0
2096921,2096921,216687,574055,0
2096921,2096921,216651,574072,0
2096921,2096921,217060,573994,0
2096921,2096921,216827,573950,0
2096921,2096921,215854,574024,0
2096921,2096921,215738,572647,0
2096921,2096921,215489,572072,0
2096921,2096921,215564,571960,0
2096921,2096921,215397,572092,0
2096921,2096921,214610,572078,0
2096921,2096921,214693,570949,0
2096921,2096921,214523,570736,0
2096921,2096921,214466,570805,0
2096921,2096921,214659,570981,0
2096921,2096921,214112,570863,0
2096921,2096921,214106,570088,0
2096921,2096921,213540,569963,0
2096921,2096921,213647,569558,0
2096921,2096921,213538,569341,0
2096921,2096921,212989,569377,0
2096921,2096921,213560,568954,0
2096921,2096921,213313,568787,0
2096921,2096921,213460,568802,0
2096921,2096921,213511,568704,0
2096921,2096921,212866,568780,0
2096921,2096921,213215,568462,0
2096921,2096921,213118,568377,0
2096921,2096921,212752,568258,0
2096921,2096921,212943,567974,0
2096921,2096921,212457,568179,0
2096921,2096921,212828,568064,0
2096921,2096921,212910,567761,0
2096921,2096921,212737,567967,0
2096921,2096921,212703,568167,0
2096921,2096921,212639,568081,0
2096921,2096921,212460,567978,0
2096921,2096921,212611,567394,0
2096921,2096921,212300,567367,0
2096921,2096921,212329,567602,0
2096921,2096921,212245,567693,0
2096921,2096921,212198,567546,0
2096921,2096921,212455,567700,0
2096921,2096921,212558,567613,0
2096921,2096921,212452,567683,0
2096921,2096921,212284,567934,0
2096921,2096921,212488,567918,0
2096921,2096921,212504,567568,0
2096921,2096921,212703,567796,0
2096921,2096921,212360,568047,0
2096921,2096921,212226,567445,0
2096921,2096921,212362,567642,0
2096921,2096921,212634,567855,0
2096921,2096921,212667,568226,0
2096921,2096921,212626,568130,0
2096921,2096921,212628,568294,0
2096921,2096921,212612,568008,0
2096921,2096921,212511,568203,0
2096921,2096921,212297,567871,0
2096921,2096921,212593,568134,0
2096921,2096921,212484,567797,0
2096921,2096921,212674,567914,0
2096921,2096921,212692,568327,0
2096921,2096921,212815,568209,0
2096921,2096921,212777,567971,0
2096921,2096921,213101,568108,0
2096921,2096921,212866,568212,0
2096921,2096921,212965,568602,0
2096921,2096921,212720,568622,0
2096921,2096921,212976,568300,0
2096921,2096921,213540,568523,0
2096921,2096921,213254,568451,0
2096921,2096921,213372,568837,0
2096921,2096921,213274,568874,0
2096921,2096921,213291,568940,0
2096921,2096921,213170,569061,0
2096921,2096921,213387,569122,0
2096921,2096921,213128,569535,0
2096921,2096921,213498,569330,0
2096921,2096921,213040,569095,0
2096921,2096921,213430,568949,0
2096921,2096921,213618,569448,0
2096921,2096921,213761,569600,0
2096921,2096921,213752,569713,0
2096921,2096921,213472,569704,0
2096921,2096921,213674,569734,0
2096921,2096921,213829,570322,0
2096921,2096921,213872,570189,0
2096921,2096921,213594,569890,0
2096921,2096921,213682,569915,0
2096921,2096921,214092,569996,0
2096921,2096921,214185,570477,0
2096921,2096921,214215,570646,0
2096921,2096921,214273,570487,0
2096921,2096921,213989,570447,0
2096921,2096921,214793,570458,0
2096921,2096921,214299,570931,0
2096921,2096921,214622,571033,0
2096921,2096921,214101,570599,0
2096921,2096921,214417,570634,0
2096921,2096921,214631,570853,0
2096921,2096921,214489,571140,0
2096921,2096921,214687,571023,0
2096921,2096921,214581,570997,0
2096921,2096921,214585,570939,0
2096921,2096921,214953,571257,0
2096921,2096921,215357,571532,0
2096921,2096921,214902,571340,0
2096921,2096921,214786,571533,0
2096921,2096921,214846,571457,0
2096921,2096921,214938,571394,0
2096921,2096921,214658,571794,0
2096921,2096921,215173,571632,0
2096921,2096921,215115,571881,0
2096921,2096921,215144,572039,0
2096921,2096921,215014,571846,0
2096921,2096921,215201,572112,0
2096921,2096921,215102,572474,0
2096921,2096921,215116,572129,0
2096921,2096921,215150,572033,0
2096921,2096921,215376,571844,0
2096921,2096921,215831,572238,0
2096921,2096921,215412,572501,0
2096921,2096921,215525,572742,0
2096921,2096921,215663,572750,0
2096921,2096921,215774,572829,0
2096921,2096921,215593,572937,0
2096921,2096921,215589,573112,0
2096921,2096921,215766,573001,0
2096921,2096921,215721,572789,0
2096921,2096921,215952,572857,0
2096921,2096921,216151,573118,0
2096921,2096921,215801,573161,0
2096921,2096921,216109,573479,0
2096921,2096921,216183,573436,0
2096921,2096921,216394,573067,0
2096921,2096921,216053,573738,0
2096921,2096921,216040,573598,0
2096921,2096921,216134,573487,0
2096921,2096921,215902,573362,0
2096921,2096921,216186,573356,0
2096921,2096921,215869,573642,0
2096921,2096921,216464,573645,0
2096921,2096921,216408,573833,0
2096921,2096921,216277,573637,0
2096921,2096921,216168,573901,0
2096921,2096921,216167,573822,0
2096921,2096921,216072,573829,0
2096921,2096921,216091,573852,0
2096921,2096921,216265,573859,0
2096921,2096921,216187,573736,0
2096921,2096921,216326,573883,0
2096921,2096921,216394,573577,0
2096921,2096921,216462,574002,0
2096921,2096921,216430,573762,0
2096921,2096921,216370,574218,0
2096921,2096921,216690,573924,0
2096921,2096921,216201,574058,0
2096921,2096921,216116,574017,0
2096921,2096921,216162,573985,0
2096921,2096921,216152,573885,0
2096921,2096921,216175,573714,0
2096921,2096921,216132,573699,0
2096921,2096921,216433,573739,0
2096921,2096921,216446,573886,0
2096921,2096921,216193,574353,0
2096921,2096921,215996,573757,0
2096921,2096921,215987,573668,0
2096921,2096921,215883,573690,0
2096921,2096921,215943,573929,0
2096921,2096921,215812,573697,0
2096921,2096921,216159,573876,0
2096921,2096921,216327,573926,0
2096921,2096921,216331,573818,0
2096921,2096921,216177,573848,0
2096921,2096921,216235,573850,0
2096921,2096921,216047,573777,0
2096921,2096921,216134,573989,0
2096921,2096921,216274,573577,0
2096921,2096921,215906,573787,0
2096921,2096921,215954,573687,0
2096921,2096921,216330,573488,0
2096921,2096921,216128,573181,0
2096921,2096921,216071,573809,0
2096921,2096921,216054,573888,0
2096921,2096921,216114,573590,0
2096921,2096921,216239,573803,0
2096921,2096921,216228,573824,0
2096921,2096921,216007,573847,0
2096921,2096921,215696,573758,0
2096921,2096921,215837,573389,0
2096921,2096921,216191,573644,0
2096921,2096921,216092,573699,0
2096921,2096921,216132,573809,0
2096921,2096921,216036,573886,0
2096921,2096921,216114,573849,0
2096921,2096921,216213,573904,0
2096921,2096921,216244,573686,0
2096921,2096921,215925,573955,0
2096921,2096921,216014,573650,0
2096921,2096921,216380,573658,0
2096921,2096921,216052,573699,0
2096921,2096921,216093,573946,0
2096921,2096921,216417,574042,0
2096921,2096921,216320,574170,0
2096921,2096921,216397,573746,0
2096921,2096921,216698,574002,0
2096921,2096921,216065,573796,0
2096921,2096921,216217,573907,0
2096921,2096921,216053,573946,0
2096921,2096921,216433,573952,0
2096921,2096921,216506,574559,0
2096921,2096921,216652,574637,0
2096921,2096921,216594,574503,0
2096921,2096921,216569,574372,0
2096921,2096921,216579,574361,0
2096921,2096921,216697,574716,0
2096921,2096921,216706,574635,0
2096921,2096921,216782,574422,0
2096921,2096921,216490,574618,0
2096921,2096921,216746,574369,0
2096921,2096921,216683,574683,0
2096921,2096921,216630,574930,0
2096921,2096921,216770,574899,0
2096921,2096921,217114,574753,0
2096921,2096921,217094,574939,0
2096921,2096921,216718,575042,0
2096921,2096921,216646,574923,0
2096921,2096921,217077,575027,0
2096921,2096921,216921,574935,0
2096921,2096921,216916,574780,0
2096921,2096921,217356,575191,0
2096921,2096921,216890,575132,0
2096921,2096921,216801,575385,0
2096921,2096921,216742,574986,0
2096921,2096921,217140,575270,0
2096921,2096921,217139,575459,0
2096921,2096921,216935,575494,0
2096921,2096921,217006,575409,0
2096921,2096921,217244,575153,0
2096921,2096921,217133,575099,0
2096921,2096921,217063,575752,0
2096921,2096921,217461,575782,0
2096921,2096921,217350,575387,0
2096921,2096921,217214,575444,0
2096921,2096921,217741,575629,0
2096921,2096921,217454,576159,0
2096921,2096921,217196,576136,0
2096921,2096921,217266,576002,0
2096921,2096921,217382,575638,0
2096921,2096921,217557,575566,0
2096921,2096921,217611,576099,0
2096921,2096921,217478,575889,0
2096921,2096921,217582,575870,0
2096921,2096921,217596,576075,0
2096921,2096921,217633,576346,0
2096921,2096921,218016,576408,0
2096921,2096921,217945,576597,0
2096921,2096921,217863,576223,0
2096921,2096921,217782,576399,0
2096921,2096921,217843,576681,0
2096921,2096921,217997,576402,0
2096921,2096921,217633,576618,0
2096921,2096921,217985,576645,0
2096921,2096921,217885,576783,0
2096921,2096921,218066,576890,0
2096921,2096921,217975,576964,0
2096921,2096921,218070,576864,0
2096921,2096921,218135,576408,0
2096921,2096921,217947,576499,0
2096921,2096921,218172,576866,0
2096921,2096921,218318,576464,0
2096921,2096921,218325,576838,0
2096921,2096921,218288,577079,0
2096921,2096921,218107,577259,0
2096921,2096921,218322,577140,0
2096921,2096921,218274,577371,0
2096921,2096921,218117,577306,0
2096921,2096921,218337,577294,0
2096921,2096921,218357,577146,0
2096921,2096921,218444,577263,0
2096921,2096921,217981,577277,0
2096921,2096921,218426,577608,0
2096921,2096921,218205,577531,0
2096921,2096921,218548,577529,0
2096921,2096921,218404,577743,0
2096921,2096921,218481,577556,0
2096921,2096921,218489,577516,0
2096921,2096921,218094,577340,0
2096921,2096921,218514,577639,0
2096921,2096921,218577,577665,0
2096921,2096921,218738,577889,0
2096921,2096921,218986,577736,0
2096921,2096921,218932,577732,0
2096921,2096921,218743,577779,0
2096921,2096921,218790,577930,0
2096921,2096921,218559,578135,0
2096921,2096921,218587,578021,0
2096921,2096921,218613,577892,0
2096921,2096921,218880,577781,0
2096921,2096921,218645,577858,0
2096921,2096921,218468,577758,0
2096921,2096921,218752,578069,0
2096921,2096921,218833,578229,0
2096921,2096921,218853,578559,0
2096921,2096921,219127,578296,0
2096921,2096921,219037,578352,0
2096921,2096921,218990,578215,0
2096921,2096921,219171,578083,0
2096921,2096921,218869,578020,0
2096921,2096921,218864,578102,0
2096921,2096921,219000,578344,0
2096921,2096921,219172,578339,0
2096921,2096921,219093,578558,0
2096921,2096921,219344,578258,0
2096921,2096921,219332,578525,0
2096921,2096921,219289,578211,0
2096921,2096921,219046,578557,0
2096921,2096921,218943,578490,0
2096921,2096921,219167,578757,0
2096921,2096921,219138,578279,0
2096921,2096921,219130,578521,0
2096921,2096921,219298,578512,0
2096921,2096921,219384,578699,0
2096921,2096921,218965,578579,0
2096921,2096921,219312,578869,0
2096921,2096921,219138,578733,0
2096921,2096921,219324,578702,0
2096921,2096921,219174,578665,0
2096921,2096921,218939,578532,0
2096921,2096921,219175,578590,0
2096921,2096921,219120,578484,0
2096921,2096921,219368,578752,0
2096921,2096921,219447,578697,0
2096921,2096921,219541,579062,0
2096921,2096921,219461,579054,0
2096921,2096921,219318,578911,0
2096921,2096921,219805,578914,0
2096921,2096921,219533,578981,0
2096921,2096921,219530,578789,0
2096921,2096921,219566,579095,0
2096921,2096921,219676,578711,0
2096921,2096921,219548,578864,0
2096921,2096921,219687,578889,0
2096921,2096921,219626,579040,0
2096921,2096921,219474,579048,0
2096921,2096921,219573,579093,0
2096921,2096921,219492,579201,0
2096921,2096921,219713,579299,0
2096921,2096921,219421,579209,0
2096921,2096921,219460,579175,0
2096921,2096921,219315,578789,0
2096921,2096921,219498,579182,0
2096921,2096921,219685,579414,0
2096921,2096921,219802,579205,0
2096921,2096921,219811,579217,0
2096921,2096921,219760,578913,0
2096921,2096921,219497,579528,0
2096921,2096921,219435,579273,0
2096921,2096921,219666,579176,0
2096921,2096921,219497,579343,0
2096921,2096921,219758,579208,0
2096921,2096921,219558,579176,0
2096921,2096921,219915,579368,0
2096921,2096921,219705,579628,0
2096921,2096921,219975,579286,0
2096921,2096921,219850,579188,0
2096921,2096921,219726,579527,0
2096921,2096921,219506,579296,0
2096921,2096921,219454,579251,0
2096921,2096921,219825,579242,0
2096921,2096921,219823,579220,0
2096921,2096921,219919,579463,0
2096921,2096921,219753,579060,0
2096921,2096921,220203,579529,0
2096921,2096921,220084,579828,0
2096921,2096921,220067,579469,0
2096921,2096921,219902,579318,0
2096921,2096921,219801,579425,0
2096921,2096921,219592,579254,0
2096921,2096921,219767,579277,0
2096921,2096921,219653,579708,0
2096921,2096921,219386,579820,0
2096921,2096921,219614,579832,0
2096921,2096921,219873,579845,0
2096921,2096921,220006,579618,0
2096921,2096921,220355,579724,0
2096921,2096921,220282,579797,0
2096921,2096921,220126,579218,0
2096921,2096921,219800,579422,0
2096921,2096921,219528,579399,0
2096921,2096921,219651,579599,0
2096921,2096921,219901,579896,0
2096921,2096921,220272,579844,0
2096921,2096921,219984,579516,0
2096921,2096921,220141,579884,0
2096921,2096921,219606,580132,0
2096921,2096921,220041,579654,0
2096921,2096921,219829,579965,0
2096921,2096921,219731,579522,0
2096921,2096921,219762,579792,0
2096921,2096921,220005,579825,0
2096921,2096921,220295,579982,0
2096921,2096921,220035,579616,0
2096921,2096921,219865,580104,0
2096921,2096921,219958,579858,0
2096921,2096921,220084,579843,0
2096921,2096921,219818,579890,0
2096921,2096921,220073,580060,0
2096921,2096921,220075,579670,0
2096921,2096921,219997,579704,0
2096921,2096921,219897,580078,0
2096921,2096921,220137,580059,0
2096921,2096921,220069,579834,0
2096921,2096921,220041,579761,0
2096921,2096921,219896,580234,0
2096921,2096921,219800,579705,0
2096921,2096921,219825,579836,0
2096921,2096921,219861,579904,0
2096921,2096921,219918,579937,0
2096921,2096921,220013,579892,0
2096921,2096921,220178,580067,0
2096921,2096921,220005,579954,0
2096921,2096921,220061,580153,0
2096921,2096921,220201,580300,0
2096921,2096921,220176,580331,0
2096921,2096921,220080,580241,0
2096921,2096921,220409,579893,0
2096921,2096921,220158,579783,0
2096921,2096921,220003,579806,0
2096921,2096921,219957,579699,0
2096921,2096921,219991,579975,0
2096921,2096921,219818,580069,0
2096921,2096921,220338,580305,0
2096921,2096921,220074,580245,0
2096921,2096921,219755,580228,0
2096921,2096921,220350,580332,0
2096921,2096921,220167,580458,0
2096921,2096921,220094,580177,0
2096921,2096921,219977,580009,0
2096921,2096921,219956,579876,0
2096921,2096921,220177,579806,0
2096921,2096921,220134,580241,0
2096921,2096921,219979,580117,0
2096921,2096921,220433,580122,0
2096921,2096921,220239,580112,0
2096921,2096921,220569,579869,0
2096921,2096921,220077,580069,0
2096921,2096921,219972,579991,0
2096921,2096921,220121,579752,0
2096921,2096921,219939,579717,0
2096921,2096921,219898,580036,0
2096921,2096921,220145,580000,0
2096921,2096921,220352,580223,0
2096921,2096921,220123,580045,0
2096921,2096921,220235,580042,0
2096921,2096921,220278,580114,0
2096921,2096921,220029,580214,0
2096921,2096921,220008,580194,0
2096921,2096921,219960,580012,0
2096921,2096921,219783,580024,0
2096921,2096921,220047,580230,0
2096921,2096921,219943,580044,0
2096921,2096921,220252,579928,0
2096921,2096921,220110,579928,0
2096921,2096921,219881,580220,0
2096921,2096921,219856,580195,0
2096921,2096921,220260,580149,0
2096921,2096921,220121,580107,0
2096921,2096921,219977,580069,0
2096921,2096921,220119,579588,0
2096921,2096921,220010,579845,0
2096921,2096921,220187,580054,0
2096921,2096921,220239,580092,0
2096921,2096921,220287,580145,0
2096921,2096921,219991,579901,0
2096921,2096921,220093,579844,0
2096921,2096921,219857,579921,0
2096921,2096921,220288,579592,0
2096921,2096921,220110,579757,0
2096921,2096921,219896,579536,0
2096921,2096921,219563,579618,0
2096921,2096921,219805,579563,0
2096921,2096921,219772,579582,0
2096921,2096921,219936,579733,0
2096921,2096921,219669,579828,0
2096921,2096921,219444,579071,0
2096921,2096921,219529,578998,0
2096921,2096921,219251,579127,0
2096921,2096921,219058,579026,0
2096921,2096921,218865,578970,0
2096921,2096921,218676,578497,0
2096921,2096921,219063,578322,0
2096921,2096921,219191,578742,0
2096921,2096921,219009,578660,0
2096921,2096921,218617,578862,0
2096921,2096921,218436,578271,0
2096921,2096921,218786,577962,0
2096921,2096921,218611,577748,0
2096921,2096921,218430,577511,0
2096921,2096921,217787,577477,0
2096921,2096921,217687,576386,0
2096921,2096921,217778,576454,0
2096921,2096921,217906,576631,0
2096921,2096921,217846,576965,0
2096921,2096921,216645,576423,0
2096921,2096921,216707,575315,0
2096921,2096921,216432,574742,0
2096921,2096921,216642,574829,0
2096921,2096921,216271,574648,0
2096921,2096921,215648,574569,0
2096921,2096921,215451,573383,0
2096921,2096921,215628,573160,0
2096921,2096921,215595,573286,0
2096921,2096921,215664,572930,0
2096921,2096921,215090,572666,0
2096921,2096921,214635,572280,0
2096921,2096921,214911,572288,0
2096921,2096921,214674,571966,0
2096921,2096921,214516,572031,0
2096921,2096921,214256,572139,0
2096921,2096921,214314,571436,0
2096921,2096921,214026,571161,0
2096921,2096921,213995,571352,0
2096921,2096921,214149,571086,0
2096921,2096921,213798,571205,0
2096921,2096921,213870,570850,0
2096921,2096921,213926,570436,0
2096921,2096921,213648,570403,0
2096921,2096921,213656,570205,0
2096921,2096921,213203,570269,0
2096921,2096921,213520,570127,0
2096921,2096921,213378,569859,0
2096921,2096921,213447,569961,0
2096921,2096921,213539,570051,0
2096921,2096921,213593,569915,0
2096921,2096921,213250,570099,0
2096921,2096921,213227,569748,0
2096921,2096921,213184,569891,0
2096921,2096921,213045,569521,0
2096921,2096921,212933,569764,0
2096921,2096921,213544,569524,0
2096921,2096921,213379,569999,0
2096921,2096921,213243,569953,0
2096921,2096921,213388,569825,0
2096921,2096921,213063,569727,0
2096921,2096921,213094,569882,0
2096921,2096921,213220,569837,0
2096921,2096921,213111,569826,0
2096921,2096921,213005,569487,0
2096921,2096921,213230,569519,0
2096921,2096921,213264,569615,0
2096921,2096921,213226,569433,0
2096921,2096921,213268,569415,0
2096921,2096921,213351,570032,0
2096921,2096921,213478,570016,0
2096921,2096921,213226,569921,0
2096921,2096921,213202,569893,0
2096921,2096921,213221,569593,0
2096921,2096921,213465,569765,0
2096921,2096921,213304,569911,0
2096921,2096921,213191,569622,0
2096921,2096921,213223,569776,0
2096921,2096921,213512,570136,0
2096921,2096921,213257,570307,0
2096921,2096921,213634,570147,0
2096921,2096921,213425,570270,0
2096921,2096921,213654,570535,0
2096921,2096921,213376,570211,0
2096921,2096921,213490,570146,0
2096921,2096921,213436,570000,0
2096921,2096921,213420,570341,0
2096921,2096921,213799,570212,0
2096921,2096921,213839,570605,0
2096921,2096921,213990,570901,0
2096921,2096921,214186,570439,0
2096921,2096921,214220,570920,0
2096921,2096921,213958,570570,0
2096921,2096921,213969,570849,0
2096921,2096921,214004,570686,0
2096921,2096921,214094,570668,0
2096921,2096921,214101,571023,0
2096921,2096921,214373,570698,0
2096921,2096921,214498,570896,0
2096921,2096921,214344,571412,0
2096921,2096921,214185,571635,0
2096921,2096921,214300,571688,0
2096921,2096921,214126,572174,0
2096921,2096921,214032,571280,0
2096921,2096921,214359,571278,0
2096921,2096921,214530,571278,0
2096921,2096921,214293,571553,0
2096921,2096921,214607,571825,0
2096921,2096921,214749,571884,0
2096921,2096921,214814,571709,0
2096921,2096921,214755,571773,0
2096921,2096921,214807,572022,0
2096921,2096921,214719,571877,0
2096921,2096921,214710,572259,0
2096921,2096921,214691,571909,0
2096921,2096921,214659,571776,0
2096921,2096921,214632,572095,0
2096921,2096921,214826,572372,0
2096921,2096921,214926,572539,0
2096921,2096921,215223,572157,0
2096921,2096921,215438,572459,0
2096921,2096921,215721,572508,0
2096921,2096921,215582,572711,0
2096921,2096921,215307,572440,0
2096921,2096921,215115,572747,0
2096921,2096921,215329,572756,0
2096921,2096921,215346,572887,0
2096921,2096921,215139,573036,0
2096921,2096921,215298,572997,0
2096921,2096921,215556,573152,0
2096921,2096921,215791,573152,0
2096921,2096921,215832,573492,0
2096921,2096921,215895,573423,0
2096921,2096921,215624,573338,0
2096921,2096921,215368,572986,0
2096921,2096921,215676,573392,0
2096921,2096921,215997,573569,0
2096921,2096921,215925,573424,0
2096921,2096921,215833,573831,0
2096921,2096921,216046,573549,0
2096921,2096921,216167,573892,0
2096921,2096921,216252,574143,0
2096921,2096921,216277,573931,0
2096921,2096921,216052,573897,0
2096921,2096921,216024,573575,0
2096921,2096921,216174,573735,0
2096921,2096921,216332,573633,0
2096921,2096921,216013,574225,0
2096921,2096921,216018,574156,0
2096921,2096921,216151,574137,0
2096921,2096921,216367,574240,0
2096921,2096921,216579,574623,0
2096921,2096921,216396,574466,0
2096921,2096921,216189,574609,0
2096921,2096921,216205,574400,0
2096921,2096921,216220,574632,0
2096921,2096921,216643,574249,0
2096921,2096921,216403,574501,0
2096921,2096921,216423,574536,0
2096921,2096921,216415,574449,0
2096921,2096921,216768,574441,0
2096921,2096921,216918,574525,0
2096921,2096921,216371,574542,0
2096921,2096921,216227,574580,0
2096921,2096921,216421,574171,0
2096921,2096921,216499,574608,0
2096921,2096921,216155,574172,0
2096921,2096921,216280,574549,0
2096921,2096921,216333,574364,0
2096921,2096921,216193,574455,0
2096921,2096921,216704,574640,0
2096921,2096921,216728,574621,0
2096921,2096921,216370,574279,0
2096921,2096921,216233,574178,0
2096921,2096921,216398,574314,0
2096921,2096921,216648,574415,0
2096921,2096921,216597,574397,0
2096921,2096921,216589,574315,0
2096921,2096921,216548,574436,0
2096921,2096921,216440,574516,0
2096921,2096921,216657,574699,0
2096921,2096921,216386,574484,0
2096921,2096921,216251,574211,0
2096921,2096921,216455,574167,0
2096921,2096921,216498,574080,0
2096921,2096921,216217,574236,0
2096921,2096921,216212,573855,0
2096921,2096921,216038,573898,0
2096921,2096921,216277,574099,0
2096921,2096921,216382,574257,0
2096921,2096921,216422,574164,0
2096921,2096921,216144,573884,0
2096921,2096921,216181,573697,0
2096921,2096921,215991,573829,0
2096921,2096921,216050,574164,0
2096921,2096921,216379,573951,0
2096921,2096921,216030,573852,0
2096921,2096921,216264,573709,0
2096921,2096921,216262,573782,0
2096921,2096921,216295,573921,0
2096921,2096921,216272,573785,0
2096921,2096921,215973,573825,0
2096921,2096921,216131,573586,0
2096921,2096921,215868,573419,0
2096921,2096921,215945,573794,0
2096921,2096921,215739,573819,0
2096921,2096921,215833,573517,0
2096921,2096921,215798,573579,0
2096921,2096921,215770,573986,0
2096921,2096921,216004,573977,0
2096921,2096921,216042,573737,0
2096921,2096921,216290,573669,0
2096921,2096921,215958,573598,0
2096921,2096921,215895,573635,0
2096921,2096921,215726,573831,0
2096921,2096921,216206,573204,0
2096921,2096921,216080,573622,0
2096921,2096921,215701,573819,0
2096921,2096921,215967,573681,0
2096921,2096921,216149,574024,0
2096921,2096921,216405,573665,0
2096921,2096921,216280,573822,0
2096921,2096921,216029,573854,0
2096921,2096921,216009,574000,0
2096921,2096921,215939,573673,0
2096921,2096921,216177,573881,0
2096921,2096921,216107,574103,0
2096921,2096921,216098,573767,0
2096921,2096921,216416,574031,0
2096921,2096921,216333,574047,0
2096921,2096921,216372,574209,0
2096921,2096921,216713,574177,0
2096921,2096921,216504,574334,0
2096921,2096921,216165,573791,0
2096921,2096921,216310,574398,0
2096921,2096921,216414,574059,0
2096921,2096921,216690,574263,0
2096921,2096921,216503,574477,0
2096921,2096921,216612,574530,0
2096921,2096921,216565,574433,0
2096921,2096921,216842,574653,0
2096921,2096921,216713,574856,0
2096921,2096921,216700,574708,0
2096921,2096921,216511,574248,0
2096921,2096921,216705,574310,0
2096921,2096921,216903,574392,0
2096921,2096921,217032,574804,0
2096921,2096921,216725,574364,0
2096921,2096921,216785,574897,0
2096921,2096921,216973,574700,0
2096921,2096921,216920,574816,0
2096921,2096921,217115,575032,0
2096921,2096921,217005,574597,0
2096921,2096921,216780,574665,0
2096921,2096921,216857,574603,0
2096921,2096921,217286,574758,0
2096921,2096921,217144,574684,0
2096921,2096921,216967,574895,0
2096921,2096921,217041,574895,0
2096921,2096921,217253,574928,0
2096921,2096921,216947,574942,0
2096921,2096921,216937,574722,0
2096921,2096921,217093,575089,0
2096921,2096921,216971,575016,0
2096921,2096921,216784,575036,0
2096921,2096921,217110,575215,0
2096921,2096921,217133,575220,0
2096921,2096921,216762,575155,0
2096921,2096921,217040,575403,0
2096921,2096921,217131,575436,0
2096921,2096921,217481,575375,0
2096921,2096921,217321,575389,0
2096921,2096921,217328,575594,0
2096921,2096921,217139,575108,0
2096921,2096921,217474,575368,0
2096921,2096921,217502,575236,0
2096921,2096921,217723,575252,0
2096921,2096921,217591,575205,0
2096921,2096921,217507,575304,0
2096921,2096921,217472,575581,0
2096921,2096921,217875,575479,0
2096921,2096921,217713,575628,0
2096921,2096921,217894,575614,0
2096921,2096921,217300,575488,0
2096921,2096921,217382,575555,0
2096921,2096921,217796,575836,0
2096921,2096921,217525,575411,0
2096921,2096921,217706,575513,0
2096921,2096921,217548,575531,0
2096921,2096921,217399,575834,0
2096921,2096921,217688,575776,0
2096921,2096921,217819,575923,0
2096921,2096921,217449,576128,0
2096921,2096921,217464,575586,0
2096921,2096921,217584,575811,0
2096921,2096921,217964,575560,0
2096921,2096921,217997,575889,0
2096921,2096921,217811,575924,0
2096921,2096921,217831,575885,0
2096921,2096921,218033,575899,0
2096921,2096921,218173,576120,0
2096921,2096921,218039,576144,0
2096921,2096921,217874,576296,0
2096921,2096921,217838,576209,0
2096921,2096921,218001,576014,0
2096921,2096921,217891,576093,0
2096921,2096921,217965,576405,0
2096921,2096921,217886,576003,0
2096921,2096921,217879,576248,0
2096921,2096921,218222,576376,0
2096921,2096921,218453,576234,0
2096921,2096921,218135,576383,0
2096921,2096921,217964,576599,0
2096921,2096921,218068,576239,0
2096921,2096921,218134,576524,0
2096921,2096921,218033,576850,0
2096921,2096921,218066,576430,0
2096921,2096921,218067,576383,0
2096921,2096921,218208,576441,0
2096921,2096921,218391,576715,0
2096921,2096921,218302,576446,0
2096921,2096921,218209,577279,0
2096921,2096921,218498,576748,0
2096921,2096921,218214,576402,0
2096921,2096921,218311,576391,0
2096921,2096921,218094,576240,0
2096921,2096921,218080,576253,0
2096921,2096921,218238,576138,0
2096921,2096921,218281,576442,0
2096921,2096921,218331,576734,0
2096921,2096921,218472,576496,0
2096921,2096921,218335,577081,0
2096921,2096921,218184,577093,0
2096921,2096921,218178,576715,0
2096921,2096921,218233,576808,0
2096921,2096921,218221,576782,0
2096921,2096921,218300,576760,0
2096921,2096921,218626,576808,0
2096921,2096921,218598,576825,0
2096921,2096921,218763,577033,0
2096921,2096921,218866,576697,0
2096921,2096921,218475,576837,0
2096921,2096921,218542,577057,0
2096921,2096921,218526,576655,0
2096921,2096921,218587,576616,0
2096921,2096921,218173,576531,0
2096921,2096921,218643,576710,0
2096921,2096921,218530,576478,0
2096921,2096921,218948,576855,0
2096921,2096921,218641,576780,0
2096921,2096921,218863,576763,0
2096921,2096921,218578,576790,0
2096921,2096921,218690,576539,0
2096921,2096921,218462,577123,0
2096921,2096921,218119,576716,0
2096921,2096921,218719,576483,0
2096921,2096921,218753,576605,0
2096921,2096921,218841,576997,0
2096921,2096921,218497,577177,0
2096921,2096921,218993,576936,0
2096921,2096921,218881,576885,0
2096921,2096921,218420,576940,0
2096921,2096921,218751,576816,0
2096921,2096921,218867,576873,0
2096921,2096921,218631,577193,0
2096921,2096921,218770,576797,0
2096921,2096921,218628,576877,0
2096921,2096921,218632,576721,0
2096921,2096921,218614,577099,0
2096921,2096921,218522,576923,0
2096921,2096921,218866,576935,0
2096921,2096921,218642,576888,0
2096921,2096921,218754,577143,0
2096921,2096921,218435,576915,0
2096921,2096921,218867,576699,0
2096921,2096921,218741,577275,0
2096921,2096921,218724,576995,0
2096921,2096921,218751,576679,0
2096921,2096921,218958,576754,0
2096921,2096921,219038,576977,0
2096921,2096921,218837,577095,0
2096921,2096921,218771,577019,0
2096921,2096921,218677,577096,0
2096921,2096921,218468,577214,0
2096921,2096921,218584,576890,0
2096921,2096921,218649,576835,0
2096921,2096921,218809,577186,0
2096921,2096921,218975,577003,0
2096921,2096921,219028,577070,0
2096921,2096921,218887,577264,0
2096921,2096921,218877,576972,0
2096921,2096921,219035,577068,0
2096921,2096921,218613,577079,0
2096921,2096921,218629,576920,0
2096921,2096921,218566,576836,0
2096921,2096921,218668,576805,0
2096921,2096921,218860,576661,0
2096921,2096921,218832,576786,0
2096921,2096921,218810,577051,0
2096921,2096921,219011,576979,0
2096921,2096921,218950,577110,0
2096921,2096921,219044,577004,0
2096921,2096921,218915,577248,0
2096921,2096921,218641,577210,0
2096921,2096921,218653,576773,0
2096921,2096921,218768,577061,0
2096921,2096921,218508,576905,0
2096921,2096921,218826,576759,0
2096921,2096921,219062,576969,0
2096921,2096921,219131,577010,0
2096921,2096921,218863,576929,0
2096921,2096921,218564,576958,0
2096921,2096921,218610,577243,0
2096921,2096921,218625,576929,0
2096921,2096921,218478,576962,0
2096921,2096921,218736,576661,0
2096921,2096921,218638,576690,0
2096921,2096921,218815,577040,0
2096921,2096921,219044,577244,0
2096921,2096921,219175,577208,0
2096921,2096921,218809,576841,0
2096921,2096921,218953,576960,0
2096921,2096921,218961,576977,0
2096921,2096921,219126,576989,0
2096921,2096921,218844,576843,0
2096921,2096921,218988,576682,0
2096921,2096921,218798,576832,0
2096921,2096921,218777,577098,0
2096921,2096921,218710,577070,0
2096921,2096921,218978,576985,0
2096921,2096921,218766,577009,0
2096921,2096921,219060,577075,0
2096921,2096921,219049,577297,0
2096921,2096921,218817,576864,0
2096921,2096921,218803,577051,0
2096921,2096921,218938,576836,0
2096921,2096921,218934,576886,0
2096921,2096921,218745,576980,0
2096921,2096921,218830,576958,0
2096921,2096921,219004,577050,0
2096921,2096921,219050,577188,0
2096921,2096921,219191,577061,0
2096921,2096921,219202,576959,0
2096921,2096921,218967,577011,0
2096921,2096921,218783,576797,0
2096921,2096921,218778,576951,0
2096921,2096921,218687,576733,0
2096921,2096921,218837,576714,0
2096921,2096921,218894,576547,0
2096921,2096921,218989,576905,0
2096921,2096921,218903,577037,0
2096921,2096921,218994,577132,0
2096921,2096921,218670,576993,0
2096921,2096921,218990,577011,0
2096921,2096921,218769,576612,0
2096921,2096921,218952,577019,0
2096921,2096921,218594,576810,0
2096921,2096921,219082,576936,0
2096921,2096921,219020,576940,0
2096921,2096921,219321,576773,0
2096921,2096921,219055,576918,0
2096921,2096921,218874,576951,0
2096921,2096921,219172,576765,0
2096921,2096921,218809,576541,0
2096921,2096921,218665,576537,0
2096921,2096921,218519,576849,0
2096921,2096921,218771,576696,0
2096921,2096921,218845,576588,0
2096921,2096921,219170,576834,0
2096921,2096921,218821,576924,0
2096921,2096921,218647,577050,0
2096921,2096921,218624,576949,0
2096921,2096921,218697,576930,0
2096921,2096921,218748,576672,0
2096921,2096921,218823,576467,0
2096921,2096921,218977,576271,0
2096921,2096921,218906,576308,0
2096921,2096921,218821,576595,0
2096921,2096921,218817,576538,0
2096921,2096921,218951,576536,0
2096921,2096921,218855,576686,0
2096921,2096921,218897,576435,0
2096921,2096921,218753,576565,0
2096921,2096921,218823,576505,0
2096921,2096921,218687,576224,0
2096921,2096921,218794,576288,0
2096921,2096921,218688,576204,0
2096921,2096921,218676,576359,0
2096921,2096921,218884,576228,0
2096921,2096921,218943,576527,0
2096921,2096921,218509,576452,0
2096921,2096921,218775,576274,0
2096921,2096921,218564,575938,0
2096921,2096921,218412,575982,0
2096921,2096921,218086,576137,0
2096921,2096921,218348,575901,0
2096921,2096921,218475,575870,0
2096921,2096921,218440,575625,0
2096921,2096921,218358,575597,0
2096921,2096921,218179,575912,0
2096921,2096921,218083,575939,0
2096921,2096921,218112,575661,0
2096921,2096921,217962,575320,0
2096921,2096921,217878,574993,0
2096921,2096921,217752,575248,0
2096921,2096921,217864,575372,0
2096921,2096921,217651,574825,0
2096921,2096921,217566,574556,0
2096921,2096921,217780,574779,0
2096921,2096921,217742,575016,0
2096921,2096921,217337,574803,0
2096921,2096921,216907,574331,0
2096921,2096921,216976,574053,0
2096921,2096921,216946,573817,0
2096921,2096921,217054,573757,0
2096921,2096921,216072,573837,0
2096921,2096921,215965,573076,0
2096921,2096921,216195,573007,0
2096921,2096921,216314,572742,0
2096921,2096921,216195,572831,0
2096921,2096921,215250,572797,0
2096921,2096921,215117,571235,0
2096921,2096921,214775,570935,0
2096921,2096921,214851,570557,0
2096921,2096921,214738,570832,0
2096921,2096921,214241,570373,0
2096921,2096921,213717,569166,0
2096921,2096921,213567,569011,0
2096921,2096921,213989,568799,0
2096921,2096921,214300,569006,0
2096921,2096921,213339,568969,0
2096921,2096921,213197,568178,0
2096921,2096921,213507,567918,0
2096921,2096921,213248,567956,0
2096921,2096921,213134,567654,0
2096921,2096921,212422,567806,0
2096921,2096921,212396,567089,0
2096921,2096921,212594,567117,0
2096921,2096921,212346,567177,0
2096921,2096921,212574,567062,0
2096921,2096921,212473,567193,0
2096921,2096921,212131,566726,0
2096921,2096921,212241,566450,0
2096921,2096921,212291,566539,0
2096921,2096921,212116,566339,0
2096921,2096921,212091,566185,0
2096921,2096921,211908,565839,0
2096921,2096921,211754,565614,0
2096921,2096921,211887,565679,0
2096921,2096921,212215,566111,0
2096921,2096921,211632,565890,0
2096921,2096921,211765,565683,0
2096921,2096921,211578,565600,0
2096921,2096921,211918,565738,0
2096921,2096921,211451,565449,0
2096921,2096921,211518,565536,0
2096921,2096921,211500,565202,0
2096921,2096921,211258,565235,0
2096921,2096921,211678,565246,0
2096921,2096921,211525,565473,0
2096921,2096921,211491,565856,0
2096921,2096921,211718,565308,0
2096921,2096921,211752,565139,0
2096921,2096921,211751,565409,0
2096921,2096921,211272,565465,0
2096921,2096921,211240,565163,0
2096921,2096921,211528,565297,0
2096921,2096921,211366,565235,0
2096921,2096921,211467,565644,0
2096921,2096921,211630,565657,0
2096921,2096921,211720,565547,0
2096921,2096921,211721,565329,0
2096921,2096921,211694,565303,0
2096921,2096921,211701,565422,0
2096921,2096921,211475,565124,0
2096921,2096921,211603,565189,0
2096921,2096921,211600,565532,0
2096921,2096921,211527,565426,0
2096921,2096921,211871,565624,0
2096921,2096921,211948,565707,0
2096921,2096921,212105,565755,0
2096921,2096921,212175,565682,0
2096921,2096921,211939,566005,0
2096921,2096921,211807,565950,0
2096921,2096921,211763,565721,0
2096921,2096921,211767,565656,0
2096921,2096921,211725,565833,0
2096921,2096921,211742,565782,0
2096921,2096921,212020,565632,0
2096921,2096921,212060,566033,0
2096921,2096921,212095,566058,0
2096921,2096921,212652,566366,0
2096921,2096921,212236,566262,0
2096921,2096921,212133,566180,0
2096921,2096921,212280,566093,0
2096921,2096921,212335,566302,0
2096921,2096921,212567,566418,0
2096921,2096921,212399,566515,0
2096921,2096921,212296,566572,0
2096921,2096921,212583,566848,0
2096921,2096921,212915,566924,0
2096921,2096921,212642,566842,0
2096921,2096921,212599,567101,0
2096921,2096921,212866,566964,0
2096921,2096921,212682,566831,0
2096921,2096921,212906,567049,0
2096921,2096921,212695,567027,0
2096921,2096921,212780,567081,0
2096921,2096921,212840,567127,0
2096921,2096921,212746,567348,0
2096921,2096921,212874,567505,0
2096921,2096921,213199,567267,0
2096921,2096921,213081,567440,0
2096921,2096921,213036,567376,0
2096921,2096921,213173,567170,0
2096921,2096921,213366,567150,0
