2096921,2096921,164084,685406,0
2096921,2096921,164228,684927,0
2096921,2096921,164167,684763,0
2096921,2096921,164292,685101,0
2096921,2096921,164404,685060,0
2096921,2096921,164281,685117,0
2096921,2096921,163954,685419,0
2096921,2096921,164196,685025,0
2096921,2096921,164330,685179,0
2096921,2096921,164252,685146,0
2096921,2096921,164047,685121,0
2096921,2096921,163836,685546,0
2096921,2096921,164059,685242,0
2096921,2096921,164130,685214,0
2096921,2096921,164389,685527,0
2096921,2096921,164331,685276,0
2096921,2096921,164398,685311,0
2096921,2096921,164333,685337,0
2096921,2096921,164312,685253,0
2096921,2096921,164179,685175,0
2096921,2096921,164246,685275,0
2096921,2096921,164335,685335,0
2096921,2096921,164309,685459,0
2096921,2096921,164311,685119,0
2096921,2096921,164214,685462,0
2096921,2096921,163812,685444,0
2096921,2096921,164319,685613,0
2096921,2096921,164194,685178,0
2096921,2096921,163972,685310,0
2096921,2096921,163958,685291,0
2096921,2096921,164114,685269,0
2096921,2096921,164156,685234,0
2096921,2096921,164240,685367,0
2096921,2096921,164093,685545,0
2096921,2096921,164363,685438,0
2096921,2096921,164289,685538,0
2096921,2096921,164246,685438,0
2096921,2096921,164351,685420,0
2096921,2096921,164610,685633,0
2096921,2096921,164436,685186,0
2096921,2096921,164164,685418,0
2096921,2096921,164476,685463,0
2096921,2096921,164628,685335,0
2096921,2096921,164052,685462,0
2096921,2096921,164408,685715,0
2096921,2096921,164712,685593,0
2096921,2096921,164495,685703,0
2096921,2096921,164425,685539,0
2096921,2096921,164270,685547,0
2096921,2096921,164219,684724,0
2096921,2096921,164103,684942,0
2096921,2096921,164132,685073,0
2096921,2096921,163950,684695,0
2096921,2096921,164201,684868,0
2096921,2096921,164051,684612,0
2096921,2096921,163933,684688,0
2096921,2096921,163803,684664,0
2096921,2096921,164034,684286,0
2096921,2096921,164065,684440,0
2096921,2096921,163792,683545,0
2096921,2096921,163872,683410,0
2096921,2096921,163599,683342,0
2096921,2096921,163775,683399,0
2096921,2096921,163846,683288,0
2096921,2096921,163424,682391,0
2096921,2096921,163227,682097,0
2096921,2096921,163477,681928,0
2096921,2096921,163132,682064,0
2096921,2096921,163038,682287,0
2096921,2096921,162632,681004,0
2096921,2096921,163037,681164,0
2096921,2096921,162882,680943,0
2096921,2096921,162823,680615,0
2096921,2096921,162674,680791,0
2096921,2096921,162020,678669,0
2096921,2096921,161824,677997,0
2096921,2096921,161618,677623,0
2096921,2096921,161599,677928,0
2096921,2096921,161456,677808,0
2096921,2096921,160334,674660,0
2096921,2096921,160402,674391,0
2096921,2096921,160389,674350,0
2096921,2096921,160358,673919,0
2096921,2096921,160490,674154,0
2096921,2096921,159711,672053,0
2096921,2096921,159452,671281,0
2096921,2096921,159620,671256,0
2096921,2096921,159389,671382,0
2096921,2096921,159270,671312,0
2096921,2096921,158904,669320,0
2096921,2096921,158675,669317,0
2096921,2096921,158574,669458,0
2096921,2096921,158456,669054,0
2096921,2096921,158783,668853,0
2096921,2096921,158154,667923,0
2096921,2096921,158172,667668,0
2096921,2096921,158162,667889,0
2096921,2096921,158218,667311,0
2096921,2096921,158334,667479,0
2096921,2096921,157965,666473,0
2096921,2096921,157740,666322,0
2096921,2096921,157771,666347,0
2096921,2096921,157709,666396,0
2096921,2096921,157603,666351,0
2096921,2096921,157819,665803,0
2096921,2096921,157692,665514,0
2096921,2096921,157691,665729,0
2096921,2096921,157499,665642,0
2096921,2096921,157380,665503,0
2096921,2096921,157452,665365,0
2096921,2096921,157209,665081,0
2096921,2096921,157300,665013,0
2096921,2096921,157659,665293,0
2096921,2096921,157596,665013,0
2096921,2096921,157344,665545,0
2096921,2096921,157277,665161,0
2096921,2096921,157630,665278,0
2096921,2096921,157294,665181,0
2096921,2096921,157334,665137,0
2096921,2096921,157475,664960,0
2096921,2096921,157322,664689,0
2096921,2096921,157276,664949,0
2096921,2096921,157323,665120,0
2096921,2096921,157265,665277,0
2096921,2096921,157250,665442,0
2096921,2096921,157336,665503,0
2096921,2096921,157245,665725,0
2096921,2096921,157512,665517,0
2096921,2096921,157371,665399,0
2096921,2096921,157683,665439,0
2096921,2096921,157493,665464,0
2096921,2096921,157634,665490,0
2096921,2096921,157503,665835,0
2096921,2096921,157797,665797,0
2096921,2096921,157397,666007,0
2096921,2096921,157906,665798,0
2096921,2096921,157475,665758,0
2096921,2096921,157784,665798,0
2096921,2096921,157599,665813,0
2096921,2096921,157691,665815,0
2096921,2096921,157872,666496,0
2096921,2096921,157773,666273,0
2096921,2096921,157830,666402,0
2096921,2096921,157945,665980,0
2096921,2096921,158275,666876,0
2096921,2096921,158103,666950,0
2096921,2096921,158297,666933,0
2096921,2096921,158049,666695,0
2096921,2096921,157956,667264,0
2096921,2096921,158040,667248,0
2096921,2096921,157950,667409,0
2096921,2096921,158352,667399,0
2096921,2096921,158585,667801,0
2096921,2096921,158568,667725,0
2096921,2096921,158308,667962,0
2096921,2096921,158234,668207,0
2096921,2096921,158431,668569,0
2096921,2096921,158432,668103,0
2096921,2096921,158665,668266,0
2096921,2096921,158459,668686,0
2096921,2096921,158653,668726,0
2096921,2096921,158635,668755,0
2096921,2096921,158726,668943,0
2096921,2096921,158858,668978,0
2096921,2096921,159044,669339,0
2096921,2096921,158674,669316,0
2096921,2096921,158599,669468,0
2096921,2096921,158650,669623,0
2096921,2096921,158946,669297,0
2096921,2096921,159096,669732,0
2096921,2096921,158958,669811,0
2096921,2096921,158923,669860,0
2096921,2096921,159129,670068,0
2096921,2096921,159002,669793,0
2096921,2096921,159274,670625,0
2096921,2096921,159296,670698,0
2096921,2096921,159522,670722,0
2096921,2096921,159229,670703,0
2096921,2096921,159170,670710,0
2096921,2096921,159634,671227,0
2096921,2096921,159813,671179,0
2096921,2096921,159358,671537,0
2096921,2096921,159322,671483,0
2096921,2096921,159577,671489,0
2096921,2096921,159496,672256,0
2096921,2096921,159604,672047,0
2096921,2096921,159645,672251,0
2096921,2096921,159961,672053,0
2096921,2096921,159641,671969,0
2096921,2096921,159751,672436,0
2096921,2096921,160116,672558,0
2096921,2096921,160209,672785,0
2096921,2096921,160137,672847,0
2096921,2096921,160122,673043,0
2096921,2096921,160494,673491,0
2096921,2096921,160395,673419,0
2096921,2096921,160413,673501,0
2096921,2096921,160313,673583,0
2096921,2096921,160103,673469,0
2096921,2096921,160142,673702,0
2096921,2096921,160320,673971,0
2096921,2096921,160359,673996,0
2096921,2096921,160340,673994,0
2096921,2096921,159948,674263,0
2096921,2096921,160324,674499,0
2096921,2096921,160443,674454,0
2096921,2096921,160632,674412,0
2096921,2096921,160440,674417,0
2096921,2096921,160544,674224,0
2096921,2096921,160709,674406,0
2096921,2096921,160845,674858,0
2096921,2096921,160564,674713,0
2096921,2096921,160916,674877,0
2096921,2096921,160719,675057,0
2096921,2096921,160831,675001,0
2096921,2096921,160908,675131,0
2096921,2096921,160891,674800,0
2096921,2096921,160987,675245,0
2096921,2096921,160819,675004,0
2096921,2096921,160770,675193,0
2096921,2096921,160754,674989,0
2096921,2096921,160923,674932,0
2096921,2096921,160789,675100,0
2096921,2096921,160663,675153,0
2096921,2096921,160627,674928,0
2096921,2096921,160903,675216,0
2096921,2096921,160878,675139,0
2096921,2096921,160858,675056,0
2096921,2096921,160780,674961,0
2096921,2096921,160880,674917,0
2096921,2096921,160690,674924,0
2096921,2096921,160539,674965,0
2096921,2096921,160827,674983,0
2096921,2096921,160776,675115,0
2096921,2096921,160804,674938,0
2096921,2096921,160789,674777,0
2096921,2096921,160911,674726,0
2096921,2096921,160757,674598,0
2096921,2096921,160458,674950,0
2096921,2096921,160604,674431,0
2096921,2096921,160508,674346,0
2096921,2096921,160467,674378,0
2096921,2096921,160626,674311,0
2096921,2096921,160856,674344,0
2096921,2096921,160791,674255,0
2096921,2096921,160623,674038,0
2096921,2096921,160423,673988,0
2096921,2096921,160556,674216,0
2096921,2096921,160848,674102,0
2096921,2096921,160524,673917,0
2096921,2096921,160595,674033,0
2096921,2096921,160618,674037,0
2096921,2096921,160753,673867,0
2096921,2096921,160520,674073,0
2096921,2096921,160514,673804,0
2096921,2096921,160389,673665,0
2096921,2096921,160687,673428,0
2096921,2096921,160308,673618,0
2096921,2096921,160176,673598,0
2096921,2096921,160406,673295,0
2096921,2096921,160531,672970,0
2096921,2096921,160228,673628,0
2096921,2096921,160361,673390,0
2096921,2096921,160461,673545,0
2096921,2096921,160142,673290,0
2096921,2096921,160155,673511,0
2096921,2096921,160461,673284,0
2096921,2096921,160237,673354,0
2096921,2096921,160140,673266,0
2096921,2096921,160183,673264,0
2096921,2096921,160265,673107,0
2096921,2096921,159966,673519,0
2096921,2096921,160351,673416,0
2096921,2096921,160473,673460,0
2096921,2096921,160563,673529,0
2096921,2096921,160582,673566,0
2096921,2096921,160191,673577,0
2096921,2096921,160330,673422,0
2096921,2096921,160148,673314,0
2096921,2096921,160294,673398,0
2096921,2096921,160350,673625,0
2096921,2096921,160382,673534,0
2096921,2096921,160246,673584,0
2096921,2096921,160263,673779,0
2096921,2096921,160457,674258,0
2096921,2096921,160490,673720,0
2096921,2096921,160421,674105,0
2096921,2096921,160280,674027,0
2096921,2096921,160485,674024,0
2096921,2096921,160404,673981,0
2096921,2096921,160605,674391,0
2096921,2096921,160593,674135,0
2096921,2096921,160702,673804,0
2096921,2096921,160627,674314,0
2096921,2096921,160804,674594,0
2096921,2096921,160842,674649,0
2096921,2096921,160877,674693,0
2096921,2096921,160381,674660,0
2096921,2096921,160736,674524,0
2096921,2096921,161106,674700,0
2096921,2096921,161109,674893,0
2096921,2096921,160730,674880,0
2096921,2096921,160904,674997,0
2096921,2096921,160607,674844,0
2096921,2096921,160776,675166,0
2096921,2096921,160916,675122,0
2096921,2096921,161102,674987,0
2096921,2096921,161062,674893,0
2096921,2096921,160907,675111,0
2096921,2096921,160972,675339,0
2096921,2096921,160832,674953,0
2096921,2096921,160981,675190,0
2096921,2096921,161101,675727,0
2096921,2096921,160980,675568,0
2096921,2096921,161252,675807,0
2096921,2096921,161326,675630,0
2096921,2096921,161213,675246,0
2096921,2096921,161190,675610,0
2096921,2096921,161126,675511,0
2096921,2096921,161077,675407,0
2096921,2096921,161299,675730,0
2096921,2096921,161504,675703,0
2096921,2096921,161225,675721,0
2096921,2096921,161547,675801,0
2096921,2096921,161506,676126,0
2096921,2096921,161500,676062,0
2096921,2096921,161531,675983,0
2096921,2096921,161455,676101,0
2096921,2096921,161123,676289,0
2096921,2096921,161269,675887,0
2096921,2096921,161407,676179,0
2096921,2096921,161052,676310,0
2096921,2096921,161216,676394,0
2096921,2096921,161443,676253,0
2096921,2096921,161627,676649,0
2096921,2096921,161353,676609,0
2096921,2096921,161292,676380,0
2096921,2096921,161724,676317,0
2096921,2096921,161465,676211,0
2096921,2096921,161454,676514,0
2096921,2096921,161446,676602,0
2096921,2096921,161352,676673,0
2096921,2096921,161519,676591,0
2096921,2096921,161601,676702,0
2096921,2096921,161759,676690,0
2096921,2096921,161679,676698,0
2096921,2096921,162008,676944,0
2096921,2096921,161782,676737,0
2096921,2096921,161766,676567,0
2096921,2096921,161366,676506,0
2096921,2096921,161556,676813,0
2096921,2096921,161705,676535,0
2096921,2096921,161557,676557,0
2096921,2096921,161668,676892,0
2096921,2096921,161788,677231,0
2096921,2096921,161917,677065,0
2096921,2096921,161577,676890,0
2096921,2096921,161590,676994,0
2096921,2096921,161459,677264,0
2096921,2096921,161688,676860,0
2096921,2096921,161876,676753,0
2096921,2096921,161883,677403,0
2096921,2096921,161970,677275,0
2096921,2096921,162013,677410,0
2096921,2096921,161560,677520,0
2096921,2096921,161976,677493,0
2096921,2096921,162003,677248,0
2096921,2096921,161935,677144,0
2096921,2096921,161796,677297,0
2096921,2096921,162012,677219,0
2096921,2096921,161820,677148,0
2096921,2096921,161784,677045,0
2096921,2096921,161820,677102,0
2096921,2096921,162087,677503,0
2096921,2096921,161862,677610,0
2096921,2096921,162128,677582,0
2096921,2096921,161964,677787,0
2096921,2096921,161840,677469,0
2096921,2096921,161993,677481,0
2096921,2096921,161624,677307,0
2096921,2096921,161718,677708,0
2096921,2096921,161784,677473,0
2096921,2096921,161923,677457,0
2096921,2096921,162104,677286,0
2096921,2096921,161959,677599,0
2096921,2096921,161697,677502,0
2096921,2096921,162003,677403,0
2096921,2096921,162017,677196,0
2096921,2096921,161976,677133,0
2096921,2096921,162162,677264,0
2096921,2096921,162323,677437,0
2096921,2096921,162215,677732,0
2096921,2096921,162187,677692,0
2096921,2096921,162260,677581,0
2096921,2096921,162232,677458,0
2096921,2096921,161996,677898,0
2096921,2096921,162141,677183,0
2096921,2096921,161794,677489,0
2096921,2096921,161900,677693,0
2096921,2096921,162113,677491,0
2096921,2096921,162138,677805,0
2096921,2096921,161834,677483,0
2096921,2096921,162242,677242,0
2096921,2096921,162149,677444,0
2096921,2096921,162255,677133,0
2096921,2096921,162205,677633,0
2096921,2096921,162119,677439,0
2096921,2096921,162050,677367,0
2096921,2096921,161878,677607,0
2096921,2096921,162248,677361,0
2096921,2096921,162295,677292,0
2096921,2096921,162021,677501,0
2096921,2096921,162125,677536,0
2096921,2096921,161993,677389,0
2096921,2096921,161985,677457,0
2096921,2096921,162074,677272,0
2096921,2096921,161699,677461,0
2096921,2096921,162186,677235,0
2096921,2096921,161892,677432,0
2096921,2096921,162185,677485,0
2096921,2096921,162140,677244,0
2096921,2096921,162032,677408,0
2096921,2096921,162054,677219,0
2096921,2096921,161944,677508,0
2096921,2096921,162248,677228,0
2096921,2096921,162049,677235,0
2096921,2096921,162169,677467,0
2096921,2096921,162172,677417,0
2096921,2096921,162077,677119,0
2096921,2096921,162238,677197,0
2096921,2096921,162423,677057,0
2096921,2096921,162321,677013,0
2096921,2096921,161816,677201,0
2096921,2096921,161928,677113,0
2096921,2096921,162141,677018,0
2096921,2096921,162240,677109,0
2096921,2096921,162082,677160,0
2096921,2096921,161977,677035,0
2096921,2096921,162198,677201,0
2096921,2096921,161995,676927,0
2096921,2096921,162085,677180,0
2096921,2096921,161893,677134,0
2096921,2096921,162275,677076,0
2096921,2096921,162091,676871,0
2096921,2096921,162179,677020,0
2096921,2096921,162301,676952,0
2096921,2096921,162407,676782,0
2096921,2096921,161999,676816,0
2096921,2096921,161637,677079,0
2096921,2096921,161958,676658,0
2096921,2096921,162030,676684,0
2096921,2096921,162038,677040,0
2096921,2096921,162006,676675,0
2096921,2096921,161705,676700,0
2096921,2096921,161908,676548,0
2096921,2096921,161854,676681,0
2096921,2096921,161927,676613,0
2096921,2096921,161994,676538,0
2096921,2096921,162037,676363,0
2096921,2096921,162062,676338,0
2096921,2096921,161976,676293,0
2096921,2096921,161900,676161,0
2096921,2096921,161813,676232,0
2096921,2096921,162086,676183,0
2096921,2096921,161875,676375,0
2096921,2096921,162013,676482,0
2096921,2096921,161974,676470,0
2096921,2096921,162053,676025,0
2096921,2096921,161871,676150,0
2096921,2096921,161897,676026,0
2096921,2096921,161829,676142,0
2096921,2096921,162086,676133,0
2096921,2096921,161723,676204,0
2096921,2096921,162032,676142,0
2096921,2096921,161849,676178,0
2096921,2096921,161993,675975,0
2096921,2096921,161730,676092,0
2096921,2096921,161746,675879,0
2096921,2096921,161840,675978,0
2096921,2096921,161772,675941,0
2096921,2096921,161936,675928,0
2096921,2096921,162071,675727,0
2096921,2096921,161918,675706,0
2096921,2096921,161808,675641,0
2096921,2096921,161865,675690,0
2096921,2096921,161932,675777,0
2096921,2096921,161893,675701,0
2096921,2096921,161707,675671,0
2096921,2096921,162122,675990,0
2096921,2096921,161964,675370,0
2096921,2096921,162118,675314,0
2096921,2096921,161871,675496,0
2096921,2096921,162068,675086,0
2096921,2096921,161961,675381,0
2096921,2096921,161938,675532,0
2096921,2096921,161542,675744,0
2096921,2096921,161860,675354,0
2096921,2096921,161944,675594,0
2096921,2096921,161718,675441,0
2096921,2096921,161801,675143,0
2096921,2096921,161652,675086,0
2096921,2096921,161331,675120,0
2096921,2096921,161709,674983,0
2096921,2096921,161421,675130,0
2096921,2096921,161697,674988,0
2096921,2096921,161827,674929,0
2096921,2096921,161761,675040,0
2096921,2096921,161693,674653,0
2096921,2096921,161634,674842,0
2096921,2096921,161606,674791,0
2096921,2096921,161433,674717,0
2096921,2096921,161511,674467,0
2096921,2096921,161531,674617,0
2096921,2096921,161493,674468,0
2096921,2096921,161301,674338,0
2096921,2096921,161631,674594,0
2096921,2096921,161315,674500,0
2096921,2096921,161552,674093,0
2096921,2096921,161314,673917,0
2096921,2096921,161474,674454,0
2096921,2096921,161241,674523,0
2096921,2096921,161396,674176,0
2096921,2096921,161592,674039,0
2096921,2096921,161661,674180,0
2096921,2096921,161578,674102,0
2096921,2096921,161366,673833,0
2096921,2096921,161177,674068,0
2096921,2096921,161639,673802,0
2096921,2096921,161624,673942,0
2096921,2096921,161501,673757,0
2096921,2096921,161278,673811,0
2096921,2096921,161383,673474,0
2096921,2096921,161660,673286,0
2096921,2096921,161505,673698,0
2096921,2096921,161394,673457,0
2096921,2096921,161144,673297,0
2096921,2096921,161480,673417,0
2096921,2096921,161348,673237,0
2096921,2096921,161241,673013,0
2096921,2096921,161263,672789,0
2096921,2096921,161191,673115,0
2096921,2096921,161206,673100,0
2096921,2096921,161278,672975,0
2096921,2096921,161186,673389,0
2096921,2096921,161238,672982,0
2096921,2096921,161109,673027,0
2096921,2096921,161313,672768,0
2096921,2096921,161036,672896,0
2096921,2096921,161157,672836,0
2096921,2096921,161095,671871,0
2096921,2096921,160867,672293,0
2096921,2096921,161097,671919,0
2096921,2096921,160928,672066,0
2096921,2096921,160769,671929,0
2096921,2096921,160731,671382,0
2096921,2096921,160609,671378,0
2096921,2096921,160805,671250,0
2096921,2096921,160793,671290,0
2096921,2096921,160718,671301,0
2096921,2096921,160204,670218,0
2096921,2096921,160123,670054,0
2096921,2096921,160104,670007,0
2096921,2096921,160061,670137,0
2096921,2096921,160264,670141,0
2096921,2096921,159808,669089,0
2096921,2096921,159990,668550,0
2096921,2096921,159713,668494,0
2096921,2096921,159888,668499,0
2096921,2096921,159705,668844,0
2096921,2096921,159510,667558,0
2096921,2096921,159363,667470,0
2096921,2096921,159515,667363,0
2096921,2096921,159295,667300,0
2096921,2096921,159488,667305,0
2096921,2096921,158672,665128,0
2096921,2096921,158342,664145,0
2096921,2096921,158254,663943,0
2096921,2096921,158551,664066,0
2096921,2096921,158552,664007,0
2096921,2096921,157382,660958,0
2096921,2096921,156926,659949,0
2096921,2096921,157081,659768,0
2096921,2096921,157160,659971,0
2096921,2096921,157081,659922,0
2096921,2096921,156158,657796,0
2096921,2096921,155888,657367,0
2096921,2096921,156301,657220,0
2096921,2096921,155952,657016,0
2096921,2096921,155971,657073,0
2096921,2096921,155544,655415,0
2096921,2096921,155299,654987,0
2096921,2096921,155234,654784,0
2096921,2096921,155395,654716,0
2096921,2096921,155196,655155,0
2096921,2096921,154689,653503,0
2096921,2096921,154745,653271,0
2096921,2096921,154637,653108,0
2096921,2096921,154412,653087,0
2096921,2096921,154443,652828,0
2096921,2096921,154316,651918,0
2096921,2096921,154108,651699,0
2096921,2096921,154391,651676,0
2096921,2096921,154273,651637,0
2096921,2096921,154238,651740,0
2096921,2096921,154081,651102,0
2096921,2096921,153927,650760,0
2096921,2096921,153887,650819,0
2096921,2096921,154148,651311,0
2096921,2096921,153997,651075,0
2096921,2096921,153667,650132,0
2096921,2096921,153552,650196,0
2096921,2096921,153758,650237,0
2096921,2096921,153853,650200,0
2096921,2096921,153901,649999,0
2096921,2096921,153751,649726,0
2096921,2096921,153678,649725,0
2096921,2096921,153623,649828,0
2096921,2096921,153733,649831,0
2096921,2096921,153474,649732,0
2096921,2096921,153586,649365,0
2096921,2096921,153509,649348,0
2096921,2096921,153811,649417,0
2096921,2096921,153653,649492,0
2096921,2096921,153543,649526,0
2096921,2096921,153719,649805,0
2096921,2096921,153786,649472,0
2096921,2096921,153569,649529,0
2096921,2096921,153552,649591,0
2096921,2096921,153548,649506,0
2096921,2096921,153303,649502,0
2096921,2096921,153587,649424,0
2096921,2096921,153785,649339,0
2096921,2096921,153717,649322,0
2096921,2096921,153590,649471,0
2096921,2096921,153488,649834,0
2096921,2096921,153788,649621,0
2096921,2096921,153482,649516,0
2096921,2096921,153511,649660,0
2096921,2096921,153695,649579,0
2096921,2096921,153674,649957,0
2096921,2096921,153788,650021,0
2096921,2096921,153925,650168,0
2096921,2096921,153744,649718,0
2096921,2096921,153523,650028,0
2096921,2096921,153848,650356,0
2096921,2096921,153746,650343,0
2096921,2096921,153734,650466,0
2096921,2096921,153771,650100,0
2096921,2096921,153949,650277,0
2096921,2096921,154211,650584,0
2096921,2096921,153819,650769,0
2096921,2096921,154225,650823,0
2096921,2096921,154181,650806,0
2096921,2096921,154404,650993,0
2096921,2096921,154231,651080,0
2096921,2096921,154303,651344,0
2096921,2096921,154321,651439,0
2096921,2096921,154424,651105,0
2096921,2096921,154246,651033,0
2096921,2096921,154496,651389,0
2096921,2096921,154227,651681,0
2096921,2096921,154483,651709,0
2096921,2096921,154497,651544,0
2096921,2096921,154421,651692,0
2096921,2096921,154275,652018,0
2096921,2096921,154195,651908,0
2096921,2096921,154408,651977,0
2096921,2096921,154555,652036,0
2096921,2096921,154893,652009,0
2096921,2096921,154798,652261,0
2096921,2096921,154587,652304,0
2096921,2096921,154723,652336,0
2096921,2096921,154754,652337,0
2096921,2096921,154982,652452,0
2096921,2096921,154815,652937,0
2096921,2096921,154750,653271,0
2096921,2096921,154948,652957,0
2096921,2096921,154771,653303,0
2096921,2096921,155081,653323,0
2096921,2096921,154938,653525,0
2096921,2096921,155230,653455,0
2096921,2096921,155172,653593,0
2096921,2096921,155037,653621,0
2096921,2096921,155086,653555,0
2096921,2096921,155339,654068,0
2096921,2096921,155206,653904,0
2096921,2096921,155057,653659,0
2096921,2096921,154965,653892,0
2096921,2096921,155056,653870,0
2096921,2096921,155440,654149,0
2096921,2096921,155262,654288,0
2096921,2096921,155299,654606,0
2096921,2096921,155528,654375,0
2096921,2096921,155361,654459,0
2096921,2096921,155771,654931,0
2096921,2096921,155920,654574,0
2096921,2096921,155693,654645,0
2096921,2096921,155798,654836,0
2096921,2096921,155784,655091,0
2096921,2096921,155685,655112,0
2096921,2096921,155589,655348,0
2096921,2096921,155577,655542,0
2096921,2096921,155829,655178,0
2096921,2096921,155876,655010,0
2096921,2096921,155765,655935,0
2096921,2096921,155879,655581,0
2096921,2096921,155980,655477,0
2096921,2096921,155964,655464,0
2096921,2096921,155853,655893,0
2096921,2096921,156091,655872,0
2096921,2096921,156254,655872,0
2096921,2096921,156230,655903,0
2096921,2096921,156177,655903,0
2096921,2096921,156253,655967,0
2096921,2096921,155985,655929,0
2096921,2096921,156032,656063,0
2096921,2096921,156066,655866,0
2096921,2096921,155938,655989,0
2096921,2096921,156010,656070,0
2096921,2096921,156243,655837,0
2096921,2096921,156091,656081,0
2096921,2096921,156153,656101,0
2096921,2096921,156472,656263,0
2096921,2096921,156209,656271,0
2096921,2096921,156094,656131,0
2096921,2096921,156051,656050,0
2096921,2096921,156254,655797,0
2096921,2096921,156278,655986,0
2096921,2096921,155942,655925,0
2096921,2096921,156182,655726,0
2096921,2096921,156068,655627,0
2096921,2096921,156144,655903,0
2096921,2096921,156233,655748,0
2096921,2096921,156064,655863,0
2096921,2096921,155724,655695,0
2096921,2096921,155874,655798,0
2096921,2096921,156232,655688,0
2096921,2096921,155987,655720,0
2096921,2096921,155807,655747,0
2096921,2096921,156117,655475,0
2096921,2096921,155826,655381,0
2096921,2096921,155714,655384,0
2096921,2096921,156034,655187,0
2096921,2096921,156128,655167,0
2096921,2096921,155937,654753,0
2096921,2096921,155915,654836,0
2096921,2096921,155777,655123,0
2096921,2096921,155955,655072,0
2096921,2096921,155606,654914,0
2096921,2096921,155622,654449,0
2096921,2096921,155719,654723,0
2096921,2096921,155646,654870,0
2096921,2096921,155705,654993,0
2096921,2096921,155674,654828,0
2096921,2096921,155572,654695,0
2096921,2096921,155407,654453,0
2096921,2096921,155509,654422,0
2096921,2096921,155485,654259,0
2096921,2096921,155530,654198,0
2096921,2096921,155492,654205,0
2096921,2096921,155583,654204,0
2096921,2096921,155361,654142,0
2096921,2096921,155598,654327,0
2096921,2096921,155682,654194,0
2096921,2096921,155616,654213,0
2096921,2096921,155464,654201,0
2096921,2096921,155420,654078,0
2096921,2096921,155625,654437,0
2096921,2096921,155356,654290,0
2096921,2096921,155389,653909,0
2096921,2096921,155496,654126,0
2096921,2096921,155246,654367,0
2096921,2096921,155444,654333,0
2096921,2096921,155684,654387,0
2096921,2096921,155798,653978,0
2096921,2096921,155666,654324,0
2096921,2096921,155524,654312,0
2096921,2096921,155793,654313,0
2096921,2096921,155420,654313,0
2096921,2096921,155339,654367,0
2096921,2096921,155737,654322,0
2096921,2096921,155839,654116,0
2096921,2096921,155462,654565,0
2096921,2096921,155757,654417,0
2096921,2096921,155732,654980,0
2096921,2096921,155869,654871,0
2096921,2096921,155834,655143,0
2096921,2096921,155670,655016,0
2096921,2096921,155756,655070,0
2096921,2096921,156074,655405,0
2096921,2096921,155857,655532,0
2096921,2096921,156201,655306,0
2096921,2096921,155969,655423,0
2096921,2096921,156080,655482,0
2096921,2096921,156186,655961,0
2096921,2096921,155810,655991,0
2096921,2096921,155816,655959,0
2096921,2096921,156126,655873,0
2096921,2096921,155810,655782,0
2096921,2096921,155973,656147,0
2096921,2096921,156160,656355,0
2096921,2096921,156239,656125,0
2096921,2096921,156149,656297,0
2096921,2096921,156491,656392,0
2096921,2096921,156232,656648,0
2096921,2096921,156611,656267,0
2096921,2096921,156249,656875,0
2096921,2096921,156174,656771,0
2096921,2096921,156320,656624,0
2096921,2096921,156290,656744,0
2096921,2096921,156236,656820,0
2096921,2096921,156374,656688,0
2096921,2096921,156433,656859,0
2096921,2096921,156217,657057,0
2096921,2096921,156453,657017,0
2096921,2096921,156693,657243,0
2096921,2096921,156518,657359,0
2096921,2096921,156566,657185,0
2096921,2096921,156688,657457,0
2096921,2096921,156645,657873,0
2096921,2096921,156706,657543,0
2096921,2096921,156793,657711,0
2096921,2096921,156636,657430,0
2096921,2096921,156553,657453,0
2096921,2096921,156747,657619,0
2096921,2096921,156992,658108,0
2096921,2096921,156916,657982,0
2096921,2096921,156875,657845,0
2096921,2096921,156927,657820,0
2096921,2096921,156868,658239,0
2096921,2096921,156866,658181,0
2096921,2096921,157103,658538,0
2096921,2096921,157339,658569,0
2096921,2096921,157170,658673,0
2096921,2096921,157271,658946,0
2096921,2096921,157339,658815,0
2096921,2096921,157051,658996,0
2096921,2096921,157036,658718,0
2096921,2096921,157186,658717,0
2096921,2096921,157214,658959,0
2096921,2096921,157121,659091,0
2096921,2096921,157148,659163,0
2096921,2096921,157311,659313,0
2096921,2096921,157047,658966,0
2096921,2096921,157175,659407,0
2096921,2096921,157193,659260,0
2096921,2096921,157293,659606,0
2096921,2096921,157185,659462,0
2096921,2096921,157283,659444,0
2096921,2096921,157287,659500,0
2096921,2096921,157311,659745,0
2096921,2096921,157199,659816,0
2096921,2096921,157675,659744,0
2096921,2096921,157473,660080,0
2096921,2096921,157579,660133,0
2096921,2096921,157388,659964,0
2096921,2096921,157491,659825,0
2096921,2096921,157187,660051,0
2096921,2096921,157661,660067,0
2096921,2096921,157812,660383,0
2096921,2096921,157403,660319,0
2096921,2096921,157577,660369,0
2096921,2096921,157770,660280,0
2096921,2096921,157352,660559,0
2096921,2096921,157683,660712,0
2096921,2096921,157699,661062,0
2096921,2096921,157897,660655,0
2096921,2096921,157843,660803,0
2096921,2096921,157835,660603,0
2096921,2096921,157819,660655,0
2096921,2096921,157847,660850,0
2096921,2096921,157954,661079,0
2096921,2096921,157631,661091,0
2096921,2096921,157659,661091,0
2096921,2096921,157990,660979,0
2096921,2096921,157663,661421,0
2096921,2096921,157493,661378,0
2096921,2096921,157785,661275,0
2096921,2096921,157705,660955,0
2096921,2096921,158025,661415,0
2096921,2096921,157925,661418,0
2096921,2096921,157923,661212,0
2096921,2096921,158039,661450,0
2096921,2096921,158228,661570,0
2096921,2096921,158076,661880,0
2096921,2096921,157998,661835,0
2096921,2096921,158135,662043,0
2096921,2096921,158023,661881,0
2096921,2096921,157859,661636,0
2096921,2096921,158237,661707,0
2096921,2096921,157934,661767,0
2096921,2096921,158050,661992,0
2096921,2096921,158025,661681,0
2096921,2096921,158292,661640,0
2096921,2096921,158454,662083,0
2096921,2096921,158229,662417,0
2096921,2096921,158252,662145,0
2096921,2096921,158116,662042,0
2096921,2096921,158268,662390,0
2096921,2096921,158378,662284,0
2096921,2096921,158346,662340,0
2096921,2096921,158224,662208,0
2096921,2096921,158366,662426,0
2096921,2096921,158272,662425,0
2096921,2096921,158454,662695,0
2096921,2096921,158376,662822,0
2096921,2096921,158439,662374,0
2096921,2096921,158284,662537,0
2096921,2096921,158275,662641,0
2096921,2096921,158672,662937,0
2096921,2096921,158723,662564,0
2096921,2096921,158273,663126,0
2096921,2096921,158299,662880,0
2096921,2096921,158437,663048,0
2096921,2096921,158670,663284,0
2096921,2096921,158600,663072,0
2096921,2096921,158621,662847,0
2096921,2096921,158659,662978,0
2096921,2096921,158378,662888,0
2096921,2096921,158684,663080,0
2096921,2096921,158660,663011,0
2096921,2096921,158639,662980,0
2096921,2096921,158630,663248,0
2096921,2096921,158753,663063,0
2096921,2096921,159026,663523,0
2096921,2096921,159026,663441,0
2096921,2096921,158616,663124,0
2096921,2096921,158686,663168,0
2096921,2096921,158431,663011,0
2096921,2096921,158818,663347,0
2096921,2096921,158826,663236,0
2096921,2096921,158709,663314,0
2096921,2096921,158679,663626,0
2096921,2096921,158641,663469,0
2096921,2096921,158853,663647,0
2096921,2096921,158848,663706,0
2096921,2096921,158903,663743,0
2096921,2096921,158743,663334,0
2096921,2096921,158804,663488,0
2096921,2096921,158528,663458,0
2096921,2096921,158815,663536,0
2096921,2096921,158686,663540,0
2096921,2096921,158783,663547,0
2096921,2096921,158796,663733,0
2096921,2096921,158745,663893,0
2096921,2096921,158949,663729,0
2096921,2096921,158840,663681,0
2096921,2096921,158720,663826,0
2096921,2096921,158855,663692,0
2096921,2096921,158571,663579,0
2096921,2096921,158670,663575,0
2096921,2096921,158784,663617,0
2096921,2096921,159224,663821,0
2096921,2096921,159026,663976,0
2096921,2096921,159010,664163,0
2096921,2096921,158943,664029,0
2096921,2096921,158859,664131,0
2096921,2096921,158683,663702,0
2096921,2096921,158621,663659,0
2096921,2096921,158742,664252,0
2096921,2096921,158603,663957,0
2096921,2096921,158795,664303,0
2096921,2096921,158891,664457,0
2096921,2096921,158808,664338,0
2096921,2096921,158914,664239,0
2096921,2096921,159024,664328,0
2096921,2096921,158863,664256,0
2096921,2096921,159032,664211,0
2096921,2096921,158856,664231,0
2096921,2096921,159104,664546,0
2096921,2096921,159053,664628,0
2096921,2096921,159408,664524,0
2096921,2096921,159128,664642,0
2096921,2096921,159170,664517,0
2096921,2096921,158931,664930,0
2096921,2096921,158862,664516,0
2096921,2096921,159132,664715,0
2096921,2096921,159084,664461,0
2096921,2096921,158793,665005,0
2096921,2096921,158954,664786,0
2096921,2096921,158865,664546,0
2096921,2096921,158751,664723,0
2096921,2096921,158851,664781,0
2096921,2096921,159139,664607,0
2096921,2096921,159129,664919,0
2096921,2096921,159323,665062,0
2096921,2096921,159020,665015,0
2096921,2096921,158988,665056,0
2096921,2096921,158978,664831,0
2096921,2096921,158999,664912,0
2096921,2096921,159185,664918,0
2096921,2096921,159127,664985,0
2096921,2096921,159384,665140,0
2096921,2096921,159200,664730,0
2096921,2096921,159176,665185,0
2096921,2096921,159167,665130,0
2096921,2096921,159167,665190,0
2096921,2096921,159365,665266,0
2096921,2096921,159319,665062,0
2096921,2096921,159148,665273,0
2096921,2096921,159399,665102,0
2096921,2096921,159173,665267,0
2096921,2096921,159545,665172,0
2096921,2096921,159341,665274,0
2096921,2096921,159148,665488,0
2096921,2096921,159302,665735,0
2096921,2096921,159412,665409,0
2096921,2096921,159101,665632,0
2096921,2096921,159336,665587,0
2096921,2096921,159274,665473,0
2096921,2096921,159229,665703,0
2096921,2096921,159254,665647,0
2096921,2096921,159167,665316,0
2096921,2096921,159314,665270,0
2096921,2096921,159374,665464,0
2096921,2096921,159512,665704,0
2096921,2096921,159496,665662,0
2096921,2096921,159456,665683,0
2096921,2096921,159434,665510,0
2096921,2096921,159382,665380,0
2096921,2096921,159229,665280,0
2096921,2096921,159355,665742,0
2096921,2096921,159536,665805,0
2096921,2096921,159521,665678,0
2096921,2096921,159375,665458,0
2096921,2096921,159385,665604,0
2096921,2096921,159408,665877,0
2096921,2096921,159444,665895,0
2096921,2096921,159219,665551,0
2096921,2096921,159189,665527,0
2096921,2096921,159452,665799,0
2096921,2096921,159605,665902,0
2096921,2096921,159454,665733,0
2096921,2096921,159247,666012,0
2096921,2096921,159634,666208,0
2096921,2096921,159385,666025,0
2096921,2096921,159404,666161,0
2096921,2096921,159335,666113,0
2096921,2096921,159488,666041,0
2096921,2096921,159449,666108,0
2096921,2096921,159095,666047,0
2096921,2096921,159434,665886,0
2096921,2096921,159329,665977,0
2096921,2096921,158941,666034,0
2096921,2096921,159542,666296,0
2096921,2096921,159495,666267,0
2096921,2096921,159658,666154,0
2096921,2096921,159452,666404,0
2096921,2096921,159443,666202,0
2096921,2096921,159653,666062,0
2096921,2096921,159408,665459,0
2096921,2096921,159395,665987,0
2096921,2096921,159353,665953,0
2096921,2096921,159378,665632,0
2096921,2096921,159128,665390,0
2096921,2096921,159259,665563,0
2096921,2096921,159329,665395,0
2096921,2096921,159276,665384,0
2096921,2096921,159286,665316,0
2096921,2096921,159093,664781,0
2096921,2096921,159008,664461,0
2096921,2096921,158758,664422,0
2096921,2096921,158664,664436,0
2096921,2096921,159229,664365,0
2096921,2096921,158587,663687,0
2096921,2096921,158868,663624,0
2096921,2096921,158766,663500,0
2096921,2096921,158661,663652,0
2096921,2096921,158490,663777,0
2096921,2096921,158068,662528,0
2096921,2096921,158004,662645,0
2096921,2096921,158254,662400,0
2096921,2096921,158301,662333,0
2096921,2096921,158019,662029,0
2096921,2096921,157389,660030,0
2096921,2096921,157211,659699,0
2096921,2096921,157157,659436,0
2096921,2096921,157187,659203,0
2096921,2096921,157103,659617,0
2096921,2096921,156083,656980,0
2096921,2096921,156190,656049,0
2096921,2096921,156150,656092,0
2096921,2096921,155941,656059,0
2096921,2096921,156027,655955,0
2096921,2096921,155391,654026,0
2096921,2096921,155217,653608,0
2096921,2096921,155162,653566,0
2096921,2096921,155197,653357,0
2096921,2096921,155194,653544,0
2096921,2096921,154273,652094,0
2096921,2096921,154421,651524,0
2096921,2096921,154400,651645,0
2096921,2096921,154347,651681,0
2096921,2096921,154314,651841,0
2096921,2096921,154186,650971,0
2096921,2096921,153901,650363,0
2096921,2096921,154245,650138,0
2096921,2096921,154070,650534,0
2096921,2096921,153986,650496,0
2096921,2096921,153563,649638,0
2096921,2096921,153507,649298,0
2096921,2096921,153509,649638,0
2096921,2096921,153640,649481,0
2096921,2096921,153952,649343,0
2096921,2096921,153602,648863,0
2096921,2096921,153421,648756,0
2096921,2096921,153579,648577,0
2096921,2096921,153546,648847,0
2096921,2096921,153328,648812,0
2096921,2096921,153109,648347,0
2096921,2096921,153233,648502,0
2096921,2096921,153153,648735,0
2096921,2096921,153256,648760,0
2096921,2096921,153320,648639,0
2096921,2096921,153371,648794,0
2096921,2096921,153108,648742,0
2096921,2096921,153276,648696,0
2096921,2096921,153112,648742,0
2096921,2096921,153076,648833,0
2096921,2096921,153355,648802,0
2096921,2096921,152944,648702,0
2096921,2096921,153217,648794,0
2096921,2096921,153400,648674,0
2096921,2096921,153357,648708,0
2096921,2096921,153707,649075,0
2096921,2096921,153409,649298,0
2096921,2096921,153490,649656,0
2096921,2096921,153724,649432,0
2096921,2096921,153317,649488,0
2096921,2096921,153729,649577,0
2096921,2096921,153608,649768,0
2096921,2096921,153248,649676,0
2096921,2096921,153728,649479,0
2096921,2096921,153881,649338,0
2096921,2096921,153633,650184,0
2096921,2096921,153562,650402,0
2096921,2096921,153822,650138,0
2096921,2096921,153674,650129,0
2096921,2096921,153875,650211,0
2096921,2096921,153773,650533,0
2096921,2096921,153904,650814,0
2096921,2096921,153797,651134,0
2096921,2096921,153895,650819,0
2096921,2096921,153947,650826,0
2096921,2096921,153954,651534,0
2096921,2096921,154549,651813,0
2096921,2096921,154399,651818,0
2096921,2096921,154083,651636,0
2096921,2096921,154031,651617,0
2096921,2096921,154401,652252,0
2096921,2096921,154343,652420,0
2096921,2096921,154413,652596,0
2096921,2096921,154573,652580,0
2096921,2096921,154710,652556,0
2096921,2096921,154911,653194,0
2096921,2096921,154865,653412,0
2096921,2096921,154953,653462,0
2096921,2096921,154868,653652,0
2096921,2096921,154851,653624,0
2096921,2096921,155083,654003,0
2096921,2096921,155102,654088,0
2096921,2096921,155180,654348,0
2096921,2096921,155293,654495,0
2096921,2096921,155183,654295,0
2096921,2096921,155228,654895,0
2096921,2096921,155427,655030,0
2096921,2096921,155264,654966,0
2096921,2096921,155306,654987,0
2096921,2096921,155189,655106,0
2096921,2096921,155516,655731,0
2096921,2096921,155445,655654,0
2096921,2096921,155520,655747,0
2096921,2096921,155556,655997,0
2096921,2096921,155610,655916,0
2096921,2096921,156102,656447,0
2096921,2096921,156051,656842,0
2096921,2096921,155906,656616,0
2096921,2096921,155780,656814,0
2096921,2096921,155828,656823,0
2096921,2096921,156141,657324,0
2096921,2096921,156231,657243,0
2096921,2096921,156386,657591,0
2096921,2096921,156197,657687,0
2096921,2096921,156215,657742,0
2096921,2096921,156507,658392,0
2096921,2096921,156281,658484,0
2096921,2096921,156610,658438,0
2096921,2096921,156370,658584,0
2096921,2096921,156285,658490,0
2096921,2096921,156508,659339,0
2096921,2096921,156392,659272,0
2096921,2096921,156524,659500,0
2096921,2096921,156470,659387,0
2096921,2096921,156732,659306,0
2096921,2096921,156754,660282,0
2096921,2096921,156918,660346,0
2096921,2096921,156881,660236,0
2096921,2096921,156873,660239,0
2096921,2096921,156994,660136,0
2096921,2096921,157258,660961,0
2096921,2096921,157386,660984,0
2096921,2096921,157309,661107,0
2096921,2096921,157515,661082,0
2096921,2096921,157404,660967,0
2096921,2096921,157390,661707,0
2096921,2096921,157614,661876,0
2096921,2096921,157228,662087,0
2096921,2096921,157341,661923,0
2096921,2096921,157684,661766,0
2096921,2096921,157515,662816,0
2096921,2096921,157843,662645,0
2096921,2096921,157733,662680,0
2096921,2096921,157584,662874,0
2096921,2096921,157697,662681,0
2096921,2096921,157891,663290,0
2096921,2096921,157834,663063,0
2096921,2096921,157971,663343,0
2096921,2096921,157712,662915,0
2096921,2096921,157559,662827,0
2096921,2096921,157705,662942,0
2096921,2096921,157941,663498,0
2096921,2096921,157799,663328,0
2096921,2096921,157920,663485,0
2096921,2096921,158251,663275,0
2096921,2096921,158037,663895,0
2096921,2096921,157784,663888,0
2096921,2096921,158029,663715,0
2096921,2096921,157868,663733,0
2096921,2096921,157982,663752,0
2096921,2096921,158108,663974,0
2096921,2096921,158092,663889,0
2096921,2096921,157964,664023,0
2096921,2096921,158146,663746,0
2096921,2096921,157851,663929,0
2096921,2096921,158161,663909,0
2096921,2096921,157906,663938,0
2096921,2096921,158070,664049,0
2096921,2096921,158013,664273,0
2096921,2096921,158011,663985,0
2096921,2096921,157678,664205,0
2096921,2096921,158053,664277,0
2096921,2096921,158214,663973,0
2096921,2096921,158242,664140,0
2096921,2096921,157982,664097,0
2096921,2096921,158165,664204,0
2096921,2096921,158016,664252,0
2096921,2096921,157931,664137,0
2096921,2096921,157985,663622,0
2096921,2096921,157762,663983,0
2096921,2096921,158076,663885,0
2096921,2096921,158000,664233,0
2096921,2096921,158041,664282,0
2096921,2096921,157906,664081,0
2096921,2096921,158017,664358,0
2096921,2096921,158086,664408,0
2096921,2096921,158161,664284,0
2096921,2096921,158060,664400,0
2096921,2096921,158098,664147,0
2096921,2096921,158184,664090,0
2096921,2096921,158120,664488,0
2096921,2096921,158107,664565,0
2096921,2096921,158140,664302,0
2096921,2096921,158222,664416,0
2096921,2096921,158306,664541,0
2096921,2096921,158484,664816,0
2096921,2096921,158286,664660,0
2096921,2096921,158464,664613,0
2096921,2096921,158274,664486,0
2096921,2096921,158197,664354,0
2096921,2096921,158109,664815,0
2096921,2096921,158027,664926,0
2096921,2096921,158366,664943,0
2096921,2096921,158422,664966,0
2096921,2096921,158337,665272,0
2096921,2096921,158584,665564,0
2096921,2096921,158386,665206,0
2096921,2096921,158572,665441,0
2096921,2096921,158292,665141,0
2096921,2096921,158527,665390,0
2096921,2096921,158384,665688,0
2096921,2096921,158327,665849,0
2096921,2096921,158354,666027,0
2096921,2096921,158479,666019,0
2096921,2096921,158328,665868,0
2096921,2096921,158693,666592,0
2096921,2096921,158852,666834,0
2096921,2096921,158857,666787,0
2096921,2096921,158684,666486,0
2096921,2096921,158551,666681,0
2096921,2096921,158815,667130,0
2096921,2096921,159082,667188,0
2096921,2096921,159134,667295,0
2096921,2096921,158874,667421,0
2096921,2096921,158954,667371,0
2096921,2096921,159304,667982,0
2096921,2096921,159062,668157,0
2096921,2096921,159339,667882,0
2096921,2096921,159144,667423,0
2096921,2096921,158732,667868,0
2096921,2096921,159334,668395,0
2096921,2096921,159203,668526,0
2096921,2096921,159181,668611,0
2096921,2096921,159222,668505,0
2096921,2096921,159327,668719,0
2096921,2096921,159410,669236,0
2096921,2096921,159342,669450,0
2096921,2096921,159493,669428,0
2096921,2096921,159478,669280,0
2096921,2096921,159388,669544,0
2096921,2096921,159599,670016,0
2096921,2096921,159664,669983,0
2096921,2096921,159869,670007,0
2096921,2096921,159818,669696,0
2096921,2096921,159894,669773,0
2096921,2096921,159792,670413,0
2096921,2096921,159807,670693,0
2096921,2096921,159822,670607,0
2096921,2096921,159895,670186,0
2096921,2096921,159853,670632,0
2096921,2096921,159981,670948,0
2096921,2096921,160191,670965,0
2096921,2096921,159879,671185,0
2096921,2096921,159810,671162,0
2096921,2096921,160078,670938,0
2096921,2096921,160366,671689,0
2096921,2096921,160388,672036,0
2096921,2096921,160109,671982,0
2096921,2096921,160071,672095,0
2096921,2096921,160330,671699,0
2096921,2096921,160632,672150,0
2096921,2096921,160531,672472,0
2096921,2096921,160450,672459,0
2096921,2096921,160649,672391,0
2096921,2096921,160539,672413,0
2096921,2096921,160769,672341,0
2096921,2096921,161005,672776,0
2096921,2096921,160567,672987,0
2096921,2096921,160781,673038,0
2096921,2096921,160643,673001,0
2096921,2096921,160880,673324,0
2096921,2096921,160709,673226,0
2096921,2096921,160993,673553,0
2096921,2096921,161004,673243,0
2096921,2096921,160551,673547,0
2096921,2096921,160916,673887,0
2096921,2096921,160984,674011,0
2096921,2096921,160860,673866,0
2096921,2096921,160958,674250,0
2096921,2096921,160969,674017,0
2096921,2096921,161165,674698,0
2096921,2096921,160960,674725,0
2096921,2096921,160912,674617,0
2096921,2096921,161014,674806,0
2096921,2096921,161192,674723,0
2096921,2096921,161314,675253,0
2096921,2096921,161230,675443,0
2096921,2096921,161394,675195,0
2096921,2096921,161079,675260,0
2096921,2096921,161278,675258,0
2096921,2096921,161568,675706,0
2096921,2096921,161701,675730,0
2096921,2096921,161588,675860,0
2096921,2096921,161644,675650,0
2096921,2096921,161400,675836,0
2096921,2096921,161650,676110,0
2096921,2096921,161493,676282,0
2096921,2096921,161713,676312,0
2096921,2096921,161403,676371,0
2096921,2096921,161641,676554,0
2096921,2096921,161638,676727,0
2096921,2096921,161812,676955,0
2096921,2096921,161678,676950,0
2096921,2096921,161926,676922,0
2096921,2096921,161923,676983,0
2096921,2096921,162002,677297,0
2096921,2096921,162001,677407,0
2096921,2096921,161801,677298,0
2096921,2096921,162066,677357,0
2096921,2096921,161993,677392,0
2096921,2096921,162059,677671,0
2096921,2096921,162006,677746,0
2096921,2096921,161754,677795,0
2096921,2096921,162342,677780,0
2096921,2096921,162334,677750,0
2096921,2096921,162014,677869,0
2096921,2096921,161989,678029,0
2096921,2096921,161949,678276,0
2096921,2096921,162254,678290,0
2096921,2096921,162151,678465,0
2096921,2096921,162475,678670,0
2096921,2096921,162422,678416,0
2096921,2096921,162719,678543,0
2096921,2096921,162492,678724,0
2096921,2096921,162242,678481,0
2096921,2096921,162438,678875,0
2096921,2096921,162660,678997,0
2096921,2096921,162447,679271,0
2096921,2096921,162415,678954,0
2096921,2096921,162310,679041,0
2096921,2096921,162467,679440,0
2096921,2096921,162647,679380,0
2096921,2096921,162790,679116,0
2096921,2096921,162660,679624,0
2096921,2096921,162524,679194,0
2096921,2096921,162658,680206,0
2096921,2096921,162828,679825,0
2096921,2096921,162704,679739,0
2096921,2096921,162772,679724,0
2096921,2096921,162851,679438,0
2096921,2096921,162675,680064,0
2096921,2096921,162608,680265,0
2096921,2096921,162836,679959,0
2096921,2096921,162654,680122,0
2096921,2096921,162743,680367,0
2096921,2096921,163019,680575,0
2096921,2096921,162981,680618,0
2096921,2096921,162740,680704,0
2096921,2096921,162611,680388,0
2096921,2096921,162505,680534,0
2096921,2096921,162791,680880,0
2096921,2096921,163020,680850,0
2096921,2096921,162828,680734,0
2096921,2096921,163056,680934,0
2096921,2096921,162951,680925,0
2096921,2096921,162918,681072,0
2096921,2096921,163010,681033,0
2096921,2096921,163228,681246,0
2096921,2096921,163090,681742,0
2096921,2096921,162770,680987,0
2096921,2096921,163296,681438,0
2096921,2096921,163330,681386,0
2096921,2096921,163308,681487,0
2096921,2096921,163460,681474,0
2096921,2096921,163337,681701,0
2096921,2096921,163511,681858,0
2096921,2096921,163523,681991,0
2096921,2096921,163445,681885,0
2096921,2096921,163286,681858,0
2096921,2096921,162930,681861,0
2096921,2096921,163504,682082,0
2096921,2096921,163346,682034,0
2096921,2096921,163178,681906,0
2096921,2096921,163481,682171,0
2096921,2096921,163294,682119,0
2096921,2096921,163314,682136,0
2096921,2096921,163391,682236,0
2096921,2096921,163464,682526,0
2096921,2096921,163441,682268,0
2096921,2096921,163281,682139,0
2096921,2096921,163551,682467,0
2096921,2096921,163550,682484,0
2096921,2096921,163365,682429,0
2096921,2096921,163426,682586,0
2096921,2096921,163467,682617,0
2096921,2096921,163755,682502,0
2096921,2096921,163683,682716,0
2096921,2096921,163616,683217,0
2096921,2096921,163602,683073,0
2096921,2096921,163773,682736,0
2096921,2096921,163638,683041,0
2096921,2096921,163666,683337,0
2096921,2096921,163773,683090,0
2096921,2096921,163656,683043,0
2096921,2096921,163660,682953,0
2096921,2096921,163766,683411,0
2096921,2096921,163890,683375,0
2096921,2096921,163680,683524,0
2096921,2096921,163804,683321,0
2096921,2096921,163753,683338,0
2096921,2096921,164135,683772,0
2096921,2096921,163777,683725,0
2096921,2096921,163928,683751,0
2096921,2096921,163947,683553,0
2096921,2096921,163724,684024,0
2096921,2096921,163795,683854,0
2096921,2096921,163957,683841,0
2096921,2096921,164145,683645,0
2096921,2096921,163732,683953,0
2096921,2096921,163964,684038,0
2096921,2096921,164082,684152,0
2096921,2096921,163809,683942,0
2096921,2096921,163987,683880,0
2096921,2096921,163874,683807,0
2096921,2096921,164233,684113,0
2096921,2096921,164134,684130,0
2096921,2096921,164160,684066,0
2096921,2096921,164079,684536,0
2096921,2096921,164387,684268,0
2096921,2096921,164173,684286,0
2096921,2096921,164144,684317,0
2096921,2096921,164171,684543,0
2096921,2096921,164008,684620,0
2096921,2096921,164178,684809,0
2096921,2096921,163886,684390,0
2096921,2096921,163958,684600,0
2096921,2096921,164129,684587,0
2096921,2096921,164251,684880,0
2096921,2096921,164023,684668,0
2096921,2096921,164185,684745,0
2096921,2096921,164040,684646,0
2096921,2096921,164154,684803,0
2096921,2096921,164197,684897,0
2096921,2096921,164275,684801,0
2096921,2096921,164247,685056,0
2096921,2096921,164346,684769,0
2096921,2096921,163872,684883,0
2096921,2096921,164211,684799,0
2096921,2096921,164033,685046,0
2096921,2096921,164493,685168,0
2096921,2096921,164325,685080,0
2096921,2096921,164125,684957,0
2096921,2096921,164200,685183,0
2096921,2096921,164052,684994,0
2096921,2096921,164217,685077,0
2096921,2096921,164443,684995,0
2096921,2096921,164229,685052,0
2096921,2096921,164247,685480,0
2096921,2096921,164125,684950,0
2096921,2096921,164311,685088,0
2096921,2096921,164364,685199,0
2096921,2096921,164088,685157,0
2096921,2096921,164067,685082,0
2096921,2096921,164085,685292,0
2096921,2096921,164216,685127,0
2096921,2096921,164269,685285,0
2096921,2096921,164519,685282,0
2096921,2096921,164282,685132,0
2096921,2096921,164091,685165,0
2096921,2096921,164103,685082,0
2096921,2096921,164155,684909,0
2096921,2096921,164018,684970,0
2096921,2096921,164291,685094,0
2096921,2096921,164350,685011,0
2096921,2096921,164326,685069,0
2096921,2096921,164317,685121,0
2096921,2096921,164144,685264,0
2096921,2096921,164399,685731,0
2096921,2096921,164158,685289,0
2096921,2096921,164088,685538,0
2096921,2096921,164306,685545,0
2096921,2096921,164453,685344,0
2096921,2096921,164594,685442,0
2096921,2096921,164407,685557,0
2096921,2096921,164431,685224,0
2096921,2096921,164407,685400,0
2096921,2096921,164184,685494,0
2096921,2096921,164408,685405,0
2096921,2096921,164438,685510,0
2096921,2096921,164292,685076,0
2096921,2096921,164028,685125,0
2096921,2096921,163928,684905,0
2096921,2096921,164121,684781,0
2096921,2096921,164162,684335,0
2096921,2096921,163683,684825,0
2096921,2096921,163981,684395,0
2096921,2096921,163963,684053,0
2096921,2096921,163984,684195,0
2096921,2096921,163815,684413,0
2096921,2096921,163892,683990,0
2096921,2096921,163506,683434,0
2096921,2096921,163606,683311,0
2096921,2096921,163569,683398,0
2096921,2096921,163697,683188,0
2096921,2096921,163554,683410,0
2096921,2096921,163198,682403,0
2096921,2096921,163090,682238,0
2096921,2096921,163231,682152,0
2096921,2096921,163137,682054,0
2096921,2096921,163212,682322,0
2096921,2096921,162940,680989,0
2096921,2096921,162715,680937,0
2096921,2096921,162435,680987,0
2096921,2096921,162667,680942,0
2096921,2096921,162755,680761,0
2096921,2096921,161795,678236,0
2096921,2096921,162029,677404,0
2096921,2096921,161693,677853,0
2096921,2096921,161695,677613,0
2096921,2096921,161238,677645,0
2096921,2096921,160492,674930,0
2096921,2096921,160289,674014,0
2096921,2096921,160202,673535,0
2096921,2096921,160331,673881,0
2096921,2096921,160308,674017,0
2096921,2096921,159895,672084,0
2096921,2096921,159694,671585,0
2096921,2096921,159645,671281,0
2096921,2096921,159358,671119,0
2096921,2096921,159340,671289,0
2096921,2096921,158797,669576,0
2096921,2096921,158894,669444,0
2096921,2096921,158843,668937,0
2096921,2096921,158544,668977,0
2096921,2096921,158484,669248,0
2096921,2096921,158229,667986,0
2096921,2096921,158419,667933,0
2096921,2096921,158311,667879,0
2096921,2096921,158023,667721,0
2096921,2096921,158193,667327,0
2096921,2096921,157772,666484,0
2096921,2096921,157681,666572,0
2096921,2096921,157738,666441,0
2096921,2096921,157809,666504,0
2096921,2096921,157830,666485,0
2096921,2096921,157933,665831,0
2096921,2096921,157757,665693,0
2096921,2096921,157734,665626,0
2096921,2096921,157580,665599,0
2096921,2096921,157557,665289,0
2096921,2096921,157307,665096,0
2096921,2096921,157293,665160,0
2096921,2096921,157431,664969,0
2096921,2096921,157248,665059,0
2096921,2096921,157352,665096,0
2096921,2096921,157415,664844,0
2096921,2096921,157450,664934,0
2096921,2096921,157311,665108,0
2096921,2096921,157364,665205,0
2096921,2096921,157282,665173,0
2096921,2096921,157569,664931,0
2096921,2096921,157363,664803,0
2096921,2096921,157620,664744,0
2096921,2096921,157550,665074,0
2096921,2096921,157609,664998,0
2096921,2096921,157450,665225,0
2096921,2096921,157528,665174,0
2096921,2096921,157455,665136,0
2096921,2096921,157326,665115,0
2096921,2096921,157227,665200,0
2096921,2096921,157781,665099,0
2096921,2096921,157371,665588,0
2096921,2096921,157568,665445,0
2096921,2096921,157556,665431,0
2096921,2096921,157498,665484,0
2096921,2096921,157754,665775,0
2096921,2096921,157556,665786,0
2096921,2096921,157696,665854,0
2096921,2096921,157358,665877,0
2096921,2096921,157504,665437,0
2096921,2096921,157603,666092,0
2096921,2096921,157785,666229,0
2096921,2096921,157716,666478,0
2096921,2096921,157973,666078,0
2096921,2096921,158098,666242,0
2096921,2096921,158030,666841,0
2096921,2096921,157767,666758,0
2096921,2096921,157854,666712,0
2096921,2096921,158106,666559,0
2096921,2096921,158242,666640,0
2096921,2096921,158307,667315,0
2096921,2096921,158406,667359,0
2096921,2096921,158147,667884,0
2096921,2096921,158060,667408,0
2096921,2096921,158336,667520,0
2096921,2096921,158501,667831,0
2096921,2096921,158753,668211,0
2096921,2096921,158623,668440,0
2096921,2096921,158419,668282,0
2096921,2096921,158805,668182,0
2096921,2096921,158778,668622,0
2096921,2096921,158838,668806,0
2096921,2096921,158717,669033,0
2096921,2096921,158797,668762,0
2096921,2096921,158776,668801,0
2096921,2096921,158781,669418,0
2096921,2096921,159016,669378,0
2096921,2096921,158755,669430,0
2096921,2096921,158945,669508,0
2096921,2096921,158683,669651,0
2096921,2096921,159029,670023,0
2096921,2096921,159071,670146,0
2096921,2096921,158994,670270,0
2096921,2096921,159051,670168,0
2096921,2096921,159173,670097,0
2096921,2096921,159312,670593,0
2096921,2096921,159380,670988,0
2096921,2096921,159261,670841,0
2096921,2096921,159323,671138,0
2096921,2096921,159257,670852,0
2096921,2096921,159728,671104,0
2096921,2096921,159565,671273,0
2096921,2096921,159503,671386,0
2096921,2096921,159796,671487,0
2096921,2096921,159536,671310,0
2096921,2096921,159804,671975,0
2096921,2096921,160051,671884,0
2096921,2096921,160290,672150,0
2096921,2096921,160075,672076,0
2096921,2096921,159682,672200,0
2096921,2096921,159965,672498,0
2096921,2096921,160070,672414,0
2096921,2096921,159816,672516,0
2096921,2096921,160090,672640,0
2096921,2096921,160173,672747,0
2096921,2096921,160326,673266,0
2096921,2096921,160283,673466,0
2096921,2096921,160238,673349,0
2096921,2096921,160292,673633,0
2096921,2096921,159911,673386,0
2096921,2096921,160049,673805,0
2096921,2096921,160305,673591,0
2096921,2096921,160506,674007,0
2096921,2096921,160223,674028,0
2096921,2096921,160276,674338,0
2096921,2096921,160310,674249,0
2096921,2096921,160344,674643,0
2096921,2096921,160302,674490,0
2096921,2096921,160489,674523,0
2096921,2096921,160743,674468,0
2096921,2096921,160610,674497,0
2096921,2096921,160699,674720,0
2096921,2096921,160618,674534,0
2096921,2096921,160588,674364,0
2096921,2096921,160563,674930,0
2096921,2096921,160835,674716,0
2096921,2096921,160815,674914,0
2096921,2096921,160889,674900,0
2096921,2096921,160705,674489,0
2096921,2096921,160588,674941,0
2096921,2096921,160955,675065,0
2096921,2096921,160771,675160,0
2096921,2096921,160848,674839,0
2096921,2096921,160905,675070,0
2096921,2096921,160755,674928,0
2096921,2096921,160654,674921,0
2096921,2096921,161059,675140,0
2096921,2096921,161018,675130,0
2096921,2096921,160984,675116,0
2096921,2096921,160765,675176,0
2096921,2096921,160791,674902,0
2096921,2096921,160921,674984,0
2096921,2096921,160967,674831,0
2096921,2096921,160968,674994,0
2096921,2096921,160768,675152,0
2096921,2096921,160959,674614,0
2096921,2096921,160869,674900,0
2096921,2096921,160980,675157,0
2096921,2096921,160584,674909,0
2096921,2096921,160790,674907,0
2096921,2096921,160835,674548,0
2096921,2096921,160735,674597,0
2096921,2096921,160682,674480,0
2096921,2096921,160789,674344,0
2096921,2096921,160749,674627,0
2096921,2096921,160704,674399,0
2096921,2096921,160563,674170,0
2096921,2096921,160615,674294,0
2096921,2096921,160374,674727,0
2096921,2096921,160766,674431,0
2096921,2096921,160384,674017,0
2096921,2096921,160644,673895,0
2096921,2096921,160114,674207,0
2096921,2096921,160617,673897,0
2096921,2096921,160500,673860,0
2096921,2096921,160730,673957,0
2096921,2096921,160647,674124,0
2096921,2096921,160336,673721,0
2096921,2096921,160494,674047,0
2096921,2096921,160367,673878,0
2096921,2096921,160090,673437,0
2096921,2096921,159909,673657,0
2096921,2096921,160280,673901,0
2096921,2096921,160400,673741,0
2096921,2096921,160329,673738,0
2096921,2096921,160279,673682,0
2096921,2096921,160511,673407,0
2096921,2096921,160495,673701,0
2096921,2096921,160428,673515,0
2096921,2096921,160473,673690,0
2096921,2096921,160424,673756,0
2096921,2096921,160410,673587,0
2096921,2096921,160510,673630,0
2096921,2096921,160298,673636,0
2096921,2096921,160515,673376,0
2096921,2096921,160578,673301,0
2096921,2096921,160440,673748,0
2096921,2096921,160763,673708,0
2096921,2096921,160764,673589,0
2096921,2096921,160449,673537,0
2096921,2096921,160600,673690,0
2096921,2096921,160238,673736,0
2096921,2096921,160521,673583,0
2096921,2096921,160475,673606,0
2096921,2096921,160699,673332,0
2096921,2096921,160671,673952,0
2096921,2096921,160688,674221,0
2096921,2096921,160739,674074,0
2096921,2096921,160665,674103,0
2096921,2096921,160567,674025,0
2096921,2096921,160703,674247,0
2096921,2096921,160719,674546,0
2096921,2096921,160802,674283,0
2096921,2096921,160780,674389,0
2096921,2096921,160768,674565,0
2096921,2096921,160712,674747,0
2096921,2096921,160770,674790,0
2096921,2096921,160762,674726,0
2096921,2096921,160918,675036,0
2096921,2096921,161066,675005,0
2096921,2096921,161146,674926,0
2096921,2096921,160971,675122,0
2096921,2096921,161060,674966,0
2096921,2096921,161087,674656,0
2096921,2096921,161183,675084,0
2096921,2096921,161308,675427,0
2096921,2096921,161255,675362,0
2096921,2096921,161228,675460,0
2096921,2096921,161217,675304,0
2096921,2096921,161112,675192,0
2096921,2096921,161414,675620,0
2096921,2096921,161186,675551,0
2096921,2096921,161270,675356,0
2096921,2096921,161160,675506,0
2096921,2096921,161156,675441,0
2096921,2096921,161213,675836,0
2096921,2096921,161528,675864,0
2096921,2096921,161425,675773,0
2096921,2096921,161383,675845,0
2096921,2096921,161404,675638,0
2096921,2096921,161175,675934,0
2096921,2096921,161467,676089,0
2096921,2096921,161422,675826,0
2096921,2096921,161362,675993,0
2096921,2096921,161164,676200,0
2096921,2096921,161480,676259,0
2096921,2096921,161530,676368,0
2096921,2096921,161232,676263,0
2096921,2096921,161309,676146,0
2096921,2096921,161589,676191,0
2096921,2096921,161251,676397,0
2096921,2096921,161268,676605,0
2096921,2096921,161424,676621,0
2096921,2096921,161480,676676,0
2096921,2096921,161642,677029,0
2096921,2096921,161692,676651,0
2096921,2096921,161555,676474,0
2096921,2096921,161500,676540,0
2096921,2096921,161605,676859,0
2096921,2096921,161571,677098,0
2096921,2096921,161796,676684,0
2096921,2096921,161851,676791,0
2096921,2096921,161606,676911,0
2096921,2096921,161758,676762,0
2096921,2096921,161855,676941,0
2096921,2096921,161662,677173,0
2096921,2096921,161837,677026,0
2096921,2096921,161834,677183,0
2096921,2096921,161660,677067,0
2096921,2096921,161723,676904,0
2096921,2096921,161756,677244,0
2096921,2096921,161848,677022,0
2096921,2096921,161783,677188,0
2096921,2096921,161822,677322,0
2096921,2096921,162128,677318,0
2096921,2096921,161760,677138,0
2096921,2096921,162033,677588,0
2096921,2096921,162046,677463,0
2096921,2096921,161864,677050,0
2096921,2096921,162044,677264,0
2096921,2096921,162113,677497,0
2096921,2096921,161953,677710,0
2096921,2096921,162140,677616,0
2096921,2096921,161871,677535,0
2096921,2096921,161893,677685,0
2096921,2096921,162087,677751,0
2096921,2096921,162125,677869,0
2096921,2096921,161982,677634,0
2096921,2096921,162206,677562,0
2096921,2096921,161932,677596,0
2096921,2096921,162055,677544,0
2096921,2096921,162194,677773,0
2096921,2096921,162060,677754,0
2096921,2096921,162085,677831,0
2096921,2096921,161982,677703,0
2096921,2096921,161924,677611,0
2096921,2096921,161979,678085,0
2096921,2096921,161945,677752,0
2096921,2096921,162005,678002,0
2096921,2096921,162042,677981,0
2096921,2096921,162227,677872,0
2096921,2096921,162251,677890,0
2096921,2096921,162222,677810,0
2096921,2096921,162018,677794,0
2096921,2096921,162186,677834,0
2096921,2096921,162198,677879,0
2096921,2096921,162083,678146,0
2096921,2096921,162162,677676,0
2096921,2096921,162159,677536,0
2096921,2096921,162320,677936,0
2096921,2096921,162401,677952,0
2096921,2096921,162332,677607,0
2096921,2096921,162144,677915,0
2096921,2096921,162168,677970,0
2096921,2096921,162320,677991,0
2096921,2096921,161961,677915,0
2096921,2096921,162312,677511,0
2096921,2096921,162456,678016,0
2096921,2096921,162316,677886,0
2096921,2096921,162230,678030,0
2096921,2096921,162443,678188,0
2096921,2096921,162190,677999,0
2096921,2096921,162065,677888,0
2096921,2096921,162089,678063,0
2096921,2096921,162039,678072,0
2096921,2096921,162267,678078,0
2096921,2096921,162236,677854,0
2096921,2096921,162219,677883,0
2096921,2096921,162221,678129,0
2096921,2096921,162248,677672,0
2096921,2096921,162096,677750,0
2096921,2096921,162266,678068,0
2096921,2096921,162356,677851,0
2096921,2096921,162429,678109,0
2096921,2096921,162250,677885,0
2096921,2096921,162307,678124,0
2096921,2096921,162236,677970,0
2096921,2096921,162419,677817,0
2096921,2096921,162055,677849,0
2096921,2096921,162203,677717,0
2096921,2096921,162202,677527,0
2096921,2096921,162363,677637,0
2096921,2096921,162390,677801,0
2096921,2096921,162546,677788,0
2096921,2096921,162442,677953,0
2096921,2096921,162303,677729,0
2096921,2096921,162592,677622,0
2096921,2096921,162448,677695,0
2096921,2096921,162121,677624,0
2096921,2096921,162046,677678,0
2096921,2096921,162318,677908,0
2096921,2096921,162386,677611,0
2096921,2096921,162068,677942,0
2096921,2096921,162153,677432,0
2096921,2096921,162154,677563,0
2096921,2096921,162344,677416,0
2096921,2096921,162135,677507,0
2096921,2096921,162154,677104,0
2096921,2096921,162138,677138,0
2096921,2096921,162190,677327,0
2096921,2096921,162336,677202,0
2096921,2096921,161963,677128,0
2096921,2096921,162406,677194,0
2096921,2096921,162264,677137,0
2096921,2096921,162559,677009,0
2096921,2096921,162503,677213,0
2096921,2096921,162450,677146,0
2096921,2096921,162265,677473,0
2096921,2096921,162318,677097,0
2096921,2096921,162207,677256,0
2096921,2096921,162124,677115,0
2096921,2096921,162088,677199,0
2096921,2096921,162156,676883,0
2096921,2096921,162179,677134,0
2096921,2096921,162258,677240,0
2096921,2096921,162393,676955,0
2096921,2096921,162313,677089,0
2096921,2096921,162130,677102,0
2096921,2096921,162364,676618,0
2096921,2096921,162107,676820,0
2096921,2096921,161950,676892,0
2096921,2096921,162040,676661,0
2096921,2096921,162213,676579,0
2096921,2096921,162029,676931,0
2096921,2096921,161982,676917,0
2096921,2096921,162123,676710,0
2096921,2096921,162082,676389,0
2096921,2096921,162457,676799,0
2096921,2096921,161915,676835,0
2096921,2096921,162208,676830,0
2096921,2096921,162031,676728,0
2096921,2096921,161874,676536,0
2096921,2096921,161900,676311,0
2096921,2096921,162064,676639,0
2096921,2096921,161962,676576,0
2096921,2096921,162048,676449,0
2096921,2096921,162146,676574,0
2096921,2096921,162168,676523,0
2096921,2096921,162362,676536,0
2096921,2096921,161957,676499,0
2096921,2096921,161822,676538,0
2096921,2096921,161845,676410,0
2096921,2096921,162101,676266,0
2096921,2096921,162044,676060,0
2096921,2096921,161863,675996,0
2096921,2096921,162076,676025,0
2096921,2096921,161960,676294,0
2096921,2096921,162217,676277,0
2096921,2096921,162230,675937,0
2096921,2096921,162070,675911,0
2096921,2096921,161914,676140,0
2096921,2096921,161522,675939,0
2096921,2096921,161854,676204,0
2096921,2096921,161947,676123,0
2096921,2096921,162040,676155,0
2096921,2096921,162082,675643,0
2096921,2096921,162032,675868,0
2096921,2096921,161904,676098,0
2096921,2096921,162053,675754,0
2096921,2096921,161924,675967,0
2096921,2096921,161822,675686,0
2096921,2096921,161966,675897,0
2096921,2096921,161673,675491,0
2096921,2096921,161921,675993,0
2096921,2096921,161937,675889,0
2096921,2096921,162011,675521,0
2096921,2096921,161727,675153,0
2096921,2096921,161921,675402,0
2096921,2096921,161716,675485,0
2096921,2096921,161806,675295,0
2096921,2096921,161623,675122,0
2096921,2096921,161764,674945,0
2096921,2096921,161705,674945,0
2096921,2096921,161812,674999,0
2096921,2096921,161593,674830,0
2096921,2096921,161577,674818,0
2096921,2096921,161703,674781,0
2096921,2096921,161740,674685,0
2096921,2096921,161733,674759,0
2096921,2096921,161579,674721,0
2096921,2096921,161391,674640,0
2096921,2096921,161806,674426,0
2096921,2096921,161677,674342,0
2096921,2096921,161556,674402,0
2096921,2096921,161404,674362,0
2096921,2096921,161642,674281,0
2096921,2096921,161943,674188,0
2096921,2096921,161750,674313,0
2096921,2096921,161449,674212,0
2096921,2096921,161506,674324,0
2096921,2096921,161481,674022,0
2096921,2096921,161184,673842,0
2096921,2096921,161407,674037,0
2096921,2096921,161796,673841,0
2096921,2096921,161267,673752,0
2096921,2096921,161337,673942,0
2096921,2096921,161515,673891,0
2096921,2096921,161611,673741,0
2096921,2096921,161413,673687,0
2096921,2096921,161145,673726,0
2096921,2096921,161694,673561,0
2096921,2096921,161321,673155,0
2096921,2096921,161325,673561,0
2096921,2096921,161670,673478,0
2096921,2096921,161317,673517,0
2096921,2096921,161334,673372,0
2096921,2096921,161460,673130,0
2096921,2096921,161535,673195,0
2096921,2096921,161466,673196,0
2096921,2096921,161280,673136,0
2096921,2096921,161122,672342,0
2096921,2096921,161144,672184,0
2096921,2096921,160841,672294,0
2096921,2096921,160941,672471,0
2096921,2096921,161327,672335,0
2096921,2096921,160973,671789,0
2096921,2096921,160803,671648,0
2096921,2096921,160919,671768,0
2096921,2096921,160816,671612,0
2096921,2096921,161013,671460,0
2096921,2096921,160391,670780,0
2096921,2096921,160366,670550,0
2096921,2096921,160240,670492,0
2096921,2096921,160270,670158,0
2096921,2096921,160407,670304,0
2096921,2096921,160049,669137,0
2096921,2096921,159905,668874,0
2096921,2096921,160000,668881,0
2096921,2096921,160254,668764,0
2096921,2096921,159524,668881,0
2096921,2096921,159692,667727,0
2096921,2096921,159506,667522,0
2096921,2096921,159125,667670,0
2096921,2096921,159198,667502,0
2096921,2096921,159088,667394,0
2096921,2096921,158423,664666,0
2096921,2096921,158380,664456,0
2096921,2096921,158264,664195,0
2096921,2096921,158392,664335,0
2096921,2096921,158200,664166,0
2096921,2096921,157242,661215,0
2096921,2096921,156938,660426,0
2096921,2096921,157131,660114,0
2096921,2096921,157009,660460,0
2096921,2096921,156832,660145,0
2096921,2096921,156083,657776,0
2096921,2096921,156229,657542,0
2096921,2096921,155936,657572,0
2096921,2096921,155971,657411,0
2096921,2096921,155836,657529,0
2096921,2096921,155339,655478,0
2096921,2096921,155501,655032,0
2096921,2096921,155448,655084,0
2096921,2096921,155195,654949,0
2096921,2096921,155192,655149,0
2096921,2096921,154770,654028,0
2096921,2096921,154658,653483,0
2096921,2096921,154877,653007,0
2096921,2096921,154775,653252,0
2096921,2096921,154510,653116,0
2096921,2096921,154014,652064,0
2096921,2096921,154249,651972,0
2096921,2096921,154083,651982,0
2096921,2096921,154449,651721,0
2096921,2096921,154504,651897,0
2096921,2096921,154078,651300,0
2096921,2096921,154069,651040,0
2096921,2096921,154087,651089,0
2096921,2096921,153754,651040,0
2096921,2096921,153887,651006,0
2096921,2096921,153750,650257,0
2096921,2096921,153847,650116,0
2096921,2096921,153376,650089,0
2096921,2096921,153507,650161,0
2096921,2096921,153751,650000,0
2096921,2096921,153779,649576,0
2096921,2096921,153684,649812,0
2096921,2096921,153659,649657,0
2096921,2096921,153620,649713,0
2096921,2096921,153655,649372,0
2096921,2096921,153788,649639,0
2096921,2096921,153445,649722,0
2096921,2096921,153280,649714,0
2096921,2096921,153572,649560,0
2096921,2096921,153444,649752,0
2096921,2096921,153550,649870,0
2096921,2096921,153714,649724,0
2096921,2096921,153801,649662,0
2096921,2096921,153722,649592,0
2096921,2096921,153366,649709,0
2096921,2096921,153826,649650,0
2096921,2096921,153619,649553,0
2096921,2096921,153586,649507,0
2096921,2096921,153454,649353,0
2096921,2096921,153555,649583,0
2096921,2096921,153748,649524,0
2096921,2096921,153940,649634,0
2096921,2096921,153584,649969,0
2096921,2096921,153717,649829,0
2096921,2096921,153581,649792,0
2096921,2096921,153638,650160,0
2096921,2096921,153824,650033,0
2096921,2096921,153757,649763,0
2096921,2096921,153774,649843,0
2096921,2096921,153980,649991,0
2096921,2096921,153977,650413,0
2096921,2096921,153927,650322,0
2096921,2096921,154302,650375,0
2096921,2096921,154003,650380,0
2096921,2096921,153746,650459,0
2096921,2096921,154245,650535,0
2096921,2096921,154283,650690,0
2096921,2096921,154316,650940,0
2096921,2096921,154191,651111,0
2096921,2096921,154126,650945,0
2096921,2096921,154571,651425,0
2096921,2096921,154352,651417,0
2096921,2096921,154536,651344,0
2096921,2096921,154392,651280,0
2096921,2096921,154273,651267,0
2096921,2096921,154140,651794,0
2096921,2096921,154366,651924,0
2096921,2096921,154283,651656,0
2096921,2096921,154433,652016,0
2096921,2096921,154553,651712,0
2096921,2096921,154322,652169,0
2096921,2096921,154377,652129,0
2096921,2096921,154523,651831,0
2096921,2096921,154645,652098,0
2096921,2096921,154471,652224,0
2096921,2096921,154648,652621,0
2096921,2096921,154543,652371,0
2096921,2096921,154963,652658,0
2096921,2096921,154542,652734,0
2096921,2096921,155001,652841,0
2096921,2096921,154997,652982,0
2096921,2096921,155129,652984,0
2096921,2096921,155115,653003,0
2096921,2096921,154932,653081,0
2096921,2096921,154914,652915,0
2096921,2096921,155021,653386,0
2096921,2096921,155078,653594,0
2096921,2096921,155227,653418,0
2096921,2096921,155351,653325,0
2096921,2096921,155642,653218,0
2096921,2096921,155354,653977,0
2096921,2096921,155306,654093,0
2096921,2096921,155274,654262,0
2096921,2096921,155177,654427,0
2096921,2096921,155310,654284,0
2096921,2096921,155777,654394,0
2096921,2096921,155774,654408,0
2096921,2096921,155623,654641,0
2096921,2096921,155532,654768,0
2096921,2096921,155334,654795,0
2096921,2096921,155474,654941,0
2096921,2096921,155771,655285,0
2096921,2096921,155803,655033,0
2096921,2096921,155554,655021,0
2096921,2096921,155740,655039,0
2096921,2096921,155499,655377,0
2096921,2096921,155610,655429,0
2096921,2096921,155782,655382,0
2096921,2096921,155918,655740,0
2096921,2096921,155952,655794,0
2096921,2096921,155998,655505,0
2096921,2096921,156118,656037,0
2096921,2096921,156164,655969,0
2096921,2096921,155770,655892,0
2096921,2096921,155865,655551,0
2096921,2096921,156043,655946,0
2096921,2096921,156041,655730,0
2096921,2096921,155709,656047,0
2096921,2096921,155718,655855,0
2096921,2096921,155743,656156,0
2096921,2096921,155941,656230,0
2096921,2096921,155982,656355,0
2096921,2096921,156102,656024,0
2096921,2096921,156059,656179,0
2096921,2096921,156042,656525,0
2096921,2096921,156265,656167,0
2096921,2096921,155969,655922,0
2096921,2096921,155971,656237,0
2096921,2096921,155859,656189,0
2096921,2096921,156269,656022,0
2096921,2096921,156220,655878,0
2096921,2096921,156219,656253,0
2096921,2096921,156230,656118,0
2096921,2096921,156061,656281,0
2096921,2096921,156003,655904,0
2096921,2096921,155915,655890,0
2096921,2096921,156058,655954,0
2096921,2096921,155927,656066,0
2096921,2096921,156002,656030,0
2096921,2096921,155903,656237,0
2096921,2096921,156183,655873,0
2096921,2096921,156131,656132,0
2096921,2096921,156049,655880,0
2096921,2096921,156040,655854,0
2096921,2096921,155869,655726,0
2096921,2096921,155644,655327,0
2096921,2096921,155869,655892,0
2096921,2096921,155868,655722,0
2096921,2096921,155944,655555,0
2096921,2096921,156048,655866,0
2096921,2096921,155989,655376,0
2096921,2096921,155952,655455,0
2096921,2096921,155810,655234,0
2096921,2096921,155993,655105,0
2096921,2096921,155914,655496,0
2096921,2096921,155842,655105,0
2096921,2096921,155978,654884,0
2096921,2096921,155696,654964,0
2096921,2096921,155565,654816,0
2096921,2096921,155709,655078,0
2096921,2096921,155817,654611,0
2096921,2096921,155968,654678,0
2096921,2096921,155573,654849,0
2096921,2096921,155532,654534,0
2096921,2096921,155692,654519,0
2096921,2096921,155549,654471,0
2096921,2096921,155635,654391,0
2096921,2096921,155394,654229,0
2096921,2096921,155505,654588,0
2096921,2096921,155529,654766,0
2096921,2096921,155597,654240,0
2096921,2096921,155689,654498,0
2096921,2096921,155652,654436,0
2096921,2096921,155544,654545,0
2096921,2096921,155598,654500,0
2096921,2096921,155690,654626,0
2096921,2096921,155360,654593,0
2096921,2096921,155469,654433,0
2096921,2096921,155515,654507,0
2096921,2096921,155610,654254,0
2096921,2096921,155519,654256,0
2096921,2096921,155748,654583,0
2096921,2096921,155674,654604,0
2096921,2096921,155842,654512,0
2096921,2096921,155457,654725,0
2096921,2096921,155357,654750,0
2096921,2096921,155700,654512,0
2096921,2096921,155845,654877,0
2096921,2096921,155825,654651,0
2096921,2096921,155654,654445,0
2096921,2096921,155846,655021,0
2096921,2096921,156225,654932,0
2096921,2096921,156015,655009,0
2096921,2096921,156126,654910,0
2096921,2096921,156073,654965,0
2096921,2096921,155963,655324,0
2096921,2096921,156367,655662,0
2096921,2096921,155966,655399,0
2096921,2096921,155956,655501,0
2096921,2096921,155922,655543,0
2096921,2096921,156366,655723,0
2096921,2096921,155947,655981,0
2096921,2096921,156046,655944,0
2096921,2096921,156028,655925,0
2096921,2096921,156050,655653,0
2096921,2096921,155845,656024,0
2096921,2096921,156079,656338,0
2096921,2096921,156339,656234,0
2096921,2096921,156451,656216,0
2096921,2096921,156537,656319,0
2096921,2096921,156653,656473,0
2096921,2096921,156415,656821,0
2096921,2096921,156595,656488,0
2096921,2096921,156762,656715,0
2096921,2096921,156454,656519,0
2096921,2096921,156534,656552,0
2096921,2096921,156332,656952,0
2096921,2096921,156515,656893,0
2096921,2096921,156539,656806,0
2096921,2096921,156617,656662,0
2096921,2096921,156397,657329,0
2096921,2096921,156698,657324,0
2096921,2096921,156489,657315,0
2096921,2096921,156801,657237,0
2096921,2096921,156818,657066,0
2096921,2096921,156686,657676,0
2096921,2096921,156657,657667,0
2096921,2096921,156614,657631,0
2096921,2096921,156576,658139,0
2096921,2096921,156676,657846,0
2096921,2096921,156908,658156,0
2096921,2096921,157017,657979,0
2096921,2096921,156619,658278,0
2096921,2096921,156800,658052,0
2096921,2096921,157003,658056,0
2096921,2096921,156899,658367,0
2096921,2096921,156908,658712,0
2096921,2096921,156737,658567,0
2096921,2096921,157002,658368,0
2096921,2096921,157062,658446,0
2096921,2096921,157182,658609,0
2096921,2096921,157177,658824,0
2096921,2096921,157335,658603,0
2096921,2096921,157142,658785,0
2096921,2096921,156862,658934,0
2096921,2096921,157306,658789,0
2096921,2096921,157248,659009,0
2096921,2096921,156980,658997,0
2096921,2096921,157382,659027,0
2096921,2096921,157135,658993,0
2096921,2096921,157314,659391,0
2096921,2096921,157536,659450,0
2096921,2096921,157475,659380,0
2096921,2096921,157312,659544,0
2096921,2096921,157056,659280,0
2096921,2096921,157396,659398,0
2096921,2096921,157295,659398,0
2096921,2096921,157282,659647,0
2096921,2096921,157466,659815,0
2096921,2096921,157500,659681,0
2096921,2096921,157623,660309,0
2096921,2096921,157635,660183,0
2096921,2096921,157777,660103,0
2096921,2096921,157565,660033,0
2096921,2096921,157587,659801,0
2096921,2096921,157733,660123,0
2096921,2096921,157647,660357,0
2096921,2096921,157595,660221,0
2096921,2096921,157654,660172,0
2096921,2096921,157746,660170,0
2096921,2096921,157680,660735,0
2096921,2096921,157616,660877,0
2096921,2096921,157872,661117,0
2096921,2096921,157579,660887,0
2096921,2096921,157598,660774,0
2096921,2096921,157881,660958,0
2096921,2096921,157854,660738,0
2096921,2096921,157615,661048,0
2096921,2096921,157881,660780,0
2096921,2096921,157972,661121,0
2096921,2096921,157697,661220,0
2096921,2096921,158021,661274,0
2096921,2096921,157879,661274,0
2096921,2096921,157713,661243,0
2096921,2096921,157784,660987,0
2096921,2096921,158352,661316,0
2096921,2096921,158271,661471,0
2096921,2096921,158030,661439,0
2096921,2096921,157988,661590,0
2096921,2096921,157977,661437,0
2096921,2096921,158010,661366,0
2096921,2096921,158124,661687,0
2096921,2096921,158278,661752,0
2096921,2096921,158181,661950,0
2096921,2096921,157987,661559,0
2096921,2096921,158222,661708,0
2096921,2096921,158056,661831,0
2096921,2096921,158235,661548,0
2096921,2096921,158278,661649,0
2096921,2096921,158275,662028,0
2096921,2096921,158345,661974,0
2096921,2096921,158342,662309,0
2096921,2096921,158130,662193,0
2096921,2096921,158281,662141,0
2096921,2096921,158198,661932,0
2096921,2096921,158336,662460,0
2096921,2096921,158355,662329,0
2096921,2096921,158630,662503,0
2096921,2096921,158547,662311,0
2096921,2096921,158416,662558,0
2096921,2096921,158264,662846,0
2096921,2096921,158324,662609,0
2096921,2096921,158318,662616,0
2096921,2096921,158481,662560,0
2096921,2096921,158515,662571,0
2096921,2096921,158520,662620,0
2096921,2096921,158171,662378,0
2096921,2096921,158415,662679,0
2096921,2096921,158552,662848,0
2096921,2096921,158532,662921,0
2096921,2096921,158557,662934,0
2096921,2096921,158685,662884,0
2096921,2096921,158637,663187,0
2096921,2096921,158564,663208,0
2096921,2096921,158587,663237,0
2096921,2096921,158432,662934,0
2096921,2096921,158430,663108,0
2096921,2096921,158422,662958,0
2096921,2096921,158546,663070,0
2096921,2096921,158487,662891,0
2096921,2096921,158579,663282,0
2096921,2096921,158609,663470,0
2096921,2096921,158796,663100,0
2096921,2096921,158634,663620,0
2096921,2096921,158558,663080,0
2096921,2096921,158565,663188,0
2096921,2096921,158605,663178,0
2096921,2096921,158650,663470,0
2096921,2096921,158729,663483,0
2096921,2096921,158732,663439,0
2096921,2096921,158760,663520,0
2096921,2096921,158895,663704,0
2096921,2096921,158727,663654,0
2096921,2096921,158847,663617,0
2096921,2096921,158783,663761,0
2096921,2096921,158856,663767,0
2096921,2096921,158700,663585,0
2096921,2096921,158801,663708,0
2096921,2096921,158762,663701,0
2096921,2096921,158633,663568,0
2096921,2096921,158821,663632,0
2096921,2096921,159240,663649,0
2096921,2096921,158922,663720,0
2096921,2096921,159189,663767,0
2096921,2096921,158588,663779,0
2096921,2096921,158692,663930,0
2096921,2096921,158860,663782,0
2096921,2096921,158726,663852,0
2096921,2096921,158758,664135,0
2096921,2096921,159031,664035,0
2096921,2096921,158973,663982,0
2096921,2096921,159036,663861,0
2096921,2096921,158742,664018,0
2096921,2096921,159069,663877,0
2096921,2096921,158786,663893,0
2096921,2096921,159014,664245,0
2096921,2096921,159020,664300,0
2096921,2096921,158947,664150,0
2096921,2096921,158974,664314,0
2096921,2096921,159129,664396,0
2096921,2096921,159496,664304,0
2096921,2096921,159340,664544,0
2096921,2096921,159007,664389,0
2096921,2096921,158768,664428,0
2096921,2096921,158694,664198,0
2096921,2096921,158707,664246,0
2096921,2096921,158767,664410,0
2096921,2096921,158820,664222,0
2096921,2096921,158943,664382,0
2096921,2096921,159043,664391,0
2096921,2096921,159285,664639,0
2096921,2096921,159003,664577,0
2096921,2096921,159097,664739,0
2096921,2096921,158866,664689,0
2096921,2096921,159162,664390,0
2096921,2096921,158985,664466,0
2096921,2096921,159030,664536,0
2096921,2096921,159093,664365,0
2096921,2096921,159221,664153,0
2096921,2096921,159081,664835,0
2096921,2096921,159058,665184,0
2096921,2096921,159036,664825,0
2096921,2096921,159126,664772,0
2096921,2096921,159245,664863,0
2096921,2096921,159131,664644,0
2096921,2096921,159234,664972,0
2096921,2096921,159247,664684,0
2096921,2096921,159283,664925,0
2096921,2096921,159180,665116,0
2096921,2096921,159256,664869,0
2096921,2096921,159348,665230,0
2096921,2096921,159399,665153,0
2096921,2096921,159247,665082,0
2096921,2096921,159200,665160,0
2096921,2096921,159334,665307,0
2096921,2096921,159459,665051,0
2096921,2096921,159200,665103,0
2096921,2096921,158962,665242,0
2096921,2096921,159165,665285,0
2096921,2096921,159557,664979,0
2096921,2096921,159517,665250,0
2096921,2096921,159434,665501,0
2096921,2096921,159121,665531,0
2096921,2096921,159166,665339,0
2096921,2096921,159249,665359,0
2096921,2096921,159165,665221,0
2096921,2096921,159133,665312,0
2096921,2096921,159429,665232,0
2096921,2096921,159380,665263,0
2096921,2096921,159300,665183,0
2096921,2096921,159401,665323,0
2096921,2096921,159521,665408,0
2096921,2096921,159863,665448,0
2096921,2096921,159444,665507,0
2096921,2096921,159354,665613,0
2096921,2096921,159137,665574,0
2096921,2096921,159408,665357,0
2096921,2096921,159065,665445,0
2096921,2096921,159435,665427,0
2096921,2096921,159348,665283,0
2096921,2096921,159331,665311,0
2096921,2096921,159455,665659,0
2096921,2096921,159474,665533,0
2096921,2096921,159468,665616,0
2096921,2096921,159186,665239,0
2096921,2096921,159274,665783,0
2096921,2096921,159167,665673,0
2096921,2096921,159287,665821,0
2096921,2096921,159167,665758,0
2096921,2096921,159245,665889,0
2096921,2096921,159299,665406,0
2096921,2096921,159378,665762,0
2096921,2096921,159520,665881,0
2096921,2096921,159522,665746,0
2096921,2096921,159569,665836,0
2096921,2096921,159458,666035,0
2096921,2096921,159556,665890,0
2096921,2096921,159591,665724,0
2096921,2096921,159530,665757,0
2096921,2096921,159529,666115,0
2096921,2096921,159320,665959,0
2096921,2096921,159490,665772,0
2096921,2096921,159346,666008,0
2096921,2096921,159395,665961,0
2096921,2096921,159258,665831,0
2096921,2096921,159330,665427,0
2096921,2096921,159145,665224,0
2096921,2096921,159144,665386,0
2096921,2096921,159416,665445,0
2096921,2096921,159054,665218,0
2096921,2096921,158801,665156,0
2096921,2096921,159289,665079,0
2096921,2096921,159211,665087,0
2096921,2096921,159185,665258,0
2096921,2096921,159141,664978,0
2096921,2096921,158830,664267,0
2096921,2096921,158913,664546,0
2096921,2096921,158856,664148,0
2096921,2096921,158826,664081,0
2096921,2096921,158820,664368,0
2096921,2096921,158453,663518,0
2096921,2096921,158706,663298,0
2096921,2096921,158327,663304,0
2096921,2096921,158428,663215,0
2096921,2096921,158126,662954,0
2096921,2096921,157977,662209,0
2096921,2096921,157973,662032,0
2096921,2096921,158084,661794,0
2096921,2096921,158178,661898,0
2096921,2096921,157759,661974,0
2096921,2096921,157476,660163,0
2096921,2096921,157170,659318,0
2096921,2096921,157116,659343,0
2096921,2096921,156850,659196,0
2096921,2096921,156826,659239,0
2096921,2096921,156061,656483,0
2096921,2096921,155885,656036,0
2096921,2096921,155968,655785,0
2096921,2096921,155544,655269,0
2096921,2096921,155943,655937,0
2096921,2096921,155099,653856,0
2096921,2096921,155139,653508,0
2096921,2096921,155010,653426,0
2096921,2096921,155042,653331,0
2096921,2096921,154918,653126,0
2096921,2096921,154181,651776,0
2096921,2096921,154451,651368,0
2096921,2096921,154458,651398,0
2096921,2096921,154173,651270,0
2096921,2096921,154352,651341,0
2096921,2096921,154054,650561,0
2096921,2096921,153897,650446,0
2096921,2096921,153710,650206,0
2096921,2096921,153703,649963,0
2096921,2096921,153687,650002,0
2096921,2096921,153340,649164,0
2096921,2096921,153284,649145,0
2096921,2096921,153375,648799,0
2096921,2096921,153226,648818,0
2096921,2096921,153315,649087,0
2096921,2096921,153388,648726,0
2096921,2096921,153403,648293,0
2096921,2096921,153378,648346,0
2096921,2096921,153420,648757,0
2096921,2096921,153399,648473,0
2096921,2096921,153030,648205,0
2096921,2096921,153258,648082,0
2096921,2096921,153173,647941,0
2096921,2096921,153319,647887,0
2096921,2096921,153149,647938,0
2096921,2096921,153031,648009,0
2096921,2096921,153190,647872,0
2096921,2096921,153162,648259,0
2096921,2096921,153136,648142,0
2096921,2096921,153187,648218,0
2096921,2096921,153168,648304,0
2096921,2096921,153058,648058,0
2096921,2096921,153337,648143,0
2096921,2096921,153093,648236,0
2096921,2096921,153295,648466,0
2096921,2096921,153467,648388,0
2096921,2096921,153270,648893,0
2096921,2096921,153004,648665,0
2096921,2096921,153613,648855,0
2096921,2096921,153741,648839,0
2096921,2096921,153667,649211,0
2096921,2096921,153591,649348,0
2096921,2096921,153701,649273,0
2096921,2096921,153601,649191,0
2096921,2096921,153458,649386,0
2096921,2096921,153777,649573,0
2096921,2096921,153855,649645,0
2096921,2096921,153569,649584,0
2096921,2096921,153588,649736,0
2096921,2096921,153536,649622,0
2096921,2096921,153758,650164,0
2096921,2096921,153724,650627,0
2096921,2096921,153874,650581,0
2096921,2096921,154109,650477,0
2096921,2096921,153757,650313,0
2096921,2096921,154093,651016,0
2096921,2096921,154051,651151,0
2096921,2096921,153978,651116,0
2096921,2096921,154062,651583,0
2096921,2096921,154486,651474,0
2096921,2096921,154393,651770,0
2096921,2096921,154221,651817,0
2096921,2096921,154305,652019,0
2096921,2096921,154507,651916,0
2096921,2096921,154332,652169,0
2096921,2096921,154796,652894,0
2096921,2096921,154683,653184,0
2096921,2096921,154748,653268,0
2096921,2096921,154839,653158,0
2096921,2096921,154754,652964,0
2096921,2096921,154849,653674,0
2096921,2096921,154906,653728,0
2096921,2096921,155029,653956,0
2096921,2096921,155129,653638,0
2096921,2096921,155264,653722,0
2096921,2096921,155241,654342,0
2096921,2096921,155087,654683,0
2096921,2096921,155263,654544,0
2096921,2096921,155167,654708,0
2096921,2096921,155094,654447,0
2096921,2096921,155468,655305,0
2096921,2096921,155477,655429,0
2096921,2096921,155631,655617,0
2096921,2096921,155342,655245,0
2096921,2096921,155326,655582,0
2096921,2096921,155825,656232,0
2096921,2096921,155802,656511,0
2096921,2096921,155835,656498,0
2096921,2096921,155947,656467,0
2096921,2096921,156017,656284,0
2096921,2096921,156022,657054,0
2096921,2096921,155945,657121,0
2096921,2096921,156434,657184,0
2096921,2096921,155960,657185,0
2096921,2096921,156080,657162,0
2096921,2096921,156166,657855,0
2096921,2096921,156254,658166,0
2096921,2096921,156007,658123,0
2096921,2096921,156434,658128,0
2096921,2096921,156491,658203,0
2096921,2096921,156263,659030,0
2096921,2096921,156323,659197,0
2096921,2096921,156582,658892,0
2096921,2096921,156573,659237,0
2096921,2096921,156511,659296,0
2096921,2096921,156706,659871,0
2096921,2096921,157037,659565,0
2096921,2096921,156969,660103,0
2096921,2096921,156913,659871,0
2096921,2096921,156958,660196,0
2096921,2096921,157168,660577,0
2096921,2096921,157092,660679,0
2096921,2096921,156918,660745,0
2096921,2096921,157182,660864,0
2096921,2096921,157151,661006,0
2096921,2096921,157509,661356,0
2096921,2096921,157496,661570,0
2096921,2096921,157407,661598,0
2096921,2096921,157426,661730,0
2096921,2096921,157543,661567,0
2096921,2096921,157624,661696,0
2096921,2096921,157536,662009,0
2096921,2096921,157316,661985,0
2096921,2096921,157489,661981,0
2096921,2096921,157695,662287,0
2096921,2096921,157623,662321,0
2096921,2096921,157488,662645,0
2096921,2096921,157496,662631,0
2096921,2096921,157570,662625,0
2096921,2096921,157660,662482,0
2096921,2096921,157772,662663,0
2096921,2096921,157486,662984,0
2096921,2096921,157870,663096,0
2096921,2096921,157683,662959,0
2096921,2096921,157740,662890,0
2096921,2096921,157787,663245,0
2096921,2096921,157979,663564,0
2096921,2096921,157782,663364,0
2096921,2096921,157950,663275,0
2096921,2096921,157906,663302,0
2096921,2096921,157877,663267,0
2096921,2096921,157708,663394,0
2096921,2096921,157879,663545,0
2096921,2096921,157771,663402,0
2096921,2096921,157818,663479,0
2096921,2096921,157787,663796,0
2096921,2096921,157860,663861,0
2096921,2096921,157902,663660,0
2096921,2096921,157964,663613,0
2096921,2096921,157902,663462,0
2096921,2096921,158019,663479,0
2096921,2096921,158015,663383,0
2096921,2096921,157872,663352,0
2096921,2096921,157845,663774,0
2096921,2096921,157959,663585,0
2096921,2096921,158011,663553,0
2096921,2096921,158034,663825,0
2096921,2096921,158047,663619,0
2096921,2096921,157726,663724,0
2096921,2096921,158191,663553,0
2096921,2096921,157631,663488,0
2096921,2096921,158063,663711,0
2096921,2096921,158072,663663,0
2096921,2096921,157883,663907,0
2096921,2096921,157717,663641,0
2096921,2096921,158138,663836,0
2096921,2096921,158005,663971,0
2096921,2096921,157960,663950,0
2096921,2096921,158010,664068,0
2096921,2096921,157968,663843,0
2096921,2096921,157746,663864,0
2096921,2096921,157803,663870,0
2096921,2096921,158088,663830,0
2096921,2096921,157932,663623,0
2096921,2096921,157972,663911,0
2096921,2096921,158296,664210,0
2096921,2096921,158039,664150,0
2096921,2096921,157843,663955,0
2096921,2096921,158121,664017,0
2096921,2096921,158225,664262,0
2096921,2096921,158029,664458,0
2096921,2096921,158138,664268,0
2096921,2096921,158258,664711,0
2096921,2096921,158050,664483,0
2096921,2096921,158280,664337,0
2096921,2096921,158413,664616,0
2096921,2096921,158026,665162,0
2096921,2096921,158213,665064,0
2096921,2096921,158314,664731,0
2096921,2096921,158273,665188,0
2096921,2096921,158240,665301,0
2096921,2096921,157977,665539,0
2096921,2096921,158240,665613,0
2096921,2096921,158274,665525,0
2096921,2096921,158180,665532,0
2096921,2096921,158112,666244,0
2096921,2096921,158461,666429,0
2096921,2096921,158552,666190,0
2096921,2096921,158651,666048,0
2096921,2096921,158327,665837,0
2096921,2096921,158709,666603,0
2096921,2096921,158972,666590,0
2096921,2096921,158737,666927,0
2096921,2096921,158844,666997,0
2096921,2096921,158631,666889,0
2096921,2096921,158861,667636,0
2096921,2096921,159077,667597,0
2096921,2096921,159205,667540,0
2096921,2096921,159204,667524,0
2096921,2096921,159080,667766,0
2096921,2096921,159051,668056,0
2096921,2096921,159095,667948,0
2096921,2096921,159113,668197,0
2096921,2096921,159327,668386,0
2096921,2096921,159305,668378,0
2096921,2096921,159424,668708,0
2096921,2096921,159318,668734,0
2096921,2096921,159387,668987,0
2096921,2096921,159453,669041,0
2096921,2096921,159346,668697,0
2096921,2096921,159770,669288,0
2096921,2096921,159564,669448,0
2096921,2096921,159853,669543,0
2096921,2096921,159432,669498,0
2096921,2096921,159372,669425,0
2096921,2096921,159792,669907,0
2096921,2096921,159808,669874,0
2096921,2096921,159640,670150,0
2096921,2096921,160013,670097,0
2096921,2096921,159861,669696,0
2096921,2096921,159792,670642,0
2096921,2096921,159863,670796,0
2096921,2096921,160046,670462,0
2096921,2096921,160099,670559,0
2096921,2096921,160021,670687,0
2096921,2096921,159918,671194,0
2096921,2096921,160073,671213,0
2096921,2096921,160137,671244,0
2096921,2096921,160307,671395,0
2096921,2096921,160007,671352,0
2096921,2096921,160332,671683,0
2096921,2096921,160371,671986,0
2096921,2096921,160397,671839,0
2096921,2096921,160417,671870,0
2096921,2096921,160348,671764,0
2096921,2096921,160722,672233,0
2096921,2096921,160918,672391,0
2096921,2096921,160879,672440,0
2096921,2096921,160511,672311,0
2096921,2096921,160612,672461,0
2096921,2096921,160613,672799,0
2096921,2096921,160629,672980,0
2096921,2096921,160682,672999,0
2096921,2096921,160719,673245,0
2096921,2096921,160756,673406,0
2096921,2096921,160711,673583,0
2096921,2096921,160725,673855,0
2096921,2096921,160854,673628,0
2096921,2096921,160909,673775,0
2096921,2096921,160840,673621,0
2096921,2096921,160756,674175,0
2096921,2096921,160945,674285,0
2096921,2096921,160862,674580,0
2096921,2096921,161058,674181,0
2096921,2096921,161322,674224,0
2096921,2096921,161080,674680,0
2096921,2096921,161331,674827,0
2096921,2096921,161272,674728,0
2096921,2096921,161304,675067,0
2096921,2096921,161129,674912,0
2096921,2096921,161207,675316,0
2096921,2096921,161292,675099,0
2096921,2096921,161253,675377,0
2096921,2096921,161058,675306,0
2096921,2096921,161687,675339,0
2096921,2096921,161513,675653,0
2096921,2096921,161570,676101,0
2096921,2096921,161602,676030,0
2096921,2096921,161830,676120,0
2096921,2096921,161672,676136,0
2096921,2096921,161609,676452,0
2096921,2096921,161569,676542,0
2096921,2096921,161673,676538,0
2096921,2096921,161926,676570,0
2096921,2096921,161715,676645,0
2096921,2096921,161711,676878,0
2096921,2096921,162198,676760,0
2096921,2096921,161928,676925,0
2096921,2096921,161661,677185,0
2096921,2096921,161689,676928,0
2096921,2096921,161912,677327,0
2096921,2096921,161681,677236,0
2096921,2096921,161837,677498,0
2096921,2096921,161896,677221,0
2096921,2096921,162031,677432,0
2096921,2096921,162264,678067,0
2096921,2096921,162132,678019,0
2096921,2096921,162011,677848,0
2096921,2096921,162239,677827,0
2096921,2096921,162214,677880,0
2096921,2096921,162429,678223,0
2096921,2096921,162317,678377,0
2096921,2096921,162175,678270,0
2096921,2096921,162428,678304,0
2096921,2096921,162345,678579,0
2096921,2096921,162383,678476,0
2096921,2096921,162329,679060,0
2096921,2096921,162605,678744,0
2096921,2096921,162487,678590,0
2096921,2096921,162105,678704,0
2096921,2096921,162515,679276,0
2096921,2096921,162592,678788,0
2096921,2096921,162652,679250,0
2096921,2096921,162527,679127,0
2096921,2096921,162746,679346,0
2096921,2096921,162766,679509,0
2096921,2096921,162671,679575,0
2096921,2096921,162291,679790,0
2096921,2096921,162584,679562,0
2096921,2096921,162640,679468,0
2096921,2096921,162718,679885,0
2096921,2096921,162444,680160,0
2096921,2096921,162913,679880,0
2096921,2096921,162709,680047,0
2096921,2096921,162688,679995,0
2096921,2096921,162756,680214,0
2096921,2096921,162906,680257,0
2096921,2096921,162862,680124,0
2096921,2096921,162853,680398,0
2096921,2096921,162912,680087,0
2096921,2096921,162876,680527,0
2096921,2096921,162988,680596,0
2096921,2096921,163058,680735,0
2096921,2096921,162940,680640,0
2096921,2096921,163052,680745,0
2096921,2096921,163238,681340,0
2096921,2096921,162863,680874,0
2096921,2096921,163209,680954,0
2096921,2096921,163089,680987,0
2096921,2096921,163337,680732,0
2096921,2096921,163088,681210,0
2096921,2096921,163138,681128,0
2096921,2096921,163026,681275,0
2096921,2096921,162941,681397,0
2096921,2096921,162957,681500,0
2096921,2096921,163563,681632,0
2096921,2096921,163382,681448,0
2096921,2096921,163378,681674,0
2096921,2096921,163357,681402,0
2096921,2096921,163275,681629,0
2096921,2096921,163576,681654,0
2096921,2096921,163593,681808,0
2096921,2096921,163687,682052,0
2096921,2096921,163495,681997,0
2096921,2096921,163580,682333,0
2096921,2096921,163443,682494,0
2096921,2096921,163347,682104,0
2096921,2096921,163153,681981,0
2096921,2096921,163449,682024,0
2096921,2096921,163332,681969,0
2096921,2096921,163424,682122,0
2096921,2096921,163473,682417,0
2096921,2096921,163648,682532,0
2096921,2096921,163228,682595,0
2096921,2096921,163579,682497,0
2096921,2096921,163580,682785,0
2096921,2096921,163782,682537,0
2096921,2096921,163692,682531,0
2096921,2096921,163691,682661,0
2096921,2096921,163698,682687,0
2096921,2096921,163425,682726,0
2096921,2096921,163468,682756,0
2096921,2096921,163586,682906,0
2096921,2096921,163682,683203,0
2096921,2096921,163708,682943,0
2096921,2096921,164112,683137,0
2096921,2096921,163877,683304,0
2096921,2096921,163733,683401,0
2096921,2096921,163974,683026,0
2096921,2096921,163742,682948,0
2096921,2096921,163879,683417,0
2096921,2096921,163740,683465,0
2096921,2096921,163608,683299,0
2096921,2096921,163881,683569,0
2096921,2096921,163792,683501,0
2096921,2096921,163981,683512,0
2096921,2096921,163786,683581,0
2096921,2096921,163891,683851,0
2096921,2096921,163857,683770,0
2096921,2096921,164153,683545,0
2096921,2096921,163838,683801,0
2096921,2096921,163856,683814,0
2096921,2096921,163947,683768,0
2096921,2096921,163822,683965,0
2096921,2096921,163853,684094,0
2096921,2096921,164060,684235,0
2096921,2096921,163908,684118,0
2096921,2096921,163892,684298,0
2096921,2096921,163920,684446,0
2096921,2096921,163811,684314,0
2096921,2096921,164098,684148,0
2096921,2096921,163992,684382,0
2096921,2096921,164038,684384,0
2096921,2096921,163859,684125,0
2096921,2096921,164104,684234,0
2096921,2096921,163984,684406,0
2096921,2096921,164216,684654,0
2096921,2096921,164091,684483,0
2096921,2096921,164183,684650,0
2096921,2096921,164277,684587,0
2096921,2096921,163927,684664,0
2096921,2096921,164321,684858,0
2096921,2096921,164183,684707,0
2096921,2096921,163895,684891,0
2096921,2096921,164277,684808,0
2096921,2096921,164483,685133,0
2096921,2096921,164385,684858,0
2096921,2096921,164228,684829,0
2096921,2096921,164119,684647,0
2096921,2096921,163943,684735,0
2096921,2096921,164007,684801,0
2096921,2096921,164083,684726,0
2096921,2096921,164167,684695,0
2096921,2096921,164256,684809,0
2096921,2096921,164483,684890,0
2096921,2096921,164511,685113,0
2096921,2096921,164531,685001,0
2096921,2096921,164457,684715,0
2096921,2096921,164485,684912,0
2096921,2096921,164386,685044,0
2096921,2096921,164061,685259,0
2096921,2096921,164321,685308,0
2096921,2096921,164271,685122,0
2096921,2096921,164170,685156,0
2096921,2096921,164162,684976,0
2096921,2096921,164245,685077,0
2096921,2096921,164245,685047,0
2096921,2096921,164451,685080,0
2096921,2096921,164308,685146,0
2096921,2096921,164332,685080,0
2096921,2096921,164206,685265,0
2096921,2096921,164030,685060,0
2096921,2096921,164303,685140,0
2096921,2096921,164236,685059,0
2096921,2096921,164149,685209,0
2096921,2096921,164081,685139,0
2096921,2096921,164215,685332,0
2096921,2096921,164218,685165,0
2096921,2096921,164282,685311,0
2096921,2096921,164377,685304,0
2096921,2096921,164233,685118,0
2096921,2096921,164129,685350,0
2096921,2096921,164337,685337,0
2096921,2096921,164520,685251,0
2096921,2096921,164615,685388,0
2096921,2096921,164131,685358,0
2096921,2096921,164432,685420,0
2096921,2096921,164529,685473,0
2096921,2096921,164520,685218,0
2096921,2096921,164135,685374,0
2096921,2096921,164193,684651,0
2096921,2096921,163944,684508,0
2096921,2096921,163992,684505,0
2096921,2096921,163951,684490,0
2096921,2096921,164063,684757,0
2096921,2096921,164182,684426,0
2096921,2096921,163790,684429,0
2096921,2096921,163937,684386,0
2096921,2096921,163737,684539,0
2096921,2096921,163458,684561,0
2096921,2096921,163620,683582,0
2096921,2096921,163828,683118,0
2096921,2096921,163541,683182,0
2096921,2096921,163678,683341,0
2096921,2096921,163517,683265,0
2096921,2096921,163371,682753,0
2096921,2096921,163330,682380,0
2096921,2096921,163300,682263,0
2096921,2096921,163271,682164,0
2096921,2096921,162978,681705,0
2096921,2096921,162494,681347,0
2096921,2096921,162831,680790,0
2096921,2096921,162922,680476,0
2096921,2096921,162975,680638,0
2096921,2096921,162744,680636,0
2096921,2096921,161883,678533,0
2096921,2096921,161681,677676,0
2096921,2096921,161741,677676,0
2096921,2096921,161776,677778,0
2096921,2096921,161293,677664,0
2096921,2096921,160817,674926,0
2096921,2096921,160584,673970,0
2096921,2096921,160400,674004,0
2096921,2096921,160623,674027,0
2096921,2096921,160431,674007,0
2096921,2096921,159678,671849,0
2096921,2096921,159649,671522,0
2096921,2096921,159665,671282,0
2096921,2096921,159607,671259,0
2096921,2096921,159438,671093,0
2096921,2096921,159141,669492,0
2096921,2096921,158777,669035,0
2096921,2096921,158695,669163,0
2096921,2096921,158387,669174,0
2096921,2096921,158753,669214,0
2096921,2096921,158561,667982,0
2096921,2096921,158364,667472,0
2096921,2096921,158087,667611,0
2096921,2096921,158429,667522,0
2096921,2096921,157915,667497,0
2096921,2096921,157812,666584,0
2096921,2096921,157672,666653,0
2096921,2096921,157596,666348,0
2096921,2096921,157821,666294,0
2096921,2096921,157998,666486,0
2096921,2096921,158130,665789,0
2096921,2096921,157768,665879,0
2096921,2096921,157507,666049,0
2096921,2096921,157371,665688,0
2096921,2096921,157493,665700,0
2096921,2096921,157706,665219,0
2096921,2096921,157778,665068,0
2096921,2096921,157480,664988,0
2096921,2096921,157391,664959,0
2096921,2096921,157583,665084,0
2096921,2096921,157470,665037,0
2096921,2096921,157478,665161,0
2096921,2096921,157340,665210,0
2096921,2096921,157503,664848,0
2096921,2096921,157447,665115,0
2096921,2096921,157398,665042,0
2096921,2096921,157495,665005,0
2096921,2096921,157413,664816,0
2096921,2096921,157392,664880,0
2096921,2096921,157175,665084,0
2096921,2096921,157258,665260,0
2096921,2096921,157462,665218,0
2096921,2096921,157329,665296,0
2096921,2096921,157667,665195,0
2096921,2096921,157466,665152,0
2096921,2096921,157567,665686,0
2096921,2096921,157556,665313,0
2096921,2096921,157470,665579,0
2096921,2096921,157585,665177,0
2096921,2096921,157456,665551,0
2096921,2096921,157531,665632,0
2096921,2096921,157617,665736,0
2096921,2096921,157762,665830,0
2096921,2096921,157819,665677,0
2096921,2096921,157529,665756,0
2096921,2096921,157874,666194,0
2096921,2096921,157742,666448,0
2096921,2096921,157944,666259,0
2096921,2096921,157816,666312,0
2096921,2096921,157891,666257,0
2096921,2096921,158060,666700,0
2096921,2096921,158089,666692,0
2096921,2096921,158144,666959,0
2096921,2096921,158247,667016,0
2096921,2096921,157979,666859,0
2096921,2096921,158239,667576,0
2096921,2096921,158229,667582,0
2096921,2096921,158119,667767,0
2096921,2096921,158110,667667,0
2096921,2096921,158069,667600,0
2096921,2096921,158208,668312,0
2096921,2096921,158478,668316,0
2096921,2096921,158501,668514,0
2096921,2096921,158275,668529,0
2096921,2096921,158640,668065,0
2096921,2096921,158650,668504,0
2096921,2096921,158846,668570,0
2096921,2096921,158947,668685,0
2096921,2096921,158947,668936,0
2096921,2096921,158800,669052,0
2096921,2096921,158721,669690,0
2096921,2096921,158679,669527,0
2096921,2096921,159011,669240,0
2096921,2096921,159092,669332,0
2096921,2096921,158959,669379,0
2096921,2096921,158901,669997,0
2096921,2096921,158891,670056,0
2096921,2096921,158840,669886,0
2096921,2096921,158964,669988,0
2096921,2096921,159118,670267,0
2096921,2096921,158942,670552,0
2096921,2096921,159160,670634,0
2096921,2096921,159300,670570,0
2096921,2096921,159282,670605,0
2096921,2096921,159475,670848,0
2096921,2096921,159436,671266,0
2096921,2096921,159353,671252,0
2096921,2096921,159627,671038,0
2096921,2096921,159510,671456,0
2096921,2096921,159982,671458,0
2096921,2096921,159724,672381,0
2096921,2096921,159655,672230,0
2096921,2096921,159754,671853,0
2096921,2096921,159675,672322,0
2096921,2096921,159655,672157,0
2096921,2096921,159699,672565,0
2096921,2096921,159850,672721,0
2096921,2096921,159983,672712,0
2096921,2096921,159973,672634,0
2096921,2096921,159736,672802,0
2096921,2096921,160035,673584,0
2096921,2096921,160475,673689,0
2096921,2096921,160260,673446,0
2096921,2096921,160361,673402,0
2096921,2096921,160112,673525,0
2096921,2096921,160615,673559,0
2096921,2096921,160629,673803,0
2096921,2096921,160476,673966,0
2096921,2096921,160312,673823,0
2096921,2096921,160604,673980,0
2096921,2096921,160769,674447,0
2096921,2096921,160564,674569,0
2096921,2096921,160684,674362,0
2096921,2096921,160448,674706,0
2096921,2096921,160326,674433,0
2096921,2096921,160483,674644,0
2096921,2096921,160746,674734,0
2096921,2096921,160980,674794,0
2096921,2096921,160513,674768,0
2096921,2096921,160657,674829,0
2096921,2096921,160878,675142,0
2096921,2096921,160969,675061,0
2096921,2096921,160942,675082,0
2096921,2096921,161165,675203,0
2096921,2096921,160775,674608,0
2096921,2096921,160683,675171,0
2096921,2096921,160811,675071,0
2096921,2096921,160931,675176,0
2096921,2096921,160884,675109,0
2096921,2096921,160908,675168,0
2096921,2096921,160891,675095,0
2096921,2096921,160871,675146,0
2096921,2096921,160756,675192,0
2096921,2096921,161276,675056,0
2096921,2096921,160996,675193,0
2096921,2096921,160741,675274,0
2096921,2096921,160770,675106,0
2096921,2096921,160826,675182,0
2096921,2096921,160447,675243,0
2096921,2096921,160884,675037,0
2096921,2096921,160696,675147,0
2096921,2096921,160781,675185,0
2096921,2096921,160603,675087,0
2096921,2096921,160740,674722,0
2096921,2096921,160409,675107,0
2096921,2096921,160444,674915,0
2096921,2096921,160555,674826,0
2096921,2096921,160675,674639,0
2096921,2096921,160485,674962,0
2096921,2096921,160875,674663,0
2096921,2096921,160713,674586,0
2096921,2096921,160503,674620,0
2096921,2096921,160603,674589,0
2096921,2096921,160768,674472,0
2096921,2096921,160991,674217,0
2096921,2096921,160533,673948,0
2096921,2096921,160248,674129,0
2096921,2096921,160308,674071,0
2096921,2096921,160558,674355,0
2096921,2096921,160346,674304,0
2096921,2096921,160304,673959,0
2096921,2096921,160426,673849,0
2096921,2096921,160572,673787,0
2096921,2096921,160426,673898,0
2096921,2096921,160549,673824,0
2096921,2096921,160623,673935,0
2096921,2096921,160206,673635,0
2096921,2096921,160256,673941,0
2096921,2096921,160305,673915,0
2096921,2096921,160609,674067,0
2096921,2096921,160389,673767,0
2096921,2096921,160430,673983,0
2096921,2096921,160443,673535,0
2096921,2096921,160350,673810,0
2096921,2096921,160570,673870,0
2096921,2096921,160502,673625,0
2096921,2096921,160470,673690,0
2096921,2096921,160582,673519,0
2096921,2096921,160343,673588,0
2096921,2096921,160646,673739,0
2096921,2096921,160502,673687,0
2096921,2096921,160559,673864,0
2096921,2096921,160404,673993,0
2096921,2096921,160516,673739,0
2096921,2096921,160341,673975,0
2096921,2096921,160723,673857,0
2096921,2096921,160451,673896,0
2096921,2096921,160687,673897,0
2096921,2096921,160785,673910,0
2096921,2096921,160436,673971,0
2096921,2096921,160848,674186,0
2096921,2096921,160791,674134,0
2096921,2096921,161073,674113,0
2096921,2096921,160518,674337,0
2096921,2096921,160639,674270,0
2096921,2096921,160675,674296,0
2096921,2096921,160803,674539,0
2096921,2096921,160597,674927,0
2096921,2096921,160809,674730,0
2096921,2096921,160978,674617,0
2096921,2096921,160852,674894,0
2096921,2096921,160929,674947,0
2096921,2096921,161057,674861,0
2096921,2096921,160929,675000,0
2096921,2096921,160791,675462,0
2096921,2096921,160732,675363,0
2096921,2096921,161104,675199,0
2096921,2096921,160850,675100,0
2096921,2096921,161113,675297,0
2096921,2096921,161134,675449,0
2096921,2096921,161165,675335,0
2096921,2096921,161052,675438,0
2096921,2096921,161100,675750,0
2096921,2096921,161138,675899,0
2096921,2096921,161210,675585,0
2096921,2096921,161561,676000,0
2096921,2096921,161415,675841,0
2096921,2096921,161255,676073,0
2096921,2096921,160964,675794,0
2096921,2096921,161265,675737,0
2096921,2096921,161369,676004,0
2096921,2096921,161250,675989,0
2096921,2096921,161050,676178,0
2096921,2096921,161680,676096,0
2096921,2096921,161300,675893,0
2096921,2096921,161701,676382,0
2096921,2096921,161559,676069,0
2096921,2096921,161309,676142,0
2096921,2096921,161354,676335,0
2096921,2096921,161389,676316,0
2096921,2096921,161373,676506,0
2096921,2096921,161517,676579,0
2096921,2096921,161618,676546,0
2096921,2096921,161584,676746,0
2096921,2096921,161490,676528,0
2096921,2096921,161532,676738,0
2096921,2096921,161729,676867,0
2096921,2096921,161476,676908,0
2096921,2096921,161503,676852,0
2096921,2096921,161695,676664,0
2096921,2096921,161626,676790,0
2096921,2096921,161503,677143,0
2096921,2096921,161672,677032,0
2096921,2096921,161692,677283,0
2096921,2096921,161550,676962,0
2096921,2096921,161420,676978,0
2096921,2096921,161670,677337,0
2096921,2096921,161653,677517,0
2096921,2096921,161673,677135,0
2096921,2096921,161967,677170,0
2096921,2096921,161969,677384,0
2096921,2096921,161965,677521,0
2096921,2096921,161940,677594,0
2096921,2096921,161797,677402,0
2096921,2096921,161957,677594,0
2096921,2096921,161821,677496,0
2096921,2096921,161778,677661,0
2096921,2096921,161750,677680,0
2096921,2096921,161896,677513,0
2096921,2096921,161827,677300,0
2096921,2096921,162107,677829,0
2096921,2096921,161994,677816,0
2096921,2096921,161848,677628,0
2096921,2096921,162044,677707,0
2096921,2096921,161978,677514,0
2096921,2096921,162063,678024,0
2096921,2096921,162081,677741,0
2096921,2096921,162004,677855,0
2096921,2096921,161963,677829,0
2096921,2096921,162163,677810,0
2096921,2096921,162240,677837,0
2096921,2096921,162332,677828,0
2096921,2096921,162085,678027,0
2096921,2096921,162242,678200,0
2096921,2096921,162157,678279,0
2096921,2096921,162209,678009,0
2096921,2096921,162019,678089,0
2096921,2096921,161954,678001,0
2096921,2096921,161901,678153,0
2096921,2096921,161978,678311,0
2096921,2096921,161806,678053,0
2096921,2096921,162053,677957,0
2096921,2096921,162179,678340,0
2096921,2096921,162324,677969,0
2096921,2096921,162293,678116,0
2096921,2096921,162214,678027,0
2096921,2096921,162183,678277,0
2096921,2096921,162350,678013,0
2096921,2096921,162506,678283,0
2096921,2096921,162219,678047,0
2096921,2096921,162391,678391,0
2096921,2096921,162408,678327,0
2096921,2096921,162238,678051,0
2096921,2096921,162394,678264,0
2096921,2096921,161967,678124,0
2096921,2096921,162050,678205,0
2096921,2096921,162367,678228,0
2096921,2096921,162028,678184,0
2096921,2096921,161811,678275,0
2096921,2096921,162233,678449,0
2096921,2096921,162413,678547,0
2096921,2096921,162118,678737,0
2096921,2096921,162199,678734,0
2096921,2096921,162268,678445,0
2096921,2096921,162488,678709,0
2096921,2096921,162149,678553,0
2096921,2096921,162196,678271,0
2096921,2096921,162441,678408,0
2096921,2096921,162215,678067,0
2096921,2096921,162228,678347,0
2096921,2096921,162588,678255,0
2096921,2096921,162428,678406,0
2096921,2096921,162509,678273,0
2096921,2096921,162471,678507,0
2096921,2096921,162294,678311,0
2096921,2096921,162479,678384,0
2096921,2096921,162456,678332,0
2096921,2096921,162598,678128,0
2096921,2096921,162653,678164,0
2096921,2096921,162100,678480,0
2096921,2096921,162500,678339,0
2096921,2096921,162411,678163,0
2096921,2096921,162409,678191,0
2096921,2096921,162437,678249,0
2096921,2096921,162386,678136,0
2096921,2096921,162261,678020,0
2096921,2096921,162375,678305,0
2096921,2096921,162187,678141,0
2096921,2096921,162384,678232,0
2096921,2096921,162244,678124,0
2096921,2096921,162332,678356,0
2096921,2096921,162465,678127,0
2096921,2096921,162349,678050,0
2096921,2096921,162360,678057,0
2096921,2096921,162674,678398,0
2096921,2096921,162524,677902,0
2096921,2096921,162376,677804,0
2096921,2096921,162554,677841,0
2096921,2096921,162429,678030,0
2096921,2096921,162395,678000,0
2096921,2096921,162163,677886,0
2096921,2096921,162217,678057,0
2096921,2096921,162447,677849,0
2096921,2096921,162562,677774,0
2096921,2096921,162228,677968,0
2096921,2096921,162565,677711,0
2096921,2096921,162238,677571,0
2096921,2096921,162133,677722,0
2096921,2096921,162387,677729,0
2096921,2096921,162577,677813,0
2096921,2096921,162508,677578,0
2096921,2096921,162162,677957,0
2096921,2096921,162030,677692,0
2096921,2096921,162539,677803,0
2096921,2096921,162522,677732,0
2096921,2096921,162324,677993,0
2096921,2096921,162151,677794,0
2096921,2096921,162461,677446,0
2096921,2096921,162344,677563,0
2096921,2096921,162349,677498,0
2096921,2096921,162087,677303,0
2096921,2096921,162209,677422,0
2096921,2096921,162188,677437,0
2096921,2096921,162373,677440,0
2096921,2096921,162372,677182,0
2096921,2096921,162138,677127,0
2096921,2096921,162247,677302,0
2096921,2096921,162439,677234,0
2096921,2096921,162291,677247,0
2096921,2096921,162373,677310,0
2096921,2096921,162208,677104,0
2096921,2096921,162183,677278,0
2096921,2096921,161954,677121,0
2096921,2096921,162177,677211,0
2096921,2096921,162295,677385,0
2096921,2096921,162025,677102,0
2096921,2096921,162396,677032,0
2096921,2096921,162103,676883,0
2096921,2096921,162306,677091,0
2096921,2096921,162259,677013,0
2096921,2096921,162216,676799,0
2096921,2096921,161929,677000,0
2096921,2096921,162111,676916,0
2096921,2096921,162131,676973,0
2096921,2096921,162067,677015,0
2096921,2096921,162016,676778,0
2096921,2096921,162251,677119,0
2096921,2096921,162035,677242,0
2096921,2096921,162139,676546,0
2096921,2096921,161972,676753,0
2096921,2096921,162148,676649,0
2096921,2096921,162213,676679,0
2096921,2096921,162205,676485,0
2096921,2096921,162045,676678,0
2096921,2096921,162055,676638,0
2096921,2096921,162282,676488,0
2096921,2096921,162265,676241,0
2096921,2096921,162182,676333,0
2096921,2096921,162125,676741,0
2096921,2096921,162099,676645,0
2096921,2096921,162397,676251,0
2096921,2096921,162198,676552,0
2096921,2096921,161881,676268,0
2096921,2096921,162060,676093,0
2096921,2096921,162183,676138,0
2096921,2096921,161996,676195,0
2096921,2096921,161810,675957,0
2096921,2096921,161971,675764,0
2096921,2096921,162050,675962,0
2096921,2096921,161966,675792,0
2096921,2096921,161953,675811,0
2096921,2096921,162003,675724,0
2096921,2096921,161886,675681,0
2096921,2096921,161867,675796,0
2096921,2096921,161864,675806,0
2096921,2096921,161953,675390,0
2096921,2096921,161831,675408,0
2096921,2096921,161993,675389,0
2096921,2096921,161934,675680,0
2096921,2096921,162151,675686,0
2096921,2096921,162011,675350,0
2096921,2096921,161818,675157,0
2096921,2096921,161865,675405,0
2096921,2096921,161938,675204,0
2096921,2096921,162005,675146,0
2096921,2096921,161797,675013,0
2096921,2096921,161651,675329,0
2096921,2096921,161626,675299,0
2096921,2096921,161677,675100,0
2096921,2096921,161613,675185,0
2096921,2096921,161583,674948,0
2096921,2096921,161646,675178,0
2096921,2096921,161847,674987,0
2096921,2096921,162019,674860,0
2096921,2096921,161718,674876,0
2096921,2096921,161349,674572,0
2096921,2096921,161879,674429,0
2096921,2096921,161547,674632,0
2096921,2096921,161505,674719,0
2096921,2096921,161701,674362,0
2096921,2096921,161516,674243,0
2096921,2096921,161447,674002,0
2096921,2096921,161548,674388,0
2096921,2096921,161645,674409,0
2096921,2096921,161724,674608,0
2096921,2096921,161414,674111,0
2096921,2096921,161447,674130,0
2096921,2096921,161322,673937,0
2096921,2096921,161368,673822,0
2096921,2096921,161414,674403,0
2096921,2096921,161522,673792,0
2096921,2096921,161287,673761,0
2096921,2096921,161343,673955,0
2096921,2096921,161781,673986,0
2096921,2096921,161389,673752,0
2096921,2096921,161148,673152,0
2096921,2096921,160930,672724,0
2096921,2096921,160928,672698,0
2096921,2096921,160978,672742,0
2096921,2096921,161244,673144,0
2096921,2096921,161095,672218,0
2096921,2096921,161024,672339,0
2096921,2096921,160879,672100,0
2096921,2096921,161119,672182,0
2096921,2096921,160723,672220,0
2096921,2096921,160610,671311,0
2096921,2096921,160439,671232,0
2096921,2096921,160633,671045,0
2096921,2096921,160286,671010,0
2096921,2096921,160439,671044,0
2096921,2096921,159859,669964,0
2096921,2096921,160163,669356,0
2096921,2096921,160018,669634,0
2096921,2096921,159901,669748,0
2096921,2096921,159824,669385,0
2096921,2096921,159358,668014,0
2096921,2096921,159477,668134,0
2096921,2096921,159763,667898,0
2096921,2096921,159585,667802,0
2096921,2096921,159118,667626,0
2096921,2096921,158764,665302,0
2096921,2096921,158622,665144,0
2096921,2096921,158619,664817,0
2096921,2096921,158466,664725,0
2096921,2096921,158123,664485,0
2096921,2096921,157579,661493,0
2096921,2096921,157384,660922,0
2096921,2096921,157038,660731,0
2096921,2096921,157199,660814,0
2096921,2096921,156861,660790,0
2096921,2096921,156524,658310,0
2096921,2096921,156264,657964,0
2096921,2096921,156319,657667,0
2096921,2096921,155995,657713,0
2096921,2096921,155793,657786,0
2096921,2096921,155448,655989,0
2096921,2096921,155497,655562,0
2096921,2096921,155563,655593,0
2096921,2096921,155262,655573,0
2096921,2096921,154975,655330,0
2096921,2096921,154692,654186,0
2096921,2096921,154865,653720,0
2096921,2096921,154897,653815,0
2096921,2096921,155088,653639,0
2096921,2096921,154503,653421,0
2096921,2096921,154537,652485,0
2096921,2096921,154468,652651,0
2096921,2096921,154336,652299,0
2096921,2096921,154200,652508,0
2096921,2096921,154542,652638,0
2096921,2096921,154206,651556,0
2096921,2096921,154221,651213,0
2096921,2096921,154232,651749,0
2096921,2096921,153976,651382,0
2096921,2096921,153928,651320,0
2096921,2096921,153935,650798,0
2096921,2096921,153650,650541,0
2096921,2096921,153881,650534,0
2096921,2096921,153996,650780,0
2096921,2096921,153776,650842,0
2096921,2096921,153966,650371,0
2096921,2096921,153562,650299,0
2096921,2096921,153588,650673,0
2096921,2096921,153952,650195,0
2096921,2096921,153532,650104,0
2096921,2096921,153795,650200,0
2096921,2096921,153786,650009,0
2096921,2096921,153352,650366,0
2096921,2096921,153806,650402,0
2096921,2096921,153850,650058,0
2096921,2096921,154028,650263,0
2096921,2096921,153705,650477,0
2096921,2096921,153645,650382,0
2096921,2096921,153767,650483,0
2096921,2096921,153831,650204,0
2096921,2096921,153842,649848,0
2096921,2096921,154169,650086,0
2096921,2096921,153665,650058,0
2096921,2096921,153862,650286,0
2096921,2096921,153853,650167,0
2096921,2096921,153642,650079,0
2096921,2096921,153897,650127,0
2096921,2096921,153809,650096,0
2096921,2096921,153719,650459,0
2096921,2096921,153875,650332,0
2096921,2096921,154140,650618,0
2096921,2096921,153921,650162,0
2096921,2096921,153962,650276,0
2096921,2096921,153826,650323,0
2096921,2096921,153815,650325,0
2096921,2096921,153777,650483,0
2096921,2096921,154053,650527,0
2096921,2096921,153811,650827,0
2096921,2096921,153923,650714,0
2096921,2096921,154075,650979,0
2096921,2096921,154021,651141,0
2096921,2096921,154088,651451,0
2096921,2096921,153881,650892,0
2096921,2096921,154002,651194,0
2096921,2096921,154177,651378,0
2096921,2096921,154159,651741,0
2096921,2096921,154335,651657,0
2096921,2096921,154539,651719,0
2096921,2096921,154494,651691,0
2096921,2096921,154313,651794,0
2096921,2096921,154395,651938,0
2096921,2096921,154309,651918,0
2096921,2096921,154430,652228,0
2096921,2096921,154578,652408,0
2096921,2096921,154836,652373,0
2096921,2096921,154631,652445,0
2096921,2096921,154727,652459,0
2096921,2096921,154826,652638,0
2096921,2096921,154989,652506,0
2096921,2096921,154932,652589,0
2096921,2096921,154491,652818,0
2096921,2096921,154783,652995,0
2096921,2096921,154609,652961,0
2096921,2096921,154657,653002,0
2096921,2096921,154865,652950,0
2096921,2096921,155363,653445,0
2096921,2096921,155017,653396,0
2096921,2096921,154918,653798,0
2096921,2096921,154989,653490,0
2096921,2096921,155103,653416,0
2096921,2096921,155179,653887,0
2096921,2096921,155338,653467,0
2096921,2096921,155173,654217,0
2096921,2096921,154899,653916,0
2096921,2096921,155244,653947,0
2096921,2096921,155565,654208,0
2096921,2096921,155450,654547,0
2096921,2096921,155308,654411,0
2096921,2096921,155110,654434,0
2096921,2096921,155412,654229,0
2096921,2096921,155683,655003,0
2096921,2096921,155440,654901,0
2096921,2096921,155522,654956,0
2096921,2096921,155312,654863,0
2096921,2096921,155731,655038,0
2096921,2096921,155702,655058,0
2096921,2096921,155740,655329,0
2096921,2096921,155815,655495,0
2096921,2096921,155893,655492,0
2096921,2096921,155708,655214,0
2096921,2096921,155943,655712,0
2096921,2096921,156026,655804,0
2096921,2096921,155883,655755,0
2096921,2096921,155969,655721,0
2096921,2096921,155926,656097,0
2096921,2096921,156134,656178,0
2096921,2096921,155880,656174,0
2096921,2096921,155764,656358,0
2096921,2096921,156097,656075,0
2096921,2096921,155969,656067,0
2096921,2096921,155904,656118,0
2096921,2096921,156202,656329,0
2096921,2096921,156009,656285,0
2096921,2096921,155876,656435,0
2096921,2096921,155836,656207,0
2096921,2096921,155902,656469,0
2096921,2096921,156115,656370,0
2096921,2096921,156042,656520,0
2096921,2096921,156053,656619,0
2096921,2096921,156044,656484,0
2096921,2096921,156048,656349,0
2096921,2096921,156010,656268,0
2096921,2096921,156186,656617,0
2096921,2096921,156315,656537,0
2096921,2096921,156183,656818,0
2096921,2096921,156058,656550,0
2096921,2096921,156207,656761,0
2096921,2096921,156022,656513,0
2096921,2096921,155948,656549,0
2096921,2096921,156029,656262,0
2096921,2096921,156177,656362,0
2096921,2096921,156104,655908,0
2096921,2096921,156071,656113,0
2096921,2096921,156089,656132,0
2096921,2096921,156164,656386,0
2096921,2096921,156287,656084,0
2096921,2096921,156114,656166,0
2096921,2096921,155706,655993,0
2096921,2096921,155953,656083,0
2096921,2096921,155776,655822,0
2096921,2096921,155844,655667,0
2096921,2096921,155838,655774,0
2096921,2096921,155992,655612,0
2096921,2096921,155892,655614,0
2096921,2096921,155850,655942,0
2096921,2096921,155760,655368,0
2096921,2096921,155958,655510,0
2096921,2096921,155810,655277,0
2096921,2096921,155736,655166,0
2096921,2096921,155778,655248,0
2096921,2096921,155533,654940,0
