2096921,2096921, 311139, 458226
2096921,2096921, 311383, 458497
2096921,2096921, 311030, 458652
2096921,2096921, 311426, 458623
2096921,2096921, 311047, 458644
2096921,2096921, 310913, 458632
2096921,2096921, 310884, 458497
2096921,2096921, 310732, 458625
2096921,2096921, 310687, 458307
2096921,2096921, 310988, 458659
2096921,2096921, 310798, 458412
2096921,2096921, 310989, 458335
2096921,2096921, 311019, 458717
2096921,2096921, 310584, 458438
2096921,2096921, 310720, 458343
2096921,2096921, 310712, 458497
2096921,2096921, 310183, 458228
2096921,2096921, 310278, 458060
2096921,2096921, 310035, 458013
2096921,2096921, 310482, 458040
2096921,2096921, 310089, 457908
2096921,2096921, 309731, 457767
2096921,2096921, 309678, 457506
2096921,2096921, 309774, 457260
2096921,2096921, 309664, 457604
2096921,2096921, 309429, 457575
2096921,2096921, 309042, 456960
2096921,2096921, 308941, 456883
2096921,2096921, 308841, 456626
2096921,2096921, 308788, 456717
2096921,2096921, 308187, 456979
2096921,2096921, 307612, 455508
2096921,2096921, 307341, 455444
2096921,2096921, 307045, 455163
2096921,2096921, 307009, 455085
2096921,2096921, 306386, 455187
2096921,2096921, 305107, 453918
2096921,2096921, 304919, 453364
2096921,2096921, 304793, 453381
2096921,2096921, 305023, 453476
2096921,2096921, 304163, 453670
2096921,2096921, 303521, 452330
2096921,2096921, 303420, 452066
2096921,2096921, 303304, 452041
2096921,2096921, 303364, 452357
2096921,2096921, 302907, 452124
2096921,2096921, 302115, 451057
2096921,2096921, 302131, 450813
2096921,2096921, 302423, 450964
2096921,2096921, 302206, 450817
2096921,2096921, 301843, 450850
2096921,2096921, 301296, 450523
2096921,2096921, 301350, 450412
2096921,2096921, 301341, 450250
2096921,2096921, 301240, 450281
2096921,2096921, 300876, 450404
2096921,2096921, 300709, 449751
2096921,2096921, 300700, 449931
2096921,2096921, 300505, 449785
2096921,2096921, 300490, 449728
2096921,2096921, 300632, 449812
2096921,2096921, 300398, 449309
2096921,2096921, 300263, 449799
2096921,2096921, 300414, 449554
2096921,2096921, 300347, 449758
2096921,2096921, 300194, 449879
2096921,2096921, 299805, 449255
2096921,2096921, 300085, 449475
2096921,2096921, 299952, 449608
2096921,2096921, 300004, 449515
2096921,2096921, 299664, 449298
2096921,2096921, 300034, 449623
2096921,2096921, 300167, 449597
2096921,2096921, 299987, 449562
2096921,2096921, 299897, 449663
2096921,2096921, 300104, 449657
2096921,2096921, 300456, 449600
2096921,2096921, 300206, 449651
2096921,2096921, 300164, 449638
2096921,2096921, 300127, 449610
2096921,2096921, 300171, 449607
2096921,2096921, 300371, 450144
2096921,2096921, 300772, 450093
2096921,2096921, 300685, 450209
2096921,2096921, 300377, 450132
2096921,2096921, 300501, 450086
2096921,2096921, 300710, 450062
2096921,2096921, 300641, 450046
2096921,2096921, 300772, 450033
2096921,2096921, 300448, 450006
2096921,2096921, 300531, 450459
2096921,2096921, 300886, 450735
2096921,2096921, 301168, 450818
2096921,2096921, 300870, 450702
2096921,2096921, 301057, 450791
2096921,2096921, 301262, 450727
2096921,2096921, 301479, 451160
2096921,2096921, 301814, 450696
2096921,2096921, 301291, 450838
2096921,2096921, 301631, 450837
2096921,2096921, 301611, 450971
2096921,2096921, 301865, 451633
2096921,2096921, 302032, 451707
2096921,2096921, 302212, 451427
2096921,2096921, 301821, 451525
2096921,2096921, 301840, 451425
2096921,2096921, 302182, 451821
2096921,2096921, 302370, 451767
2096921,2096921, 302161, 452129
2096921,2096921, 302561, 451977
2096921,2096921, 302484, 452179
2096921,2096921, 302910, 452542
2096921,2096921, 302901, 452816
2096921,2096921, 302940, 452848
2096921,2096921, 303052, 452614
2096921,2096921, 303173, 452589
2096921,2096921, 303290, 452951
2096921,2096921, 303397, 453074
2096921,2096921, 303345, 453352
2096921,2096921, 303578, 453031
2096921,2096921, 303726, 453141
2096921,2096921, 304030, 453333
2096921,2096921, 303845, 453851
2096921,2096921, 304087, 453931
2096921,2096921, 304337, 453836
2096921,2096921, 304249, 453688
2096921,2096921, 304341, 454200
2096921,2096921, 304391, 453919
2096921,2096921, 304370, 454218
2096921,2096921, 304440, 453909
2096921,2096921, 304447, 454101
2096921,2096921, 305019, 454516
2096921,2096921, 304857, 454736
2096921,2096921, 304648, 454863
2096921,2096921, 304765, 454705
2096921,2096921, 305039, 454966
2096921,2096921, 305364, 455022
2096921,2096921, 305252, 454986
2096921,2096921, 305538, 454907
2096921,2096921, 305624, 454889
2096921,2096921, 305801, 454999
2096921,2096921, 305939, 455680
2096921,2096921, 306246, 455566
2096921,2096921, 306160, 455902
2096921,2096921, 306249, 455946
2096921,2096921, 306262, 455621
2096921,2096921, 306363, 456033
2096921,2096921, 306598, 456410
2096921,2096921, 306581, 455969
2096921,2096921, 306195, 456053
2096921,2096921, 306443, 456075
2096921,2096921, 306945, 456716
2096921,2096921, 307225, 456824
2096921,2096921, 307084, 456735
2096921,2096921, 307172, 456654
2096921,2096921, 307033, 456837
2096921,2096921, 307215, 456776
2096921,2096921, 307565, 456852
2096921,2096921, 307351, 456834
2096921,2096921, 307412, 457133
2096921,2096921, 307838, 457303
2096921,2096921, 307847, 457801
2096921,2096921, 307834, 457749
2096921,2096921, 307664, 457861
2096921,2096921, 307877, 457652
2096921,2096921, 308047, 457736
2096921,2096921, 308039, 457955
2096921,2096921, 307961, 458288
2096921,2096921, 307827, 457931
2096921,2096921, 308346, 457883
2096921,2096921, 308452, 457736
2096921,2096921, 308572, 458202
2096921,2096921, 308232, 458234
2096921,2096921, 308370, 458308
2096921,2096921, 308634, 458403
2096921,2096921, 308597, 458397
2096921,2096921, 308868, 458612
2096921,2096921, 308559, 458301
2096921,2096921, 308271, 458286
2096921,2096921, 308336, 458380
2096921,2096921, 308298, 458467
2096921,2096921, 308358, 458510
2096921,2096921, 308573, 458578
2096921,2096921, 308831, 458544
2096921,2096921, 308802, 458388
2096921,2096921, 308709, 458731
2096921,2096921, 308941, 458624
2096921,2096921, 308773, 458633
2096921,2096921, 308578, 458561
2096921,2096921, 308657, 458236
2096921,2096921, 308815, 458558
2096921,2096921, 308688, 458643
2096921,2096921, 308541, 458665
2096921,2096921, 308671, 458694
2096921,2096921, 309032, 458590
2096921,2096921, 308916, 458473
2096921,2096921, 308704, 458853
2096921,2096921, 308734, 458575
2096921,2096921, 308658, 458401
2096921,2096921, 308559, 458196
2096921,2096921, 308390, 458797
2096921,2096921, 308348, 458740
2096921,2096921, 308373, 458812
2096921,2096921, 308699, 458750
2096921,2096921, 308312, 458659
2096921,2096921, 308256, 458647
2096921,2096921, 308280, 458490
2096921,2096921, 308249, 458272
2096921,2096921, 308552, 458461
2096921,2096921, 308530, 458492
2096921,2096921, 308620, 458762
2096921,2096921, 308354, 458453
2096921,2096921, 308616, 458685
2096921,2096921, 308512, 458498
2096921,2096921, 308630, 458699
2096921,2096921, 308408, 458483
2096921,2096921, 308446, 459023
2096921,2096921, 308478, 458776
2096921,2096921, 308244, 458517
2096921,2096921, 308476, 458589
2096921,2096921, 308658, 458701
2096921,2096921, 308570, 458496
2096921,2096921, 308527, 459092
2096921,2096921, 308487, 458842
2096921,2096921, 308455, 458736
2096921,2096921, 308637, 458501
2096921,2096921, 308525, 458864
2096921,2096921, 308623, 458706
2096921,2096921, 308514, 458574
2096921,2096921, 308475, 458901
2096921,2096921, 308571, 458624
2096921,2096921, 308824, 459091
2096921,2096921, 309050, 458918
2096921,2096921, 308802, 459074
2096921,2096921, 308719, 458579
2096921,2096921, 308723, 458987
2096921,2096921, 309097, 459137
2096921,2096921, 308776, 459252
2096921,2096921, 308870, 459387
2096921,2096921, 308929, 459265
2096921,2096921, 309228, 459176
2096921,2096921, 309377, 459805
2096921,2096921, 309388, 459896
2096921,2096921, 309210, 459907
2096921,2096921, 309367, 459721
2096921,2096921, 309503, 459642
2096921,2096921, 309830, 459996
2096921,2096921, 310191, 460074
2096921,2096921, 310062, 460019
2096921,2096921, 309777, 460061
2096921,2096921, 309816, 459911
2096921,2096921, 310077, 460248
2096921,2096921, 310122, 460280
2096921,2096921, 310265, 460310
2096921,2096921, 310002, 460690
2096921,2096921, 310282, 460336
2096921,2096921, 310172, 460493
2096921,2096921, 310239, 460387
2096921,2096921, 310085, 460439
2096921,2096921, 310540, 460604
2096921,2096921, 310505, 460848
2096921,2096921, 311152, 460781
2096921,2096921, 311095, 460889
2096921,2096921, 310591, 461229
2096921,2096921, 310950, 461047
2096921,2096921, 311019, 460898
2096921,2096921, 310930, 461239
2096921,2096921, 310889, 461108
2096921,2096921, 311092, 461087
2096921,2096921, 311085, 461056
2096921,2096921, 311003, 461243
2096921,2096921, 311332, 461469
2096921,2096921, 311463, 461485
2096921,2096921, 311682, 461503
2096921,2096921, 311430, 461547
2096921,2096921, 311286, 461668
2096921,2096921, 311547, 461781
2096921,2096921, 311441, 461774
2096921,2096921, 311469, 461779
2096921,2096921, 311567, 461855
2096921,2096921, 311520, 461758
2096921,2096921, 311795, 461906
2096921,2096921, 311712, 461720
2096921,2096921, 312152, 461879
2096921,2096921, 311898, 462025
2096921,2096921, 311881, 462048
2096921,2096921, 312056, 462163
2096921,2096921, 312359, 462215
2096921,2096921, 311896, 462047
2096921,2096921, 312568, 462313
2096921,2096921, 312415, 462226
2096921,2096921, 312369, 462376
2096921,2096921, 312294, 462657
2096921,2096921, 312569, 462713
2096921,2096921, 312232, 462493
2096921,2096921, 312672, 462590
2096921,2096921, 312557, 462927
2096921,2096921, 312929, 462817
2096921,2096921, 312609, 462640
2096921,2096921, 312550, 462778
2096921,2096921, 312753, 462843
2096921,2096921, 313155, 462912
2096921,2096921, 312646, 462909
2096921,2096921, 312778, 463168
2096921,2096921, 312816, 463095
2096921,2096921, 313040, 462858
2096921,2096921, 312840, 463104
2096921,2096921, 312877, 463016
2096921,2096921, 312795, 463029
2096921,2096921, 313040, 462702
2096921,2096921, 313265, 463084
2096921,2096921, 313263, 463401
2096921,2096921, 313373, 463304
2096921,2096921, 313229, 463210
2096921,2096921, 313424, 463537
2096921,2096921, 313458, 463405
2096921,2096921, 313929, 463727
2096921,2096921, 313667, 463525
2096921,2096921, 313532, 463608
2096921,2096921, 313413, 463545
2096921,2096921, 313677, 463673
2096921,2096921, 313740, 463849
2096921,2096921, 314078, 463665
2096921,2096921, 313662, 463932
2096921,2096921, 313930, 464071
2096921,2096921, 313815, 463957
2096921,2096921, 314132, 463938
2096921,2096921, 314092, 464107
2096921,2096921, 313856, 464365
2096921,2096921, 313851, 464392
2096921,2096921, 313955, 464055
2096921,2096921, 314094, 464115
2096921,2096921, 314114, 464349
2096921,2096921, 314056, 464007
2096921,2096921, 314331, 464462
2096921,2096921, 314183, 464475
2096921,2096921, 314139, 464263
2096921,2096921, 314233, 463827
2096921,2096921, 314066, 464137
2096921,2096921, 314250, 464233
2096921,2096921, 313989, 464182
2096921,2096921, 314399, 464397
2096921,2096921, 314371, 464689
2096921,2096921, 314500, 464618
2096921,2096921, 314514, 464452
2096921,2096921, 314462, 464629
2096921,2096921, 314619, 464737
2096921,2096921, 314393, 464547
2096921,2096921, 314399, 464755
2096921,2096921, 314607, 464618
2096921,2096921, 314692, 464684
2096921,2096921, 314506, 464770
2096921,2096921, 314545, 464929
2096921,2096921, 314849, 465013
2096921,2096921, 315047, 464864
2096921,2096921, 314963, 464981
2096921,2096921, 314978, 465004
2096921,2096921, 314828, 464959
2096921,2096921, 314863, 464783
2096921,2096921, 315105, 465078
2096921,2096921, 314903, 464761
2096921,2096921, 315003, 464709
2096921,2096921, 315151, 464843
2096921,2096921, 315393, 465149
2096921,2096921, 314876, 465012
2096921,2096921, 315110, 464912
2096921,2096921, 314809, 465125
2096921,2096921, 315312, 464927
2096921,2096921, 314981, 465034
2096921,2096921, 315152, 465040
2096921,2096921, 315188, 464964
2096921,2096921, 315441, 464989
2096921,2096921, 315173, 465167
2096921,2096921, 315004, 465212
2096921,2096921, 315345, 465236
2096921,2096921, 315503, 465314
2096921,2096921, 315504, 465417
2096921,2096921, 315630, 465123
2096921,2096921, 315494, 465313
2096921,2096921, 315444, 465380
2096921,2096921, 315449, 465352
2096921,2096921, 315590, 465548
2096921,2096921, 315520, 465434
2096921,2096921, 315390, 465373
2096921,2096921, 315590, 465599
2096921,2096921, 315477, 465530
2096921,2096921, 315222, 465695
2096921,2096921, 315611, 465540
2096921,2096921, 315392, 465553
2096921,2096921, 315404, 465385
2096921,2096921, 315476, 465484
2096921,2096921, 315600, 465448
2096921,2096921, 315338, 465507
2096921,2096921, 315581, 465613
2096921,2096921, 315603, 465762
2096921,2096921, 315809, 465444
2096921,2096921, 315800, 465829
2096921,2096921, 315649, 465471
2096921,2096921, 315760, 465477
2096921,2096921, 315640, 465570
2096921,2096921, 315374, 465580
2096921,2096921, 315661, 465750
2096921,2096921, 315607, 465630
2096921,2096921, 315984, 465820
2096921,2096921, 315902, 466106
2096921,2096921, 315515, 465743
2096921,2096921, 315658, 465832
2096921,2096921, 315654, 465848
2096921,2096921, 315798, 465753
2096921,2096921, 315794, 465851
2096921,2096921, 315874, 465761
2096921,2096921, 315823, 466042
2096921,2096921, 315968, 466196
2096921,2096921, 315700, 466008
2096921,2096921, 315864, 465845
2096921,2096921, 315800, 465775
2096921,2096921, 316052, 465716
2096921,2096921, 315958, 465597
2096921,2096921, 315906, 465763
2096921,2096921, 315938, 465780
2096921,2096921, 315966, 465525
2096921,2096921, 316192, 465864
2096921,2096921, 316078, 465995
2096921,2096921, 316155, 466132
2096921,2096921, 316299, 466274
2096921,2096921, 316222, 465829
2096921,2096921, 316126, 466108
2096921,2096921, 316000, 465989
2096921,2096921, 316049, 465916
2096921,2096921, 316191, 466194
2096921,2096921, 316195, 465697
2096921,2096921, 316192, 466336
2096921,2096921, 316468, 466241
2096921,2096921, 316280, 466274
2096921,2096921, 316165, 465908
2096921,2096921, 316226, 465899
2096921,2096921, 316347, 466066
2096921,2096921, 316227, 466179
2096921,2096921, 316312, 466178
2096921,2096921, 316048, 465995
2096921,2096921, 316421, 465926
2096921,2096921, 316310, 466227
2096921,2096921, 316284, 466203
2096921,2096921, 316417, 466021
2096921,2096921, 316706, 466175
2096921,2096921, 316665, 466123
2096921,2096921, 316381, 466242
2096921,2096921, 316254, 466376
2096921,2096921, 316205, 466467
2096921,2096921, 316417, 466235
2096921,2096921, 316385, 466162
2096921,2096921, 316632, 466637
2096921,2096921, 316611, 466703
2096921,2096921, 316648, 466618
2096921,2096921, 316535, 466262
2096921,2096921, 316554, 466457
2096921,2096921, 316507, 466480
2096921,2096921, 316563, 466460
2096921,2096921, 316652, 466278
2096921,2096921, 316538, 466371
2096921,2096921, 316435, 466327
2096921,2096921, 316649, 466290
2096921,2096921, 316570, 466783
2096921,2096921, 316517, 466892
2096921,2096921, 316723, 466642
2096921,2096921, 316771, 466465
2096921,2096921, 316345, 466371
2096921,2096921, 316398, 466309
2096921,2096921, 316578, 466534
2096921,2096921, 316408, 466533
2096921,2096921, 316628, 466397
2096921,2096921, 316521, 466564
2096921,2096921, 316605, 466625
2096921,2096921, 316655, 466296
2096921,2096921, 316797, 466511
2096921,2096921, 316603, 466327
2096921,2096921, 316737, 466542
2096921,2096921, 316466, 466206
2096921,2096921, 316492, 466788
2096921,2096921, 316500, 466527
2096921,2096921, 316417, 466290
2096921,2096921, 316482, 466092
2096921,2096921, 316695, 466367
2096921,2096921, 316706, 466313
2096921,2096921, 316494, 466570
2096921,2096921, 316298, 466268
2096921,2096921, 316735, 466260
2096921,2096921, 316826, 466411
2096921,2096921, 316669, 466503
2096921,2096921, 316403, 466338
2096921,2096921, 316676, 466434
2096921,2096921, 316530, 465884
2096921,2096921, 316600, 466514
2096921,2096921, 316623, 466053
2096921,2096921, 316600, 466212
2096921,2096921, 316507, 466518
2096921,2096921, 316483, 466517
2096921,2096921, 316215, 466240
2096921,2096921, 316547, 466012
2096921,2096921, 316429, 466000
2096921,2096921, 316116, 466108
2096921,2096921, 315958, 466420
2096921,2096921, 316284, 466192
2096921,2096921, 316518, 466366
2096921,2096921, 316591, 466098
2096921,2096921, 316278, 466225
2096921,2096921, 316044, 465735
2096921,2096921, 315721, 465711
2096921,2096921, 315953, 465758
2096921,2096921, 315651, 465936
2096921,2096921, 315673, 465977
2096921,2096921, 315517, 465814
2096921,2096921, 315686, 465726
2096921,2096921, 315703, 465437
2096921,2096921, 316085, 465388
2096921,2096921, 315318, 465758
2096921,2096921, 315087, 465130
2096921,2096921, 314776, 464891
2096921,2096921, 314694, 464931
2096921,2096921, 314884, 464788
2096921,2096921, 314723, 464794
2096921,2096921, 314271, 464029
2096921,2096921, 314045, 464169
2096921,2096921, 314122, 464266
2096921,2096921, 314200, 464142
2096921,2096921, 313484, 464311
2096921,2096921, 313397, 463173
2096921,2096921, 313074, 463035
2096921,2096921, 312943, 463097
2096921,2096921, 312690, 463301
2096921,2096921, 312378, 463175
2096921,2096921, 311413, 461835
2096921,2096921, 311217, 461374
2096921,2096921, 311061, 461314
2096921,2096921, 311234, 461463
2096921,2096921, 310305, 461146
2096921,2096921, 309185, 459627
2096921,2096921, 308690, 459246
2096921,2096921, 308697, 459421
2096921,2096921, 308678, 459254
2096921,2096921, 308086, 459411
2096921,2096921, 307471, 457969
2096921,2096921, 306901, 457656
2096921,2096921, 307235, 457747
2096921,2096921, 306969, 457721
2096921,2096921, 306590, 457809
2096921,2096921, 305476, 456477
2096921,2096921, 305514, 456235
2096921,2096921, 305612, 456148
2096921,2096921, 306003, 456236
2096921,2096921, 305253, 456331
2096921,2096921, 304846, 455677
2096921,2096921, 304620, 455504
2096921,2096921, 305049, 455451
2096921,2096921, 304713, 455365
2096921,2096921, 304375, 455615
2096921,2096921, 303550, 454711
2096921,2096921, 303831, 454722
2096921,2096921, 303818, 454395
2096921,2096921, 303594, 454418
2096921,2096921, 303757, 454249
2096921,2096921, 303401, 453769
2096921,2096921, 303444, 454121
2096921,2096921, 303459, 454114
2096921,2096921, 303326, 454001
2096921,2096921, 303177, 453971
2096921,2096921, 302758, 453630
2096921,2096921, 302821, 453761
2096921,2096921, 302656, 453636
2096921,2096921, 302930, 453713
2096921,2096921, 302672, 453882
2096921,2096921, 302719, 453771
2096921,2096921, 302594, 453613
2096921,2096921, 302610, 453650
2096921,2096921, 302577, 453644
2096921,2096921, 302891, 453419
2096921,2096921, 302791, 453377
2096921,2096921, 302496, 453339
2096921,2096921, 302555, 453607
2096921,2096921, 302633, 453460
2096921,2096921, 302786, 453465
2096921,2096921, 302826, 453516
2096921,2096921, 302644, 453671
2096921,2096921, 302729, 453593
2096921,2096921, 302757, 453709
2096921,2096921, 303072, 453631
2096921,2096921, 302996, 453587
2096921,2096921, 302523, 453464
2096921,2096921, 302657, 453492
2096921,2096921, 302935, 453511
2096921,2096921, 303064, 453449
2096921,2096921, 302920, 453470
2096921,2096921, 302734, 453562
2096921,2096921, 302806, 453629
2096921,2096921, 302907, 453684
2096921,2096921, 302898, 453580
2096921,2096921, 303099, 453829
2096921,2096921, 303125, 453562
2096921,2096921, 303205, 453641
2096921,2096921, 303087, 454091
2096921,2096921, 303143, 453846
2096921,2096921, 303445, 453907
2096921,2096921, 303769, 454141
2096921,2096921, 303615, 453888
2096921,2096921, 303480, 454172
2096921,2096921, 303797, 454155
2096921,2096921, 303972, 454325
2096921,2096921, 303760, 454631
2096921,2096921, 303871, 454224
2096921,2096921, 303744, 454556
2096921,2096921, 303969, 454354
2096921,2096921, 304125, 454649
2096921,2096921, 304238, 454519
2096921,2096921, 304184, 454609
2096921,2096921, 304140, 454647
2096921,2096921, 304413, 454763
2096921,2096921, 304650, 454727
2096921,2096921, 304676, 454807
2096921,2096921, 304781, 454875
2096921,2096921, 304630, 454732
2096921,2096921, 304765, 454744
2096921,2096921, 304665, 454944
2096921,2096921, 304678, 455144
2096921,2096921, 304833, 455293
2096921,2096921, 304966, 455033
2096921,2096921, 305172, 455097
2096921,2096921, 305060, 455532
2096921,2096921, 305018, 455261
2096921,2096921, 305060, 455111
2096921,2096921, 305135, 455319
2096921,2096921, 305228, 455172
2096921,2096921, 305197, 455193
2096921,2096921, 305590, 455359
2096921,2096921, 305476, 455406
2096921,2096921, 305404, 455659
2096921,2096921, 305854, 455381
2096921,2096921, 305931, 455741
2096921,2096921, 305999, 455611
2096921,2096921, 305873, 455582
2096921,2096921, 305891, 455630
2096921,2096921, 305833, 455524
2096921,2096921, 305950, 455801
2096921,2096921, 306133, 456401
2096921,2096921, 306320, 456047
2096921,2096921, 306113, 456112
2096921,2096921, 306608, 456048
2096921,2096921, 306541, 456146
2096921,2096921, 306771, 456131
2096921,2096921, 306316, 456069
2096921,2096921, 306217, 456176
2096921,2096921, 306383, 456257
2096921,2096921, 306468, 456029
2096921,2096921, 306744, 456362
2096921,2096921, 306728, 456582
2096921,2096921, 306887, 456719
2096921,2096921, 307011, 456405
2096921,2096921, 306867, 456451
2096921,2096921, 307023, 456252
2096921,2096921, 306916, 456405
2096921,2096921, 306912, 456441
2096921,2096921, 307190, 456381
2096921,2096921, 307310, 456629
2096921,2096921, 306960, 456742
2096921,2096921, 307587, 456890
2096921,2096921, 307453, 457100
2096921,2096921, 307492, 456815
2096921,2096921, 307145, 456972
2096921,2096921, 307640, 456781
2096921,2096921, 307366, 456995
2096921,2096921, 307604, 456643
2096921,2096921, 307558, 457080
2096921,2096921, 307130, 457027
2096921,2096921, 307518, 456778
2096921,2096921, 307706, 456866
2096921,2096921, 307398, 456716
2096921,2096921, 307331, 456694
2096921,2096921, 307392, 456527
2096921,2096921, 307219, 456690
2096921,2096921, 307616, 456666
2096921,2096921, 307633, 456849
2096921,2096921, 307354, 456923
2096921,2096921, 307185, 456636
2096921,2096921, 307259, 456547
2096921,2096921, 307626, 456441
2096921,2096921, 307673, 456570
2096921,2096921, 307417, 456846
2096921,2096921, 307087, 456577
2096921,2096921, 306921, 456399
2096921,2096921, 307183, 456459
2096921,2096921, 307164, 456187
2096921,2096921, 307114, 456389
2096921,2096921, 307077, 456069
2096921,2096921, 307107, 456387
2096921,2096921, 307136, 456296
2096921,2096921, 307273, 456382
2096921,2096921, 307244, 456373
2096921,2096921, 306865, 456000
2096921,2096921, 306737, 456135
2096921,2096921, 306730, 455846
2096921,2096921, 306796, 456097
2096921,2096921, 306568, 456070
2096921,2096921, 306699, 455873
2096921,2096921, 306387, 455734
2096921,2096921, 306469, 455777
2096921,2096921, 306562, 456068
2096921,2096921, 306150, 455617
2096921,2096921, 306264, 455418
2096921,2096921, 306243, 455426
2096921,2096921, 306297, 455205
2096921,2096921, 306162, 455103
2096921,2096921, 306182, 455252
2096921,2096921, 306175, 454945
2096921,2096921, 306348, 454993
2096921,2096921, 305949, 455161
2096921,2096921, 306106, 455160
2096921,2096921, 306074, 455269
2096921,2096921, 305961, 454894
2096921,2096921, 305734, 454673
2096921,2096921, 305628, 454740
2096921,2096921, 305811, 454772
2096921,2096921, 305763, 455019
2096921,2096921, 306177, 454882
2096921,2096921, 305835, 455003
2096921,2096921, 305655, 454949
2096921,2096921, 305642, 454703
2096921,2096921, 305641, 454505
2096921,2096921, 305592, 454632
2096921,2096921, 305618, 454327
2096921,2096921, 305458, 454657
2096921,2096921, 305426, 454760
2096921,2096921, 305787, 454456
2096921,2096921, 305726, 454402
2096921,2096921, 305808, 454712
2096921,2096921, 305842, 454669
2096921,2096921, 305728, 454547
2096921,2096921, 305774, 454406
2096921,2096921, 305787, 454333
2096921,2096921, 305414, 454460
2096921,2096921, 305789, 454309
2096921,2096921, 305771, 454512
2096921,2096921, 306181, 454524
2096921,2096921, 306018, 454604
2096921,2096921, 305800, 454468
2096921,2096921, 305852, 454658
2096921,2096921, 306279, 454493
2096921,2096921, 306229, 454634
2096921,2096921, 305877, 455154
2096921,2096921, 305850, 454882
2096921,2096921, 306044, 454839
2096921,2096921, 306255, 454577
2096921,2096921, 306017, 454763
2096921,2096921, 306130, 454608
2096921,2096921, 306162, 454693
2096921,2096921, 306291, 454516
2096921,2096921, 306286, 454555
2096921,2096921, 306379, 454545
2096921,2096921, 306294, 455019
2096921,2096921, 306208, 454744
2096921,2096921, 306229, 454638
2096921,2096921, 306405, 454779
2096921,2096921, 306665, 454840
2096921,2096921, 306715, 454853
2096921,2096921, 306861, 454796
2096921,2096921, 306440, 454994
2096921,2096921, 306616, 455071
2096921,2096921, 306454, 455047
2096921,2096921, 306789, 454585
2096921,2096921, 306655, 454645
2096921,2096921, 306927, 454964
2096921,2096921, 306701, 454596
2096921,2096921, 306505, 454790
2096921,2096921, 306686, 454703
2096921,2096921, 306641, 454986
2096921,2096921, 306915, 454924
2096921,2096921, 306941, 454695
2096921,2096921, 307010, 454848
2096921,2096921, 307000, 454892
2096921,2096921, 306915, 454928
2096921,2096921, 306975, 454828
2096921,2096921, 306957, 454867
2096921,2096921, 307263, 454766
2096921,2096921, 306948, 454713
2096921,2096921, 307002, 454976
2096921,2096921, 307053, 455235
2096921,2096921, 307173, 454949
2096921,2096921, 307259, 455232
2096921,2096921, 307205, 455118
2096921,2096921, 307225, 454930
2096921,2096921, 307246, 455097
2096921,2096921, 307083, 455075
2096921,2096921, 307159, 454956
2096921,2096921, 307159, 455237
2096921,2096921, 307333, 454952
2096921,2096921, 307215, 454866
2096921,2096921, 307535, 454810
2096921,2096921, 307692, 455076
2096921,2096921, 307315, 454960
2096921,2096921, 307389, 455254
2096921,2096921, 307486, 454978
2096921,2096921, 307423, 455058
2096921,2096921, 307427, 454864
2096921,2096921, 307543, 455447
2096921,2096921, 307331, 455221
2096921,2096921, 307540, 455149
2096921,2096921, 307639, 455233
2096921,2096921, 307604, 455200
2096921,2096921, 307373, 455080
2096921,2096921, 307451, 455267
2096921,2096921, 307381, 454998
2096921,2096921, 307509, 455182
2096921,2096921, 307473, 455346
2096921,2096921, 307467, 455504
2096921,2096921, 307555, 455376
2096921,2096921, 307600, 455475
2096921,2096921, 307788, 454982
2096921,2096921, 307848, 454921
2096921,2096921, 307949, 455120
2096921,2096921, 307770, 454958
2096921,2096921, 307786, 455234
2096921,2096921, 307898, 455596
2096921,2096921, 307771, 454841
2096921,2096921, 308015, 455283
2096921,2096921, 307910, 455266
2096921,2096921, 307909, 455129
2096921,2096921, 307834, 455386
2096921,2096921, 307825, 455574
2096921,2096921, 307795, 455413
2096921,2096921, 308042, 455130
2096921,2096921, 307992, 455173
2096921,2096921, 307825, 455224
2096921,2096921, 307902, 455263
2096921,2096921, 307930, 454925
2096921,2096921, 308228, 455331
2096921,2096921, 307919, 455174
2096921,2096921, 307921, 455495
2096921,2096921, 308006, 455291
2096921,2096921, 307890, 455060
2096921,2096921, 308097, 455132
2096921,2096921, 307940, 455169
2096921,2096921, 307850, 454903
2096921,2096921, 307849, 455210
2096921,2096921, 307950, 455344
2096921,2096921, 307933, 455144
2096921,2096921, 308236, 455213
2096921,2096921, 308102, 455068
2096921,2096921, 308279, 455007
2096921,2096921, 308200, 455103
2096921,2096921, 308123, 455077
2096921,2096921, 307736, 454971
2096921,2096921, 307832, 454811
2096921,2096921, 307946, 454961
2096921,2096921, 308123, 455012
2096921,2096921, 308358, 454949
2096921,2096921, 308356, 455142
2096921,2096921, 308208, 455326
2096921,2096921, 308208, 455395
2096921,2096921, 307848, 454883
2096921,2096921, 307961, 455117
2096921,2096921, 308052, 455060
2096921,2096921, 308145, 455016
2096921,2096921, 308226, 455167
2096921,2096921, 308087, 454884
2096921,2096921, 308121, 454945
2096921,2096921, 307985, 454961
2096921,2096921, 308446, 454907
2096921,2096921, 308189, 454864
2096921,2096921, 308288, 454947
2096921,2096921, 308139, 455006
2096921,2096921, 307950, 454978
2096921,2096921, 308055, 454813
2096921,2096921, 308372, 454729
2096921,2096921, 308220, 455093
2096921,2096921, 308401, 454703
2096921,2096921, 308456, 454945
2096921,2096921, 308101, 454940
2096921,2096921, 308154, 454889
2096921,2096921, 308373, 454907
2096921,2096921, 307866, 454767
2096921,2096921, 308112, 454727
2096921,2096921, 307917, 455059
2096921,2096921, 308175, 454556
2096921,2096921, 308347, 454853
2096921,2096921, 307893, 454920
2096921,2096921, 308083, 454690
2096921,2096921, 308461, 454672
2096921,2096921, 308175, 454738
2096921,2096921, 307922, 454306
2096921,2096921, 307694, 454280
2096921,2096921, 308125, 454306
2096921,2096921, 308115, 454787
2096921,2096921, 307881, 454701
2096921,2096921, 308131, 454608
2096921,2096921, 308135, 454716
2096921,2096921, 308189, 454945
2096921,2096921, 308160, 455010
2096921,2096921, 308323, 454891
2096921,2096921, 308371, 454182
2096921,2096921, 307811, 454262
2096921,2096921, 308000, 454371
2096921,2096921, 308176, 454353
2096921,2096921, 307817, 454580
2096921,2096921, 308066, 454575
2096921,2096921, 308137, 454375
2096921,2096921, 308090, 454630
2096921,2096921, 308201, 454335
2096921,2096921, 308121, 454478
2096921,2096921, 308041, 454395
2096921,2096921, 307887, 454258
2096921,2096921, 307798, 454308
2096921,2096921, 308022, 454193
2096921,2096921, 308089, 454016
2096921,2096921, 308168, 454385
2096921,2096921, 308091, 454342
2096921,2096921, 308306, 454406
2096921,2096921, 308228, 454414
2096921,2096921, 308174, 454187
2096921,2096921, 308071, 454289
2096921,2096921, 308207, 454250
2096921,2096921, 307849, 454169
2096921,2096921, 307952, 454350
2096921,2096921, 307987, 454569
2096921,2096921, 308241, 454125
2096921,2096921, 308016, 454231
2096921,2096921, 307945, 454286
2096921,2096921, 308242, 453982
2096921,2096921, 307983, 454053
2096921,2096921, 308043, 453938
2096921,2096921, 307799, 454131
2096921,2096921, 307633, 454048
2096921,2096921, 307822, 453904
2096921,2096921, 308133, 453985
2096921,2096921, 307804, 453831
2096921,2096921, 308137, 453960
2096921,2096921, 307995, 454122
2096921,2096921, 307807, 454018
2096921,2096921, 308043, 454043
2096921,2096921, 307897, 453799
2096921,2096921, 307850, 453870
2096921,2096921, 307768, 453994
2096921,2096921, 308034, 453968
2096921,2096921, 308048, 454028
2096921,2096921, 307797, 453732
2096921,2096921, 308167, 453704
2096921,2096921, 307819, 453836
2096921,2096921, 307948, 453971
2096921,2096921, 307869, 454021
2096921,2096921, 307820, 453835
2096921,2096921, 307945, 453708
2096921,2096921, 307900, 453782
2096921,2096921, 307577, 453796
2096921,2096921, 307899, 453805
2096921,2096921, 307770, 453850
2096921,2096921, 308067, 453955
2096921,2096921, 307919, 453593
2096921,2096921, 307766, 453841
2096921,2096921, 307819, 453885
2096921,2096921, 307917, 453922
2096921,2096921, 307972, 453984
2096921,2096921, 307782, 453732
2096921,2096921, 307956, 453790
2096921,2096921, 307893, 453514
2096921,2096921, 307585, 453528
2096921,2096921, 307639, 453565
2096921,2096921, 307816, 453465
2096921,2096921, 307851, 453543
2096921,2096921, 307620, 453558
2096921,2096921, 307680, 453068
2096921,2096921, 307600, 453500
2096921,2096921, 307730, 453283
2096921,2096921, 307566, 453435
2096921,2096921, 307658, 453322
2096921,2096921, 307575, 453261
2096921,2096921, 307542, 453443
2096921,2096921, 307606, 453482
2096921,2096921, 307667, 453289
2096921,2096921, 307807, 453584
2096921,2096921, 307566, 453197
2096921,2096921, 307531, 453336
2096921,2096921, 307779, 453039
2096921,2096921, 307626, 453126
2096921,2096921, 307585, 453075
2096921,2096921, 307799, 452852
2096921,2096921, 307025, 453090
2096921,2096921, 307411, 453224
2096921,2096921, 307148, 453302
2096921,2096921, 307177, 453086
2096921,2096921, 307228, 453099
2096921,2096921, 307369, 453189
2096921,2096921, 307284, 453165
2096921,2096921, 307272, 452814
2096921,2096921, 307510, 452695
2096921,2096921, 307586, 452853
2096921,2096921, 307201, 453009
2096921,2096921, 307469, 453037
2096921,2096921, 307331, 453288
2096921,2096921, 307366, 453201
2096921,2096921, 307265, 453344
2096921,2096921, 306927, 453124
2096921,2096921, 307162, 452823
2096921,2096921, 307457, 452911
2096921,2096921, 307239, 452945
2096921,2096921, 307275, 453124
2096921,2096921, 307485, 452987
2096921,2096921, 307489, 452909
2096921,2096921, 307394, 452973
2096921,2096921, 307201, 453006
2096921,2096921, 307028, 452461
2096921,2096921, 306907, 452369
2096921,2096921, 306878, 452604
2096921,2096921, 306877, 452692
2096921,2096921, 306654, 452832
2096921,2096921, 306501, 452579
2096921,2096921, 306261, 452314
2096921,2096921, 306365, 452301
2096921,2096921, 306502, 452282
2096921,2096921, 306197, 452335
2096921,2096921, 305790, 451738
2096921,2096921, 305604, 451580
2096921,2096921, 305694, 451533
2096921,2096921, 305561, 451324
2096921,2096921, 305346, 451466
2096921,2096921, 305297, 450453
2096921,2096921, 305079, 450505
2096921,2096921, 305011, 450724
2096921,2096921, 304937, 450971
2096921,2096921, 304241, 450709
2096921,2096921, 304263, 450228
2096921,2096921, 304162, 449850
2096921,2096921, 304183, 449837
2096921,2096921, 303942, 449871
2096921,2096921, 303389, 449788
2096921,2096921, 302603, 448506
2096921,2096921, 302260, 448331
2096921,2096921, 302121, 448231
2096921,2096921, 302297, 448372
2096921,2096921, 301106, 448420
2096921,2096921, 300262, 446579
2096921,2096921, 299620, 446467
2096921,2096921, 299781, 445992
2096921,2096921, 299921, 446088
2096921,2096921, 299330, 445984
2096921,2096921, 298168, 444845
2096921,2096921, 298316, 444754
2096921,2096921, 297958, 444690
2096921,2096921, 298373, 444753
2096921,2096921, 297779, 444643
2096921,2096921, 296846, 443650
2096921,2096921, 296497, 443360
2096921,2096921, 296770, 443347
2096921,2096921, 296727, 443415
2096921,2096921, 296513, 443153
2096921,2096921, 296031, 442628
2096921,2096921, 295826, 442656
2096921,2096921, 295795, 442680
2096921,2096921, 295627, 442672
2096921,2096921, 295422, 442580
2096921,2096921, 295066, 441872
2096921,2096921, 295086, 441753
2096921,2096921, 294748, 441318
2096921,2096921, 294945, 441725
2096921,2096921, 295016, 441600
2096921,2096921, 294597, 441520
2096921,2096921, 294652, 441177
2096921,2096921, 294698, 441298
2096921,2096921, 294689, 441459
2096921,2096921, 294612, 441626
2096921,2096921, 294489, 441068
2096921,2096921, 294066, 441187
2096921,2096921, 294125, 440899
2096921,2096921, 293960, 440955
2096921,2096921, 294339, 440929
2096921,2096921, 293984, 440976
2096921,2096921, 294172, 440636
2096921,2096921, 294193, 440778
2096921,2096921, 294176, 440821
2096921,2096921, 293894, 440848
2096921,2096921, 293921, 440932
2096921,2096921, 294182, 440883
2096921,2096921, 294359, 440862
2096921,2096921, 294352, 440890
2096921,2096921, 294417, 440653
2096921,2096921, 294426, 440969
2096921,2096921, 294602, 440970
2096921,2096921, 294530, 441020
2096921,2096921, 294648, 441068
2096921,2096921, 294596, 441046
2096921,2096921, 294543, 440888
2096921,2096921, 294552, 440801
2096921,2096921, 294390, 441027
2096921,2096921, 294443, 441114
2096921,2096921, 294259, 441018
2096921,2096921, 294455, 441246
2096921,2096921, 294573, 441421
2096921,2096921, 294443, 441376
2096921,2096921, 294447, 441724
2096921,2096921, 294657, 441554
2096921,2096921, 294910, 441640
2096921,2096921, 294612, 441419
2096921,2096921, 294864, 441333
2096921,2096921, 294933, 441402
2096921,2096921, 295096, 441652
2096921,2096921, 295324, 441765
2096921,2096921, 295410, 441956
2096921,2096921, 295194, 442094
2096921,2096921, 295222, 442033
2096921,2096921, 295475, 442026
2096921,2096921, 295735, 442180
2096921,2096921, 295642, 442380
2096921,2096921, 295708, 442028
2096921,2096921, 295509, 442305
2096921,2096921, 295773, 442210
2096921,2096921, 296046, 442726
2096921,2096921, 296471, 442894
2096921,2096921, 296332, 442855
2096921,2096921, 296303, 442537
2096921,2096921, 296240, 442542
2096921,2096921, 296433, 443028
2096921,2096921, 296427, 442898
2096921,2096921, 296610, 442934
2096921,2096921, 296532, 443074
2096921,2096921, 296757, 442999
2096921,2096921, 296871, 443439
2096921,2096921, 296976, 443392
2096921,2096921, 296740, 443306
2096921,2096921, 296987, 442982
2096921,2096921, 297242, 443082
2096921,2096921, 297361, 443513
2096921,2096921, 297269, 443479
2096921,2096921, 297268, 443472
2096921,2096921, 297209, 443498
2096921,2096921, 297389, 443561
2096921,2096921, 297405, 444053
2096921,2096921, 297844, 443952
2096921,2096921, 297727, 444100
2096921,2096921, 297731, 444235
2096921,2096921, 297478, 444210
2096921,2096921, 297860, 444565
2096921,2096921, 297909, 444110
2096921,2096921, 298062, 444282
2096921,2096921, 297957, 444523
2096921,2096921, 298216, 444309
2096921,2096921, 298528, 444721
2096921,2096921, 298266, 444939
2096921,2096921, 298904, 444799
2096921,2096921, 298501, 444623
2096921,2096921, 298550, 444736
2096921,2096921, 298791, 444939
2096921,2096921, 298815, 445252
2096921,2096921, 299043, 445170
2096921,2096921, 298978, 444846
2096921,2096921, 299128, 445199
2096921,2096921, 299442, 445152
2096921,2096921, 299366, 445323
2096921,2096921, 299628, 445708
2096921,2096921, 299518, 445676
2096921,2096921, 299506, 445765
2096921,2096921, 299386, 446089
2096921,2096921, 299622, 446116
2096921,2096921, 299877, 445774
2096921,2096921, 299516, 445827
2096921,2096921, 299716, 445782
2096921,2096921, 299866, 446097
2096921,2096921, 299632, 446004
2096921,2096921, 299790, 446198
2096921,2096921, 299827, 446445
2096921,2096921, 300104, 446143
2096921,2096921, 300092, 446106
2096921,2096921, 300339, 446356
2096921,2096921, 299971, 446301
2096921,2096921, 300152, 446414
2096921,2096921, 300301, 446441
2096921,2096921, 300611, 446408
2096921,2096921, 300516, 446304
2096921,2096921, 300392, 446292
2096921,2096921, 300372, 446436
2096921,2096921, 300602, 446475
2096921,2096921, 300335, 446613
2096921,2096921, 300712, 446550
2096921,2096921, 300327, 446515
2096921,2096921, 300711, 446542
2096921,2096921, 300547, 446618
2096921,2096921, 300645, 446394
2096921,2096921, 300630, 446539
2096921,2096921, 300314, 446472
2096921,2096921, 300436, 446647
2096921,2096921, 300695, 446579
2096921,2096921, 300780, 446523
2096921,2096921, 300604, 446650
2096921,2096921, 300441, 446584
2096921,2096921, 300549, 446372
2096921,2096921, 300348, 446535
2096921,2096921, 300431, 446445
2096921,2096921, 300501, 446646
2096921,2096921, 300543, 446471
2096921,2096921, 300605, 446232
2096921,2096921, 300491, 446432
2096921,2096921, 300438, 446355
2096921,2096921, 300287, 445955
2096921,2096921, 300331, 446344
2096921,2096921, 300161, 446230
2096921,2096921, 299999, 446105
2096921,2096921, 299894, 446170
2096921,2096921, 300236, 446121
2096921,2096921, 300127, 446304
2096921,2096921, 299949, 446283
2096921,2096921, 299994, 445877
2096921,2096921, 299952, 446192
2096921,2096921, 299825, 445936
2096921,2096921, 300104, 445867
2096921,2096921, 299950, 446113
2096921,2096921, 300120, 446059
2096921,2096921, 299751, 446117
2096921,2096921, 299891, 445911
2096921,2096921, 299729, 446180
2096921,2096921, 299902, 445929
2096921,2096921, 299939, 446143
2096921,2096921, 299789, 446207
2096921,2096921, 299662, 446030
2096921,2096921, 299944, 445883
2096921,2096921, 299766, 445591
2096921,2096921, 300078, 446140
2096921,2096921, 299890, 446000
2096921,2096921, 300170, 446100
2096921,2096921, 299712, 446094
2096921,2096921, 299729, 446195
2096921,2096921, 299739, 446170
2096921,2096921, 299645, 446093
2096921,2096921, 299942, 445856
2096921,2096921, 299712, 445938
2096921,2096921, 299846, 445709
2096921,2096921, 299837, 445785
2096921,2096921, 299918, 446131
2096921,2096921, 299665, 446110
2096921,2096921, 299913, 446056
2096921,2096921, 300138, 445956
2096921,2096921, 300142, 446215
2096921,2096921, 299871, 445918
2096921,2096921, 300082, 446307
2096921,2096921, 300075, 446114
2096921,2096921, 300321, 446297
2096921,2096921, 300087, 446048
2096921,2096921, 300326, 446326
2096921,2096921, 300388, 446758
2096921,2096921, 300349, 446447
2096921,2096921, 300423, 446512
2096921,2096921, 300883, 446631
2096921,2096921, 300922, 446820
2096921,2096921, 300923, 447092
2096921,2096921, 300899, 446670
2096921,2096921, 300890, 446853
2096921,2096921, 300689, 446959
2096921,2096921, 301120, 447124
2096921,2096921, 301435, 447250
2096921,2096921, 301132, 447082
2096921,2096921, 301170, 447211
2096921,2096921, 301062, 446891
2096921,2096921, 301468, 447486
2096921,2096921, 301361, 447304
2096921,2096921, 301707, 447561
2096921,2096921, 301534, 447557
2096921,2096921, 301614, 447313
2096921,2096921, 301784, 447312
2096921,2096921, 301762, 447562
2096921,2096921, 301813, 447764
2096921,2096921, 301541, 447611
2096921,2096921, 301874, 447435
2096921,2096921, 301605, 447649
2096921,2096921, 301666, 447747
2096921,2096921, 301611, 447841
2096921,2096921, 301968, 448138
2096921,2096921, 301950, 448019
2096921,2096921, 302123, 448288
2096921,2096921, 302178, 448055
2096921,2096921, 302211, 448229
2096921,2096921, 301961, 448051
2096921,2096921, 302134, 448257
2096921,2096921, 302255, 448536
2096921,2096921, 302434, 448095
2096921,2096921, 302497, 448449
2096921,2096921, 302643, 448423
2096921,2096921, 302667, 448493
2096921,2096921, 302883, 448642
2096921,2096921, 302654, 448385
2096921,2096921, 302746, 448445
2096921,2096921, 302956, 448618
2096921,2096921, 303004, 448863
2096921,2096921, 303031, 449110
2096921,2096921, 302995, 449059
2096921,2096921, 303240, 448689
2096921,2096921, 303031, 448523
2096921,2096921, 302939, 448468
2096921,2096921, 303093, 449013
2096921,2096921, 303104, 449238
2096921,2096921, 303167, 449093
2096921,2096921, 303210, 449303
2096921,2096921, 303322, 449178
2096921,2096921, 303888, 449331
2096921,2096921, 303445, 449472
2096921,2096921, 303759, 449341
2096921,2096921, 303686, 449441
2096921,2096921, 303887, 449470
2096921,2096921, 303907, 449714
2096921,2096921, 304209, 449854
2096921,2096921, 303697, 449850
2096921,2096921, 304008, 449770
2096921,2096921, 303769, 449921
2096921,2096921, 303992, 450071
2096921,2096921, 303878, 450088
2096921,2096921, 303852, 450059
2096921,2096921, 303733, 449995
2096921,2096921, 304179, 450147
2096921,2096921, 304200, 450567
2096921,2096921, 304464, 450464
2096921,2096921, 304447, 450504
2096921,2096921, 304478, 450464
2096921,2096921, 304660, 450421
2096921,2096921, 304726, 450525
2096921,2096921, 304630, 450757
2096921,2096921, 304367, 450757
2096921,2096921, 304631, 450843
2096921,2096921, 304582, 450465
2096921,2096921, 304898, 450661
2096921,2096921, 304918, 450823
2096921,2096921, 304867, 450792
2096921,2096921, 305053, 450910
2096921,2096921, 305014, 450596
2096921,2096921, 305002, 450906
2096921,2096921, 305158, 450975
2096921,2096921, 304917, 450954
2096921,2096921, 305124, 451028
2096921,2096921, 305130, 451099
2096921,2096921, 305229, 451107
2096921,2096921, 305338, 451365
2096921,2096921, 305138, 451388
2096921,2096921, 305190, 451228
2096921,2096921, 305317, 451246
2096921,2096921, 305280, 451435
2096921,2096921, 305273, 451486
2096921,2096921, 305410, 451377
2096921,2096921, 305376, 451502
2096921,2096921, 305721, 451588
2096921,2096921, 305859, 451765
2096921,2096921, 305940, 451755
2096921,2096921, 305860, 451684
2096921,2096921, 305523, 451905
2096921,2096921, 305883, 451766
2096921,2096921, 305944, 451907
2096921,2096921, 305764, 451947
2096921,2096921, 305828, 451783
2096921,2096921, 305899, 451849
2096921,2096921, 306180, 452266
2096921,2096921, 306331, 452227
2096921,2096921, 306186, 452208
2096921,2096921, 306302, 452357
2096921,2096921, 306087, 452296
2096921,2096921, 306281, 452283
2096921,2096921, 306200, 452439
2096921,2096921, 306737, 452381
2096921,2096921, 306294, 452488
2096921,2096921, 306260, 452404
2096921,2096921, 306485, 452696
2096921,2096921, 306586, 452538
2096921,2096921, 306681, 452960
2096921,2096921, 306918, 453099
2096921,2096921, 306828, 452998
2096921,2096921, 306923, 452881
2096921,2096921, 306931, 452835
2096921,2096921, 306821, 452728
2096921,2096921, 306961, 452822
2096921,2096921, 306597, 452964
2096921,2096921, 306555, 452929
2096921,2096921, 307027, 453283
2096921,2096921, 307076, 453429
2096921,2096921, 307421, 453354
2096921,2096921, 307146, 453356
2096921,2096921, 306990, 453271
2096921,2096921, 307402, 453323
2096921,2096921, 307378, 452953
2096921,2096921, 307103, 453159
2096921,2096921, 307193, 453602
2096921,2096921, 307304, 453578
2096921,2096921, 307289, 453785
2096921,2096921, 307432, 453569
2096921,2096921, 307403, 453479
2096921,2096921, 307572, 453401
2096921,2096921, 307686, 453666
2096921,2096921, 307455, 453717
2096921,2096921, 307591, 453637
2096921,2096921, 307513, 453907
2096921,2096921, 307402, 454041
2096921,2096921, 307572, 453723
2096921,2096921, 307599, 454127
2096921,2096921, 307641, 454017
2096921,2096921, 307817, 454182
2096921,2096921, 307959, 453927
2096921,2096921, 307824, 454211
2096921,2096921, 308170, 454284
2096921,2096921, 307948, 454232
2096921,2096921, 308075, 454340
2096921,2096921, 307752, 454451
2096921,2096921, 307793, 454479
2096921,2096921, 308054, 454483
2096921,2096921, 308021, 454423
2096921,2096921, 308024, 454607
2096921,2096921, 308174, 454521
2096921,2096921, 307958, 454310
2096921,2096921, 308165, 454651
2096921,2096921, 307954, 454635
2096921,2096921, 308162, 454332
2096921,2096921, 308150, 454487
2096921,2096921, 308423, 454624
2096921,2096921, 308715, 454835
2096921,2096921, 308697, 454733
2096921,2096921, 308428, 454907
2096921,2096921, 308469, 454795
2096921,2096921, 308492, 454926
2096921,2096921, 308699, 454928
2096921,2096921, 308699, 455024
2096921,2096921, 308573, 454908
2096921,2096921, 308687, 455064
2096921,2096921, 308734, 454969
2096921,2096921, 308717, 454972
2096921,2096921, 308877, 455078
2096921,2096921, 308749, 455340
2096921,2096921, 308655, 455197
2096921,2096921, 309122, 455169
2096921,2096921, 308833, 455554
2096921,2096921, 309124, 455710
2096921,2096921, 308998, 455561
2096921,2096921, 309293, 455319
2096921,2096921, 309304, 455367
2096921,2096921, 309094, 455796
2096921,2096921, 308986, 455934
2096921,2096921, 309355, 455771
2096921,2096921, 309254, 456051
2096921,2096921, 309338, 455642
2096921,2096921, 309037, 456378
2096921,2096921, 309285, 456086
2096921,2096921, 309055, 455951
2096921,2096921, 309400, 455903
2096921,2096921, 309483, 456048
2096921,2096921, 309664, 456294
2096921,2096921, 309910, 456201
2096921,2096921, 309727, 456451
2096921,2096921, 309309, 455916
2096921,2096921, 309413, 456142
2096921,2096921, 309567, 456354
2096921,2096921, 309501, 456187
2096921,2096921, 309354, 456303
2096921,2096921, 309555, 456212
2096921,2096921, 309656, 456259
2096921,2096921, 309733, 456513
2096921,2096921, 309731, 456707
2096921,2096921, 309712, 456705
2096921,2096921, 309825, 456533
2096921,2096921, 309792, 456664
2096921,2096921, 309920, 456901
2096921,2096921, 309889, 456755
2096921,2096921, 309744, 456869
2096921,2096921, 310376, 456917
2096921,2096921, 309979, 457109
2096921,2096921, 310373, 456978
2096921,2096921, 310095, 457151
2096921,2096921, 310194, 457363
2096921,2096921, 310087, 457179
2096921,2096921, 310449, 457148
2096921,2096921, 310345, 457147
2096921,2096921, 310257, 456939
2096921,2096921, 310157, 457224
2096921,2096921, 310227, 457149
2096921,2096921, 310460, 457122
2096921,2096921, 310335, 457077
2096921,2096921, 310427, 457409
2096921,2096921, 310264, 457486
2096921,2096921, 310368, 457528
2096921,2096921, 310368, 457437
2096921,2096921, 310445, 457552
2096921,2096921, 310507, 457191
2096921,2096921, 310334, 457333
2096921,2096921, 310049, 457434
2096921,2096921, 310281, 457415
2096921,2096921, 310410, 457487
2096921,2096921, 310566, 457553
2096921,2096921, 310594, 457815
2096921,2096921, 310678, 457725
2096921,2096921, 310436, 457622
2096921,2096921, 310623, 457928
2096921,2096921, 310813, 458164
2096921,2096921, 310747, 457682
2096921,2096921, 310636, 457965
2096921,2096921, 310849, 457743
2096921,2096921, 310784, 458197
2096921,2096921, 310847, 458193
2096921,2096921, 310768, 458137
2096921,2096921, 310815, 457862
2096921,2096921, 310917, 457969
2096921,2096921, 311087, 458109
2096921,2096921, 310940, 458264
2096921,2096921, 310887, 457930
2096921,2096921, 310713, 458176
2096921,2096921, 311063, 458086
2096921,2096921, 311013, 458352
2096921,2096921, 311113, 458473
2096921,2096921, 311101, 458169
2096921,2096921, 310979, 458326
2096921,2096921, 310960, 458419
2096921,2096921, 310867, 458379
2096921,2096921, 310777, 458189
2096921,2096921, 310646, 457848
2096921,2096921, 310904, 457911
2096921,2096921, 310452, 457823
2096921,2096921, 310556, 457978
2096921,2096921, 310381, 458115
2096921,2096921, 310597, 458205
2096921,2096921, 310473, 458147
2096921,2096921, 310305, 457969
2096921,2096921, 310160, 457997
2096921,2096921, 310113, 457616
2096921,2096921, 309977, 457744
2096921,2096921, 310083, 457590
2096921,2096921, 309485, 457403
2096921,2096921, 309396, 457010
2096921,2096921, 309396, 457329
2096921,2096921, 309549, 456988
2096921,2096921, 309620, 456874
2096921,2096921, 309067, 457266
2096921,2096921, 308734, 456925
2096921,2096921, 308691, 456435
2096921,2096921, 308536, 456483
2096921,2096921, 308649, 456287
2096921,2096921, 307608, 456493
2096921,2096921, 306990, 455468
2096921,2096921, 306995, 455301
2096921,2096921, 306861, 455099
2096921,2096921, 306735, 454803
2096921,2096921, 305685, 455054
2096921,2096921, 304771, 453517
2096921,2096921, 304775, 453051
2096921,2096921, 304474, 453034
2096921,2096921, 304630, 452693
2096921,2096921, 303961, 452847
2096921,2096921, 302964, 451873
2096921,2096921, 302880, 451947
2096921,2096921, 303210, 451767
2096921,2096921, 303123, 451795
2096921,2096921, 302504, 451731
2096921,2096921, 302053, 451128
2096921,2096921, 301813, 450630
2096921,2096921, 301752, 450843
2096921,2096921, 301712, 450724
2096921,2096921, 301257, 450674
2096921,2096921, 300912, 449959
2096921,2096921, 301009, 450033
2096921,2096921, 301064, 450095
2096921,2096921, 301331, 449889
2096921,2096921, 300399, 450044
2096921,2096921, 300220, 449449
2096921,2096921, 300290, 449358
2096921,2096921, 300303, 449585
2096921,2096921, 300491, 449492
2096921,2096921, 300353, 449225
2096921,2096921, 300048, 449426
2096921,2096921, 300083, 449201
2096921,2096921, 299754, 449502
2096921,2096921, 299962, 449480
2096921,2096921, 299949, 449086
2096921,2096921, 299810, 449211
2096921,2096921, 299570, 449094
2096921,2096921, 299652, 449039
2096921,2096921, 299713, 449200
2096921,2096921, 299746, 449064
2096921,2096921, 299608, 449189
2096921,2096921, 299897, 449078
2096921,2096921, 299666, 449039
2096921,2096921, 299643, 449154
2096921,2096921, 299738, 449379
2096921,2096921, 299638, 449384
2096921,2096921, 299689, 449213
2096921,2096921, 299628, 449217
2096921,2096921, 299766, 449551
2096921,2096921, 299869, 449329
2096921,2096921, 300051, 449871
2096921,2096921, 300354, 449726
2096921,2096921, 300279, 449697
2096921,2096921, 300253, 449884
2096921,2096921, 300254, 449702
2096921,2096921, 300483, 449673
2096921,2096921, 300811, 449850
2096921,2096921, 300689, 449785
2096921,2096921, 300504, 449811
2096921,2096921, 300528, 449752
2096921,2096921, 300609, 450277
2096921,2096921, 300969, 450335
2096921,2096921, 300739, 450533
2096921,2096921, 300812, 450383
2096921,2096921, 300356, 450249
2096921,2096921, 300975, 450812
2096921,2096921, 301355, 450910
2096921,2096921, 301101, 450612
2096921,2096921, 301108, 450430
2096921,2096921, 301610, 450734
2096921,2096921, 301723, 451474
2096921,2096921, 301857, 451280
2096921,2096921, 301748, 451243
2096921,2096921, 301742, 451222
2096921,2096921, 301837, 451043
2096921,2096921, 301842, 451761
2096921,2096921, 301916, 451678
2096921,2096921, 302034, 451525
2096921,2096921, 302262, 451886
2096921,2096921, 302308, 451859
2096921,2096921, 302589, 452295
2096921,2096921, 302830, 452485
2096921,2096921, 303001, 452422
2096921,2096921, 302798, 452505
2096921,2096921, 303076, 452375
2096921,2096921, 303132, 452814
2096921,2096921, 302987, 452659
2096921,2096921, 303203, 452539
2096921,2096921, 303027, 453130
2096921,2096921, 303700, 452956
2096921,2096921, 303726, 452592
2096921,2096921, 303925, 453307
2096921,2096921, 303901, 453292
2096921,2096921, 303750, 453601
2096921,2096921, 304024, 453411
2096921,2096921, 304350, 453829
2096921,2096921, 304300, 453855
2096921,2096921, 304247, 454001
2096921,2096921, 304272, 454012
2096921,2096921, 304466, 453769
2096921,2096921, 304602, 454218
2096921,2096921, 304774, 454394
2096921,2096921, 304743, 454286
2096921,2096921, 304633, 454719
2096921,2096921, 304603, 454548
2096921,2096921, 305282, 454639
2096921,2096921, 305300, 454597
2096921,2096921, 305090, 454712
2096921,2096921, 305460, 454710
2096921,2096921, 305697, 454859
2096921,2096921, 305994, 455347
2096921,2096921, 305854, 455586
2096921,2096921, 305854, 455508
2096921,2096921, 305978, 455373
2096921,2096921, 306398, 455722
2096921,2096921, 306303, 456006
2096921,2096921, 306378, 456087
2096921,2096921, 306392, 455868
2096921,2096921, 306327, 456075
2096921,2096921, 306617, 456104
2096921,2096921, 306774, 456547
2096921,2096921, 307078, 456198
2096921,2096921, 307241, 456803
2096921,2096921, 307049, 456645
2096921,2096921, 307247, 456715
2096921,2096921, 307303, 456908
2096921,2096921, 307185, 457249
2096921,2096921, 307198, 457045
2096921,2096921, 307180, 457263
2096921,2096921, 307468, 457190
2096921,2096921, 307610, 457513
2096921,2096921, 307705, 457557
2096921,2096921, 307561, 457249
2096921,2096921, 307937, 457117
2096921,2096921, 307761, 457340
2096921,2096921, 307995, 457608
2096921,2096921, 308044, 457776
2096921,2096921, 307673, 457583
2096921,2096921, 308083, 457902
2096921,2096921, 307971, 457492
2096921,2096921, 308321, 457835
2096921,2096921, 308468, 457983
2096921,2096921, 308225, 458220
2096921,2096921, 308350, 458162
2096921,2096921, 308678, 458191
2096921,2096921, 308586, 458118
2096921,2096921, 308548, 458205
2096921,2096921, 308548, 458291
2096921,2096921, 308593, 458196
2096921,2096921, 308328, 458482
2096921,2096921, 308661, 458497
2096921,2096921, 308532, 458309
2096921,2096921, 308677, 458476
2096921,2096921, 308814, 458567
2096921,2096921, 308709, 458623
2096921,2096921, 308464, 458711
2096921,2096921, 308487, 458455
2096921,2096921, 308240, 458391
2096921,2096921, 308647, 458490
2096921,2096921, 308300, 458405
2096921,2096921, 308282, 458679
2096921,2096921, 308261, 458657
2096921,2096921, 308838, 458480
2096921,2096921, 308626, 458480
2096921,2096921, 308638, 458450
2096921,2096921, 308482, 458413
2096921,2096921, 308538, 458514
2096921,2096921, 308340, 458381
2096921,2096921, 308552, 458549
2096921,2096921, 308253, 458646
2096921,2096921, 308584, 458482
2096921,2096921, 308541, 458545
2096921,2096921, 308542, 458603
2096921,2096921, 308580, 458236
2096921,2096921, 308252, 458515
2096921,2096921, 308652, 458397
2096921,2096921, 308249, 458168
2096921,2096921, 308467, 458414
2096921,2096921, 308466, 458443
2096921,2096921, 308199, 458561
2096921,2096921, 308217, 458527
2096921,2096921, 308211, 458646
2096921,2096921, 308468, 458463
2096921,2096921, 308783, 458765
2096921,2096921, 308468, 458308
2096921,2096921, 308402, 458194
2096921,2096921, 308475, 458378
2096921,2096921, 308305, 458727
2096921,2096921, 308742, 458458
2096921,2096921, 308466, 458537
2096921,2096921, 308599, 458403
2096921,2096921, 308657, 458774
2096921,2096921, 308380, 458640
2096921,2096921, 308587, 458527
2096921,2096921, 308519, 458624
2096921,2096921, 308389, 458737
2096921,2096921, 308771, 458637
2096921,2096921, 309009, 458863
2096921,2096921, 308622, 458788
2096921,2096921, 308699, 458720
2096921,2096921, 308719, 458917
2096921,2096921, 308835, 458983
2096921,2096921, 308818, 459161
2096921,2096921, 308958, 459193
2096921,2096921, 308790, 459221
2096921,2096921, 308991, 459208
2096921,2096921, 309046, 459164
2096921,2096921, 308878, 459275
2096921,2096921, 309031, 459324
2096921,2096921, 309187, 459190
2096921,2096921, 309223, 459488
2096921,2096921, 309417, 459651
2096921,2096921, 309282, 459597
2096921,2096921, 309505, 459603
2096921,2096921, 309286, 459660
2096921,2096921, 309637, 459844
2096921,2096921, 309775, 459872
2096921,2096921, 309536, 459701
2096921,2096921, 309827, 459878
2096921,2096921, 309795, 459703
2096921,2096921, 309796, 460553
2096921,2096921, 310073, 460649
2096921,2096921, 310117, 460355
2096921,2096921, 310174, 460192
2096921,2096921, 310377, 460344
2096921,2096921, 310662, 460667
2096921,2096921, 310319, 460888
2096921,2096921, 310355, 460314
2096921,2096921, 310139, 460558
2096921,2096921, 310509, 460310
2096921,2096921, 310714, 460952
2096921,2096921, 310637, 460660
2096921,2096921, 310818, 461288
2096921,2096921, 310782, 461265
2096921,2096921, 310754, 460887
2096921,2096921, 311052, 461231
2096921,2096921, 311102, 461141
2096921,2096921, 310625, 461246
2096921,2096921, 311096, 461085
2096921,2096921, 311026, 461172
2096921,2096921, 311119, 461453
2096921,2096921, 311345, 461568
2096921,2096921, 311289, 461495
2096921,2096921, 311350, 461617
2096921,2096921, 311482, 461567
2096921,2096921, 311418, 461759
2096921,2096921, 311512, 461472
2096921,2096921, 311365, 461462
2096921,2096921, 311425, 461700
2096921,2096921, 311447, 461603
2096921,2096921, 311848, 461822
2096921,2096921, 312021, 462161
2096921,2096921, 312088, 462083
2096921,2096921, 312084, 461997
2096921,2096921, 312263, 461974
2096921,2096921, 311965, 462143
2096921,2096921, 312097, 462125
2096921,2096921, 312023, 462336
2096921,2096921, 312154, 462334
2096921,2096921, 312247, 462178
2096921,2096921, 312462, 462522
2096921,2096921, 312204, 462712
2096921,2096921, 312136, 462540
2096921,2096921, 312246, 462736
2096921,2096921, 312615, 462423
2096921,2096921, 312636, 462971
2096921,2096921, 312499, 462507
2096921,2096921, 312283, 462777
2096921,2096921, 312440, 462791
2096921,2096921, 312682, 462791
2096921,2096921, 312752, 462746
2096921,2096921, 312648, 462991
2096921,2096921, 312772, 462878
2096921,2096921, 312877, 463009
2096921,2096921, 313033, 462969
2096921,2096921, 313079, 462984
2096921,2096921, 312889, 462937
2096921,2096921, 313053, 463099
2096921,2096921, 313338, 463304
2096921,2096921, 313311, 463455
2096921,2096921, 313400, 463453
2096921,2096921, 313589, 463545
2096921,2096921, 313541, 463464
2096921,2096921, 313387, 463647
2096921,2096921, 313605, 463418
2096921,2096921, 313511, 463506
2096921,2096921, 313806, 463688
2096921,2096921, 313621, 463785
2096921,2096921, 313616, 463626
2096921,2096921, 313726, 463731
2096921,2096921, 313851, 463828
2096921,2096921, 314012, 463685
2096921,2096921, 314090, 463576
2096921,2096921, 313887, 463807
2096921,2096921, 313681, 463831
2096921,2096921, 313836, 464334
2096921,2096921, 313580, 464045
2096921,2096921, 313752, 464175
2096921,2096921, 314101, 463906
2096921,2096921, 314069, 463713
2096921,2096921, 314070, 464019
2096921,2096921, 314210, 464289
2096921,2096921, 314191, 464304
2096921,2096921, 314207, 464267
2096921,2096921, 313994, 464128
2096921,2096921, 314089, 464154
2096921,2096921, 314049, 464704
2096921,2096921, 314018, 464373
2096921,2096921, 314293, 464309
2096921,2096921, 314347, 464499
2096921,2096921, 314232, 464575
2096921,2096921, 314338, 464608
2096921,2096921, 314438, 464316
2096921,2096921, 314759, 464281
2096921,2096921, 314893, 464518
2096921,2096921, 314663, 464394
2096921,2096921, 314534, 464711
2096921,2096921, 314556, 464799
2096921,2096921, 314839, 464695
2096921,2096921, 314826, 464754
2096921,2096921, 314824, 465098
2096921,2096921, 314506, 465121
2096921,2096921, 314837, 464984
2096921,2096921, 314738, 464869
2096921,2096921, 314968, 464846
2096921,2096921, 315036, 464861
2096921,2096921, 314776, 464792
2096921,2096921, 314849, 464899
2096921,2096921, 314743, 464692
2096921,2096921, 315073, 464724
2096921,2096921, 315239, 464701
2096921,2096921, 315043, 465112
2096921,2096921, 315145, 465025
2096921,2096921, 314984, 465030
2096921,2096921, 315133, 465132
2096921,2096921, 315051, 465138
2096921,2096921, 314713, 465031
2096921,2096921, 314816, 465203
2096921,2096921, 314872, 465129
2096921,2096921, 315157, 465255
2096921,2096921, 315272, 465026
2096921,2096921, 315217, 465398
2096921,2096921, 315420, 465130
2096921,2096921, 315380, 465184
2096921,2096921, 315459, 465158
2096921,2096921, 315431, 465189
2096921,2096921, 315561, 465447
2096921,2096921, 315479, 465322
2096921,2096921, 315528, 465339
2096921,2096921, 315288, 465451
2096921,2096921, 315486, 465536
2096921,2096921, 315373, 465455
2096921,2096921, 315555, 465545
2096921,2096921, 315545, 465558
2096921,2096921, 315826, 465437
2096921,2096921, 315625, 465457
2096921,2096921, 315709, 464946
2096921,2096921, 315477, 465150
2096921,2096921, 315414, 465265
2096921,2096921, 315641, 465444
2096921,2096921, 315643, 465093
2096921,2096921, 315796, 465521
2096921,2096921, 315596, 465603
2096921,2096921, 315741, 465707
2096921,2096921, 315871, 465508
2096921,2096921, 315617, 465533
2096921,2096921, 315482, 465654
2096921,2096921, 315679, 465586
2096921,2096921, 315439, 465557
2096921,2096921, 315884, 465931
2096921,2096921, 315717, 466037
2096921,2096921, 315844, 465891
2096921,2096921, 315965, 465918
2096921,2096921, 316003, 465899
2096921,2096921, 315737, 465848
2096921,2096921, 316105, 465968
2096921,2096921, 316162, 465811
2096921,2096921, 315998, 465818
2096921,2096921, 316165, 465878
2096921,2096921, 315972, 465758
2096921,2096921, 315866, 465727
2096921,2096921, 315899, 465922
2096921,2096921, 315947, 466062
2096921,2096921, 316137, 466073
2096921,2096921, 316086, 466131
2096921,2096921, 316112, 465882
2096921,2096921, 316123, 465705
2096921,2096921, 316192, 465844
2096921,2096921, 316073, 465829
2096921,2096921, 315950, 466127
2096921,2096921, 316205, 465951
2096921,2096921, 315978, 465859
2096921,2096921, 316143, 466138
2096921,2096921, 316153, 466081
2096921,2096921, 316059, 465812
2096921,2096921, 316411, 465979
2096921,2096921, 316298, 466067
2096921,2096921, 316340, 465903
2096921,2096921, 316271, 466182
2096921,2096921, 316403, 465976
2096921,2096921, 316275, 466104
2096921,2096921, 316273, 466084
2096921,2096921, 316409, 466135
2096921,2096921, 316245, 465765
2096921,2096921, 316270, 466147
2096921,2096921, 316276, 466086
2096921,2096921, 316102, 466076
2096921,2096921, 316121, 465896
2096921,2096921, 316100, 466085
2096921,2096921, 316417, 465917
2096921,2096921, 316484, 466243
2096921,2096921, 316414, 466381
2096921,2096921, 316436, 466119
2096921,2096921, 316408, 466186
2096921,2096921, 316355, 466151
2096921,2096921, 316358, 466396
2096921,2096921, 316477, 466466
2096921,2096921, 316357, 465998
2096921,2096921, 316377, 466261
2096921,2096921, 316565, 466287
2096921,2096921, 316677, 466169
2096921,2096921, 316492, 466298
2096921,2096921, 316690, 466439
2096921,2096921, 316581, 466534
2096921,2096921, 316465, 466420
2096921,2096921, 316598, 466319
2096921,2096921, 316555, 466342
2096921,2096921, 316336, 466457
2096921,2096921, 316729, 466079
2096921,2096921, 316463, 466301
2096921,2096921, 316509, 466099
2096921,2096921, 316369, 466343
2096921,2096921, 316481, 466176
2096921,2096921, 316584, 466452
2096921,2096921, 316724, 466216
2096921,2096921, 316615, 466357
2096921,2096921, 316740, 466275
2096921,2096921, 316744, 466352
2096921,2096921, 316352, 466264
2096921,2096921, 316469, 466637
2096921,2096921, 316685, 466497
2096921,2096921, 316634, 466611
2096921,2096921, 316805, 466239
2096921,2096921, 316756, 466293
2096921,2096921, 316498, 466239
2096921,2096921, 316583, 466272
2096921,2096921, 316450, 466338
2096921,2096921, 316374, 466171
2096921,2096921, 316540, 466159
2096921,2096921, 316338, 466272
2096921,2096921, 316668, 466280
2096921,2096921, 316297, 466398
2096921,2096921, 316412, 466356
2096921,2096921, 316695, 466625
2096921,2096921, 316534, 466574
2096921,2096921, 316336, 466266
2096921,2096921, 316267, 466113
2096921,2096921, 316410, 466175
2096921,2096921, 316616, 465872
2096921,2096921, 316692, 466173
2096921,2096921, 316663, 466387
2096921,2096921, 316446, 466391
2096921,2096921, 316270, 466343
2096921,2096921, 316621, 466549
2096921,2096921, 316702, 466344
2096921,2096921, 316546, 466331
2096921,2096921, 316292, 466497
2096921,2096921, 316316, 466412
2096921,2096921, 316261, 466403
2096921,2096921, 316395, 466423
2096921,2096921, 316524, 466198
2096921,2096921, 316641, 466400
2096921,2096921, 316601, 466171
2096921,2096921, 316860, 466439
2096921,2096921, 316152, 466277
2096921,2096921, 315886, 465782
2096921,2096921, 315847, 465944
2096921,2096921, 315942, 466072
2096921,2096921, 315816, 466067
2096921,2096921, 315665, 465828
2096921,2096921, 315542, 465465
2096921,2096921, 315738, 465608
2096921,2096921, 315781, 465561
2096921,2096921, 316068, 465696
2096921,2096921, 315539, 465852
2096921,2096921, 315276, 465340
2096921,2096921, 314936, 465080
2096921,2096921, 314815, 464834
2096921,2096921, 315147, 465132
2096921,2096921, 314573, 465119
2096921,2096921, 314300, 464824
2096921,2096921, 313926, 464487
2096921,2096921, 314365, 464596
2096921,2096921, 314183, 464225
2096921,2096921, 313910, 464416
2096921,2096921, 313736, 463258
2096921,2096921, 313495, 463614
2096921,2096921, 313295, 463403
2096921,2096921, 313551, 463272
2096921,2096921, 312510, 463028
2096921,2096921, 311671, 461840
2096921,2096921, 311531, 461711
2096921,2096921, 311671, 461553
2096921,2096921, 311514, 461561
2096921,2096921, 310202, 461470
2096921,2096921, 309420, 460001
2096921,2096921, 308893, 459395
2096921,2096921, 308858, 459352
2096921,2096921, 308828, 459655
2096921,2096921, 308000, 459652
2096921,2096921, 307121, 458240
2096921,2096921, 307143, 457791
2096921,2096921, 307013, 457889
2096921,2096921, 306836, 457823
2096921,2096921, 306161, 457612
2096921,2096921, 305735, 456984
2096921,2096921, 305730, 457067
2096921,2096921, 305614, 456812
2096921,2096921, 305886, 456488
2096921,2096921, 305283, 456411
2096921,2096921, 304880, 455964
2096921,2096921, 304744, 455575
2096921,2096921, 304558, 455395
2096921,2096921, 304884, 455698
2096921,2096921, 304270, 455713
2096921,2096921, 303902, 455128
2096921,2096921, 304026, 454925
2096921,2096921, 304000, 454770
2096921,2096921, 304101, 454487
2096921,2096921, 303837, 454815
2096921,2096921, 303256, 454511
2096921,2096921, 303213, 454388
2096921,2096921, 303492, 454522
2096921,2096921, 303358, 454446
2096921,2096921, 303397, 454326
2096921,2096921, 302929, 454046
2096921,2096921, 302928, 453849
2096921,2096921, 302932, 453837
2096921,2096921, 303057, 453962
2096921,2096921, 302908, 453989
2096921,2096921, 302965, 453659
2096921,2096921, 302749, 453567
2096921,2096921, 302782, 453868
2096921,2096921, 303042, 453880
2096921,2096921, 302955, 453561
2096921,2096921, 302900, 453614
2096921,2096921, 302497, 453445
2096921,2096921, 302478, 453257
2096921,2096921, 302676, 453736
2096921,2096921, 303120, 453643
2096921,2096921, 302840, 453796
2096921,2096921, 302796, 453638
2096921,2096921, 302972, 453880
2096921,2096921, 303288, 453812
2096921,2096921, 302891, 453747
2096921,2096921, 303244, 453799
2096921,2096921, 303031, 453818
2096921,2096921, 303313, 453601
2096921,2096921, 303081, 453947
2096921,2096921, 303127, 453804
2096921,2096921, 303371, 453494
2096921,2096921, 303329, 453599
2096921,2096921, 303379, 453689
2096921,2096921, 303282, 453749
2096921,2096921, 303525, 453889
2096921,2096921, 303376, 454069
2096921,2096921, 303330, 453857
2096921,2096921, 303429, 453643
2096921,2096921, 303314, 453959
2096921,2096921, 303384, 454000
2096921,2096921, 303537, 454417
2096921,2096921, 303823, 454385
2096921,2096921, 303804, 454442
2096921,2096921, 303854, 454215
2096921,2096921, 303814, 454327
2096921,2096921, 304026, 454633
2096921,2096921, 304119, 454607
2096921,2096921, 304129, 454523
2096921,2096921, 304217, 454603
2096921,2096921, 304175, 454166
2096921,2096921, 304425, 454698
2096921,2096921, 304521, 454635
2096921,2096921, 304624, 455039
2096921,2096921, 304355, 454925
2096921,2096921, 304912, 454877
2096921,2096921, 304945, 454998
2096921,2096921, 304382, 455105
2096921,2096921, 304583, 454941
2096921,2096921, 304661, 454910
2096921,2096921, 304644, 455201
2096921,2096921, 305183, 455187
2096921,2096921, 305004, 455437
2096921,2096921, 305067, 455460
2096921,2096921, 305048, 455205
2096921,2096921, 305435, 455314
2096921,2096921, 305130, 455295
2096921,2096921, 305256, 455504
2096921,2096921, 305204, 455320
2096921,2096921, 305502, 455497
2096921,2096921, 305501, 455388
2096921,2096921, 305575, 455711
2096921,2096921, 305462, 455839
2096921,2096921, 305730, 455924
2096921,2096921, 305590, 455841
2096921,2096921, 305937, 455953
2096921,2096921, 306281, 456037
2096921,2096921, 306075, 455884
2096921,2096921, 305825, 455925
2096921,2096921, 305729, 455856
2096921,2096921, 306137, 456231
2096921,2096921, 306248, 456392
2096921,2096921, 306439, 456219
2096921,2096921, 306307, 456085
2096921,2096921, 306255, 456560
2096921,2096921, 306611, 456490
2096921,2096921, 306813, 456494
2096921,2096921, 307082, 456508
2096921,2096921, 306520, 456436
2096921,2096921, 306581, 456699
2096921,2096921, 306635, 456920
2096921,2096921, 307083, 456792
2096921,2096921, 307401, 456706
2096921,2096921, 307220, 456800
2096921,2096921, 307152, 456806
2096921,2096921, 307245, 456630
2096921,2096921, 307171, 456997
2096921,2096921, 307281, 456749
2096921,2096921, 307183, 457006
2096921,2096921, 307099, 456711
2096921,2096921, 307267, 456724
2096921,2096921, 307388, 456997
2096921,2096921, 307609, 456955
2096921,2096921, 307656, 457326
2096921,2096921, 307409, 456971
2096921,2096921, 307472, 457024
2096921,2096921, 307537, 457065
2096921,2096921, 307340, 457336
2096921,2096921, 307521, 457012
2096921,2096921, 307558, 457080
2096921,2096921, 307672, 457128
2096921,2096921, 307463, 456750
2096921,2096921, 307633, 457300
2096921,2096921, 307797, 457169
2096921,2096921, 307553, 457158
2096921,2096921, 307920, 456977
2096921,2096921, 307761, 457295
2096921,2096921, 307985, 457227
2096921,2096921, 307628, 456961
2096921,2096921, 307698, 457026
2096921,2096921, 307940, 457147
2096921,2096921, 307754, 456912
2096921,2096921, 307828, 456832
2096921,2096921, 307593, 457296
2096921,2096921, 307544, 457073
2096921,2096921, 307803, 457198
2096921,2096921, 307600, 456982
2096921,2096921, 307474, 456860
2096921,2096921, 307385, 457011
2096921,2096921, 307691, 456628
2096921,2096921, 307147, 456600
2096921,2096921, 306935, 456519
2096921,2096921, 307081, 456374
2096921,2096921, 307349, 456678
2096921,2096921, 307172, 456451
2096921,2096921, 307039, 456495
2096921,2096921, 306846, 456101
2096921,2096921, 307116, 455865
2096921,2096921, 307046, 456105
2096921,2096921, 306989, 456005
2096921,2096921, 306834, 456072
2096921,2096921, 306901, 455973
2096921,2096921, 306865, 456298
2096921,2096921, 306890, 456249
2096921,2096921, 306968, 455983
2096921,2096921, 306775, 455985
2096921,2096921, 306557, 455539
2096921,2096921, 306220, 455814
2096921,2096921, 306486, 455813
2096921,2096921, 306301, 455779
2096921,2096921, 306152, 455691
2096921,2096921, 306260, 455319
2096921,2096921, 306121, 455443
2096921,2096921, 306557, 455271
2096921,2096921, 306394, 455306
2096921,2096921, 306462, 455415
2096921,2096921, 306086, 455479
2096921,2096921, 306218, 455475
2096921,2096921, 306160, 455379
2096921,2096921, 306267, 455233
2096921,2096921, 306234, 455112
2096921,2096921, 306208, 455198
2096921,2096921, 306174, 455134
2096921,2096921, 306232, 455137
2096921,2096921, 306114, 455153
2096921,2096921, 306232, 455058
2096921,2096921, 306092, 455266
2096921,2096921, 306062, 454984
2096921,2096921, 305965, 454937
2096921,2096921, 306080, 454688
2096921,2096921, 306025, 454804
2096921,2096921, 305954, 454594
2096921,2096921, 306069, 454960
2096921,2096921, 305969, 455088
2096921,2096921, 305972, 455060
2096921,2096921, 305994, 455189
2096921,2096921, 305850, 454894
2096921,2096921, 305713, 454874
2096921,2096921, 305603, 454786
2096921,2096921, 305765, 454743
2096921,2096921, 305957, 454832
2096921,2096921, 306200, 454771
2096921,2096921, 306233, 454937
2096921,2096921, 306113, 454944
2096921,2096921, 306178, 455138
2096921,2096921, 306291, 455017
2096921,2096921, 306468, 455085
2096921,2096921, 306435, 454855
2096921,2096921, 306426, 455093
2096921,2096921, 306503, 455218
2096921,2096921, 306556, 455019
2096921,2096921, 306676, 454906
2096921,2096921, 306817, 455218
2096921,2096921, 306751, 455046
2096921,2096921, 306561, 455048
2096921,2096921, 306664, 455371
2096921,2096921, 306546, 455489
2096921,2096921, 306522, 455188
2096921,2096921, 306897, 455106
2096921,2096921, 306679, 455282
2096921,2096921, 307112, 455144
2096921,2096921, 306623, 455234
2096921,2096921, 306800, 455185
2096921,2096921, 306694, 455111
2096921,2096921, 306972, 455270
2096921,2096921, 306776, 455258
2096921,2096921, 306806, 455149
2096921,2096921, 307118, 455200
2096921,2096921, 307132, 455031
2096921,2096921, 306791, 455238
2096921,2096921, 307073, 455240
2096921,2096921, 306865, 455492
2096921,2096921, 306837, 455337
2096921,2096921, 306968, 455303
2096921,2096921, 307234, 455669
2096921,2096921, 307065, 455291
2096921,2096921, 307236, 455480
2096921,2096921, 307146, 455554
2096921,2096921, 306905, 455234
2096921,2096921, 306940, 455314
2096921,2096921, 307152, 455441
2096921,2096921, 307519, 455473
2096921,2096921, 307384, 455451
2096921,2096921, 307416, 455759
2096921,2096921, 307306, 455574
2096921,2096921, 307603, 455342
2096921,2096921, 307493, 455324
2096921,2096921, 307489, 455303
2096921,2096921, 307489, 455485
2096921,2096921, 307524, 455310
2096921,2096921, 307467, 455045
2096921,2096921, 307316, 455620
2096921,2096921, 307385, 455389
2096921,2096921, 307496, 455830
2096921,2096921, 307557, 455860
2096921,2096921, 307640, 455671
2096921,2096921, 307353, 455535
2096921,2096921, 307855, 455723
2096921,2096921, 307781, 455870
2096921,2096921, 307797, 455541
2096921,2096921, 307880, 455275
2096921,2096921, 307744, 455739
2096921,2096921, 307970, 455506
2096921,2096921, 307602, 455563
2096921,2096921, 307628, 455479
2096921,2096921, 307815, 455491
2096921,2096921, 307694, 455879
2096921,2096921, 307816, 455406
2096921,2096921, 307860, 455552
2096921,2096921, 307846, 455512
2096921,2096921, 308043, 455651
2096921,2096921, 308083, 455506
2096921,2096921, 308041, 455551
2096921,2096921, 308135, 455505
2096921,2096921, 307983, 455624
2096921,2096921, 308099, 455763
2096921,2096921, 308036, 455595
2096921,2096921, 307988, 455479
2096921,2096921, 307694, 455631
2096921,2096921, 307722, 455588
2096921,2096921, 308317, 455886
2096921,2096921, 308120, 455455
2096921,2096921, 308091, 455461
2096921,2096921, 307774, 455464
2096921,2096921, 308125, 455582
2096921,2096921, 308174, 455395
2096921,2096921, 308193, 455751
2096921,2096921, 308332, 455386
2096921,2096921, 307950, 455450
2096921,2096921, 307966, 455392
2096921,2096921, 307958, 455814
2096921,2096921, 307983, 455389
2096921,2096921, 308017, 455505
2096921,2096921, 308419, 455552
2096921,2096921, 308372, 455478
2096921,2096921, 308421, 455301
2096921,2096921, 307965, 455520
2096921,2096921, 308127, 455519
2096921,2096921, 308196, 455603
2096921,2096921, 308107, 455477
2096921,2096921, 308404, 455424
2096921,2096921, 308180, 455278
2096921,2096921, 308315, 455538
2096921,2096921, 308156, 455145
2096921,2096921, 308227, 455296
2096921,2096921, 308242, 455382
2096921,2096921, 308405, 455644
2096921,2096921, 308172, 455553
2096921,2096921, 308197, 455242
2096921,2096921, 308278, 455578
2096921,2096921, 308380, 455520
2096921,2096921, 308385, 455675
2096921,2096921, 308661, 455583
2096921,2096921, 308535, 455559
2096921,2096921, 308568, 455528
2096921,2096921, 308382, 455481
2096921,2096921, 308624, 455559
2096921,2096921, 308333, 455438
2096921,2096921, 308166, 455217
2096921,2096921, 308413, 455370
2096921,2096921, 308572, 455488
2096921,2096921, 308162, 455580
2096921,2096921, 308551, 455449
2096921,2096921, 308570, 455417
2096921,2096921, 308533, 455373
2096921,2096921, 308859, 455347
2096921,2096921, 308630, 455100
2096921,2096921, 308458, 454983
2096921,2096921, 308245, 455222
2096921,2096921, 308364, 455171
2096921,2096921, 308331, 454905
2096921,2096921, 308334, 455325
2096921,2096921, 308354, 455303
2096921,2096921, 308576, 455251
2096921,2096921, 308137, 455506
2096921,2096921, 308211, 455297
2096921,2096921, 308433, 455383
2096921,2096921, 308261, 455259
2096921,2096921, 308289, 455122
2096921,2096921, 308416, 455319
2096921,2096921, 308585, 454973
2096921,2096921, 308174, 454922
2096921,2096921, 308596, 454984
2096921,2096921, 308445, 455105
2096921,2096921, 308344, 455117
2096921,2096921, 308656, 455222
2096921,2096921, 308220, 455234
2096921,2096921, 308165, 454859
2096921,2096921, 308422, 454957
2096921,2096921, 308328, 455027
2096921,2096921, 308495, 454879
2096921,2096921, 308566, 454892
2096921,2096921, 308616, 454611
2096921,2096921, 308414, 454726
2096921,2096921, 308257, 455007
2096921,2096921, 308146, 454767
2096921,2096921, 308153, 454768
2096921,2096921, 308014, 454855
2096921,2096921, 308152, 454935
2096921,2096921, 308366, 454882
2096921,2096921, 308313, 454722
2096921,2096921, 308324, 454572
2096921,2096921, 308160, 454906
2096921,2096921, 308511, 455044
2096921,2096921, 308321, 455135
2096921,2096921, 308406, 454888
2096921,2096921, 308175, 454789
2096921,2096921, 308254, 454647
2096921,2096921, 308240, 454753
2096921,2096921, 308070, 454678
2096921,2096921, 308268, 454741
2096921,2096921, 308583, 454584
2096921,2096921, 308400, 454617
2096921,2096921, 308202, 454854
2096921,2096921, 308190, 454713
2096921,2096921, 308297, 454397
2096921,2096921, 308239, 454383
2096921,2096921, 308249, 454546
2096921,2096921, 308475, 454205
2096921,2096921, 308209, 454382
2096921,2096921, 308244, 454408
2096921,2096921, 308314, 454455
2096921,2096921, 308218, 454473
2096921,2096921, 308334, 454362
2096921,2096921, 308171, 454594
2096921,2096921, 308035, 454491
2096921,2096921, 308388, 454585
2096921,2096921, 308125, 454188
2096921,2096921, 308298, 454690
2096921,2096921, 308168, 454535
2096921,2096921, 308161, 454460
2096921,2096921, 308108, 454109
2096921,2096921, 308083, 454380
2096921,2096921, 308092, 454553
2096921,2096921, 308176, 454413
2096921,2096921, 308086, 454303
2096921,2096921, 307978, 454402
2096921,2096921, 308020, 454340
2096921,2096921, 308213, 454394
2096921,2096921, 308107, 454319
2096921,2096921, 308127, 454617
2096921,2096921, 308095, 454212
2096921,2096921, 308399, 453987
2096921,2096921, 308070, 454216
2096921,2096921, 308023, 454206
2096921,2096921, 308314, 454276
2096921,2096921, 307993, 454132
2096921,2096921, 308153, 454034
2096921,2096921, 308158, 453907
2096921,2096921, 308176, 453581
2096921,2096921, 307715, 454056
2096921,2096921, 307966, 454075
2096921,2096921, 307902, 454251
2096921,2096921, 308031, 454121
2096921,2096921, 308144, 454160
2096921,2096921, 308034, 453975
2096921,2096921, 308326, 454072
2096921,2096921, 307848, 454036
2096921,2096921, 307901, 453640
2096921,2096921, 308081, 453854
2096921,2096921, 308104, 453979
2096921,2096921, 308095, 453834
2096921,2096921, 307825, 453857
2096921,2096921, 307830, 453991
2096921,2096921, 308156, 453680
2096921,2096921, 307815, 453938
2096921,2096921, 307895, 453614
2096921,2096921, 308019, 453738
2096921,2096921, 307494, 453760
2096921,2096921, 307816, 453608
2096921,2096921, 307828, 453740
2096921,2096921, 307873, 453526
2096921,2096921, 307756, 453749
2096921,2096921, 307828, 453714
2096921,2096921, 307797, 453762
2096921,2096921, 307654, 453663
2096921,2096921, 307732, 453675
2096921,2096921, 307773, 453390
2096921,2096921, 307790, 453403
2096921,2096921, 307655, 453640
2096921,2096921, 307775, 453746
2096921,2096921, 307797, 453299
2096921,2096921, 307746, 453435
2096921,2096921, 307773, 453614
2096921,2096921, 307754, 453670
2096921,2096921, 307658, 453579
2096921,2096921, 307391, 453424
2096921,2096921, 307446, 453563
2096921,2096921, 307327, 453202
2096921,2096921, 307119, 453189
2096921,2096921, 307282, 453132
2096921,2096921, 307438, 453135
2096921,2096921, 307609, 453210
2096921,2096921, 307678, 453186
2096921,2096921, 307594, 453236
2096921,2096921, 307664, 453142
2096921,2096921, 307215, 453297
2096921,2096921, 307599, 453074
2096921,2096921, 307300, 452864
2096921,2096921, 307236, 452963
2096921,2096921, 307322, 452867
2096921,2096921, 307329, 453129
2096921,2096921, 307653, 453253
2096921,2096921, 307555, 453104
2096921,2096921, 307357, 453019
2096921,2096921, 307321, 453078
2096921,2096921, 307078, 452965
2096921,2096921, 306848, 452815
2096921,2096921, 306982, 452592
2096921,2096921, 306865, 452660
2096921,2096921, 306593, 452559
2096921,2096921, 306621, 452474
2096921,2096921, 306736, 452534
2096921,2096921, 306348, 451998
2096921,2096921, 306718, 452125
2096921,2096921, 306275, 452122
2096921,2096921, 305961, 451713
2096921,2096921, 305688, 451537
2096921,2096921, 305682, 451697
2096921,2096921, 305794, 451841
2096921,2096921, 305797, 451764
2096921,2096921, 305207, 451130
2096921,2096921, 304889, 451142
2096921,2096921, 304873, 451048
2096921,2096921, 304946, 450766
2096921,2096921, 304682, 450947
2096921,2096921, 304095, 450109
2096921,2096921, 303977, 449962
2096921,2096921, 303869, 450105
2096921,2096921, 303985, 449736
2096921,2096921, 303179, 449982
2096921,2096921, 302320, 448717
2096921,2096921, 302342, 448215
2096921,2096921, 302126, 448341
2096921,2096921, 302135, 448193
2096921,2096921, 300974, 448497
2096921,2096921, 300246, 446594
2096921,2096921, 299877, 446256
2096921,2096921, 299791, 446277
2096921,2096921, 299796, 446221
2096921,2096921, 298992, 445778
2096921,2096921, 298345, 444863
2096921,2096921, 298239, 444509
2096921,2096921, 298306, 444555
2096921,2096921, 298537, 444513
2096921,2096921, 297473, 444693
2096921,2096921, 297095, 443664
2096921,2096921, 297080, 443210
2096921,2096921, 296936, 443090
2096921,2096921, 297008, 443318
2096921,2096921, 296411, 443452
2096921,2096921, 296124, 442650
2096921,2096921, 295898, 442510
2096921,2096921, 296010, 442292
2096921,2096921, 295818, 442341
2096921,2096921, 295557, 442596
2096921,2096921, 295289, 441949
2096921,2096921, 295056, 441799
2096921,2096921, 295144, 441825
2096921,2096921, 294906, 441962
2096921,2096921, 294893, 441942
2096921,2096921, 294635, 441344
2096921,2096921, 294653, 441570
2096921,2096921, 294553, 441259
2096921,2096921, 294505, 441503
2096921,2096921, 294383, 441544
2096921,2096921, 294188, 441169
2096921,2096921, 294313, 441073
2096921,2096921, 294205, 441140
2096921,2096921, 294564, 441026
2096921,2096921, 294236, 441076
2096921,2096921, 294351, 440916
2096921,2096921, 294299, 440980
2096921,2096921, 294180, 440804
2096921,2096921, 294234, 441153
2096921,2096921, 294229, 440577
2096921,2096921, 294200, 440939
2096921,2096921, 294345, 440557
2096921,2096921, 294118, 440835
2096921,2096921, 294075, 440783
2096921,2096921, 294441, 440758
2096921,2096921, 294419, 441060
2096921,2096921, 294521, 440994
2096921,2096921, 294442, 440872
2096921,2096921, 294306, 441104
2096921,2096921, 294318, 441023
2096921,2096921, 294506, 441163
2096921,2096921, 294418, 441367
2096921,2096921, 294230, 440922
2096921,2096921, 294494, 441171
2096921,2096921, 294550, 440958
2096921,2096921, 294648, 441206
2096921,2096921, 294849, 441298
2096921,2096921, 294491, 441865
2096921,2096921, 294576, 441423
2096921,2096921, 294716, 441475
2096921,2096921, 294867, 441795
2096921,2096921, 294960, 441342
2096921,2096921, 294977, 441740
2096921,2096921, 295085, 441535
2096921,2096921, 295297, 441881
2096921,2096921, 295416, 442005
2096921,2096921, 295334, 441957
2096921,2096921, 295280, 441817
2096921,2096921, 295474, 442098
2096921,2096921, 295365, 442022
2096921,2096921, 295759, 442188
2096921,2096921, 295700, 442253
2096921,2096921, 295750, 442087
2096921,2096921, 295899, 442304
2096921,2096921, 295970, 442315
2096921,2096921, 296234, 442801
2096921,2096921, 296185, 442766
2096921,2096921, 295979, 442783
2096921,2096921, 296363, 442789
2096921,2096921, 296523, 442882
2096921,2096921, 296606, 443192
2096921,2096921, 296576, 442793
2096921,2096921, 296694, 442933
2096921,2096921, 296512, 442870
2096921,2096921, 296762, 442851
2096921,2096921, 296495, 443101
2096921,2096921, 297180, 443380
2096921,2096921, 297222, 443432
2096921,2096921, 297007, 443574
2096921,2096921, 297000, 443391
2096921,2096921, 297414, 443571
2096921,2096921, 297046, 443545
2096921,2096921, 297048, 443705
2096921,2096921, 297117, 443805
2096921,2096921, 297465, 443631
2096921,2096921, 297622, 443980
2096921,2096921, 297818, 444053
2096921,2096921, 297868, 444261
2096921,2096921, 298269, 444338
2096921,2096921, 298055, 444397
2096921,2096921, 298203, 444519
2096921,2096921, 297974, 444392
2096921,2096921, 297999, 444469
2096921,2096921, 297869, 444531
2096921,2096921, 298020, 444580
2096921,2096921, 298451, 444833
2096921,2096921, 298313, 445099
2096921,2096921, 298585, 444844
2096921,2096921, 298354, 444999
2096921,2096921, 298702, 444977
2096921,2096921, 298805, 445004
2096921,2096921, 299105, 445064
2096921,2096921, 298683, 444981
2096921,2096921, 298867, 445138
2096921,2096921, 299081, 445222
2096921,2096921, 299351, 445536
2096921,2096921, 299262, 445418
2096921,2096921, 299523, 445600
2096921,2096921, 299367, 445353
2096921,2096921, 299496, 445452
2096921,2096921, 299508, 445679
2096921,2096921, 299492, 445752
2096921,2096921, 299694, 445529
2096921,2096921, 299707, 445875
2096921,2096921, 299805, 445707
2096921,2096921, 300082, 445742
2096921,2096921, 300113, 445993
2096921,2096921, 300129, 446052
2096921,2096921, 300199, 446129
2096921,2096921, 300267, 446240
2096921,2096921, 300206, 446230
2096921,2096921, 299966, 446154
2096921,2096921, 300167, 446056
2096921,2096921, 300163, 445983
2096921,2096921, 300329, 446207
2096921,2096921, 300607, 446347
2096921,2096921, 300628, 446615
2096921,2096921, 300516, 446841
2096921,2096921, 300260, 446764
2096921,2096921, 300519, 446788
2096921,2096921, 300447, 446633
2096921,2096921, 300612, 446629
2096921,2096921, 300420, 446531
2096921,2096921, 300556, 446861
2096921,2096921, 300501, 446656
2096921,2096921, 300390, 446324
2096921,2096921, 300508, 446801
2096921,2096921, 300767, 446493
2096921,2096921, 300744, 446752
2096921,2096921, 300775, 446612
2096921,2096921, 300737, 446607
2096921,2096921, 300671, 446628
2096921,2096921, 300593, 446812
2096921,2096921, 300430, 446758
2096921,2096921, 300244, 446815
2096921,2096921, 300284, 446445
2096921,2096921, 300477, 446681
2096921,2096921, 300494, 446478
2096921,2096921, 300450, 446567
2096921,2096921, 300357, 446447
2096921,2096921, 300190, 446429
2096921,2096921, 300205, 446240
2096921,2096921, 300086, 446505
2096921,2096921, 300805, 446243
2096921,2096921, 300430, 446436
2096921,2096921, 300332, 446466
2096921,2096921, 300536, 446172
2096921,2096921, 300455, 446153
2096921,2096921, 300654, 446414
2096921,2096921, 300348, 446566
2096921,2096921, 300243, 446594
2096921,2096921, 300070, 446099
2096921,2096921, 299944, 446329
2096921,2096921, 299919, 446263
2096921,2096921, 300011, 445937
2096921,2096921, 299861, 446015
2096921,2096921, 300007, 445973
2096921,2096921, 299847, 446106
2096921,2096921, 299722, 446111
2096921,2096921, 299986, 446179
2096921,2096921, 300048, 446037
2096921,2096921, 299768, 446021
2096921,2096921, 299728, 445937
2096921,2096921, 299783, 445983
2096921,2096921, 299827, 446167
2096921,2096921, 299877, 445988
2096921,2096921, 300049, 446090
2096921,2096921, 299710, 446102
2096921,2096921, 299903, 446324
2096921,2096921, 299703, 446169
2096921,2096921, 299947, 446076
2096921,2096921, 300033, 446124
2096921,2096921, 299975, 446028
2096921,2096921, 300103, 446243
2096921,2096921, 300090, 446154
2096921,2096921, 299980, 446346
2096921,2096921, 300081, 446164
2096921,2096921, 299997, 446280
2096921,2096921, 300084, 446067
2096921,2096921, 300210, 446192
2096921,2096921, 300182, 446150
2096921,2096921, 300307, 446116
2096921,2096921, 300272, 446222
2096921,2096921, 300036, 446117
2096921,2096921, 300361, 446214
2096921,2096921, 300076, 446595
2096921,2096921, 300632, 446677
2096921,2096921, 300860, 446733
2096921,2096921, 300546, 446891
2096921,2096921, 300532, 446582
2096921,2096921, 300668, 446693
2096921,2096921, 300513, 446503
2096921,2096921, 300714, 446637
2096921,2096921, 300462, 446668
2096921,2096921, 300624, 446680
2096921,2096921, 301147, 446931
2096921,2096921, 301187, 447035
2096921,2096921, 301310, 447356
2096921,2096921, 301096, 447156
2096921,2096921, 301219, 447329
2096921,2096921, 301509, 447306
2096921,2096921, 301608, 447213
2096921,2096921, 301440, 447110
2096921,2096921, 301407, 447310
2096921,2096921, 301636, 447174
2096921,2096921, 301680, 447533
2096921,2096921, 301631, 447576
2096921,2096921, 301958, 447898
2096921,2096921, 301479, 447777
2096921,2096921, 302012, 448138
2096921,2096921, 301812, 448175
2096921,2096921, 301845, 447930
2096921,2096921, 301740, 447879
2096921,2096921, 302046, 447913
2096921,2096921, 302195, 448131
2096921,2096921, 302092, 448100
2096921,2096921, 302208, 447914
2096921,2096921, 302092, 448121
2096921,2096921, 302096, 448071
2096921,2096921, 302139, 448097
2096921,2096921, 302624, 448491
2096921,2096921, 302708, 448546
2096921,2096921, 302451, 448352
2096921,2096921, 302248, 448167
2096921,2096921, 302362, 448039
2096921,2096921, 302772, 448609
2096921,2096921, 302718, 448754
2096921,2096921, 302924, 448957
2096921,2096921, 302525, 448690
2096921,2096921, 302762, 448633
2096921,2096921, 302941, 448577
2096921,2096921, 302836, 448447
2096921,2096921, 303236, 448819
2096921,2096921, 303047, 448806
2096921,2096921, 303130, 449003
2096921,2096921, 303077, 448954
2096921,2096921, 303223, 449110
2096921,2096921, 303320, 449134
2096921,2096921, 303294, 449300
2096921,2096921, 303507, 449436
2096921,2096921, 303567, 449472
2096921,2096921, 303364, 449365
2096921,2096921, 303307, 449129
2096921,2096921, 303480, 449373
2096921,2096921, 303653, 449262
2096921,2096921, 303824, 449687
2096921,2096921, 304030, 449684
2096921,2096921, 304122, 449616
2096921,2096921, 304118, 449369
2096921,2096921, 303859, 449304
2096921,2096921, 304087, 449713
2096921,2096921, 303764, 450197
2096921,2096921, 303844, 449733
2096921,2096921, 304050, 449542
2096921,2096921, 304135, 450031
2096921,2096921, 304062, 450263
2096921,2096921, 304181, 450340
2096921,2096921, 304060, 450290
2096921,2096921, 304132, 450087
2096921,2096921, 304249, 450028
2096921,2096921, 304373, 450086
2096921,2096921, 304511, 450266
2096921,2096921, 304413, 450491
2096921,2096921, 304499, 450438
2096921,2096921, 304385, 450277
2096921,2096921, 304540, 450811
2096921,2096921, 304763, 450738
2096921,2096921, 304675, 450688
2096921,2096921, 305072, 450903
2096921,2096921, 304992, 450769
2096921,2096921, 304949, 450672
2096921,2096921, 305056, 450712
2096921,2096921, 304897, 450998
2096921,2096921, 304808, 450910
2096921,2096921, 304908, 451068
2096921,2096921, 305458, 451434
2096921,2096921, 305155, 451246
2096921,2096921, 305309, 451071
2096921,2096921, 305327, 451183
2096921,2096921, 305356, 451377
2096921,2096921, 305314, 451272
2096921,2096921, 305286, 451230
2096921,2096921, 305447, 451186
2096921,2096921, 305268, 451119
2096921,2096921, 305401, 451491
2096921,2096921, 305725, 451355
2096921,2096921, 305685, 451440
2096921,2096921, 305614, 451430
2096921,2096921, 305816, 451795
2096921,2096921, 305680, 451576
2096921,2096921, 305714, 451727
2096921,2096921, 305685, 451623
2096921,2096921, 305838, 451666
2096921,2096921, 305832, 451996
2096921,2096921, 305806, 451808
2096921,2096921, 306000, 452253
2096921,2096921, 305969, 451935
2096921,2096921, 306101, 452142
2096921,2096921, 306078, 451949
2096921,2096921, 306222, 452115
2096921,2096921, 305858, 452200
2096921,2096921, 306052, 452179
2096921,2096921, 305954, 452267
2096921,2096921, 306177, 452221
2096921,2096921, 306414, 452166
2096921,2096921, 306412, 452595
2096921,2096921, 306548, 452337
2096921,2096921, 306400, 452350
2096921,2096921, 306410, 452649
2096921,2096921, 306653, 452807
2096921,2096921, 306606, 452855
2096921,2096921, 306915, 452872
2096921,2096921, 306951, 452645
2096921,2096921, 306681, 452747
2096921,2096921, 306766, 452775
2096921,2096921, 306854, 452881
2096921,2096921, 307092, 453186
2096921,2096921, 306823, 453013
2096921,2096921, 306717, 453217
2096921,2096921, 306969, 453147
2096921,2096921, 306783, 453388
2096921,2096921, 306914, 453371
2096921,2096921, 306984, 453160
2096921,2096921, 307076, 453189
2096921,2096921, 306873, 453044
2096921,2096921, 307138, 453240
2096921,2096921, 307229, 453573
2096921,2096921, 307348, 453256
2096921,2096921, 307262, 453477
2096921,2096921, 307423, 453458
2096921,2096921, 307109, 453529
2096921,2096921, 307326, 453539
2096921,2096921, 307327, 453585
2096921,2096921, 307411, 453448
2096921,2096921, 307324, 453157
2096921,2096921, 307281, 453408
2096921,2096921, 307527, 453619
2096921,2096921, 307493, 453700
2096921,2096921, 307717, 453796
2096921,2096921, 307620, 453813
2096921,2096921, 307875, 454122
2096921,2096921, 307791, 453834
2096921,2096921, 308037, 453889
2096921,2096921, 307597, 453719
2096921,2096921, 307614, 453939
2096921,2096921, 307831, 453964
2096921,2096921, 307838, 454079
2096921,2096921, 307850, 454494
2096921,2096921, 307728, 454312
2096921,2096921, 307818, 454370
2096921,2096921, 307842, 454369
2096921,2096921, 308017, 454425
2096921,2096921, 308234, 454179
2096921,2096921, 307933, 454551
2096921,2096921, 308089, 454557
2096921,2096921, 308262, 454661
2096921,2096921, 308117, 454793
2096921,2096921, 308150, 454639
2096921,2096921, 308213, 454529
2096921,2096921, 308353, 454550
2096921,2096921, 308738, 454507
2096921,2096921, 308180, 454474
2096921,2096921, 308259, 454553
2096921,2096921, 308309, 454644
2096921,2096921, 308504, 454457
2096921,2096921, 308742, 454769
2096921,2096921, 308646, 455189
2096921,2096921, 308780, 455631
2096921,2096921, 308918, 455050
2096921,2096921, 308947, 455094
2096921,2096921, 308888, 455135
2096921,2096921, 308904, 455413
2096921,2096921, 308391, 455215
2096921,2096921, 308804, 455373
2096921,2096921, 308877, 455092
2096921,2096921, 309029, 455340
2096921,2096921, 308952, 455506
2096921,2096921, 309080, 455611
2096921,2096921, 309131, 455463
2096921,2096921, 309396, 455071
2096921,2096921, 309257, 455626
2096921,2096921, 309068, 455600
2096921,2096921, 308914, 455828
2096921,2096921, 309363, 455896
2096921,2096921, 309212, 455763
2096921,2096921, 309365, 455885
2096921,2096921, 309361, 455915
2096921,2096921, 309460, 455798
2096921,2096921, 309365, 456013
2096921,2096921, 309231, 456135
2096921,2096921, 309453, 456332
2096921,2096921, 309508, 456123
2096921,2096921, 309232, 456012
2096921,2096921, 309592, 455895
2096921,2096921, 309669, 456349
2096921,2096921, 309655, 456266
2096921,2096921, 309780, 456459
2096921,2096921, 310067, 456295
2096921,2096921, 309958, 456527
2096921,2096921, 309951, 456562
2096921,2096921, 309962, 456785
2096921,2096921, 309834, 456826
2096921,2096921, 309886, 456783
2096921,2096921, 309739, 456531
2096921,2096921, 309665, 456869
2096921,2096921, 309824, 456849
2096921,2096921, 309893, 456919
2096921,2096921, 310262, 456644
2096921,2096921, 310053, 456558
2096921,2096921, 309920, 456500
2096921,2096921, 309994, 456827
2096921,2096921, 310039, 456764
2096921,2096921, 310085, 456766
2096921,2096921, 310256, 456688
2096921,2096921, 309924, 456807
2096921,2096921, 310005, 456700
2096921,2096921, 309967, 456899
2096921,2096921, 310305, 457062
2096921,2096921, 310183, 457058
2096921,2096921, 310160, 457161
2096921,2096921, 310226, 457118
2096921,2096921, 310137, 457247
2096921,2096921, 310240, 457336
2096921,2096921, 310345, 457143
2096921,2096921, 310389, 457115
2096921,2096921, 310351, 457190
2096921,2096921, 310629, 457227
2096921,2096921, 310412, 457198
2096921,2096921, 310437, 457383
2096921,2096921, 310326, 457150
2096921,2096921, 310453, 457206
2096921,2096921, 310277, 457334
2096921,2096921, 310420, 457358
2096921,2096921, 310515, 457309
2096921,2096921, 310614, 457191
2096921,2096921, 310790, 457377
2096921,2096921, 310559, 457438
2096921,2096921, 310488, 457394
2096921,2096921, 310482, 457944
2096921,2096921, 310449, 458064
2096921,2096921, 310420, 457840
2096921,2096921, 310465, 457696
2096921,2096921, 310478, 457370
2096921,2096921, 310381, 457853
2096921,2096921, 310715, 457958
2096921,2096921, 310895, 458010
2096921,2096921, 310642, 457934
2096921,2096921, 310592, 458237
2096921,2096921, 310829, 457945
2096921,2096921, 310651, 458415
2096921,2096921, 310523, 457941
2096921,2096921, 310524, 457773
2096921,2096921, 310386, 457713
2096921,2096921, 310424, 457818
2096921,2096921, 310364, 457763
2096921,2096921, 310119, 457551
2096921,2096921, 310427, 457576
2096921,2096921, 310395, 457742
2096921,2096921, 310154, 457572
2096921,2096921, 309870, 457570
2096921,2096921, 309773, 457221
2096921,2096921, 309959, 457124
2096921,2096921, 309711, 457321
2096921,2096921, 309821, 457114
2096921,2096921, 309405, 457104
2096921,2096921, 309224, 456791
2096921,2096921, 309047, 456990
2096921,2096921, 309232, 456657
2096921,2096921, 308979, 456872
2096921,2096921, 308661, 456633
2096921,2096921, 308484, 456539
2096921,2096921, 308663, 456109
2096921,2096921, 308477, 455828
2096921,2096921, 308219, 456117
2096921,2096921, 307043, 456018
2096921,2096921, 306562, 455145
2096921,2096921, 306725, 454803
2096921,2096921, 306929, 454751
2096921,2096921, 306736, 454562
2096921,2096921, 305427, 454695
2096921,2096921, 304594, 453118
2096921,2096921, 304262, 452503
2096921,2096921, 304265, 452801
2096921,2096921, 304252, 452894
2096921,2096921, 303451, 452626
2096921,2096921, 302927, 451674
2096921,2096921, 302765, 451577
2096921,2096921, 302677, 451445
2096921,2096921, 302828, 451365
2096921,2096921, 302134, 451177
2096921,2096921, 301538, 450583
2096921,2096921, 301483, 450203
2096921,2096921, 301606, 450216
2096921,2096921, 301553, 450254
2096921,2096921, 301086, 450171
2096921,2096921, 300524, 449785
2096921,2096921, 300495, 449584
2096921,2096921, 300893, 449495
2096921,2096921, 300928, 449606
2096921,2096921, 300465, 449651
2096921,2096921, 300134, 449306
2096921,2096921, 299999, 448982
2096921,2096921, 300236, 449194
2096921,2096921, 300019, 448877
2096921,2096921, 299774, 449170
2096921,2096921, 299803, 449283
2096921,2096921, 299780, 448987
2096921,2096921, 299739, 448716
2096921,2096921, 300175, 448867
2096921,2096921, 299750, 448886
2096921,2096921, 299708, 448670
2096921,2096921, 299332, 448903
2096921,2096921, 299559, 448744
2096921,2096921, 299315, 448531
2096921,2096921, 299567, 448933
2096921,2096921, 299390, 449160
2096921,2096921, 299812, 449209
2096921,2096921, 299473, 448890
2096921,2096921, 299504, 448856
2096921,2096921, 299613, 448838
2096921,2096921, 299732, 449064
2096921,2096921, 299792, 449164
2096921,2096921, 299870, 449324
2096921,2096921, 299820, 449124
2096921,2096921, 300109, 449095
2096921,2096921, 300013, 449654
2096921,2096921, 300031, 449487
2096921,2096921, 300385, 449654
2096921,2096921, 300081, 449745
2096921,2096921, 299851, 449422
2096921,2096921, 300215, 449386
2096921,2096921, 300119, 449682
2096921,2096921, 300237, 449480
2096921,2096921, 300064, 449550
2096921,2096921, 300341, 449565
2096921,2096921, 300237, 449943
2096921,2096921, 300475, 449897
2096921,2096921, 300422, 449983
2096921,2096921, 300579, 449853
2096921,2096921, 300812, 449983
2096921,2096921, 300755, 450298
2096921,2096921, 300993, 450182
2096921,2096921, 300890, 450468
2096921,2096921, 301325, 450501
2096921,2096921, 301546, 450255
2096921,2096921, 301317, 450856
2096921,2096921, 301643, 451004
2096921,2096921, 301458, 451140
2096921,2096921, 301397, 450966
2096921,2096921, 301804, 450809
2096921,2096921, 301775, 451576
2096921,2096921, 301704, 451651
2096921,2096921, 301975, 451572
2096921,2096921, 301831, 451691
2096921,2096921, 302182, 451700
2096921,2096921, 302575, 452048
2096921,2096921, 302893, 452184
2096921,2096921, 302729, 452200
2096921,2096921, 302784, 452127
2096921,2096921, 302935, 452109
2096921,2096921, 303245, 452586
2096921,2096921, 302984, 452524
2096921,2096921, 302905, 452453
2096921,2096921, 302871, 452683
2096921,2096921, 303052, 452624
2096921,2096921, 303354, 452715
2096921,2096921, 303392, 453011
2096921,2096921, 303651, 453335
2096921,2096921, 303919, 453224
2096921,2096921, 304006, 453071
2096921,2096921, 303809, 453472
2096921,2096921, 304022, 453277
2096921,2096921, 303918, 453441
2096921,2096921, 303993, 453378
2096921,2096921, 304168, 453533
2096921,2096921, 304285, 454045
2096921,2096921, 304395, 454279
2096921,2096921, 304539, 454251
2096921,2096921, 304466, 454325
2096921,2096921, 304801, 454329
2096921,2096921, 304981, 454685
2096921,2096921, 305011, 454898
2096921,2096921, 304597, 454575
2096921,2096921, 305132, 454630
2096921,2096921, 305401, 454400
2096921,2096921, 305747, 454826
2096921,2096921, 305643, 455305
2096921,2096921, 305695, 455298
2096921,2096921, 305616, 455274
2096921,2096921, 306126, 455063
2096921,2096921, 306061, 455588
2096921,2096921, 306039, 455638
2096921,2096921, 306000, 455579
2096921,2096921, 305894, 455672
2096921,2096921, 306410, 455798
2096921,2096921, 306154, 455775
2096921,2096921, 306545, 456155
2096921,2096921, 306621, 456353
2096921,2096921, 306574, 456198
2096921,2096921, 306930, 456319
2096921,2096921, 307077, 456699
2096921,2096921, 306900, 456590
2096921,2096921, 307253, 456576
2096921,2096921, 307031, 456670
2096921,2096921, 307528, 456685
2096921,2096921, 307543, 457146
2096921,2096921, 307475, 457109
2096921,2096921, 307560, 457321
2096921,2096921, 307302, 457349
2096921,2096921, 307740, 456947
2096921,2096921, 307815, 457275
2096921,2096921, 307585, 457348
2096921,2096921, 307768, 457358
2096921,2096921, 307523, 457190
2096921,2096921, 307983, 457437
2096921,2096921, 308188, 457746
2096921,2096921, 308069, 457670
2096921,2096921, 308115, 457870
2096921,2096921, 308225, 457673
2096921,2096921, 308161, 457718
2096921,2096921, 308182, 457824
2096921,2096921, 308376, 458006
2096921,2096921, 308068, 457996
2096921,2096921, 308272, 458028
2096921,2096921, 308373, 457718
2096921,2096921, 308245, 458031
2096921,2096921, 308070, 457881
2096921,2096921, 308194, 458220
2096921,2096921, 308098, 458078
2096921,2096921, 308305, 458329
2096921,2096921, 308302, 458153
2096921,2096921, 308243, 458231
2096921,2096921, 308486, 458258
2096921,2096921, 308791, 458495
2096921,2096921, 308570, 458206
2096921,2096921, 308426, 458493
2096921,2096921, 308211, 458473
2096921,2096921, 308486, 458543
2096921,2096921, 308312, 458298
2096921,2096921, 308778, 458271
2096921,2096921, 308299, 458283
2096921,2096921, 308578, 458198
2096921,2096921, 308213, 458219
2096921,2096921, 308585, 458046
2096921,2096921, 308339, 458154
2096921,2096921, 308283, 458227
2096921,2096921, 308231, 458388
2096921,2096921, 308190, 458406
2096921,2096921, 308311, 458153
2096921,2096921, 308375, 458219
2096921,2096921, 308031, 458228
2096921,2096921, 308169, 457966
2096921,2096921, 307997, 458048
2096921,2096921, 308118, 458415
2096921,2096921, 307965, 458283
2096921,2096921, 308160, 458244
2096921,2096921, 308319, 458526
2096921,2096921, 308381, 458119
2096921,2096921, 308180, 458287
2096921,2096921, 308425, 458445
2096921,2096921, 308244, 458588
2096921,2096921, 308262, 458437
2096921,2096921, 308103, 458718
2096921,2096921, 308401, 458413
2096921,2096921, 308410, 458334
2096921,2096921, 308315, 458392
2096921,2096921, 308261, 458547
2096921,2096921, 308368, 458371
2096921,2096921, 308503, 458540
2096921,2096921, 308241, 458678
2096921,2096921, 308556, 458471
2096921,2096921, 308542, 458312
2096921,2096921, 308357, 458583
2096921,2096921, 308572, 458582
2096921,2096921, 308336, 458799
2096921,2096921, 308479, 458666
2096921,2096921, 308544, 458927
2096921,2096921, 308802, 458631
2096921,2096921, 308545, 458715
2096921,2096921, 308721, 458636
2096921,2096921, 308726, 458883
2096921,2096921, 309082, 458872
2096921,2096921, 308692, 458892
2096921,2096921, 308582, 458876
2096921,2096921, 308910, 458854
2096921,2096921, 309022, 459443
2096921,2096921, 309437, 459615
2096921,2096921, 309255, 459500
2096921,2096921, 309316, 459536
2096921,2096921, 309266, 459474
2096921,2096921, 309650, 459725
2096921,2096921, 309369, 459574
2096921,2096921, 309539, 459658
2096921,2096921, 309386, 459797
2096921,2096921, 309850, 459640
2096921,2096921, 309996, 459825
2096921,2096921, 309972, 460284
2096921,2096921, 310112, 460120
2096921,2096921, 310265, 460115
2096921,2096921, 310338, 460505
2096921,2096921, 310267, 460812
2096921,2096921, 309982, 460382
2096921,2096921, 310163, 460617
2096921,2096921, 310371, 460375
2096921,2096921, 310408, 460440
2096921,2096921, 310531, 460392
2096921,2096921, 310742, 460525
2096921,2096921, 310936, 460901
2096921,2096921, 310784, 460693
2096921,2096921, 310794, 460685
2096921,2096921, 310753, 460872
2096921,2096921, 310736, 460948
2096921,2096921, 310459, 460870
2096921,2096921, 310765, 461038
2096921,2096921, 310875, 461098
2096921,2096921, 311112, 461372
2096921,2096921, 311341, 461412
2096921,2096921, 311365, 461521
2096921,2096921, 311343, 461428
2096921,2096921, 311318, 461451
2096921,2096921, 311603, 461674
2096921,2096921, 311610, 461664
2096921,2096921, 311638, 461695
2096921,2096921, 311335, 461806
2096921,2096921, 311748, 461742
2096921,2096921, 311770, 461825
2096921,2096921, 311771, 461841
2096921,2096921, 311852, 461729
2096921,2096921, 311746, 462131
2096921,2096921, 312124, 461940
2096921,2096921, 312051, 462282
2096921,2096921, 312260, 462058
2096921,2096921, 312254, 461922
2096921,2096921, 312056, 462052
2096921,2096921, 312201, 462100
2096921,2096921, 312303, 462310
2096921,2096921, 312410, 462356
2096921,2096921, 312634, 462429
2096921,2096921, 312357, 462578
2096921,2096921, 312536, 462766
2096921,2096921, 312651, 462759
2096921,2096921, 312538, 462636
2096921,2096921, 312563, 462357
2096921,2096921, 312371, 462658
2096921,2096921, 312442, 462760
2096921,2096921, 312645, 462848
2096921,2096921, 313063, 462890
2096921,2096921, 313056, 462901
2096921,2096921, 313083, 462973
2096921,2096921, 313014, 462987
2096921,2096921, 313141, 463451
2096921,2096921, 312875, 463023
2096921,2096921, 312930, 463040
2096921,2096921, 312961, 463043
2096921,2096921, 313182, 463174
2096921,2096921, 313136, 463219
2096921,2096921, 313122, 463298
2096921,2096921, 313498, 463567
2096921,2096921, 313411, 463342
2096921,2096921, 313256, 463355
2096921,2096921, 313357, 463693
2096921,2096921, 313411, 463614
2096921,2096921, 313660, 463697
2096921,2096921, 313654, 463491
2096921,2096921, 313841, 463659
2096921,2096921, 313802, 463885
2096921,2096921, 313648, 464102
2096921,2096921, 313884, 463792
2096921,2096921, 313870, 463820
2096921,2096921, 314174, 463794
2096921,2096921, 314250, 463933
2096921,2096921, 313973, 463771
2096921,2096921, 314322, 464298
2096921,2096921, 313823, 463835
2096921,2096921, 314036, 464091
2096921,2096921, 313979, 464015
2096921,2096921, 314104, 464018
2096921,2096921, 314078, 464285
2096921,2096921, 314277, 464465
2096921,2096921, 314469, 464306
2096921,2096921, 314235, 464229
2096921,2096921, 314178, 464166
2096921,2096921, 314046, 464367
2096921,2096921, 314038, 463916
2096921,2096921, 314532, 464390
2096921,2096921, 314441, 464439
2096921,2096921, 314478, 464813
2096921,2096921, 314388, 464599
2096921,2096921, 314667, 464549
2096921,2096921, 314509, 464699
2096921,2096921, 314390, 464676
2096921,2096921, 314731, 464677
2096921,2096921, 314564, 464374
2096921,2096921, 314744, 464519
2096921,2096921, 314561, 464695
2096921,2096921, 314630, 464660
2096921,2096921, 314894, 464829
2096921,2096921, 314813, 464795
2096921,2096921, 315033, 464901
2096921,2096921, 315016, 465180
2096921,2096921, 314828, 464971
2096921,2096921, 314818, 464950
2096921,2096921, 315089, 464837
2096921,2096921, 315145, 464726
2096921,2096921, 315292, 464822
2096921,2096921, 314754, 465269
2096921,2096921, 314979, 465040
2096921,2096921, 315128, 465467
2096921,2096921, 315167, 465263
2096921,2096921, 315157, 465129
2096921,2096921, 315097, 465135
2096921,2096921, 314896, 465060
2096921,2096921, 315025, 465110
2096921,2096921, 315208, 465097
2096921,2096921, 315282, 465014
2096921,2096921, 315048, 465239
2096921,2096921, 314996, 465436
2096921,2096921, 315186, 465257
2096921,2096921, 315302, 465289
2096921,2096921, 315438, 465238
2096921,2096921, 315492, 465280
2096921,2096921, 315368, 465609
2096921,2096921, 315240, 465423
2096921,2096921, 315231, 465410
2096921,2096921, 315670, 465369
2096921,2096921, 315659, 465454
2096921,2096921, 315817, 465483
2096921,2096921, 315852, 465733
2096921,2096921, 315872, 465507
2096921,2096921, 315778, 465684
2096921,2096921, 315522, 465747
2096921,2096921, 315372, 465543
2096921,2096921, 315594, 465761
2096921,2096921, 315475, 465400
2096921,2096921, 315573, 465508
2096921,2096921, 315749, 465536
2096921,2096921, 315553, 465574
2096921,2096921, 315659, 465603
2096921,2096921, 315650, 465675
2096921,2096921, 315862, 465559
2096921,2096921, 316009, 465753
2096921,2096921, 315745, 465493
2096921,2096921, 315780, 465841
2096921,2096921, 315642, 465704
2096921,2096921, 315711, 465795
2096921,2096921, 315886, 465563
2096921,2096921, 315902, 465920
2096921,2096921, 315849, 465811
2096921,2096921, 315939, 466134
2096921,2096921, 316268, 465806
2096921,2096921, 316168, 465473
2096921,2096921, 315886, 465714
2096921,2096921, 316004, 465592
2096921,2096921, 315900, 465720
2096921,2096921, 315927, 465497
2096921,2096921, 315769, 465563
2096921,2096921, 315854, 465697
2096921,2096921, 316255, 465899
2096921,2096921, 316113, 465844
2096921,2096921, 316082, 466117
2096921,2096921, 316046, 466015
2096921,2096921, 315952, 465851
2096921,2096921, 316072, 465862
2096921,2096921, 315923, 465693
2096921,2096921, 316025, 465977
2096921,2096921, 315968, 466023
2096921,2096921, 316039, 465968
2096921,2096921, 316136, 466138
2096921,2096921, 316246, 466457
2096921,2096921, 316584, 466216
2096921,2096921, 316427, 466169
2096921,2096921, 316057, 466359
2096921,2096921, 316343, 465886
2096921,2096921, 316152, 466001
2096921,2096921, 316333, 466198
2096921,2096921, 316016, 466232
2096921,2096921, 316516, 466307
2096921,2096921, 316415, 466353
2096921,2096921, 316358, 466225
2096921,2096921, 316467, 466524
2096921,2096921, 316448, 466165
2096921,2096921, 316315, 466315
2096921,2096921, 316589, 466168
2096921,2096921, 316436, 466205
2096921,2096921, 316259, 466109
2096921,2096921, 316510, 466172
2096921,2096921, 316438, 465955
2096921,2096921, 316378, 466178
2096921,2096921, 316549, 466506
2096921,2096921, 316442, 466326
2096921,2096921, 316492, 466341
2096921,2096921, 316533, 466272
2096921,2096921, 316421, 466235
2096921,2096921, 316450, 466455
2096921,2096921, 316313, 466360
2096921,2096921, 316565, 466589
2096921,2096921, 316345, 466659
2096921,2096921, 316293, 466382
2096921,2096921, 316469, 466438
2096921,2096921, 316685, 466230
2096921,2096921, 316778, 466387
2096921,2096921, 316583, 466143
2096921,2096921, 316432, 466310
2096921,2096921, 316557, 466428
2096921,2096921, 316336, 466431
2096921,2096921, 316566, 466403
2096921,2096921, 316595, 466391
2096921,2096921, 316810, 466297
2096921,2096921, 316667, 466308
2096921,2096921, 317017, 466414
2096921,2096921, 316726, 466358
2096921,2096921, 316553, 466464
2096921,2096921, 316477, 466410
2096921,2096921, 316759, 466417
2096921,2096921, 316402, 466528
2096921,2096921, 316441, 466448
2096921,2096921, 316706, 466509
2096921,2096921, 316783, 466571
2096921,2096921, 316834, 466324
2096921,2096921, 316591, 466570
2096921,2096921, 316497, 466350
2096921,2096921, 316506, 466200
2096921,2096921, 316409, 466383
2096921,2096921, 316260, 466273
2096921,2096921, 316596, 466164
2096921,2096921, 316562, 466128
2096921,2096921, 316165, 466135
2096921,2096921, 316280, 466229
2096921,2096921, 316839, 466656
2096921,2096921, 316700, 466656
2096921,2096921, 316620, 466611
2096921,2096921, 316580, 466320
2096921,2096921, 316613, 466406
2096921,2096921, 316599, 466269
2096921,2096921, 316432, 466459
2096921,2096921, 316650, 466373
2096921,2096921, 316584, 466399
2096921,2096921, 316688, 466610
2096921,2096921, 316479, 466554
2096921,2096921, 316282, 466279
2096921,2096921, 316547, 466245
2096921,2096921, 316471, 466427
2096921,2096921, 316517, 466435
2096921,2096921, 316202, 466316
2096921,2096921, 316435, 466337
2096921,2096921, 316261, 466397
2096921,2096921, 316595, 466346
2096921,2096921, 316765, 466148
2096921,2096921, 316603, 466335
2096921,2096921, 316393, 466314
2096921,2096921, 316151, 465972
2096921,2096921, 316061, 465691
2096921,2096921, 316472, 465955
2096921,2096921, 316058, 466098
2096921,2096921, 315862, 465853
2096921,2096921, 315867, 465691
2096921,2096921, 315702, 465610
2096921,2096921, 316102, 465621
2096921,2096921, 315893, 465695
2096921,2096921, 315386, 465404
2096921,2096921, 315215, 465044
2096921,2096921, 315145, 464989
2096921,2096921, 315108, 464774
2096921,2096921, 315018, 464823
2096921,2096921, 314523, 464913
2096921,2096921, 314280, 464526
2096921,2096921, 314267, 464454
2096921,2096921, 314121, 464569
2096921,2096921, 314372, 464490
2096921,2096921, 313833, 464307
2096921,2096921, 313483, 463828
2096921,2096921, 313545, 463375
2096921,2096921, 313444, 463616
2096921,2096921, 313294, 463408
2096921,2096921, 312060, 463681
2096921,2096921, 311593, 462118
2096921,2096921, 311433, 461971
2096921,2096921, 311568, 461685
2096921,2096921, 311317, 461692
2096921,2096921, 310168, 461679
2096921,2096921, 309309, 460141
2096921,2096921, 309133, 459863
2096921,2096921, 308958, 459474
2096921,2096921, 309003, 459397
2096921,2096921, 308107, 459377
2096921,2096921, 307291, 458375
2096921,2096921, 307447, 458105
2096921,2096921, 307486, 457916
2096921,2096921, 306998, 457849
2096921,2096921, 306536, 458115
2096921,2096921, 305812, 457073
2096921,2096921, 306055, 456469
2096921,2096921, 305628, 456514
2096921,2096921, 305594, 456731
2096921,2096921, 305111, 456711
2096921,2096921, 304915, 455998
2096921,2096921, 304698, 455645
2096921,2096921, 304785, 455674
2096921,2096921, 304860, 455728
2096921,2096921, 304655, 455504
2096921,2096921, 304042, 455135
2096921,2096921, 304008, 454894
2096921,2096921, 304017, 455025
2096921,2096921, 303767, 454963
2096921,2096921, 303527, 454749
2096921,2096921, 303498, 454516
2096921,2096921, 303720, 454555
2096921,2096921, 303441, 454815
2096921,2096921, 303533, 454741
2096921,2096921, 303232, 454401
2096921,2096921, 303143, 454020
2096921,2096921, 303234, 454055
2096921,2096921, 302990, 453745
2096921,2096921, 303021, 454206
2096921,2096921, 302625, 454140
2096921,2096921, 302860, 454042
2096921,2096921, 303272, 454158
2096921,2096921, 303042, 453789
2096921,2096921, 302753, 453989
2096921,2096921, 302951, 453900
2096921,2096921, 303243, 453761
2096921,2096921, 303167, 453477
2096921,2096921, 303203, 453872
2096921,2096921, 302955, 453758
2096921,2096921, 302945, 453906
2096921,2096921, 303061, 454152
2096921,2096921, 303206, 453981
2096921,2096921, 302992, 454085
2096921,2096921, 303260, 454097
2096921,2096921, 303159, 453856
2096921,2096921, 303196, 454052
2096921,2096921, 303283, 454013
2096921,2096921, 303411, 453757
2096921,2096921, 303310, 454177
2096921,2096921, 303493, 454051
2096921,2096921, 303594, 454103
2096921,2096921, 303423, 454068
2096921,2096921, 303256, 454324
2096921,2096921, 303376, 453979
2096921,2096921, 303409, 453990
2096921,2096921, 303768, 454246
2096921,2096921, 303783, 454187
2096921,2096921, 303488, 454249
2096921,2096921, 303588, 454004
2096921,2096921, 303759, 454226
2096921,2096921, 303795, 454506
2096921,2096921, 303669, 454741
2096921,2096921, 303718, 454583
2096921,2096921, 303910, 454342
2096921,2096921, 304151, 454333
2096921,2096921, 304065, 454420
2096921,2096921, 304208, 454788
2096921,2096921, 303866, 454461
2096921,2096921, 304415, 454691
2096921,2096921, 304474, 454602
2096921,2096921, 304750, 454872
2096921,2096921, 304765, 454860
2096921,2096921, 304341, 455018
2096921,2096921, 304420, 455121
2096921,2096921, 304799, 455140
2096921,2096921, 304955, 455147
2096921,2096921, 304770, 455377
2096921,2096921, 305139, 455364
2096921,2096921, 305056, 455552
2096921,2096921, 305495, 455238
2096921,2096921, 305248, 455637
2096921,2096921, 305300, 455384
2096921,2096921, 305435, 455729
2096921,2096921, 305393, 455514
2096921,2096921, 305490, 455734
2096921,2096921, 305396, 455799
2096921,2096921, 305352, 455750
2096921,2096921, 305374, 455783
2096921,2096921, 305574, 455899
2096921,2096921, 305602, 455774
2096921,2096921, 305562, 455947
2096921,2096921, 305747, 455900
2096921,2096921, 305855, 456017
2096921,2096921, 305771, 456025
2096921,2096921, 306200, 456311
2096921,2096921, 306146, 456196
2096921,2096921, 305891, 455974
2096921,2096921, 305927, 456030
2096921,2096921, 305925, 456060
2096921,2096921, 306547, 456263
2096921,2096921, 306726, 456367
2096921,2096921, 306559, 456598
2096921,2096921, 306888, 456537
2096921,2096921, 306469, 456586
2096921,2096921, 306726, 456730
2096921,2096921, 306745, 456869
2096921,2096921, 307071, 456867
2096921,2096921, 306834, 456601
2096921,2096921, 306785, 456822
2096921,2096921, 306960, 456856
2096921,2096921, 307146, 457157
2096921,2096921, 307203, 457338
2096921,2096921, 307377, 457204
2096921,2096921, 307352, 456961
2096921,2096921, 307385, 456897
2096921,2096921, 307299, 457240
2096921,2096921, 307440, 457343
2096921,2096921, 307392, 457426
2096921,2096921, 307357, 457186
2096921,2096921, 307647, 457340
2096921,2096921, 307662, 457276
2096921,2096921, 307816, 457203
2096921,2096921, 307912, 457525
2096921,2096921, 307711, 457455
2096921,2096921, 307851, 457348
2096921,2096921, 307442, 457324
2096921,2096921, 307603, 457429
2096921,2096921, 307775, 457374
2096921,2096921, 307667, 457213
2096921,2096921, 308006, 457248
2096921,2096921, 307951, 457457
2096921,2096921, 307968, 457426
2096921,2096921, 308055, 457414
2096921,2096921, 308066, 457634
2096921,2096921, 308121, 457252
2096921,2096921, 308077, 457530
2096921,2096921, 307750, 457656
2096921,2096921, 307948, 457701
2096921,2096921, 307945, 457299
2096921,2096921, 308067, 457439
2096921,2096921, 307900, 457551
2096921,2096921, 307981, 457459
2096921,2096921, 307921, 457151
2096921,2096921, 307720, 457397
2096921,2096921, 307988, 457077
2096921,2096921, 307681, 456780
2096921,2096921, 307526, 456744
2096921,2096921, 307679, 456697
2096921,2096921, 307370, 457252
2096921,2096921, 307460, 457031
2096921,2096921, 307528, 457136
2096921,2096921, 307452, 457164
2096921,2096921, 307653, 456961
2096921,2096921, 307494, 456933
2096921,2096921, 307360, 457157
2096921,2096921, 307351, 456792
2096921,2096921, 306994, 456633
2096921,2096921, 307129, 456542
2096921,2096921, 307103, 456692
2096921,2096921, 306924, 456534
2096921,2096921, 307170, 456344
2096921,2096921, 307008, 456419
2096921,2096921, 307183, 456512
2096921,2096921, 306938, 456496
2096921,2096921, 306921, 456575
2096921,2096921, 306951, 456208
2096921,2096921, 306872, 455969
2096921,2096921, 306836, 455922
2096921,2096921, 306922, 455906
2096921,2096921, 306677, 455821
2096921,2096921, 306787, 455861
2096921,2096921, 306875, 455883
2096921,2096921, 306703, 455607
2096921,2096921, 306856, 456027
2096921,2096921, 306457, 455820
2096921,2096921, 306451, 455752
2096921,2096921, 306330, 455561
2096921,2096921, 306483, 455445
2096921,2096921, 306588, 455588
2096921,2096921, 306148, 455564
2096921,2096921, 306207, 455436
2096921,2096921, 306212, 455419
2096921,2096921, 306220, 455413
2096921,2096921, 306249, 455396
2096921,2096921, 306515, 455546
2096921,2096921, 305893, 455662
2096921,2096921, 306235, 455525
2096921,2096921, 306153, 455341
2096921,2096921, 306183, 455518
2096921,2096921, 305993, 455146
2096921,2096921, 306113, 455215
2096921,2096921, 306131, 455134
2096921,2096921, 306184, 455419
2096921,2096921, 306238, 455398
2096921,2096921, 306260, 455343
2096921,2096921, 306346, 455256
2096921,2096921, 306161, 455179
2096921,2096921, 306023, 455234
2096921,2096921, 306326, 455059
2096921,2096921, 306194, 455098
2096921,2096921, 306416, 455118
2096921,2096921, 306701, 455474
2096921,2096921, 306459, 455248
2096921,2096921, 306326, 455278
2096921,2096921, 306662, 455199
2096921,2096921, 306444, 455484
2096921,2096921, 306758, 455228
2096921,2096921, 306627, 455477
2096921,2096921, 306423, 455257
