2096921,2096921, 314098, 254616
2096921,2096921, 314124, 254680
2096921,2096921, 314297, 254288
2096921,2096921, 314060, 254531
2096921,2096921, 313935, 254489
2096921,2096921, 314212, 254487
2096921,2096921, 314124, 254329
2096921,2096921, 314213, 254611
2096921,2096921, 314383, 254392
2096921,2096921, 314428, 254336
2096921,2096921, 314329, 254671
2096921,2096921, 314421, 254586
2096921,2096921, 314520, 254683
2096921,2096921, 314412, 254976
2096921,2096921, 314321, 254784
2096921,2096921, 314164, 254592
2096921,2096921, 314551, 254458
2096921,2096921, 314524, 254674
2096921,2096921, 314436, 254781
2096921,2096921, 314353, 254735
2096921,2096921, 314400, 254767
2096921,2096921, 314565, 254784
2096921,2096921, 314142, 254794
2096921,2096921, 314340, 254790
2096921,2096921, 314532, 254669
2096921,2096921, 314506, 254999
2096921,2096921, 314541, 255043
2096921,2096921, 314661, 254853
2096921,2096921, 314712, 254769
2096921,2096921, 314593, 254692
2096921,2096921, 314567, 255060
2096921,2096921, 314600, 254865
2096921,2096921, 314737, 254773
2096921,2096921, 314469, 254807
2096921,2096921, 314540, 254617
2096921,2096921, 314497, 254769
2096921,2096921, 314520, 254787
2096921,2096921, 314502, 254797
2096921,2096921, 314775, 255054
2096921,2096921, 314548, 255087
2096921,2096921, 314794, 254968
2096921,2096921, 314703, 255003
2096921,2096921, 314510, 255036
2096921,2096921, 314606, 254941
2096921,2096921, 314661, 254947
2096921,2096921, 314873, 254851
2096921,2096921, 315011, 254960
2096921,2096921, 314789, 255216
2096921,2096921, 314858, 254991
2096921,2096921, 314610, 255146
2096921,2096921, 314992, 255085
2096921,2096921, 314966, 255077
2096921,2096921, 314702, 254871
2096921,2096921, 314689, 254750
2096921,2096921, 314576, 254870
2096921,2096921, 314485, 255107
2096921,2096921, 314755, 255026
2096921,2096921, 314885, 254995
2096921,2096921, 315042, 254892
2096921,2096921, 314798, 255112
2096921,2096921, 314869, 255014
2096921,2096921, 315003, 254682
2096921,2096921, 314888, 255030
2096921,2096921, 314913, 254860
2096921,2096921, 314583, 254928
2096921,2096921, 314783, 254975
2096921,2096921, 314445, 254909
2096921,2096921, 314385, 254625
2096921,2096921, 314335, 254887
2096921,2096921, 314348, 254777
2096921,2096921, 314507, 254691
2096921,2096921, 314043, 254704
2096921,2096921, 314161, 254581
2096921,2096921, 313854, 254155
2096921,2096921, 313918, 254231
2096921,2096921, 314008, 254201
2096921,2096921, 313440, 254277
2096921,2096921, 313029, 253927
2096921,2096921, 313004, 253673
2096921,2096921, 313377, 253710
2096921,2096921, 313295, 253730
2096921,2096921, 312054, 253420
2096921,2096921, 311938, 252879
2096921,2096921, 311980, 252670
2096921,2096921, 312133, 252847
2096921,2096921, 312069, 252833
2096921,2096921, 311289, 252496
2096921,2096921, 311124, 252153
2096921,2096921, 311032, 252031
2096921,2096921, 311023, 252010
2096921,2096921, 310895, 251886
2096921,2096921, 309027, 251402
2096921,2096921, 308529, 250102
2096921,2096921, 308858, 249991
2096921,2096921, 308772, 249786
2096921,2096921, 308598, 249842
2096921,2096921, 306379, 249195
2096921,2096921, 305993, 247614
2096921,2096921, 305805, 247586
2096921,2096921, 305740, 247255
2096921,2096921, 305953, 247259
2096921,2096921, 304137, 246973
2096921,2096921, 303654, 245892
2096921,2096921, 303682, 245674
2096921,2096921, 303633, 245712
2096921,2096921, 303492, 245523
2096921,2096921, 302186, 245217
2096921,2096921, 301929, 244340
2096921,2096921, 301856, 244213
2096921,2096921, 301997, 244232
2096921,2096921, 302151, 244077
2096921,2096921, 300917, 244055
2096921,2096921, 300518, 243220
2096921,2096921, 300547, 243215
2096921,2096921, 300638, 242911
2096921,2096921, 300594, 243167
2096921,2096921, 300046, 242909
2096921,2096921, 299714, 242570
2096921,2096921, 299937, 242592
2096921,2096921, 299866, 242492
2096921,2096921, 299696, 242295
2096921,2096921, 299180, 242164
2096921,2096921, 299307, 241964
2096921,2096921, 299474, 241939
2096921,2096921, 299295, 241854
2096921,2096921, 299372, 241691
2096921,2096921, 299094, 241824
2096921,2096921, 298835, 241665
2096921,2096921, 298561, 241548
2096921,2096921, 298540, 241719
2096921,2096921, 298742, 241487
2096921,2096921, 298816, 241649
2096921,2096921, 298479, 241493
2096921,2096921, 298832, 241628
2096921,2096921, 298651, 241374
2096921,2096921, 298772, 241559
2096921,2096921, 298719, 241469
2096921,2096921, 298551, 241466
2096921,2096921, 298828, 241576
2096921,2096921, 298885, 241670
2096921,2096921, 298607, 241401
2096921,2096921, 298759, 241572
2096921,2096921, 298724, 241521
2096921,2096921, 298840, 241812
2096921,2096921, 298877, 241697
2096921,2096921, 299081, 241456
2096921,2096921, 298883, 241753
2096921,2096921, 299368, 241592
2096921,2096921, 298983, 241907
2096921,2096921, 299067, 241795
2096921,2096921, 299021, 241994
2096921,2096921, 298973, 242097
2096921,2096921, 299052, 241913
2096921,2096921, 299271, 241793
2096921,2096921, 299443, 241944
2096921,2096921, 299230, 242041
2096921,2096921, 299685, 242130
2096921,2096921, 299644, 242179
2096921,2096921, 299799, 242468
2096921,2096921, 299675, 242160
2096921,2096921, 299973, 242323
2096921,2096921, 300173, 242544
2096921,2096921, 300100, 242703
2096921,2096921, 300117, 242523
2096921,2096921, 300159, 242651
2096921,2096921, 300235, 242960
2096921,2096921, 300654, 242688
2096921,2096921, 300607, 243146
2096921,2096921, 300716, 243195
2096921,2096921, 300605, 243368
2096921,2096921, 300713, 243322
2096921,2096921, 301149, 243333
2096921,2096921, 301441, 243540
2096921,2096921, 301090, 243552
2096921,2096921, 301216, 243639
2096921,2096921, 301214, 243584
2096921,2096921, 301644, 243569
2096921,2096921, 301818, 243849
2096921,2096921, 301692, 244226
2096921,2096921, 301921, 244153
2096921,2096921, 301890, 243967
2096921,2096921, 302148, 244019
2096921,2096921, 302201, 244332
2096921,2096921, 302266, 244501
2096921,2096921, 302270, 244625
2096921,2096921, 302195, 244399
2096921,2096921, 302548, 244602
2096921,2096921, 302601, 244745
2096921,2096921, 302688, 244779
2096921,2096921, 302579, 244917
2096921,2096921, 302791, 245017
2096921,2096921, 303054, 245097
2096921,2096921, 302990, 245280
2096921,2096921, 303254, 245026
2096921,2096921, 303042, 245166
2096921,2096921, 303127, 245203
2096921,2096921, 303732, 245140
2096921,2096921, 303700, 245588
2096921,2096921, 303705, 245703
2096921,2096921, 303765, 246042
2096921,2096921, 303661, 245501
2096921,2096921, 304222, 245925
2096921,2096921, 304211, 246169
2096921,2096921, 304264, 246207
2096921,2096921, 304115, 245982
2096921,2096921, 304221, 246341
2096921,2096921, 304504, 246266
2096921,2096921, 304534, 246590
2096921,2096921, 304682, 246668
2096921,2096921, 304739, 247026
2096921,2096921, 304729, 246938
2096921,2096921, 305300, 246686
2096921,2096921, 305191, 246796
2096921,2096921, 305113, 247005
2096921,2096921, 305176, 246929
2096921,2096921, 305188, 247140
2096921,2096921, 305300, 247389
2096921,2096921, 305716, 247342
2096921,2096921, 305755, 247569
2096921,2096921, 305891, 247309
2096921,2096921, 305625, 247265
2096921,2096921, 305922, 247386
2096921,2096921, 305951, 247616
2096921,2096921, 306330, 247615
2096921,2096921, 306237, 247850
2096921,2096921, 306155, 247648
2096921,2096921, 306502, 247876
2096921,2096921, 306259, 247942
2096921,2096921, 306754, 247935
2096921,2096921, 306434, 247880
2096921,2096921, 306468, 247961
2096921,2096921, 306544, 247906
2096921,2096921, 306469, 248022
2096921,2096921, 306366, 247921
2096921,2096921, 306596, 247943
2096921,2096921, 306665, 248167
2096921,2096921, 306734, 248024
2096921,2096921, 306661, 248399
2096921,2096921, 306772, 248402
2096921,2096921, 306442, 248474
2096921,2096921, 306501, 248299
2096921,2096921, 306613, 248419
2096921,2096921, 306715, 248198
2096921,2096921, 306658, 248174
2096921,2096921, 306585, 248139
2096921,2096921, 306864, 248312
2096921,2096921, 306641, 248281
2096921,2096921, 306820, 248379
2096921,2096921, 306773, 248198
2096921,2096921, 306960, 248020
2096921,2096921, 306713, 248154
2096921,2096921, 306580, 248332
2096921,2096921, 306658, 248270
2096921,2096921, 306789, 248001
2096921,2096921, 306785, 248034
2096921,2096921, 306775, 248362
2096921,2096921, 306553, 248271
2096921,2096921, 306366, 248149
2096921,2096921, 306614, 248157
2096921,2096921, 306487, 248131
2096921,2096921, 306586, 248081
2096921,2096921, 306409, 247939
2096921,2096921, 306263, 247973
2096921,2096921, 306300, 247979
2096921,2096921, 306613, 247753
2096921,2096921, 306359, 247974
2096921,2096921, 306131, 247887
2096921,2096921, 306167, 247770
2096921,2096921, 306023, 247643
2096921,2096921, 306140, 248039
2096921,2096921, 306189, 247906
2096921,2096921, 305996, 247584
2096921,2096921, 306012, 247697
2096921,2096921, 306099, 247574
2096921,2096921, 306064, 247537
2096921,2096921, 305811, 247313
2096921,2096921, 305952, 247736
2096921,2096921, 305841, 247660
2096921,2096921, 305865, 247556
2096921,2096921, 305985, 247295
2096921,2096921, 306002, 247531
2096921,2096921, 305909, 247717
2096921,2096921, 305928, 247725
2096921,2096921, 305739, 247460
2096921,2096921, 305968, 247588
2096921,2096921, 305734, 247713
2096921,2096921, 305891, 247476
2096921,2096921, 305735, 247655
2096921,2096921, 305602, 247585
2096921,2096921, 305823, 247574
2096921,2096921, 305975, 247791
2096921,2096921, 306028, 247642
2096921,2096921, 305988, 247775
2096921,2096921, 306180, 247802
2096921,2096921, 305898, 247776
2096921,2096921, 306110, 247632
2096921,2096921, 306223, 247614
2096921,2096921, 306320, 247491
2096921,2096921, 306190, 247914
2096921,2096921, 306148, 247470
2096921,2096921, 306170, 247688
2096921,2096921, 306696, 247760
2096921,2096921, 306798, 247972
2096921,2096921, 306601, 248208
2096921,2096921, 306496, 248072
2096921,2096921, 306648, 248102
2096921,2096921, 306802, 248311
2096921,2096921, 306974, 248586
2096921,2096921, 306848, 248500
2096921,2096921, 306718, 248620
2096921,2096921, 307033, 248584
2096921,2096921, 307275, 248479
2096921,2096921, 307404, 248508
2096921,2096921, 307496, 248773
2096921,2096921, 307245, 248854
2096921,2096921, 307195, 248708
2096921,2096921, 307457, 248783
2096921,2096921, 307608, 248961
2096921,2096921, 307459, 248926
2096921,2096921, 307626, 248928
2096921,2096921, 307815, 248888
2096921,2096921, 307689, 248924
2096921,2096921, 308053, 249004
2096921,2096921, 307885, 248995
2096921,2096921, 308026, 249048
2096921,2096921, 308121, 249221
2096921,2096921, 307801, 249453
2096921,2096921, 308026, 249578
2096921,2096921, 307829, 249303
2096921,2096921, 307972, 249366
2096921,2096921, 308080, 249389
2096921,2096921, 308328, 249242
2096921,2096921, 308362, 249799
2096921,2096921, 308456, 249576
2096921,2096921, 308394, 249588
2096921,2096921, 308342, 249488
2096921,2096921, 308747, 249750
2096921,2096921, 308496, 249957
2096921,2096921, 308855, 249766
2096921,2096921, 308822, 249853
2096921,2096921, 308669, 249915
2096921,2096921, 308851, 249999
2096921,2096921, 308907, 250190
2096921,2096921, 308766, 250134
2096921,2096921, 308968, 250108
2096921,2096921, 308886, 250195
2096921,2096921, 308991, 250187
2096921,2096921, 309187, 250488
2096921,2096921, 309153, 250028
2096921,2096921, 309510, 250313
2096921,2096921, 309287, 250375
2096921,2096921, 309339, 250496
2096921,2096921, 309299, 250447
2096921,2096921, 309405, 250648
2096921,2096921, 309350, 250315
2096921,2096921, 309549, 250712
2096921,2096921, 309545, 250648
2096921,2096921, 309646, 250502
2096921,2096921, 309620, 250644
2096921,2096921, 309870, 250645
2096921,2096921, 309895, 250757
2096921,2096921, 310187, 250627
2096921,2096921, 309731, 250775
2096921,2096921, 309740, 250893
2096921,2096921, 309830, 250717
2096921,2096921, 309837, 250897
2096921,2096921, 310015, 251078
2096921,2096921, 310110, 250873
2096921,2096921, 310010, 251127
2096921,2096921, 309921, 251093
2096921,2096921, 310320, 251161
2096921,2096921, 310257, 251234
2096921,2096921, 310244, 251318
2096921,2096921, 310461, 251272
2096921,2096921, 310292, 251152
2096921,2096921, 310294, 251415
2096921,2096921, 310619, 251532
2096921,2096921, 310282, 251293
2096921,2096921, 310622, 251336
2096921,2096921, 310661, 251374
2096921,2096921, 310526, 251513
2096921,2096921, 310958, 251710
2096921,2096921, 310955, 251612
2096921,2096921, 310919, 251759
2096921,2096921, 310954, 251846
2096921,2096921, 310859, 251607
2096921,2096921, 310751, 251535
2096921,2096921, 310786, 251513
2096921,2096921, 310995, 251726
2096921,2096921, 310973, 251842
2096921,2096921, 310899, 252036
2096921,2096921, 310951, 252083
2096921,2096921, 310762, 252043
2096921,2096921, 310987, 252010
2096921,2096921, 311109, 251992
2096921,2096921, 311243, 251779
2096921,2096921, 311183, 251955
2096921,2096921, 311277, 252277
2096921,2096921, 311329, 252252
2096921,2096921, 311368, 252090
2096921,2096921, 311241, 252158
2096921,2096921, 311456, 252227
2096921,2096921, 311187, 252200
2096921,2096921, 311348, 252179
2096921,2096921, 311638, 252145
2096921,2096921, 311352, 252023
2096921,2096921, 311290, 252431
2096921,2096921, 311460, 252297
2096921,2096921, 311837, 252195
2096921,2096921, 311493, 252230
2096921,2096921, 311740, 252204
2096921,2096921, 311587, 252140
2096921,2096921, 311819, 252577
2096921,2096921, 311783, 252487
2096921,2096921, 311768, 252442
2096921,2096921, 311760, 252402
2096921,2096921, 312030, 252255
2096921,2096921, 311910, 252372
2096921,2096921, 312054, 252611
2096921,2096921, 311674, 252758
2096921,2096921, 311797, 252496
2096921,2096921, 311908, 252594
2096921,2096921, 311868, 252683
2096921,2096921, 311788, 252738
2096921,2096921, 311757, 252286
2096921,2096921, 312105, 252491
2096921,2096921, 312045, 252492
2096921,2096921, 311921, 252696
2096921,2096921, 311921, 252470
2096921,2096921, 311968, 252832
2096921,2096921, 311997, 252555
2096921,2096921, 312146, 252686
2096921,2096921, 312058, 252565
2096921,2096921, 312059, 252778
2096921,2096921, 311999, 252589
2096921,2096921, 311758, 252651
2096921,2096921, 311706, 252783
2096921,2096921, 312177, 252749
2096921,2096921, 311938, 253007
2096921,2096921, 312059, 252876
2096921,2096921, 312201, 252871
2096921,2096921, 312144, 253081
2096921,2096921, 311871, 253025
2096921,2096921, 312016, 252915
2096921,2096921, 312013, 252993
2096921,2096921, 311965, 252894
2096921,2096921, 312500, 252895
2096921,2096921, 312354, 252862
2096921,2096921, 312136, 252938
2096921,2096921, 312508, 252674
2096921,2096921, 312078, 252761
2096921,2096921, 312466, 252989
2096921,2096921, 312437, 252751
2096921,2096921, 312218, 252983
2096921,2096921, 311895, 252991
2096921,2096921, 311964, 252776
2096921,2096921, 312211, 252710
2096921,2096921, 312251, 253239
2096921,2096921, 312330, 253190
2096921,2096921, 312267, 253055
2096921,2096921, 312297, 252765
2096921,2096921, 312382, 253021
2096921,2096921, 312272, 252844
2096921,2096921, 312321, 252983
2096921,2096921, 312029, 252730
2096921,2096921, 312206, 252996
2096921,2096921, 312322, 252851
2096921,2096921, 312346, 253075
2096921,2096921, 312298, 252935
2096921,2096921, 312245, 252942
2096921,2096921, 312186, 252789
2096921,2096921, 312523, 252954
2096921,2096921, 312670, 253056
2096921,2096921, 312317, 252903
2096921,2096921, 312239, 252842
2096921,2096921, 312398, 253021
2096921,2096921, 312325, 252859
2096921,2096921, 312371, 252872
2096921,2096921, 312130, 252947
2096921,2096921, 312274, 253216
2096921,2096921, 312465, 253144
2096921,2096921, 312557, 253162
2096921,2096921, 312398, 253188
2096921,2096921, 312378, 252961
2096921,2096921, 312206, 253047
2096921,2096921, 312386, 253019
2096921,2096921, 312647, 252807
2096921,2096921, 312351, 252980
2096921,2096921, 312434, 253207
2096921,2096921, 312452, 253036
2096921,2096921, 312394, 252944
2096921,2096921, 312478, 253091
2096921,2096921, 312533, 253298
2096921,2096921, 312509, 252945
2096921,2096921, 312378, 252903
2096921,2096921, 312079, 252970
2096921,2096921, 312265, 253117
2096921,2096921, 312139, 252896
2096921,2096921, 312452, 252936
2096921,2096921, 312294, 253169
2096921,2096921, 312392, 252986
2096921,2096921, 312477, 252992
2096921,2096921, 312427, 252961
2096921,2096921, 312301, 252909
2096921,2096921, 312445, 252926
2096921,2096921, 312324, 253118
2096921,2096921, 312081, 253005
2096921,2096921, 312450, 252925
2096921,2096921, 312284, 252881
2096921,2096921, 312297, 253276
2096921,2096921, 312438, 253212
2096921,2096921, 312623, 252966
2096921,2096921, 312494, 253073
2096921,2096921, 312502, 253122
2096921,2096921, 312377, 253010
2096921,2096921, 312256, 253073
2096921,2096921, 312184, 253015
2096921,2096921, 312366, 252867
2096921,2096921, 312150, 252930
2096921,2096921, 312460, 252954
2096921,2096921, 312475, 252969
2096921,2096921, 312333, 252956
2096921,2096921, 312285, 252808
2096921,2096921, 312196, 252791
2096921,2096921, 312288, 252883
2096921,2096921, 312206, 252788
2096921,2096921, 312175, 252940
2096921,2096921, 312241, 253143
2096921,2096921, 312229, 252767
2096921,2096921, 312287, 252856
2096921,2096921, 312021, 252870
2096921,2096921, 311999, 252846
2096921,2096921, 311909, 252578
2096921,2096921, 312030, 252889
2096921,2096921, 311933, 253083
2096921,2096921, 312024, 252991
2096921,2096921, 312044, 252667
2096921,2096921, 312039, 252788
2096921,2096921, 312039, 252787
2096921,2096921, 312014, 252866
2096921,2096921, 311787, 252870
2096921,2096921, 312016, 252738
2096921,2096921, 312017, 252499
2096921,2096921, 311794, 252533
2096921,2096921, 311894, 252553
2096921,2096921, 312077, 252578
2096921,2096921, 311896, 252697
2096921,2096921, 311938, 252692
2096921,2096921, 311900, 252739
2096921,2096921, 311985, 252713
2096921,2096921, 312049, 252526
2096921,2096921, 311947, 252424
2096921,2096921, 311760, 252698
2096921,2096921, 311820, 252593
2096921,2096921, 311637, 252437
2096921,2096921, 311606, 252537
2096921,2096921, 311590, 252466
2096921,2096921, 311789, 252400
2096921,2096921, 311726, 252256
2096921,2096921, 311705, 252467
2096921,2096921, 311629, 252509
2096921,2096921, 311315, 252427
2096921,2096921, 311619, 252636
2096921,2096921, 311794, 252272
2096921,2096921, 311694, 252238
2096921,2096921, 311642, 252475
2096921,2096921, 311222, 252546
2096921,2096921, 311068, 251840
2096921,2096921, 311138, 251922
2096921,2096921, 310794, 251880
2096921,2096921, 311191, 252087
2096921,2096921, 310606, 251931
2096921,2096921, 310423, 251543
2096921,2096921, 310474, 251515
2096921,2096921, 310589, 251605
2096921,2096921, 310640, 251669
2096921,2096921, 309988, 251108
2096921,2096921, 309886, 251020
2096921,2096921, 309942, 250616
2096921,2096921, 309628, 250923
2096921,2096921, 309590, 250552
2096921,2096921, 308997, 250356
2096921,2096921, 308342, 249823
2096921,2096921, 308735, 249895
2096921,2096921, 308611, 249874
2096921,2096921, 308565, 249920
2096921,2096921, 307589, 249559
2096921,2096921, 307677, 249273
2096921,2096921, 307594, 249050
2096921,2096921, 307591, 249079
2096921,2096921, 307424, 248990
2096921,2096921, 305347, 248350
2096921,2096921, 305299, 247311
2096921,2096921, 304945, 246971
2096921,2096921, 305037, 246853
2096921,2096921, 305045, 246851
2096921,2096921, 302706, 246424
2096921,2096921, 302269, 244944
2096921,2096921, 302232, 244732
2096921,2096921, 302155, 244452
2096921,2096921, 302239, 244433
2096921,2096921, 300223, 244006
2096921,2096921, 299899, 242735
2096921,2096921, 299506, 242700
2096921,2096921, 300018, 242411
2096921,2096921, 299755, 242533
2096921,2096921, 298699, 241926
2096921,2096921, 298199, 241286
2096921,2096921, 297866, 241158
2096921,2096921, 298158, 241056
2096921,2096921, 298240, 241120
2096921,2096921, 296925, 240788
2096921,2096921, 297102, 240015
2096921,2096921, 296884, 240167
2096921,2096921, 296839, 239952
2096921,2096921, 296829, 239858
2096921,2096921, 296095, 239614
2096921,2096921, 295986, 239209
2096921,2096921, 295865, 239070
2096921,2096921, 295739, 238919
2096921,2096921, 295687, 239003
2096921,2096921, 295497, 238818
2096921,2096921, 295414, 238487
2096921,2096921, 295332, 238479
2096921,2096921, 295283, 238836
2096921,2096921, 295071, 238630
2096921,2096921, 294639, 238479
2096921,2096921, 294599, 238355
2096921,2096921, 294848, 238198
2096921,2096921, 295089, 238016
2096921,2096921, 294661, 238365
2096921,2096921, 294695, 238317
2096921,2096921, 294375, 238151
2096921,2096921, 294543, 237939
2096921,2096921, 294124, 238022
2096921,2096921, 294534, 238120
2096921,2096921, 294543, 238284
2096921,2096921, 294550, 238021
2096921,2096921, 294415, 237912
2096921,2096921, 294842, 238068
2096921,2096921, 294744, 238371
2096921,2096921, 294465, 238146
2096921,2096921, 294750, 238132
2096921,2096921, 294690, 238511
2096921,2096921, 294473, 238353
2096921,2096921, 294562, 238251
2096921,2096921, 294537, 238459
2096921,2096921, 294499, 238435
2096921,2096921, 294508, 238224
2096921,2096921, 294543, 238363
2096921,2096921, 294550, 238040
2096921,2096921, 294727, 238292
2096921,2096921, 294799, 238536
2096921,2096921, 295000, 238360
2096921,2096921, 294855, 238475
2096921,2096921, 294762, 238537
2096921,2096921, 295290, 238589
2096921,2096921, 295224, 238596
2096921,2096921, 295283, 238468
2096921,2096921, 295091, 238605
2096921,2096921, 295020, 238486
2096921,2096921, 295281, 238680
2096921,2096921, 295437, 239036
2096921,2096921, 295491, 238969
2096921,2096921, 295482, 238945
2096921,2096921, 295722, 238956
2096921,2096921, 296108, 239096
2096921,2096921, 296042, 239319
2096921,2096921, 295918, 239338
2096921,2096921, 296106, 239383
2096921,2096921, 295940, 239251
2096921,2096921, 296536, 239546
2096921,2096921, 296586, 239659
2096921,2096921, 296583, 239728
2096921,2096921, 296623, 239852
2096921,2096921, 296658, 240079
2096921,2096921, 297076, 239977
2096921,2096921, 296585, 240172
2096921,2096921, 297058, 240123
2096921,2096921, 296872, 240396
2096921,2096921, 296945, 240202
2096921,2096921, 297153, 240159
2096921,2096921, 297435, 240217
2096921,2096921, 297237, 240488
2096921,2096921, 297309, 240507
2096921,2096921, 297410, 240430
2096921,2096921, 297827, 240416
2096921,2096921, 297933, 240772
2096921,2096921, 298000, 240878
2096921,2096921, 297957, 241029
2096921,2096921, 298131, 241055
2096921,2096921, 298107, 241047
2096921,2096921, 298222, 241251
2096921,2096921, 298213, 241349
2096921,2096921, 298331, 241314
2096921,2096921, 298264, 241277
2096921,2096921, 298801, 241340
2096921,2096921, 298851, 241597
2096921,2096921, 298636, 241440
2096921,2096921, 298716, 241453
2096921,2096921, 298550, 241665
2096921,2096921, 299045, 241826
2096921,2096921, 298913, 241937
2096921,2096921, 299219, 241937
2096921,2096921, 298990, 241982
2096921,2096921, 299181, 241776
2096921,2096921, 299558, 242146
2096921,2096921, 299683, 242389
2096921,2096921, 299416, 242486
2096921,2096921, 299461, 242435
2096921,2096921, 299552, 242459
2096921,2096921, 300039, 242338
2096921,2096921, 300095, 242529
2096921,2096921, 299918, 242775
2096921,2096921, 299936, 242801
2096921,2096921, 300105, 242773
2096921,2096921, 300395, 242714
2096921,2096921, 300438, 242847
2096921,2096921, 300379, 243192
2096921,2096921, 300402, 242894
2096921,2096921, 300353, 242802
2096921,2096921, 300645, 242959
2096921,2096921, 300835, 243127
2096921,2096921, 300696, 243375
2096921,2096921, 300532, 243211
2096921,2096921, 300651, 243419
2096921,2096921, 300951, 243447
2096921,2096921, 300992, 243835
2096921,2096921, 300973, 243476
2096921,2096921, 300927, 243539
2096921,2096921, 300819, 243356
2096921,2096921, 300771, 243388
2096921,2096921, 300925, 243594
2096921,2096921, 301033, 243659
2096921,2096921, 301029, 243777
2096921,2096921, 300902, 243838
2096921,2096921, 301258, 243771
2096921,2096921, 301399, 243821
2096921,2096921, 301251, 243879
2096921,2096921, 301342, 243745
2096921,2096921, 301172, 243844
2096921,2096921, 301093, 243496
2096921,2096921, 301075, 243727
2096921,2096921, 301238, 243758
2096921,2096921, 301310, 243705
2096921,2096921, 301018, 243648
2096921,2096921, 301079, 243627
2096921,2096921, 301093, 243673
2096921,2096921, 301088, 243723
2096921,2096921, 301158, 243635
2096921,2096921, 301233, 243555
2096921,2096921, 300917, 243869
2096921,2096921, 300940, 243739
2096921,2096921, 300931, 243512
2096921,2096921, 301073, 243598
2096921,2096921, 301047, 243627
2096921,2096921, 301008, 243674
2096921,2096921, 300792, 243396
2096921,2096921, 300939, 243441
2096921,2096921, 300958, 243231
2096921,2096921, 300723, 243307
2096921,2096921, 300724, 243408
2096921,2096921, 300647, 243205
2096921,2096921, 300619, 243146
2096921,2096921, 300943, 243200
2096921,2096921, 300578, 243261
2096921,2096921, 300533, 243134
2096921,2096921, 300433, 243019
2096921,2096921, 300303, 243222
2096921,2096921, 300256, 243136
2096921,2096921, 300483, 243101
2096921,2096921, 300244, 243112
2096921,2096921, 300188, 242959
2096921,2096921, 300186, 242869
2096921,2096921, 300182, 243018
2096921,2096921, 300168, 242996
2096921,2096921, 300130, 242877
2096921,2096921, 300293, 243087
2096921,2096921, 300085, 242766
2096921,2096921, 300069, 242631
2096921,2096921, 300143, 242979
2096921,2096921, 300069, 242863
2096921,2096921, 300033, 242926
2096921,2096921, 300129, 242885
2096921,2096921, 300243, 242958
2096921,2096921, 300085, 242886
2096921,2096921, 300040, 242668
2096921,2096921, 299914, 242991
2096921,2096921, 299901, 242686
2096921,2096921, 299882, 242757
2096921,2096921, 300188, 242842
2096921,2096921, 300155, 242878
2096921,2096921, 300261, 242746
2096921,2096921, 300141, 242993
2096921,2096921, 300468, 243155
2096921,2096921, 300033, 242739
2096921,2096921, 300363, 242467
2096921,2096921, 300259, 242855
2096921,2096921, 300170, 243077
2096921,2096921, 300344, 243082
2096921,2096921, 300402, 243066
2096921,2096921, 300769, 243210
2096921,2096921, 300717, 243198
2096921,2096921, 300822, 243142
2096921,2096921, 300585, 243234
2096921,2096921, 300534, 243340
2096921,2096921, 300815, 243398
2096921,2096921, 300826, 243601
2096921,2096921, 300832, 243658
2096921,2096921, 301122, 243237
2096921,2096921, 300954, 243456
2096921,2096921, 301371, 243595
2096921,2096921, 301222, 243771
2096921,2096921, 301474, 243953
2096921,2096921, 301312, 243792
2096921,2096921, 301564, 243945
2096921,2096921, 301641, 244181
2096921,2096921, 301500, 244371
2096921,2096921, 301639, 244031
2096921,2096921, 301610, 244033
2096921,2096921, 301693, 244200
2096921,2096921, 301767, 244049
2096921,2096921, 302093, 244257
2096921,2096921, 301948, 244173
2096921,2096921, 302007, 244181
2096921,2096921, 301757, 244284
2096921,2096921, 302308, 244406
2096921,2096921, 302041, 244628
2096921,2096921, 302285, 244464
2096921,2096921, 302282, 244834
2096921,2096921, 302503, 244592
2096921,2096921, 302591, 244893
2096921,2096921, 302471, 244717
2096921,2096921, 302507, 244531
2096921,2096921, 302401, 245026
2096921,2096921, 302421, 244819
2096921,2096921, 302400, 244836
2096921,2096921, 302654, 244975
2096921,2096921, 302724, 244987
2096921,2096921, 302797, 244906
2096921,2096921, 302770, 244875
2096921,2096921, 303043, 245155
2096921,2096921, 303099, 245438
2096921,2096921, 303032, 245331
2096921,2096921, 302976, 245092
2096921,2096921, 303024, 245043
2096921,2096921, 303211, 245334
2096921,2096921, 303273, 245566
2096921,2096921, 303371, 245527
2096921,2096921, 303741, 245593
2096921,2096921, 303398, 245805
2096921,2096921, 303534, 245674
2096921,2096921, 303947, 245909
2096921,2096921, 303653, 245929
2096921,2096921, 303635, 245977
2096921,2096921, 303581, 245745
2096921,2096921, 303817, 246070
2096921,2096921, 303669, 246069
2096921,2096921, 304234, 246010
2096921,2096921, 303903, 245822
2096921,2096921, 303734, 246112
2096921,2096921, 304088, 246170
2096921,2096921, 304174, 246264
2096921,2096921, 304134, 246348
2096921,2096921, 304090, 246021
2096921,2096921, 303911, 246103
2096921,2096921, 304210, 246251
2096921,2096921, 304475, 246708
2096921,2096921, 304282, 246391
2096921,2096921, 304354, 246734
2096921,2096921, 304536, 246426
2096921,2096921, 304539, 246681
2096921,2096921, 304634, 246511
2096921,2096921, 304454, 246574
2096921,2096921, 304573, 246558
2096921,2096921, 304402, 246527
2096921,2096921, 304723, 246746
2096921,2096921, 304682, 247072
2096921,2096921, 304831, 246918
2096921,2096921, 304829, 246800
2096921,2096921, 304932, 246826
2096921,2096921, 305000, 247112
2096921,2096921, 305410, 247227
2096921,2096921, 305402, 247127
2096921,2096921, 305422, 246866
2096921,2096921, 305363, 246813
2096921,2096921, 305335, 247111
2096921,2096921, 305199, 247233
2096921,2096921, 305357, 246996
2096921,2096921, 305488, 247291
2096921,2096921, 305148, 247126
2096921,2096921, 305472, 247480
2096921,2096921, 305665, 247512
2096921,2096921, 305739, 247280
2096921,2096921, 305506, 247269
2096921,2096921, 305433, 247350
2096921,2096921, 305590, 247618
2096921,2096921, 305553, 247448
2096921,2096921, 305784, 247369
2096921,2096921, 305740, 247628
2096921,2096921, 305766, 247486
2096921,2096921, 305838, 247576
2096921,2096921, 305816, 247683
2096921,2096921, 305921, 247781
2096921,2096921, 305892, 247693
2096921,2096921, 305850, 247642
2096921,2096921, 306290, 247812
2096921,2096921, 306464, 248031
2096921,2096921, 306157, 247910
2096921,2096921, 306254, 247799
2096921,2096921, 305944, 247832
2096921,2096921, 306363, 247910
2096921,2096921, 306297, 248044
2096921,2096921, 306223, 248021
2096921,2096921, 306139, 248157
2096921,2096921, 306280, 248111
2096921,2096921, 306432, 247922
2096921,2096921, 306384, 247931
2096921,2096921, 306610, 248176
2096921,2096921, 306643, 248274
2096921,2096921, 306565, 248262
2096921,2096921, 306469, 248043
2096921,2096921, 306581, 248279
2096921,2096921, 306655, 248427
2096921,2096921, 306763, 248456
2096921,2096921, 306878, 248234
2096921,2096921, 306639, 248371
2096921,2096921, 306976, 248457
2096921,2096921, 306886, 248338
2096921,2096921, 306650, 248093
2096921,2096921, 306721, 248260
2096921,2096921, 306999, 248145
2096921,2096921, 306884, 248473
2096921,2096921, 306698, 248433
2096921,2096921, 306858, 248670
2096921,2096921, 306862, 248653
2096921,2096921, 307076, 248727
2096921,2096921, 307206, 248458
2096921,2096921, 307148, 248613
2096921,2096921, 306818, 248763
2096921,2096921, 306922, 248750
2096921,2096921, 307062, 248662
2096921,2096921, 307423, 248744
2096921,2096921, 307198, 248952
2096921,2096921, 307233, 249087
2096921,2096921, 307303, 248764
2096921,2096921, 307327, 248674
2096921,2096921, 307506, 249031
2096921,2096921, 307457, 248904
2096921,2096921, 307267, 248744
2096921,2096921, 307305, 248769
2096921,2096921, 307519, 248918
2096921,2096921, 307165, 248907
2096921,2096921, 307561, 248810
2096921,2096921, 307249, 248822
2096921,2096921, 307247, 249005
2096921,2096921, 307532, 248959
2096921,2096921, 307459, 248978
2096921,2096921, 307435, 249007
2096921,2096921, 307663, 249006
2096921,2096921, 307447, 249170
2096921,2096921, 307638, 249341
2096921,2096921, 307583, 249078
2096921,2096921, 307519, 248846
2096921,2096921, 307240, 249005
2096921,2096921, 307720, 249183
2096921,2096921, 307552, 249226
2096921,2096921, 307498, 249081
2096921,2096921, 307784, 249069
2096921,2096921, 307916, 249198
2096921,2096921, 307854, 249124
2096921,2096921, 307944, 249236
2096921,2096921, 307735, 249284
2096921,2096921, 307851, 249313
2096921,2096921, 308083, 249369
2096921,2096921, 307762, 249243
2096921,2096921, 307745, 249234
2096921,2096921, 307718, 249379
2096921,2096921, 307868, 249309
2096921,2096921, 307867, 249210
2096921,2096921, 307606, 249326
2096921,2096921, 307843, 249321
2096921,2096921, 308056, 249424
2096921,2096921, 308221, 249302
2096921,2096921, 308359, 249379
2096921,2096921, 308230, 249393
2096921,2096921, 308188, 249551
2096921,2096921, 308101, 249619
2096921,2096921, 308116, 249444
2096921,2096921, 308112, 249324
2096921,2096921, 308274, 249567
2096921,2096921, 308460, 249699
2096921,2096921, 308187, 249429
2096921,2096921, 308276, 249712
2096921,2096921, 308177, 249480
2096921,2096921, 308287, 249363
2096921,2096921, 308227, 249757
2096921,2096921, 308411, 249680
2096921,2096921, 308380, 249654
2096921,2096921, 308152, 249699
2096921,2096921, 308428, 249889
2096921,2096921, 308234, 249582
2096921,2096921, 308288, 249924
2096921,2096921, 308359, 249893
2096921,2096921, 308413, 249959
2096921,2096921, 308257, 249797
2096921,2096921, 308202, 250077
2096921,2096921, 308047, 249724
2096921,2096921, 308228, 249840
2096921,2096921, 308340, 249818
2096921,2096921, 308501, 249868
2096921,2096921, 308334, 249825
2096921,2096921, 308558, 249855
2096921,2096921, 308511, 249659
2096921,2096921, 308299, 249760
2096921,2096921, 308223, 249771
2096921,2096921, 308452, 249925
2096921,2096921, 308632, 249867
2096921,2096921, 308204, 249753
2096921,2096921, 308260, 249960
2096921,2096921, 308407, 249663
2096921,2096921, 308485, 249588
2096921,2096921, 308600, 249786
2096921,2096921, 308396, 249859
2096921,2096921, 308134, 250144
2096921,2096921, 308409, 250064
2096921,2096921, 308395, 249825
2096921,2096921, 308558, 249874
2096921,2096921, 308599, 249904
2096921,2096921, 308361, 249696
2096921,2096921, 308312, 249727
2096921,2096921, 308213, 249960
2096921,2096921, 308090, 249855
2096921,2096921, 308500, 250141
2096921,2096921, 308559, 249886
2096921,2096921, 308661, 250009
2096921,2096921, 308553, 249841
2096921,2096921, 308589, 249902
2096921,2096921, 308462, 250009
2096921,2096921, 308619, 249960
2096921,2096921, 308555, 249833
2096921,2096921, 308507, 249971
2096921,2096921, 308467, 249877
2096921,2096921, 308666, 249856
2096921,2096921, 308399, 249859
2096921,2096921, 308417, 249719
2096921,2096921, 308584, 250042
2096921,2096921, 308657, 250018
2096921,2096921, 308631, 249863
2096921,2096921, 308480, 249970
2096921,2096921, 308712, 249966
2096921,2096921, 308353, 249984
2096921,2096921, 308578, 249889
2096921,2096921, 308391, 249928
2096921,2096921, 308441, 249857
2096921,2096921, 308582, 249825
2096921,2096921, 308601, 249873
2096921,2096921, 308371, 249802
2096921,2096921, 308623, 249927
2096921,2096921, 308546, 249908
2096921,2096921, 308579, 249733
2096921,2096921, 308502, 249891
2096921,2096921, 308604, 249979
2096921,2096921, 308662, 250031
2096921,2096921, 308669, 249925
2096921,2096921, 308702, 249993
2096921,2096921, 308500, 249850
2096921,2096921, 308495, 249629
2096921,2096921, 308252, 249648
2096921,2096921, 308279, 249669
2096921,2096921, 307999, 249420
2096921,2096921, 307832, 249517
2096921,2096921, 307479, 249264
2096921,2096921, 307656, 249132
2096921,2096921, 307568, 249197
2096921,2096921, 307641, 249297
2096921,2096921, 307016, 249205
2096921,2096921, 307223, 248876
2096921,2096921, 307063, 248774
2096921,2096921, 306905, 248570
2096921,2096921, 306878, 248925
2096921,2096921, 306184, 248577
2096921,2096921, 306050, 248047
2096921,2096921, 306046, 247991
2096921,2096921, 306088, 247807
2096921,2096921, 306026, 247642
2096921,2096921, 305216, 247670
2096921,2096921, 304924, 247121
2096921,2096921, 304979, 246843
2096921,2096921, 305193, 247032
2096921,2096921, 305080, 246970
2096921,2096921, 303338, 246269
2096921,2096921, 303062, 245623
2096921,2096921, 302735, 245151
2096921,2096921, 302588, 245132
2096921,2096921, 302713, 245213
2096921,2096921, 300480, 244205
2096921,2096921, 300109, 243120
2096921,2096921, 299998, 243001
2096921,2096921, 300055, 242799
2096921,2096921, 300223, 242606
2096921,2096921, 298028, 242019
2096921,2096921, 297752, 241201
2096921,2096921, 297909, 240806
2096921,2096921, 297737, 240969
2096921,2096921, 297651, 241026
2096921,2096921, 296280, 240643
2096921,2096921, 295989, 239756
2096921,2096921, 296115, 239777
2096921,2096921, 296172, 239660
2096921,2096921, 296177, 239677
2096921,2096921, 295210, 239395
2096921,2096921, 294995, 238723
2096921,2096921, 295045, 238540
2096921,2096921, 295052, 238567
2096921,2096921, 295400, 238725
2096921,2096921, 294477, 238496
2096921,2096921, 294257, 238033
2096921,2096921, 294332, 237924
2096921,2096921, 294386, 237804
2096921,2096921, 294458, 237912
2096921,2096921, 293894, 237415
2096921,2096921, 293594, 237340
2096921,2096921, 293656, 237202
2096921,2096921, 293947, 237403
2096921,2096921, 293494, 237415
2096921,2096921, 293315, 237171
2096921,2096921, 293277, 237239
2096921,2096921, 293329, 237139
2096921,2096921, 293162, 237034
2096921,2096921, 293488, 237227
2096921,2096921, 293124, 237131
2096921,2096921, 293305, 237159
2096921,2096921, 292918, 237122
2096921,2096921, 293209, 237009
2096921,2096921, 293152, 236998
2096921,2096921, 293290, 237003
2096921,2096921, 293366, 237243
2096921,2096921, 293170, 236975
2096921,2096921, 293323, 237086
2096921,2096921, 293410, 237189
2096921,2096921, 293378, 237309
2096921,2096921, 293342, 237311
2096921,2096921, 293563, 237210
2096921,2096921, 293471, 237418
2096921,2096921, 293492, 237428
2096921,2096921, 293509, 237296
2096921,2096921, 293794, 237589
2096921,2096921, 293611, 237476
2096921,2096921, 293826, 237250
2096921,2096921, 293699, 237569
2096921,2096921, 293813, 237596
2096921,2096921, 294055, 237618
2096921,2096921, 293807, 237794
2096921,2096921, 294005, 237667
2096921,2096921, 293867, 237729
2096921,2096921, 294396, 237942
2096921,2096921, 294441, 238109
2096921,2096921, 294623, 238307
2096921,2096921, 294390, 237949
2096921,2096921, 294373, 238090
2096921,2096921, 294854, 238297
2096921,2096921, 295244, 238661
2096921,2096921, 294946, 238326
2096921,2096921, 294995, 238585
2096921,2096921, 295040, 238492
2096921,2096921, 295430, 238497
2096921,2096921, 295656, 238779
2096921,2096921, 295498, 239019
2096921,2096921, 295747, 239101
2096921,2096921, 295579, 238944
2096921,2096921, 296112, 239427
2096921,2096921, 296134, 239254
2096921,2096921, 296278, 239086
2096921,2096921, 295973, 239152
2096921,2096921, 296110, 239404
2096921,2096921, 296600, 239512
2096921,2096921, 296883, 239642
2096921,2096921, 296627, 239869
2096921,2096921, 296576, 239932
2096921,2096921, 296673, 240095
2096921,2096921, 297131, 240033
2096921,2096921, 297012, 240528
2096921,2096921, 296998, 240370
2096921,2096921, 297054, 240334
2096921,2096921, 297324, 240227
2096921,2096921, 297805, 240320
2096921,2096921, 297777, 240737
2096921,2096921, 297642, 240932
2096921,2096921, 297631, 240971
2096921,2096921, 298026, 241007
2096921,2096921, 298537, 240878
2096921,2096921, 298513, 241091
2096921,2096921, 298441, 241009
2096921,2096921, 298364, 241206
2096921,2096921, 298320, 241215
2096921,2096921, 299039, 241462
2096921,2096921, 298715, 241576
2096921,2096921, 299082, 241656
2096921,2096921, 299043, 241606
2096921,2096921, 298705, 241654
2096921,2096921, 299421, 241964
2096921,2096921, 299590, 242113
2096921,2096921, 299676, 242153
2096921,2096921, 299418, 242227
2096921,2096921, 299349, 242317
2096921,2096921, 300137, 242586
2096921,2096921, 300234, 242822
2096921,2096921, 300033, 242619
2096921,2096921, 299898, 242497
2096921,2096921, 300225, 242760
2096921,2096921, 300621, 242981
2096921,2096921, 300807, 243235
2096921,2096921, 300848, 243353
2096921,2096921, 300599, 243218
2096921,2096921, 300772, 243452
2096921,2096921, 300962, 243373
2096921,2096921, 301092, 243567
2096921,2096921, 300764, 243588
2096921,2096921, 301123, 243530
2096921,2096921, 301113, 243425
2096921,2096921, 301468, 243524
2096921,2096921, 301454, 243905
2096921,2096921, 301334, 243944
2096921,2096921, 301461, 244263
2096921,2096921, 301728, 244246
2096921,2096921, 301991, 244344
2096921,2096921, 302087, 243974
2096921,2096921, 302113, 244394
2096921,2096921, 302041, 244423
2096921,2096921, 302013, 244303
2096921,2096921, 302098, 244412
2096921,2096921, 302076, 244717
2096921,2096921, 302238, 244482
2096921,2096921, 302177, 244523
2096921,2096921, 302152, 244439
2096921,2096921, 302589, 244756
2096921,2096921, 302528, 244790
2096921,2096921, 302553, 244762
2096921,2096921, 302588, 244646
2096921,2096921, 302590, 244937
2096921,2096921, 302511, 244676
2096921,2096921, 302595, 244636
2096921,2096921, 302217, 244725
2096921,2096921, 302469, 244791
2096921,2096921, 302297, 244710
2096921,2096921, 302443, 245025
2096921,2096921, 302499, 244799
2096921,2096921, 302744, 244893
2096921,2096921, 302466, 244857
2096921,2096921, 302893, 244820
2096921,2096921, 302590, 244988
2096921,2096921, 302544, 244850
2096921,2096921, 302645, 244917
2096921,2096921, 302423, 244594
2096921,2096921, 302623, 244747
2096921,2096921, 302422, 244822
2096921,2096921, 302488, 244535
2096921,2096921, 302396, 244787
2096921,2096921, 302407, 244678
2096921,2096921, 302423, 244887
2096921,2096921, 302424, 244837
2096921,2096921, 302021, 244578
2096921,2096921, 302276, 244390
2096921,2096921, 302313, 244744
2096921,2096921, 302607, 244682
2096921,2096921, 302293, 244772
2096921,2096921, 302440, 244473
2096921,2096921, 302215, 244802
2096921,2096921, 302408, 244596
2096921,2096921, 302412, 244700
2096921,2096921, 302191, 244640
2096921,2096921, 301980, 244652
2096921,2096921, 302211, 244566
2096921,2096921, 302327, 244748
2096921,2096921, 302273, 244369
2096921,2096921, 302459, 244547
2096921,2096921, 302291, 244644
2096921,2096921, 302241, 244635
2096921,2096921, 302305, 244303
2096921,2096921, 302505, 244434
2096921,2096921, 302341, 244558
2096921,2096921, 302411, 244374
2096921,2096921, 302581, 244756
2096921,2096921, 302333, 244657
2096921,2096921, 302321, 244968
2096921,2096921, 302538, 244718
2096921,2096921, 302444, 244942
2096921,2096921, 302495, 244815
2096921,2096921, 302784, 244688
2096921,2096921, 302649, 244633
2096921,2096921, 303084, 244642
2096921,2096921, 302692, 245203
2096921,2096921, 302792, 245035
2096921,2096921, 302747, 244678
2096921,2096921, 302418, 244896
2096921,2096921, 302717, 244903
2096921,2096921, 303059, 245003
2096921,2096921, 303112, 245195
2096921,2096921, 302936, 245069
2096921,2096921, 302885, 245203
2096921,2096921, 303195, 245183
2096921,2096921, 303413, 245184
2096921,2096921, 303395, 245444
2096921,2096921, 303527, 245419
2096921,2096921, 303369, 245523
2096921,2096921, 303671, 245183
2096921,2096921, 303858, 245689
2096921,2096921, 303924, 245866
2096921,2096921, 304150, 246038
2096921,2096921, 303666, 245957
2096921,2096921, 304250, 246242
2096921,2096921, 304476, 246345
2096921,2096921, 304471, 246093
2096921,2096921, 304328, 246311
2096921,2096921, 304012, 246181
2096921,2096921, 304490, 246232
2096921,2096921, 304460, 246544
2096921,2096921, 304574, 246617
2096921,2096921, 304663, 246584
2096921,2096921, 304785, 246334
2096921,2096921, 304955, 246636
2096921,2096921, 305300, 246804
2096921,2096921, 305141, 246860
2096921,2096921, 305577, 247008
2096921,2096921, 305245, 247056
2096921,2096921, 305303, 246999
2096921,2096921, 305392, 247372
2096921,2096921, 305462, 247333
2096921,2096921, 305527, 247272
2096921,2096921, 305316, 247261
2096921,2096921, 305473, 247295
2096921,2096921, 305831, 247492
2096921,2096921, 305974, 247511
2096921,2096921, 305899, 247550
2096921,2096921, 305856, 247601
2096921,2096921, 306146, 247612
2096921,2096921, 306143, 247693
2096921,2096921, 306023, 247930
2096921,2096921, 306204, 247804
2096921,2096921, 305757, 247801
2096921,2096921, 306379, 248120
2096921,2096921, 306454, 248031
2096921,2096921, 306529, 248097
2096921,2096921, 306688, 248298
2096921,2096921, 306657, 248141
2096921,2096921, 307110, 248403
2096921,2096921, 306859, 248314
2096921,2096921, 306870, 248414
2096921,2096921, 306871, 248631
2096921,2096921, 306986, 248563
2096921,2096921, 307137, 248550
2096921,2096921, 307207, 248891
2096921,2096921, 307230, 248977
2096921,2096921, 307180, 248892
2096921,2096921, 307073, 248600
2096921,2096921, 307349, 248954
2096921,2096921, 307620, 249262
2096921,2096921, 307803, 249051
2096921,2096921, 307678, 248755
2096921,2096921, 307694, 249021
2096921,2096921, 307801, 249132
2096921,2096921, 307877, 249373
2096921,2096921, 308213, 249363
2096921,2096921, 308042, 249479
2096921,2096921, 307970, 249629
2096921,2096921, 308092, 249494
2096921,2096921, 308362, 249571
2096921,2096921, 308336, 249362
2096921,2096921, 308431, 249426
2096921,2096921, 308256, 249578
2096921,2096921, 308529, 249471
2096921,2096921, 308657, 249698
2096921,2096921, 308728, 249945
2096921,2096921, 308327, 249927
2096921,2096921, 308777, 249982
2096921,2096921, 309033, 250180
2096921,2096921, 309124, 250127
2096921,2096921, 309297, 250119
2096921,2096921, 308988, 250348
2096921,2096921, 309061, 250261
2096921,2096921, 309225, 250342
2096921,2096921, 309226, 250472
2096921,2096921, 309467, 250480
2096921,2096921, 309509, 250477
2096921,2096921, 309443, 250534
2096921,2096921, 309631, 250458
2096921,2096921, 309661, 250598
2096921,2096921, 309460, 250734
2096921,2096921, 309619, 250796
2096921,2096921, 309584, 250916
2096921,2096921, 309760, 250980
2096921,2096921, 309872, 251025
2096921,2096921, 309954, 250991
2096921,2096921, 310065, 251254
2096921,2096921, 310112, 251145
2096921,2096921, 310163, 251089
2096921,2096921, 310179, 251163
2096921,2096921, 310206, 251229
2096921,2096921, 310245, 251157
2096921,2096921, 310088, 251231
2096921,2096921, 310351, 251197
2096921,2096921, 310426, 251474
2096921,2096921, 310391, 251480
2096921,2096921, 310437, 251433
2096921,2096921, 310322, 251454
2096921,2096921, 310683, 251617
2096921,2096921, 310467, 251802
2096921,2096921, 310584, 251694
2096921,2096921, 310882, 251663
2096921,2096921, 310747, 251678
2096921,2096921, 310964, 251786
2096921,2096921, 311134, 251899
2096921,2096921, 311251, 251906
2096921,2096921, 311046, 251869
2096921,2096921, 311012, 251877
2096921,2096921, 311233, 251783
2096921,2096921, 311203, 251746
2096921,2096921, 311078, 252019
2096921,2096921, 311634, 252179
2096921,2096921, 311438, 252072
2096921,2096921, 311561, 252214
2096921,2096921, 311517, 252467
2096921,2096921, 311511, 252371
2096921,2096921, 311478, 252412
2096921,2096921, 311606, 252152
2096921,2096921, 311636, 252161
2096921,2096921, 311689, 252381
2096921,2096921, 311511, 252429
2096921,2096921, 311493, 252329
2096921,2096921, 311584, 252308
2096921,2096921, 311663, 252469
2096921,2096921, 311733, 252270
2096921,2096921, 311760, 252457
2096921,2096921, 312017, 252357
2096921,2096921, 311937, 252573
2096921,2096921, 312042, 252722
2096921,2096921, 311949, 252696
2096921,2096921, 312092, 252792
2096921,2096921, 311991, 252720
2096921,2096921, 312133, 252975
2096921,2096921, 312273, 252760
2096921,2096921, 311891, 252975
2096921,2096921, 312366, 253085
2096921,2096921, 312048, 253282
2096921,2096921, 312097, 252990
2096921,2096921, 312239, 252932
2096921,2096921, 312173, 253100
2096921,2096921, 312331, 253161
2096921,2096921, 312644, 253067
2096921,2096921, 312360, 253373
2096921,2096921, 312486, 253141
2096921,2096921, 312509, 253146
2096921,2096921, 312772, 252996
2096921,2096921, 312688, 253265
2096921,2096921, 312871, 253170
2096921,2096921, 312770, 253475
2096921,2096921, 312603, 253198
2096921,2096921, 312742, 253609
2096921,2096921, 312781, 253263
2096921,2096921, 312653, 253204
2096921,2096921, 312825, 253346
2096921,2096921, 313030, 253480
2096921,2096921, 313103, 253470
2096921,2096921, 312974, 253353
2096921,2096921, 312957, 253529
2096921,2096921, 312979, 253346
2096921,2096921, 313166, 253499
2096921,2096921, 313107, 253495
2096921,2096921, 313072, 253697
2096921,2096921, 312948, 253679
2096921,2096921, 313284, 253694
2096921,2096921, 313304, 253709
2096921,2096921, 313470, 253691
2096921,2096921, 313245, 253578
2096921,2096921, 313257, 253702
2096921,2096921, 313224, 253720
2096921,2096921, 313422, 253879
2096921,2096921, 313360, 254061
2096921,2096921, 313391, 253844
2096921,2096921, 313537, 254061
2096921,2096921, 313636, 253895
2096921,2096921, 313809, 254022
2096921,2096921, 313544, 254039
2096921,2096921, 313544, 254197
2096921,2096921, 313577, 253916
2096921,2096921, 313686, 254258
2096921,2096921, 313585, 254097
2096921,2096921, 313579, 254262
2096921,2096921, 313644, 254043
2096921,2096921, 313681, 254148
2096921,2096921, 313746, 253920
2096921,2096921, 313701, 254083
2096921,2096921, 313830, 254182
2096921,2096921, 313653, 254109
2096921,2096921, 313766, 254228
2096921,2096921, 313957, 254372
2096921,2096921, 314073, 254367
2096921,2096921, 314218, 254131
2096921,2096921, 313911, 254413
2096921,2096921, 313853, 254444
2096921,2096921, 313882, 254447
2096921,2096921, 314052, 254403
2096921,2096921, 314193, 254341
2096921,2096921, 314072, 254361
2096921,2096921, 314180, 254582
2096921,2096921, 314347, 254327
2096921,2096921, 314134, 254621
2096921,2096921, 314260, 254541
2096921,2096921, 314299, 254436
2096921,2096921, 313996, 254442
2096921,2096921, 314317, 254920
2096921,2096921, 314406, 254674
2096921,2096921, 314073, 254620
2096921,2096921, 314232, 254429
2096921,2096921, 314365, 254717
2096921,2096921, 314374, 254829
2096921,2096921, 314441, 254768
2096921,2096921, 314350, 254738
2096921,2096921, 314523, 254514
2096921,2096921, 314501, 254628
2096921,2096921, 314507, 254536
2096921,2096921, 314202, 254703
2096921,2096921, 314427, 254565
2096921,2096921, 314577, 254819
2096921,2096921, 314445, 254855
2096921,2096921, 314475, 254699
2096921,2096921, 314543, 254718
2096921,2096921, 314615, 254674
2096921,2096921, 314640, 254577
2096921,2096921, 314410, 254527
2096921,2096921, 314526, 254859
2096921,2096921, 314438, 254926
2096921,2096921, 314591, 254723
2096921,2096921, 314326, 254749
2096921,2096921, 314191, 254616
2096921,2096921, 314710, 254941
2096921,2096921, 314593, 254818
2096921,2096921, 314749, 254717
2096921,2096921, 314418, 254977
2096921,2096921, 314561, 254790
2096921,2096921, 314635, 254913
2096921,2096921, 314459, 254693
2096921,2096921, 314509, 254909
2096921,2096921, 314594, 254743
2096921,2096921, 314599, 254552
2096921,2096921, 314471, 254566
2096921,2096921, 314433, 254809
2096921,2096921, 314601, 254729
2096921,2096921, 314543, 255193
2096921,2096921, 314612, 255033
2096921,2096921, 314751, 254790
2096921,2096921, 314459, 254805
2096921,2096921, 314540, 254717
2096921,2096921, 314468, 254574
2096921,2096921, 314636, 255002
2096921,2096921, 314646, 254927
2096921,2096921, 314944, 255089
2096921,2096921, 314735, 255180
2096921,2096921, 314892, 254869
2096921,2096921, 314678, 254935
2096921,2096921, 314629, 255092
2096921,2096921, 314506, 254907
2096921,2096921, 314602, 254975
2096921,2096921, 314705, 254734
2096921,2096921, 314831, 254831
2096921,2096921, 314537, 254756
2096921,2096921, 314257, 254539
2096921,2096921, 314211, 254795
2096921,2096921, 314352, 254556
2096921,2096921, 314120, 254664
2096921,2096921, 314013, 254533
2096921,2096921, 313967, 254430
2096921,2096921, 313746, 254050
2096921,2096921, 313728, 254165
2096921,2096921, 313980, 254297
2096921,2096921, 313295, 254141
2096921,2096921, 313050, 253887
2096921,2096921, 313206, 253529
2096921,2096921, 313326, 253517
2096921,2096921, 312916, 253541
2096921,2096921, 312173, 253245
2096921,2096921, 312041, 252789
2096921,2096921, 312064, 252858
2096921,2096921, 312147, 252794
2096921,2096921, 312351, 252993
2096921,2096921, 311340, 252497
2096921,2096921, 310865, 252082
2096921,2096921, 311066, 251999
2096921,2096921, 310855, 251818
2096921,2096921, 311235, 251833
2096921,2096921, 309107, 251098
2096921,2096921, 308584, 250401
2096921,2096921, 308603, 249907
2096921,2096921, 308717, 249871
2096921,2096921, 308665, 249929
2096921,2096921, 306442, 248734
2096921,2096921, 305869, 247823
2096921,2096921, 305826, 247703
2096921,2096921, 305815, 247548
2096921,2096921, 305674, 247368
2096921,2096921, 303942, 246497
2096921,2096921, 303424, 245728
2096921,2096921, 303388, 245736
2096921,2096921, 303536, 245833
2096921,2096921, 303436, 245770
2096921,2096921, 302195, 245028
2096921,2096921, 301949, 244251
2096921,2096921, 301923, 244189
2096921,2096921, 301735, 244079
2096921,2096921, 301723, 244247
2096921,2096921, 300699, 243991
2096921,2096921, 300735, 243167
2096921,2096921, 300528, 243043
2096921,2096921, 300770, 243149
2096921,2096921, 300722, 243095
2096921,2096921, 299827, 242804
2096921,2096921, 299628, 242327
2096921,2096921, 300112, 242190
2096921,2096921, 299756, 242272
2096921,2096921, 299737, 242392
2096921,2096921, 299307, 242222
2096921,2096921, 299252, 242007
2096921,2096921, 298923, 241835
2096921,2096921, 299110, 241884
2096921,2096921, 298972, 241607
2096921,2096921, 298904, 241715
2096921,2096921, 298639, 241647
2096921,2096921, 298794, 241674
2096921,2096921, 299028, 241536
2096921,2096921, 298835, 241384
2096921,2096921, 298791, 241676
2096921,2096921, 298706, 241653
2096921,2096921, 298621, 241387
2096921,2096921, 298604, 241422
2096921,2096921, 298688, 241203
2096921,2096921, 298795, 241451
2096921,2096921, 298805, 241427
2096921,2096921, 298650, 241675
2096921,2096921, 298688, 241543
2096921,2096921, 298619, 241372
2096921,2096921, 299120, 241398
2096921,2096921, 298958, 241899
2096921,2096921, 298707, 241442
2096921,2096921, 298946, 241720
2096921,2096921, 298651, 241509
2096921,2096921, 298936, 241777
2096921,2096921, 298709, 241726
2096921,2096921, 299091, 241664
2096921,2096921, 298841, 241649
2096921,2096921, 298996, 241855
2096921,2096921, 299182, 241850
2096921,2096921, 299026, 241954
2096921,2096921, 299148, 241916
2096921,2096921, 299240, 241952
2096921,2096921, 299176, 242073
2096921,2096921, 299553, 242133
2096921,2096921, 299620, 242338
2096921,2096921, 299850, 242429
2096921,2096921, 299713, 242302
2096921,2096921, 299883, 242425
2096921,2096921, 300089, 242524
2096921,2096921, 300119, 242571
2096921,2096921, 300030, 242728
2096921,2096921, 300131, 242657
2096921,2096921, 300100, 242691
2096921,2096921, 300683, 242746
2096921,2096921, 300485, 242958
2096921,2096921, 300454, 242938
2096921,2096921, 300489, 243137
2096921,2096921, 300823, 243040
2096921,2096921, 301264, 243048
2096921,2096921, 301090, 243581
2096921,2096921, 301216, 243546
2096921,2096921, 301050, 243540
2096921,2096921, 301219, 243581
2096921,2096921, 301739, 243666
2096921,2096921, 301553, 243845
2096921,2096921, 301596, 243984
2096921,2096921, 301560, 243946
2096921,2096921, 301713, 243436
2096921,2096921, 301754, 244048
2096921,2096921, 302120, 244354
2096921,2096921, 302131, 244283
2096921,2096921, 302314, 244319
2096921,2096921, 302042, 244619
2096921,2096921, 302603, 244715
2096921,2096921, 302523, 244819
2096921,2096921, 302569, 244849
2096921,2096921, 302572, 244810
2096921,2096921, 302616, 244797
2096921,2096921, 302849, 244995
2096921,2096921, 303087, 245212
2096921,2096921, 303217, 245279
2096921,2096921, 303231, 245474
2096921,2096921, 303077, 245578
2096921,2096921, 303579, 245470
2096921,2096921, 303877, 245745
2096921,2096921, 303764, 245593
2096921,2096921, 303829, 245855
2096921,2096921, 303756, 245861
2096921,2096921, 304218, 246077
2096921,2096921, 304230, 245694
2096921,2096921, 304093, 246232
2096921,2096921, 304282, 246005
2096921,2096921, 304537, 246048
2096921,2096921, 304795, 246421
2096921,2096921, 304597, 246502
2096921,2096921, 304438, 246596
2096921,2096921, 304873, 246629
2096921,2096921, 304810, 246748
2096921,2096921, 305177, 246558
2096921,2096921, 305096, 246951
2096921,2096921, 305275, 247088
2096921,2096921, 305268, 246984
2096921,2096921, 305182, 247153
2096921,2096921, 305677, 247483
2096921,2096921, 305688, 247520
2096921,2096921, 305891, 247534
2096921,2096921, 305691, 247487
2096921,2096921, 305578, 247318
2096921,2096921, 306001, 247386
2096921,2096921, 305949, 247536
2096921,2096921, 306325, 247681
2096921,2096921, 306199, 247675
2096921,2096921, 306105, 247663
2096921,2096921, 306651, 247958
2096921,2096921, 306559, 248157
2096921,2096921, 306378, 247772
2096921,2096921, 306443, 247889
2096921,2096921, 306332, 247987
2096921,2096921, 306604, 248060
2096921,2096921, 306540, 248174
2096921,2096921, 306759, 248117
2096921,2096921, 306485, 248048
2096921,2096921, 306585, 248152
2096921,2096921, 306574, 248250
2096921,2096921, 306968, 248368
2096921,2096921, 306883, 248246
2096921,2096921, 306704, 248127
2096921,2096921, 306766, 248264
2096921,2096921, 306707, 248298
2096921,2096921, 306611, 248135
2096921,2096921, 306938, 248288
2096921,2096921, 306906, 248459
2096921,2096921, 307039, 248242
2096921,2096921, 306572, 248330
2096921,2096921, 306933, 248164
2096921,2096921, 306900, 248232
2096921,2096921, 306933, 248366
2096921,2096921, 306793, 248311
2096921,2096921, 306644, 248220
2096921,2096921, 306468, 248151
2096921,2096921, 306665, 248237
2096921,2096921, 306699, 248171
2096921,2096921, 306978, 248239
2096921,2096921, 306444, 248230
2096921,2096921, 306545, 248245
2096921,2096921, 306553, 248181
2096921,2096921, 306722, 248176
2096921,2096921, 306591, 248180
2096921,2096921, 306454, 247802
2096921,2096921, 306539, 247792
2096921,2096921, 306172, 247851
2096921,2096921, 306266, 248064
2096921,2096921, 306183, 248005
2096921,2096921, 306214, 247732
2096921,2096921, 305965, 247701
2096921,2096921, 306095, 247596
2096921,2096921, 306039, 247929
2096921,2096921, 306222, 247650
2096921,2096921, 306024, 247700
2096921,2096921, 305981, 247501
2096921,2096921, 305999, 247377
2096921,2096921, 305747, 247860
2096921,2096921, 306192, 247693
2096921,2096921, 305988, 247441
2096921,2096921, 306199, 247460
2096921,2096921, 305988, 247649
2096921,2096921, 306353, 247594
2096921,2096921, 305926, 247383
2096921,2096921, 305863, 247503
2096921,2096921, 305881, 247664
2096921,2096921, 305937, 247663
2096921,2096921, 305756, 247577
2096921,2096921, 305921, 247530
2096921,2096921, 305817, 247909
2096921,2096921, 306003, 247633
2096921,2096921, 306103, 247840
2096921,2096921, 305909, 247504
2096921,2096921, 305848, 247718
2096921,2096921, 306180, 247714
2096921,2096921, 306272, 247707
2096921,2096921, 306075, 247702
2096921,2096921, 305985, 247770
2096921,2096921, 306073, 247564
2096921,2096921, 306335, 247616
2096921,2096921, 306362, 247835
2096921,2096921, 306419, 247737
2096921,2096921, 306092, 247699
2096921,2096921, 306022, 247707
2096921,2096921, 306471, 247956
2096921,2096921, 306513, 248014
2096921,2096921, 306519, 248126
2096921,2096921, 306698, 248017
2096921,2096921, 306623, 247986
2096921,2096921, 307053, 248064
2096921,2096921, 307032, 248422
2096921,2096921, 307083, 248516
2096921,2096921, 306862, 248355
2096921,2096921, 306726, 248345
2096921,2096921, 307267, 248510
2096921,2096921, 307316, 248530
2096921,2096921, 307094, 248697
2096921,2096921, 307343, 248628
2096921,2096921, 307395, 248828
2096921,2096921, 307605, 248897
2096921,2096921, 307780, 249081
2096921,2096921, 307600, 249152
2096921,2096921, 307654, 248935
2096921,2096921, 307638, 249204
2096921,2096921, 308133, 249209
2096921,2096921, 308277, 249082
2096921,2096921, 308107, 249062
2096921,2096921, 308124, 249205
2096921,2096921, 307993, 249211
2096921,2096921, 308252, 249381
2096921,2096921, 308146, 249590
2096921,2096921, 308202, 249522
2096921,2096921, 308427, 249412
2096921,2096921, 307966, 249305
2096921,2096921, 308360, 249411
2096921,2096921, 308481, 249660
2096921,2096921, 308636, 249403
2096921,2096921, 308703, 249709
2096921,2096921, 308512, 249688
2096921,2096921, 308623, 249745
2096921,2096921, 308777, 249717
2096921,2096921, 308926, 249972
2096921,2096921, 308816, 249833
2096921,2096921, 308670, 249974
2096921,2096921, 308804, 249988
2096921,2096921, 308880, 250240
2096921,2096921, 308956, 250238
2096921,2096921, 308924, 250244
2096921,2096921, 309078, 250170
2096921,2096921, 309317, 250270
2096921,2096921, 309353, 250463
2096921,2096921, 309182, 250418
2096921,2096921, 309277, 250605
2096921,2096921, 309155, 250367
2096921,2096921, 309509, 250401
2096921,2096921, 309685, 250585
2096921,2096921, 309743, 250506
2096921,2096921, 309645, 250659
2096921,2096921, 309527, 250523
2096921,2096921, 309812, 250326
2096921,2096921, 310040, 250786
2096921,2096921, 309623, 250604
2096921,2096921, 309686, 250897
2096921,2096921, 309679, 250870
2096921,2096921, 309602, 250902
2096921,2096921, 309786, 250983
2096921,2096921, 309933, 250848
2096921,2096921, 309999, 250789
2096921,2096921, 310077, 250778
2096921,2096921, 310283, 251105
2096921,2096921, 310082, 251098
2096921,2096921, 310243, 251445
2096921,2096921, 310200, 251277
2096921,2096921, 310257, 251145
2096921,2096921, 310202, 251368
2096921,2096921, 310208, 251361
2096921,2096921, 310227, 251511
2096921,2096921, 310265, 251478
2096921,2096921, 310433, 251556
2096921,2096921, 310559, 251592
2096921,2096921, 310705, 251473
2096921,2096921, 310679, 251434
2096921,2096921, 310465, 251547
2096921,2096921, 310783, 251523
2096921,2096921, 310701, 251595
2096921,2096921, 310948, 251326
2096921,2096921, 311033, 251669
2096921,2096921, 311052, 251732
2096921,2096921, 310948, 251767
2096921,2096921, 310984, 251954
2096921,2096921, 311238, 251886
2096921,2096921, 311281, 251908
2096921,2096921, 311074, 251928
2096921,2096921, 310831, 251993
2096921,2096921, 311119, 251919
2096921,2096921, 310881, 252118
2096921,2096921, 311060, 252239
2096921,2096921, 310951, 252038
2096921,2096921, 311315, 252052
2096921,2096921, 311148, 251964
2096921,2096921, 311494, 252027
2096921,2096921, 311595, 252081
2096921,2096921, 311297, 252248
2096921,2096921, 311392, 252538
2096921,2096921, 311575, 252308
2096921,2096921, 311490, 252333
2096921,2096921, 311387, 252237
2096921,2096921, 311494, 252223
2096921,2096921, 311197, 252235
2096921,2096921, 311367, 252490
2096921,2096921, 311484, 252516
2096921,2096921, 311591, 252512
2096921,2096921, 311700, 252323
2096921,2096921, 311437, 252364
2096921,2096921, 311780, 252384
2096921,2096921, 311787, 252273
2096921,2096921, 311504, 252306
2096921,2096921, 311701, 252409
2096921,2096921, 311783, 252428
2096921,2096921, 311668, 252492
2096921,2096921, 311927, 252555
2096921,2096921, 312045, 252646
2096921,2096921, 312026, 252721
2096921,2096921, 312009, 252676
2096921,2096921, 312133, 252718
2096921,2096921, 311807, 252578
2096921,2096921, 311993, 252623
2096921,2096921, 311943, 252615
2096921,2096921, 311771, 252860
2096921,2096921, 311803, 252717
2096921,2096921, 312004, 252856
2096921,2096921, 311954, 252861
2096921,2096921, 312143, 252479
2096921,2096921, 312297, 252778
2096921,2096921, 312316, 252823
2096921,2096921, 312168, 252656
2096921,2096921, 312156, 252766
2096921,2096921, 312053, 252717
2096921,2096921, 312216, 252887
2096921,2096921, 312184, 252940
2096921,2096921, 312170, 252839
2096921,2096921, 312261, 252792
2096921,2096921, 312013, 252840
2096921,2096921, 312231, 252747
2096921,2096921, 312232, 252807
2096921,2096921, 312487, 252708
2096921,2096921, 312389, 252777
2096921,2096921, 312474, 252945
2096921,2096921, 312417, 253027
2096921,2096921, 312399, 253059
2096921,2096921, 312335, 252879
2096921,2096921, 312572, 252907
2096921,2096921, 312445, 252893
2096921,2096921, 312344, 253117
2096921,2096921, 312338, 252858
2096921,2096921, 312300, 252993
2096921,2096921, 312087, 253056
2096921,2096921, 312539, 253345
2096921,2096921, 312378, 252926
2096921,2096921, 312258, 253020
2096921,2096921, 312217, 252737
2096921,2096921, 312343, 252955
2096921,2096921, 312627, 253238
2096921,2096921, 312269, 252991
2096921,2096921, 312454, 253085
2096921,2096921, 312578, 253084
2096921,2096921, 312239, 253062
2096921,2096921, 312298, 253058
2096921,2096921, 312453, 253340
2096921,2096921, 312480, 253203
2096921,2096921, 312555, 253212
2096921,2096921, 312373, 253085
2096921,2096921, 312352, 253195
2096921,2096921, 312134, 252908
2096921,2096921, 312458, 253028
2096921,2096921, 312406, 252988
2096921,2096921, 312608, 253030
2096921,2096921, 312505, 252996
2096921,2096921, 312451, 253203
2096921,2096921, 312423, 253230
2096921,2096921, 312695, 253079
2096921,2096921, 312615, 253184
2096921,2096921, 312429, 252981
2096921,2096921, 312387, 253298
2096921,2096921, 312541, 253068
2096921,2096921, 312691, 253401
2096921,2096921, 312473, 253062
2096921,2096921, 312529, 252928
2096921,2096921, 312358, 253208
2096921,2096921, 312480, 253369
2096921,2096921, 312474, 253080
2096921,2096921, 312373, 253259
2096921,2096921, 312659, 253156
2096921,2096921, 312393, 253133
2096921,2096921, 312558, 253191
2096921,2096921, 312467, 253164
2096921,2096921, 312572, 253399
2096921,2096921, 312694, 253103
2096921,2096921, 312680, 253258
2096921,2096921, 312649, 253412
2096921,2096921, 312777, 253310
2096921,2096921, 312456, 253295
2096921,2096921, 312352, 253338
2096921,2096921, 312557, 253021
2096921,2096921, 312212, 253215
2096921,2096921, 312441, 253338
2096921,2096921, 312363, 253059
2096921,2096921, 312339, 252968
2096921,2096921, 312478, 253029
2096921,2096921, 312688, 253093
2096921,2096921, 312439, 253143
2096921,2096921, 312479, 253357
2096921,2096921, 312561, 253142
2096921,2096921, 312573, 253303
2096921,2096921, 312351, 253058
2096921,2096921, 312552, 253160
2096921,2096921, 312551, 253063
2096921,2096921, 312474, 253299
2096921,2096921, 312333, 253683
2096921,2096921, 312432, 253264
2096921,2096921, 312519, 253068
2096921,2096921, 312440, 253038
2096921,2096921, 312342, 252997
2096921,2096921, 312467, 253111
2096921,2096921, 312401, 253203
2096921,2096921, 312341, 252996
2096921,2096921, 312381, 253071
2096921,2096921, 312272, 253112
2096921,2096921, 312358, 253112
2096921,2096921, 312575, 252910
2096921,2096921, 312422, 252928
2096921,2096921, 312593, 253159
2096921,2096921, 312358, 252953
2096921,2096921, 312312, 253106
2096921,2096921, 312205, 253188
2096921,2096921, 312262, 253125
2096921,2096921, 312320, 253010
2096921,2096921, 312519, 252844
2096921,2096921, 312193, 252876
2096921,2096921, 312111, 252990
2096921,2096921, 312057, 252997
2096921,2096921, 312180, 252630
2096921,2096921, 312303, 252942
2096921,2096921, 312091, 252810
2096921,2096921, 312074, 252693
2096921,2096921, 312207, 252631
2096921,2096921, 312170, 252891
2096921,2096921, 311925, 253022
2096921,2096921, 312126, 252875
2096921,2096921, 312019, 252890
2096921,2096921, 312236, 252924
2096921,2096921, 311792, 252700
2096921,2096921, 311722, 252687
2096921,2096921, 311919, 252836
2096921,2096921, 311890, 252729
2096921,2096921, 311723, 252671
2096921,2096921, 311890, 252490
2096921,2096921, 311710, 252883
2096921,2096921, 312147, 252615
2096921,2096921, 311956, 252792
2096921,2096921, 311891, 252645
2096921,2096921, 311954, 252632
2096921,2096921, 311983, 252432
2096921,2096921, 311710, 252640
2096921,2096921, 311593, 252571
2096921,2096921, 311710, 252531
2096921,2096921, 311699, 252451
2096921,2096921, 311703, 252240
2096921,2096921, 311597, 252458
2096921,2096921, 311289, 252358
2096921,2096921, 311061, 251895
2096921,2096921, 311477, 252000
2096921,2096921, 311232, 252075
2096921,2096921, 311451, 252161
2096921,2096921, 311004, 252081
2096921,2096921, 310890, 251676
2096921,2096921, 310832, 251617
2096921,2096921, 310818, 251724
2096921,2096921, 310603, 251800
2096921,2096921, 309815, 251354
2096921,2096921, 309976, 250977
2096921,2096921, 309763, 250854
2096921,2096921, 309974, 250932
2096921,2096921, 309884, 250760
2096921,2096921, 309159, 250574
2096921,2096921, 308704, 250267
2096921,2096921, 308718, 250056
2096921,2096921, 308909, 250082
2096921,2096921, 308872, 250137
2096921,2096921, 308167, 249758
2096921,2096921, 307703, 249453
2096921,2096921, 307769, 249101
2096921,2096921, 307571, 249031
2096921,2096921, 307565, 249125
2096921,2096921, 305627, 248115
2096921,2096921, 305215, 247170
2096921,2096921, 305031, 246986
2096921,2096921, 305325, 247233
2096921,2096921, 305384, 247058
2096921,2096921, 302883, 245862
2096921,2096921, 302407, 244966
2096921,2096921, 302271, 244681
2096921,2096921, 302264, 244539
2096921,2096921, 302455, 244679
2096921,2096921, 300539, 243690
2096921,2096921, 300116, 243091
2096921,2096921, 300068, 242725
2096921,2096921, 300024, 242729
2096921,2096921, 300052, 242666
2096921,2096921, 298789, 242101
2096921,2096921, 298536, 241286
2096921,2096921, 298392, 241359
2096921,2096921, 298238, 241336
2096921,2096921, 298152, 241276
2096921,2096921, 297343, 240974
2096921,2096921, 297039, 240312
2096921,2096921, 296969, 240112
2096921,2096921, 297062, 240094
2096921,2096921, 296790, 239971
2096921,2096921, 296057, 239859
2096921,2096921, 296083, 239555
2096921,2096921, 295799, 239391
2096921,2096921, 296138, 239185
2096921,2096921, 295852, 239500
2096921,2096921, 295534, 239174
2096921,2096921, 295295, 238923
2096921,2096921, 295311, 238921
2096921,2096921, 295440, 238995
2096921,2096921, 295317, 239017
2096921,2096921, 295158, 238743
2096921,2096921, 294970, 238511
2096921,2096921, 294701, 238444
2096921,2096921, 295086, 238291
2096921,2096921, 295010, 238377
2096921,2096921, 294799, 238289
2096921,2096921, 294855, 238363
2096921,2096921, 294681, 238162
2096921,2096921, 294656, 238369
2096921,2096921, 294675, 238094
2096921,2096921, 294725, 238333
2096921,2096921, 294669, 238085
2096921,2096921, 294713, 238043
2096921,2096921, 294587, 237863
2096921,2096921, 294415, 238063
2096921,2096921, 294488, 238251
2096921,2096921, 294615, 238207
2096921,2096921, 294686, 238416
2096921,2096921, 294868, 238454
2096921,2096921, 294926, 238496
2096921,2096921, 294775, 238504
2096921,2096921, 294794, 238288
2096921,2096921, 294957, 238374
2096921,2096921, 295149, 238585
2096921,2096921, 294854, 238485
2096921,2096921, 294801, 238383
2096921,2096921, 294899, 238258
2096921,2096921, 294903, 238341
2096921,2096921, 294937, 238482
2096921,2096921, 295266, 238625
2096921,2096921, 295439, 238695
2096921,2096921, 295418, 238860
2096921,2096921, 295296, 238701
2096921,2096921, 295490, 238530
2096921,2096921, 295686, 238702
2096921,2096921, 295839, 238917
2096921,2096921, 295920, 239157
2096921,2096921, 295776, 239094
2096921,2096921, 295682, 239312
2096921,2096921, 295893, 239340
2096921,2096921, 296273, 239564
2096921,2096921, 296136, 239316
2096921,2096921, 296199, 239439
2096921,2096921, 296312, 239507
2096921,2096921, 296375, 239603
2096921,2096921, 296718, 239934
2096921,2096921, 296641, 239877
2096921,2096921, 296694, 239700
2096921,2096921, 296418, 239852
2096921,2096921, 296397, 239798
2096921,2096921, 297085, 240165
2096921,2096921, 297175, 239892
2096921,2096921, 296860, 240156
2096921,2096921, 297173, 240125
2096921,2096921, 297310, 240142
2096921,2096921, 297510, 240399
2096921,2096921, 297314, 240598
2096921,2096921, 297301, 240686
2096921,2096921, 297472, 240809
2096921,2096921, 297539, 240602
2096921,2096921, 297749, 240697
2096921,2096921, 297943, 240928
2096921,2096921, 298043, 240777
2096921,2096921, 297994, 240664
2096921,2096921, 297823, 240713
2096921,2096921, 298216, 241078
2096921,2096921, 297979, 241483
2096921,2096921, 298337, 241656
2096921,2096921, 298306, 241660
2096921,2096921, 298247, 241257
2096921,2096921, 298601, 241699
2096921,2096921, 298781, 241815
2096921,2096921, 298833, 241944
2096921,2096921, 298802, 241620
2096921,2096921, 298563, 241619
2096921,2096921, 298932, 241634
2096921,2096921, 299180, 242038
2096921,2096921, 298898, 241994
2096921,2096921, 299175, 242025
2096921,2096921, 299128, 242129
2096921,2096921, 299490, 242324
2096921,2096921, 299740, 242249
2096921,2096921, 299814, 242551
2096921,2096921, 299508, 242721
2096921,2096921, 299595, 242467
2096921,2096921, 300010, 242608
2096921,2096921, 299942, 242768
2096921,2096921, 300049, 242859
2096921,2096921, 300124, 242791
2096921,2096921, 300044, 242911
2096921,2096921, 300398, 243052
2096921,2096921, 300426, 243225
2096921,2096921, 300513, 243197
2096921,2096921, 300734, 243140
2096921,2096921, 300676, 243103
2096921,2096921, 300921, 243196
2096921,2096921, 300648, 243286
2096921,2096921, 300791, 243316
2096921,2096921, 300723, 243410
2096921,2096921, 300632, 243392
2096921,2096921, 301233, 243444
2096921,2096921, 301176, 243635
2096921,2096921, 301081, 243647
2096921,2096921, 301260, 243442
2096921,2096921, 300897, 243599
2096921,2096921, 301389, 243462
2096921,2096921, 301026, 243633
2096921,2096921, 301351, 243607
2096921,2096921, 301136, 243630
2096921,2096921, 301345, 243915
2096921,2096921, 301150, 243738
2096921,2096921, 301188, 243646
2096921,2096921, 301296, 243466
2096921,2096921, 301444, 243578
2096921,2096921, 301279, 243667
2096921,2096921, 301362, 243648
2096921,2096921, 301311, 243709
2096921,2096921, 301261, 243795
2096921,2096921, 301309, 243960
2096921,2096921, 301443, 243760
2096921,2096921, 301297, 243673
2096921,2096921, 301369, 243760
2096921,2096921, 301176, 243748
2096921,2096921, 301494, 243806
2096921,2096921, 301170, 243985
2096921,2096921, 301044, 243896
2096921,2096921, 300962, 243902
2096921,2096921, 301012, 243759
2096921,2096921, 301246, 243689
2096921,2096921, 301177, 243710
2096921,2096921, 300885, 243654
2096921,2096921, 300755, 243523
2096921,2096921, 300768, 243402
2096921,2096921, 300945, 243422
2096921,2096921, 300757, 243568
2096921,2096921, 300592, 243372
2096921,2096921, 300678, 243286
2096921,2096921, 300865, 243414
2096921,2096921, 300656, 243084
2096921,2096921, 300666, 243442
2096921,2096921, 300313, 243236
2096921,2096921, 300517, 243011
2096921,2096921, 300284, 243018
2096921,2096921, 300239, 243263
2096921,2096921, 300244, 243318
2096921,2096921, 300427, 243072
2096921,2096921, 300065, 242938
2096921,2096921, 300140, 242827
2096921,2096921, 300130, 242910
2096921,2096921, 300122, 243061
2096921,2096921, 300079, 242874
2096921,2096921, 300209, 243006
2096921,2096921, 300153, 242820
2096921,2096921, 300117, 242809
2096921,2096921, 300153, 242984
2096921,2096921, 300054, 242827
2096921,2096921, 299984, 242928
2096921,2096921, 300095, 242872
2096921,2096921, 300184, 243118
2096921,2096921, 300409, 242812
2096921,2096921, 300356, 242942
2096921,2096921, 300180, 243096
2096921,2096921, 299971, 243033
2096921,2096921, 300184, 242851
2096921,2096921, 300208, 243035
2096921,2096921, 300301, 242959
2096921,2096921, 300305, 242901
2096921,2096921, 300371, 242982
2096921,2096921, 299999, 242894
2096921,2096921, 300241, 243108
2096921,2096921, 300147, 242942
2096921,2096921, 300541, 242947
2096921,2096921, 300511, 242755
2096921,2096921, 300389, 243008
2096921,2096921, 300211, 242901
2096921,2096921, 300574, 243232
2096921,2096921, 300749, 243285
2096921,2096921, 300886, 243720
2096921,2096921, 300664, 243218
2096921,2096921, 300857, 243221
2096921,2096921, 301096, 243472
2096921,2096921, 301211, 243546
2096921,2096921, 301180, 243561
2096921,2096921, 301085, 243841
2096921,2096921, 301239, 243481
2096921,2096921, 301241, 243569
2096921,2096921, 301307, 243688
2096921,2096921, 301407, 243842
2096921,2096921, 301253, 243789
2096921,2096921, 301251, 243707
2096921,2096921, 301294, 243923
2096921,2096921, 301609, 243995
2096921,2096921, 301707, 243855
2096921,2096921, 301740, 243933
2096921,2096921, 301644, 244159
2096921,2096921, 301986, 244270
2096921,2096921, 301906, 244407
2096921,2096921, 302247, 244400
2096921,2096921, 302122, 244280
2096921,2096921, 301861, 244594
2096921,2096921, 302204, 244529
2096921,2096921, 302098, 244737
2096921,2096921, 302546, 244591
2096921,2096921, 302120, 244528
2096921,2096921, 302281, 244677
2096921,2096921, 302336, 244503
2096921,2096921, 302691, 244945
2096921,2096921, 302258, 245103
2096921,2096921, 302462, 244850
2096921,2096921, 302396, 244844
2096921,2096921, 302520, 245082
2096921,2096921, 302752, 245080
2096921,2096921, 302732, 245150
2096921,2096921, 302695, 245157
2096921,2096921, 302761, 245138
2096921,2096921, 302902, 244969
2096921,2096921, 303077, 245376
2096921,2096921, 302954, 245333
2096921,2096921, 302888, 245245
2096921,2096921, 303038, 245149
2096921,2096921, 303202, 245356
2096921,2096921, 303649, 245505
2096921,2096921, 303562, 245555
2096921,2096921, 303371, 245689
2096921,2096921, 303405, 245560
2096921,2096921, 303499, 245486
2096921,2096921, 303522, 245889
2096921,2096921, 303541, 245608
2096921,2096921, 303480, 245739
2096921,2096921, 303627, 245800
2096921,2096921, 303781, 245859
2096921,2096921, 303742, 245907
2096921,2096921, 303840, 245952
2096921,2096921, 303754, 245923
2096921,2096921, 303816, 246018
2096921,2096921, 303930, 246168
2096921,2096921, 304219, 245839
2096921,2096921, 303925, 246167
2096921,2096921, 303960, 246166
2096921,2096921, 304178, 246400
2096921,2096921, 304253, 246298
2096921,2096921, 304333, 246344
2096921,2096921, 304151, 246253
2096921,2096921, 304448, 246438
2096921,2096921, 304402, 246241
2096921,2096921, 304504, 246370
2096921,2096921, 304673, 246222
2096921,2096921, 304627, 246342
2096921,2096921, 304673, 246342
2096921,2096921, 304628, 246666
2096921,2096921, 304899, 246590
2096921,2096921, 304866, 246674
2096921,2096921, 304608, 246908
2096921,2096921, 305124, 246975
2096921,2096921, 304802, 246731
2096921,2096921, 305220, 246968
2096921,2096921, 305111, 246860
2096921,2096921, 305386, 246935
2096921,2096921, 305342, 246973
2096921,2096921, 305206, 246846
2096921,2096921, 305346, 247266
2096921,2096921, 305337, 247112
2096921,2096921, 305216, 247056
2096921,2096921, 305477, 247261
2096921,2096921, 305427, 247235
2096921,2096921, 305563, 247303
2096921,2096921, 305384, 247340
2096921,2096921, 305478, 247309
2096921,2096921, 305604, 247380
2096921,2096921, 305642, 247297
2096921,2096921, 305523, 247535
2096921,2096921, 305551, 247286
2096921,2096921, 305742, 247403
2096921,2096921, 305787, 247737
2096921,2096921, 305917, 247539
2096921,2096921, 305846, 247464
2096921,2096921, 305763, 247579
2096921,2096921, 306028, 247671
2096921,2096921, 305933, 247534
2096921,2096921, 305951, 247551
2096921,2096921, 306047, 247821
2096921,2096921, 305999, 247950
2096921,2096921, 306023, 247931
2096921,2096921, 306070, 248134
2096921,2096921, 306152, 247967
2096921,2096921, 306328, 247983
2096921,2096921, 306187, 247953
2096921,2096921, 306026, 248256
2096921,2096921, 306279, 248150
2096921,2096921, 306419, 248061
2096921,2096921, 306431, 248225
2096921,2096921, 306164, 248181
2096921,2096921, 306522, 248136
2096921,2096921, 306481, 247952
2096921,2096921, 306403, 248120
2096921,2096921, 306743, 248202
2096921,2096921, 306647, 248320
2096921,2096921, 306632, 248253
2096921,2096921, 306624, 248390
2096921,2096921, 306725, 248323
2096921,2096921, 306781, 248396
2096921,2096921, 306874, 248507
2096921,2096921, 307040, 248451
2096921,2096921, 306872, 248791
2096921,2096921, 306918, 248533
2096921,2096921, 306976, 248481
2096921,2096921, 306754, 248505
2096921,2096921, 306905, 248573
2096921,2096921, 306895, 248837
2096921,2096921, 306865, 248533
2096921,2096921, 306831, 248835
2096921,2096921, 307169, 248668
2096921,2096921, 307180, 248523
2096921,2096921, 307239, 248731
2096921,2096921, 307082, 248771
2096921,2096921, 307233, 248893
2096921,2096921, 307213, 248695
2096921,2096921, 307331, 248631
2096921,2096921, 307241, 248964
2096921,2096921, 307258, 248877
2096921,2096921, 307388, 248988
2096921,2096921, 307589, 249049
2096921,2096921, 307335, 248936
2096921,2096921, 307301, 248931
2096921,2096921, 306963, 248869
2096921,2096921, 307235, 249012
2096921,2096921, 307248, 248885
2096921,2096921, 307263, 248931
2096921,2096921, 307471, 249122
2096921,2096921, 307474, 248857
2096921,2096921, 307419, 248797
2096921,2096921, 307529, 249032
2096921,2096921, 307364, 248897
2096921,2096921, 307455, 249001
2096921,2096921, 307462, 249036
2096921,2096921, 307685, 249137
2096921,2096921, 307610, 249142
2096921,2096921, 307731, 249118
2096921,2096921, 307400, 249078
2096921,2096921, 307543, 248970
2096921,2096921, 307690, 249311
2096921,2096921, 307750, 249148
2096921,2096921, 307798, 249190
2096921,2096921, 307712, 249231
2096921,2096921, 308014, 249300
2096921,2096921, 307833, 249180
2096921,2096921, 307720, 249434
2096921,2096921, 307468, 249271
2096921,2096921, 307694, 249306
2096921,2096921, 307722, 249303
2096921,2096921, 307948, 249504
2096921,2096921, 308033, 249652
2096921,2096921, 307743, 249582
2096921,2096921, 307612, 249607
2096921,2096921, 307936, 249369
2096921,2096921, 307842, 249543
2096921,2096921, 307799, 249539
2096921,2096921, 307945, 249615
2096921,2096921, 307744, 249318
2096921,2096921, 307947, 249462
2096921,2096921, 307905, 249342
2096921,2096921, 307971, 249551
2096921,2096921, 308139, 249502
2096921,2096921, 308282, 249655
2096921,2096921, 308203, 249610
2096921,2096921, 308125, 249677
2096921,2096921, 308399, 249715
2096921,2096921, 308339, 249442
2096921,2096921, 308255, 249631
2096921,2096921, 308064, 249621
2096921,2096921, 308090, 249518
2096921,2096921, 308122, 249658
2096921,2096921, 308167, 249672
2096921,2096921, 308154, 249470
2096921,2096921, 308128, 249781
2096921,2096921, 308271, 249560
2096921,2096921, 308310, 249599
2096921,2096921, 308465, 249481
2096921,2096921, 308138, 249839
2096921,2096921, 308503, 249755
2096921,2096921, 308606, 249915
2096921,2096921, 308452, 249868
2096921,2096921, 308722, 249892
2096921,2096921, 308555, 250150
2096921,2096921, 308384, 249874
2096921,2096921, 308515, 249682
2096921,2096921, 308195, 249445
2096921,2096921, 308593, 249608
2096921,2096921, 308320, 249796
2096921,2096921, 308387, 249824
2096921,2096921, 308408, 249768
2096921,2096921, 308589, 249754
2096921,2096921, 308687, 249912
2096921,2096921, 308622, 249564
2096921,2096921, 308455, 249996
2096921,2096921, 308094, 250122
2096921,2096921, 308330, 249703
2096921,2096921, 308592, 249941
2096921,2096921, 308634, 249754
2096921,2096921, 308598, 249664
2096921,2096921, 308811, 249631
2096921,2096921, 308689, 249853
2096921,2096921, 308686, 250037
2096921,2096921, 308478, 250014
2096921,2096921, 308588, 249922
2096921,2096921, 308307, 249877
2096921,2096921, 308444, 249883
2096921,2096921, 308461, 249788
2096921,2096921, 308343, 249678
2096921,2096921, 308355, 249831
2096921,2096921, 308360, 249853
2096921,2096921, 308507, 249875
2096921,2096921, 308500, 250019
2096921,2096921, 308798, 249933
2096921,2096921, 308600, 249971
2096921,2096921, 308283, 249887
2096921,2096921, 308412, 250104
2096921,2096921, 308651, 249797
2096921,2096921, 308617, 249808
2096921,2096921, 308430, 249832
2096921,2096921, 308441, 249892
2096921,2096921, 308672, 249749
2096921,2096921, 308665, 249834
2096921,2096921, 308821, 249672
2096921,2096921, 308614, 250068
2096921,2096921, 308695, 249846
2096921,2096921, 308711, 250242
2096921,2096921, 308484, 249763
2096921,2096921, 308507, 249850
2096921,2096921, 308384, 249792
2096921,2096921, 308724, 249952
2096921,2096921, 308563, 249925
2096921,2096921, 308579, 249699
2096921,2096921, 308514, 250021
2096921,2096921, 308550, 249747
2096921,2096921, 308375, 250051
2096921,2096921, 308427, 250071
2096921,2096921, 308700, 249810
2096921,2096921, 308743, 249789
2096921,2096921, 308669, 249893
2096921,2096921, 308154, 249560
2096921,2096921, 308214, 249676
2096921,2096921, 308253, 249601
2096921,2096921, 308258, 249653
2096921,2096921, 308021, 249607
2096921,2096921, 307684, 249347
2096921,2096921, 307819, 249235
2096921,2096921, 307519, 249192
2096921,2096921, 307515, 248984
2096921,2096921, 307535, 249258
2096921,2096921, 307195, 248873
2096921,2096921, 307119, 248641
2096921,2096921, 307219, 248631
2096921,2096921, 306932, 248693
2096921,2096921, 307104, 248767
2096921,2096921, 306518, 248308
2096921,2096921, 305992, 248005
2096921,2096921, 306060, 247845
2096921,2096921, 305986, 247787
2096921,2096921, 306102, 247744
2096921,2096921, 305357, 247172
2096921,2096921, 305072, 247080
2096921,2096921, 304964, 246903
2096921,2096921, 304977, 247073
2096921,2096921, 304912, 247165
2096921,2096921, 303035, 246027
2096921,2096921, 302797, 244963
2096921,2096921, 302629, 244957
2096921,2096921, 302424, 244937
2096921,2096921, 302358, 244634
2096921,2096921, 300201, 243664
2096921,2096921, 299723, 242902
2096921,2096921, 299959, 242641
2096921,2096921, 300049, 242734
2096921,2096921, 299661, 242452
2096921,2096921, 298022, 241809
2096921,2096921, 297914, 240698
2096921,2096921, 298014, 240811
2096921,2096921, 297879, 240712
2096921,2096921, 297818, 240763
2096921,2096921, 296410, 239974
2096921,2096921, 296159, 239716
2096921,2096921, 296275, 239428
2096921,2096921, 296237, 239303
2096921,2096921, 295789, 239377
2096921,2096921, 295081, 238985
2096921,2096921, 294713, 238801
2096921,2096921, 294969, 238558
2096921,2096921, 294820, 238536
2096921,2096921, 294997, 238296
2096921,2096921, 294237, 237955
2096921,2096921, 294300, 237773
2096921,2096921, 294398, 237773
2096921,2096921, 294374, 237627
2096921,2096921, 294127, 237976
2096921,2096921, 293821, 237600
2096921,2096921, 293604, 237421
2096921,2096921, 293300, 237308
2096921,2096921, 293402, 237271
2096921,2096921, 293836, 237539
2096921,2096921, 293462, 237234
2096921,2096921, 293124, 237214
2096921,2096921, 293381, 237076
2096921,2096921, 293479, 237213
2096921,2096921, 293424, 237202
2096921,2096921, 293230, 237090
2096921,2096921, 293103, 237171
2096921,2096921, 292944, 237001
2096921,2096921, 292914, 237157
2096921,2096921, 293004, 237125
2096921,2096921, 293084, 237069
2096921,2096921, 293279, 237007
2096921,2096921, 292966, 236837
2096921,2096921, 293137, 237032
2096921,2096921, 293157, 237078
2096921,2096921, 293294, 237105
2096921,2096921, 293267, 237208
2096921,2096921, 293530, 237261
2096921,2096921, 293343, 237136
2096921,2096921, 293379, 237216
2096921,2096921, 293385, 237314
2096921,2096921, 293676, 237140
2096921,2096921, 293529, 237187
2096921,2096921, 293753, 237349
2096921,2096921, 293732, 237530
2096921,2096921, 293862, 237465
2096921,2096921, 293699, 237465
2096921,2096921, 293725, 237439
2096921,2096921, 293795, 237564
2096921,2096921, 293709, 237445
2096921,2096921, 294109, 237719
2096921,2096921, 294387, 237683
2096921,2096921, 294452, 238017
2096921,2096921, 294345, 238218
2096921,2096921, 294311, 238373
2096921,2096921, 294717, 238231
2096921,2096921, 294841, 238348
2096921,2096921, 295004, 238343
2096921,2096921, 294936, 238307
2096921,2096921, 294796, 238636
2096921,2096921, 295291, 238798
2096921,2096921, 295283, 238989
2096921,2096921, 295220, 238724
2096921,2096921, 295341, 238753
2096921,2096921, 295280, 238558
2096921,2096921, 295750, 239006
2096921,2096921, 295936, 239176
2096921,2096921, 295903, 239339
2096921,2096921, 296036, 239395
2096921,2096921, 296185, 239494
2096921,2096921, 296539, 239701
2096921,2096921, 296631, 239974
2096921,2096921, 296398, 239895
2096921,2096921, 296220, 239906
2096921,2096921, 296540, 239818
2096921,2096921, 296915, 240117
2096921,2096921, 297079, 239900
2096921,2096921, 296819, 240129
2096921,2096921, 297029, 240297
2096921,2096921, 297165, 240325
2096921,2096921, 297677, 240500
2096921,2096921, 297731, 240793
2096921,2096921, 297692, 240746
2096921,2096921, 297702, 240791
2096921,2096921, 297687, 240771
2096921,2096921, 298015, 240770
2096921,2096921, 298264, 240934
2096921,2096921, 298191, 241292
2096921,2096921, 298366, 241284
2096921,2096921, 297949, 241419
2096921,2096921, 298755, 241691
2096921,2096921, 298872, 241475
2096921,2096921, 298658, 241827
2096921,2096921, 298666, 241850
2096921,2096921, 298761, 241754
2096921,2096921, 299475, 241998
2096921,2096921, 299288, 242101
2096921,2096921, 299557, 242070
2096921,2096921, 299469, 242139
2096921,2096921, 299464, 242502
2096921,2096921, 299908, 242399
2096921,2096921, 299938, 242614
2096921,2096921, 299823, 242674
2096921,2096921, 300186, 242624
2096921,2096921, 300044, 242604
2096921,2096921, 300353, 242889
2096921,2096921, 300461, 242966
2096921,2096921, 300491, 243390
2096921,2096921, 300603, 243034
2096921,2096921, 300566, 243233
2096921,2096921, 301230, 243473
2096921,2096921, 301077, 243642
2096921,2096921, 301131, 243530
2096921,2096921, 301221, 243382
2096921,2096921, 301128, 243663
2096921,2096921, 301475, 243798
2096921,2096921, 301652, 243851
2096921,2096921, 301589, 244047
2096921,2096921, 301283, 243820
2096921,2096921, 301344, 243883
2096921,2096921, 301716, 244401
2096921,2096921, 302053, 244254
2096921,2096921, 301818, 244123
2096921,2096921, 301970, 244425
2096921,2096921, 301888, 244224
2096921,2096921, 301982, 244194
2096921,2096921, 302011, 244362
2096921,2096921, 301965, 244508
2096921,2096921, 302002, 244442
2096921,2096921, 302314, 244397
2096921,2096921, 302456, 244733
2096921,2096921, 302218, 244666
2096921,2096921, 302256, 244810
2096921,2096921, 302248, 244762
2096921,2096921, 302300, 244723
2096921,2096921, 302104, 244580
2096921,2096921, 302327, 244532
2096921,2096921, 302307, 244761
2096921,2096921, 302382, 244843
2096921,2096921, 302497, 244588
2096921,2096921, 302488, 244643
2096921,2096921, 302737, 244739
2096921,2096921, 302618, 244703
2096921,2096921, 302109, 244783
2096921,2096921, 302274, 244568
2096921,2096921, 302449, 244498
2096921,2096921, 302142, 244619
2096921,2096921, 302211, 244744
2096921,2096921, 302231, 244781
2096921,2096921, 302309, 244578
2096921,2096921, 302234, 244720
2096921,2096921, 302556, 244647
2096921,2096921, 302299, 244833
2096921,2096921, 302407, 244556
2096921,2096921, 302248, 244746
2096921,2096921, 302243, 244656
2096921,2096921, 302207, 244881
2096921,2096921, 302150, 244703
2096921,2096921, 301842, 244817
2096921,2096921, 302014, 244503
2096921,2096921, 302182, 244660
2096921,2096921, 302089, 244629
2096921,2096921, 302101, 244522
2096921,2096921, 302231, 244318
2096921,2096921, 302377, 244455
2096921,2096921, 301989, 244657
2096921,2096921, 301999, 244464
2096921,2096921, 301966, 244372
2096921,2096921, 301816, 244382
2096921,2096921, 302138, 244276
2096921,2096921, 301881, 244312
2096921,2096921, 302043, 244236
2096921,2096921, 302207, 244294
2096921,2096921, 302042, 244335
2096921,2096921, 302469, 244557
2096921,2096921, 302229, 244507
2096921,2096921, 302162, 244598
2096921,2096921, 302401, 244571
2096921,2096921, 302159, 244557
2096921,2096921, 302137, 244730
2096921,2096921, 302269, 244598
2096921,2096921, 302632, 244699
2096921,2096921, 302555, 244502
2096921,2096921, 302454, 244370
2096921,2096921, 302294, 244476
2096921,2096921, 302449, 244644
2096921,2096921, 302523, 244698
2096921,2096921, 302541, 244775
2096921,2096921, 302345, 244919
2096921,2096921, 302509, 244755
2096921,2096921, 302877, 244564
2096921,2096921, 302878, 244900
2096921,2096921, 303109, 244843
2096921,2096921, 302868, 244775
2096921,2096921, 302573, 244989
2096921,2096921, 302930, 245233
2096921,2096921, 303298, 245247
2096921,2096921, 303161, 245493
2096921,2096921, 303126, 245304
2096921,2096921, 303178, 245286
2096921,2096921, 303416, 245617
2096921,2096921, 303655, 246098
2096921,2096921, 303612, 245836
2096921,2096921, 303831, 245520
2096921,2096921, 303542, 245752
2096921,2096921, 304068, 245980
2096921,2096921, 304092, 246148
2096921,2096921, 303881, 246359
2096921,2096921, 304233, 246310
2096921,2096921, 304319, 246007
2096921,2096921, 304524, 246392
2096921,2096921, 304602, 246458
2096921,2096921, 304361, 246370
2096921,2096921, 304451, 246683
2096921,2096921, 304510, 246440
2096921,2096921, 304858, 246571
2096921,2096921, 304904, 246959
2096921,2096921, 304941, 246934
2096921,2096921, 304880, 246943
2096921,2096921, 304841, 246710
2096921,2096921, 305243, 246669
2096921,2096921, 305356, 247140
2096921,2096921, 305270, 247121
2096921,2096921, 305079, 247442
2096921,2096921, 305091, 247338
2096921,2096921, 305489, 247419
2096921,2096921, 305624, 247341
2096921,2096921, 305549, 247474
2096921,2096921, 305494, 247386
2096921,2096921, 305784, 247462
2096921,2096921, 306022, 247464
2096921,2096921, 306097, 247664
2096921,2096921, 305833, 247748
2096921,2096921, 306052, 247652
2096921,2096921, 305792, 247760
2096921,2096921, 306148, 247751
2096921,2096921, 306456, 247853
2096921,2096921, 306416, 247802
2096921,2096921, 306480, 248086
2096921,2096921, 306571, 247859
2096921,2096921, 306738, 248145
2096921,2096921, 306683, 248433
2096921,2096921, 306977, 248350
2096921,2096921, 306620, 248303
2096921,2096921, 307031, 248381
2096921,2096921, 306937, 248081
2096921,2096921, 307019, 248445
2096921,2096921, 306940, 248560
2096921,2096921, 307070, 248733
2096921,2096921, 307091, 248629
2096921,2096921, 307541, 248632
2096921,2096921, 307467, 248932
2096921,2096921, 307484, 248843
2096921,2096921, 307146, 248907
2096921,2096921, 307591, 248742
2096921,2096921, 307648, 249052
2096921,2096921, 307625, 249063
2096921,2096921, 307849, 249443
2096921,2096921, 307819, 249404
2096921,2096921, 307889, 249116
2096921,2096921, 308346, 249232
2096921,2096921, 308217, 249175
2096921,2096921, 308142, 249185
2096921,2096921, 308158, 249400
2096921,2096921, 307922, 249439
2096921,2096921, 308524, 249641
2096921,2096921, 308404, 249611
2096921,2096921, 308416, 249804
2096921,2096921, 308555, 249630
2096921,2096921, 308347, 249671
2096921,2096921, 308689, 249939
2096921,2096921, 308769, 250134
2096921,2096921, 308882, 250397
2096921,2096921, 308815, 250001
2096921,2096921, 308786, 250005
2096921,2096921, 309113, 250338
2096921,2096921, 309064, 250185
2096921,2096921, 309099, 250564
2096921,2096921, 309206, 250274
2096921,2096921, 309228, 250319
2096921,2096921, 309521, 250393
2096921,2096921, 309418, 250712
2096921,2096921, 309554, 250571
2096921,2096921, 309516, 250529
2096921,2096921, 309391, 250481
2096921,2096921, 309534, 250706
2096921,2096921, 309523, 250782
2096921,2096921, 309692, 250878
2096921,2096921, 309695, 250862
2096921,2096921, 309864, 251025
2096921,2096921, 309965, 251277
2096921,2096921, 309935, 251299
2096921,2096921, 309934, 251292
2096921,2096921, 310025, 251150
2096921,2096921, 310149, 251253
2096921,2096921, 310270, 251358
2096921,2096921, 310245, 251142
2096921,2096921, 310238, 251187
2096921,2096921, 310310, 251374
2096921,2096921, 310330, 251385
2096921,2096921, 310324, 251394
2096921,2096921, 310422, 251456
2096921,2096921, 310541, 251646
2096921,2096921, 310593, 251579
2096921,2096921, 310431, 251589
2096921,2096921, 310646, 251643
2096921,2096921, 310798, 251750
2096921,2096921, 310909, 251796
2096921,2096921, 310704, 251561
2096921,2096921, 310765, 251652
2096921,2096921, 310916, 251709
2096921,2096921, 310943, 251768
2096921,2096921, 311177, 251919
2096921,2096921, 310909, 251678
2096921,2096921, 311070, 252130
2096921,2096921, 311481, 252058
2096921,2096921, 311342, 252093
2096921,2096921, 311348, 252009
2096921,2096921, 311191, 252038
2096921,2096921, 311307, 252078
2096921,2096921, 311544, 251944
2096921,2096921, 311336, 252017
2096921,2096921, 311459, 252306
2096921,2096921, 311542, 252243
2096921,2096921, 311402, 252573
2096921,2096921, 311703, 252591
2096921,2096921, 311860, 252531
2096921,2096921, 311616, 252367
2096921,2096921, 311750, 252440
2096921,2096921, 311508, 252445
2096921,2096921, 311688, 252446
2096921,2096921, 312151, 252753
2096921,2096921, 311806, 252613
2096921,2096921, 312023, 252627
2096921,2096921, 311852, 252630
2096921,2096921, 311963, 252833
2096921,2096921, 312058, 252710
2096921,2096921, 312285, 252884
2096921,2096921, 312124, 252498
2096921,2096921, 312192, 252689
2096921,2096921, 312305, 252714
2096921,2096921, 312179, 252996
2096921,2096921, 312090, 252720
2096921,2096921, 312300, 252813
2096921,2096921, 312518, 253181
2096921,2096921, 312513, 253072
2096921,2096921, 312369, 253280
2096921,2096921, 312612, 253262
2096921,2096921, 312690, 253135
2096921,2096921, 312647, 253195
2096921,2096921, 312911, 253135
2096921,2096921, 312595, 253094
2096921,2096921, 312707, 253391
2096921,2096921, 312675, 253137
2096921,2096921, 312657, 253418
2096921,2096921, 312852, 253299
2096921,2096921, 313127, 253335
2096921,2096921, 312861, 253422
2096921,2096921, 312846, 253459
2096921,2096921, 312848, 253399
2096921,2096921, 313260, 253439
2096921,2096921, 313015, 253221
2096921,2096921, 313002, 253629
2096921,2096921, 313077, 253474
2096921,2096921, 313093, 253622
2096921,2096921, 313125, 253500
2096921,2096921, 313294, 253814
2096921,2096921, 313315, 253755
2096921,2096921, 313192, 253625
2096921,2096921, 313265, 253297
2096921,2096921, 313339, 253461
2096921,2096921, 313224, 253886
2096921,2096921, 313281, 253821
2096921,2096921, 313204, 253891
2096921,2096921, 313594, 253614
2096921,2096921, 313509, 253780
2096921,2096921, 313502, 253935
2096921,2096921, 313537, 254070
2096921,2096921, 313557, 253821
2096921,2096921, 313611, 253947
2096921,2096921, 313832, 254141
2096921,2096921, 313535, 253901
2096921,2096921, 313666, 254061
2096921,2096921, 313769, 254094
2096921,2096921, 313826, 254054
2096921,2096921, 314054, 254033
2096921,2096921, 313982, 254136
2096921,2096921, 313791, 253973
2096921,2096921, 313665, 254033
2096921,2096921, 313519, 254272
2096921,2096921, 313640, 254024
2096921,2096921, 313730, 254107
2096921,2096921, 313939, 254220
2096921,2096921, 313870, 254555
2096921,2096921, 313780, 254402
2096921,2096921, 314042, 254356
2096921,2096921, 314149, 254403
2096921,2096921, 313963, 254392
2096921,2096921, 313971, 254334
2096921,2096921, 314003, 254393
2096921,2096921, 314181, 254589
2096921,2096921, 314045, 254604
2096921,2096921, 314079, 254649
2096921,2096921, 313990, 254573
2096921,2096921, 314308, 254502
2096921,2096921, 314088, 254550
2096921,2096921, 314420, 254492
2096921,2096921, 314058, 254635
2096921,2096921, 313976, 254448
2096921,2096921, 314453, 254576
2096921,2096921, 314368, 254517
2096921,2096921, 314458, 254651
2096921,2096921, 314299, 254505
2096921,2096921, 314480, 254570
2096921,2096921, 314251, 254723
2096921,2096921, 314480, 254630
2096921,2096921, 314510, 254906
2096921,2096921, 314353, 254406
2096921,2096921, 314231, 254222
2096921,2096921, 314069, 254621
2096921,2096921, 314416, 254803
2096921,2096921, 314343, 254618
2096921,2096921, 314387, 254386
2096921,2096921, 314557, 254489
2096921,2096921, 314556, 254317
2096921,2096921, 314423, 254773
2096921,2096921, 314478, 254552
2096921,2096921, 314482, 254474
2096921,2096921, 314438, 254642
2096921,2096921, 314484, 254681
2096921,2096921, 314255, 254871
2096921,2096921, 314264, 254669
2096921,2096921, 314777, 254959
2096921,2096921, 314343, 254886
2096921,2096921, 314620, 254924
2096921,2096921, 314435, 254959
2096921,2096921, 314439, 254597
2096921,2096921, 314420, 254495
2096921,2096921, 314725, 254577
2096921,2096921, 314490, 254612
2096921,2096921, 314483, 254905
2096921,2096921, 314822, 254688
2096921,2096921, 314444, 254976
2096921,2096921, 314485, 254733
2096921,2096921, 314487, 254820
2096921,2096921, 314735, 254992
2096921,2096921, 314997, 254839
2096921,2096921, 314732, 254976
2096921,2096921, 314901, 254848
2096921,2096921, 314585, 254732
2096921,2096921, 314854, 254792
2096921,2096921, 314675, 254794
2096921,2096921, 314517, 254557
2096921,2096921, 314654, 254626
2096921,2096921, 314564, 254918
2096921,2096921, 314629, 254808
2096921,2096921, 314595, 254774
2096921,2096921, 314726, 255080
2096921,2096921, 314541, 255001
2096921,2096921, 314626, 254809
2096921,2096921, 314228, 254702
2096921,2096921, 314090, 254494
2096921,2096921, 314086, 254563
2096921,2096921, 313890, 254498
2096921,2096921, 314185, 254618
2096921,2096921, 314001, 254331
2096921,2096921, 313787, 254245
2096921,2096921, 313747, 254100
2096921,2096921, 313748, 254063
2096921,2096921, 313924, 254111
2096921,2096921, 313298, 253660
2096921,2096921, 313035, 253560
2096921,2096921, 312912, 253272
2096921,2096921, 313066, 253455
2096921,2096921, 312985, 253321
2096921,2096921, 312077, 252981
2096921,2096921, 312279, 252755
2096921,2096921, 311943, 252778
2096921,2096921, 312024, 252731
2096921,2096921, 312057, 252658
2096921,2096921, 311332, 252273
2096921,2096921, 311085, 252021
2096921,2096921, 310812, 252087
2096921,2096921, 310982, 251994
2096921,2096921, 310947, 251907
2096921,2096921, 309109, 250848
2096921,2096921, 308995, 250020
2096921,2096921, 309023, 249900
2096921,2096921, 308916, 249785
2096921,2096921, 308621, 249754
2096921,2096921, 306413, 248370
2096921,2096921, 305991, 247591
2096921,2096921, 305710, 247459
2096921,2096921, 305667, 247279
2096921,2096921, 305743, 247400
2096921,2096921, 304073, 246606
2096921,2096921, 303413, 245737
2096921,2096921, 303460, 245558
2096921,2096921, 303586, 245732
2096921,2096921, 303458, 245744
2096921,2096921, 302332, 244908
2096921,2096921, 302003, 244373
2096921,2096921, 301599, 244365
2096921,2096921, 301884, 244243
2096921,2096921, 302168, 244498
2096921,2096921, 301051, 243461
2096921,2096921, 300746, 243500
2096921,2096921, 300513, 243314
2096921,2096921, 300815, 243324
2096921,2096921, 300629, 243318
2096921,2096921, 299921, 242976
2096921,2096921, 299781, 242391
2096921,2096921, 299795, 242519
2096921,2096921, 299883, 242436
2096921,2096921, 299739, 242624
2096921,2096921, 299359, 242055
2096921,2096921, 299310, 241946
2096921,2096921, 299168, 242139
2096921,2096921, 299111, 241893
2096921,2096921, 299133, 241696
2096921,2096921, 299001, 241668
2096921,2096921, 298742, 241607
2096921,2096921, 298932, 241440
2096921,2096921, 298987, 241407
2096921,2096921, 298639, 241490
2096921,2096921, 298677, 241495
2096921,2096921, 298385, 241410
2096921,2096921, 298918, 241475
2096921,2096921, 298794, 241410
2096921,2096921, 299106, 241305
2096921,2096921, 298876, 241356
2096921,2096921, 298715, 241571
2096921,2096921, 298654, 241523
2096921,2096921, 298441, 241422
2096921,2096921, 298598, 241520
2096921,2096921, 298866, 241220
2096921,2096921, 298888, 241650
2096921,2096921, 298936, 241800
2096921,2096921, 299117, 241663
2096921,2096921, 298806, 241718
2096921,2096921, 299410, 241999
2096921,2096921, 299209, 241795
2096921,2096921, 299009, 241797
2096921,2096921, 298800, 241594
2096921,2096921, 298928, 241782
2096921,2096921, 298967, 242000
2096921,2096921, 299052, 241662
2096921,2096921, 298877, 241991
2096921,2096921, 299284, 241990
2096921,2096921, 299363, 241921
2096921,2096921, 299551, 242137
2096921,2096921, 299777, 242313
2096921,2096921, 299832, 242626
2096921,2096921, 299575, 242516
2096921,2096921, 299714, 242361
2096921,2096921, 300016, 242494
2096921,2096921, 300173, 242585
2096921,2096921, 300107, 242545
2096921,2096921, 300143, 242295
2096921,2096921, 300033, 242788
2096921,2096921, 300569, 242887
2096921,2096921, 300458, 243186
2096921,2096921, 300585, 243220
2096921,2096921, 300903, 243077
2096921,2096921, 300807, 243140
2096921,2096921, 301091, 243577
2096921,2096921, 300994, 243989
2096921,2096921, 301313, 243711
2096921,2096921, 301228, 243743
2096921,2096921, 301102, 243700
2096921,2096921, 301643, 243982
2096921,2096921, 302062, 243860
2096921,2096921, 301859, 243896
2096921,2096921, 301803, 243846
2096921,2096921, 301771, 244063
2096921,2096921, 301944, 244481
2096921,2096921, 301969, 244507
2096921,2096921, 302052, 244281
2096921,2096921, 301871, 244459
2096921,2096921, 302045, 244373
2096921,2096921, 302388, 244595
2096921,2096921, 302561, 244788
2096921,2096921, 302783, 244908
2096921,2096921, 302521, 244975
2096921,2096921, 302829, 244779
2096921,2096921, 302989, 245060
2096921,2096921, 303220, 245281
2096921,2096921, 303241, 245230
2096921,2096921, 303392, 245399
2096921,2096921, 303320, 245278
2096921,2096921, 303811, 245621
2096921,2096921, 303939, 245655
2096921,2096921, 303627, 245744
2096921,2096921, 303673, 245742
2096921,2096921, 303623, 245706
2096921,2096921, 304131, 245802
2096921,2096921, 304350, 246280
2096921,2096921, 304420, 246288
2096921,2096921, 304383, 246079
2096921,2096921, 304450, 246155
2096921,2096921, 304916, 246501
2096921,2096921, 304789, 246674
2096921,2096921, 304903, 246672
2096921,2096921, 304936, 246559
2096921,2096921, 304921, 246591
2096921,2096921, 305199, 246919
2096921,2096921, 305474, 247193
2096921,2096921, 305305, 246844
2096921,2096921, 305284, 246890
2096921,2096921, 305382, 246940
2096921,2096921, 305855, 247299
2096921,2096921, 305799, 247577
2096921,2096921, 305796, 247393
2096921,2096921, 305581, 247411
2096921,2096921, 305783, 247348
2096921,2096921, 306233, 247640
2096921,2096921, 306231, 247978
2096921,2096921, 306296, 247764
2096921,2096921, 306090, 247771
2096921,2096921, 306210, 247715
2096921,2096921, 306400, 247927
2096921,2096921, 306267, 247940
2096921,2096921, 306313, 247744
2096921,2096921, 306279, 247740
2096921,2096921, 306325, 247796
2096921,2096921, 306399, 247972
2096921,2096921, 306649, 248242
2096921,2096921, 306904, 248434
2096921,2096921, 306585, 248271
2096921,2096921, 306608, 248089
2096921,2096921, 306682, 248208
2096921,2096921, 306743, 248144
2096921,2096921, 306561, 248327
2096921,2096921, 306888, 248410
2096921,2096921, 306829, 248333
2096921,2096921, 306938, 248323
2096921,2096921, 306841, 248226
2096921,2096921, 306889, 248234
2096921,2096921, 306636, 248213
2096921,2096921, 306720, 248174
2096921,2096921, 306821, 248196
2096921,2096921, 306738, 248392
2096921,2096921, 306861, 248357
2096921,2096921, 307088, 248263
2096921,2096921, 306921, 248302
2096921,2096921, 306719, 248226
2096921,2096921, 306413, 248108
2096921,2096921, 306711, 248103
2096921,2096921, 306535, 248062
2096921,2096921, 306886, 248286
2096921,2096921, 306579, 248310
2096921,2096921, 306400, 247957
2096921,2096921, 306620, 248098
2096921,2096921, 306380, 247983
2096921,2096921, 306660, 248123
2096921,2096921, 306657, 247969
2096921,2096921, 306488, 247945
2096921,2096921, 306205, 247926
2096921,2096921, 306355, 247941
2096921,2096921, 306261, 247911
2096921,2096921, 306259, 247870
2096921,2096921, 306402, 247724
2096921,2096921, 306093, 247914
2096921,2096921, 305957, 247832
2096921,2096921, 305968, 247931
2096921,2096921, 305662, 247869
2096921,2096921, 305939, 247665
2096921,2096921, 305905, 247461
2096921,2096921, 305801, 247466
2096921,2096921, 305868, 247707
2096921,2096921, 306118, 247543
2096921,2096921, 306132, 247537
2096921,2096921, 305965, 247643
2096921,2096921, 306079, 247526
2096921,2096921, 305933, 247715
2096921,2096921, 306033, 247560
2096921,2096921, 305877, 247516
2096921,2096921, 306077, 247602
2096921,2096921, 306036, 247666
2096921,2096921, 306170, 247586
2096921,2096921, 306120, 247696
2096921,2096921, 306065, 247630
2096921,2096921, 306060, 247601
2096921,2096921, 305977, 247775
2096921,2096921, 306072, 247655
2096921,2096921, 306251, 247604
2096921,2096921, 305973, 247989
2096921,2096921, 306033, 247637
2096921,2096921, 306274, 247674
2096921,2096921, 306069, 247786
2096921,2096921, 306221, 247752
2096921,2096921, 306335, 247725
2096921,2096921, 306368, 247918
2096921,2096921, 306658, 247833
2096921,2096921, 306443, 247972
2096921,2096921, 306825, 248157
2096921,2096921, 306572, 248266
2096921,2096921, 306532, 248072
2096921,2096921, 306631, 248080
2096921,2096921, 306717, 248210
2096921,2096921, 306948, 248457
2096921,2096921, 306939, 248348
2096921,2096921, 307274, 248453
2096921,2096921, 307033, 248403
2096921,2096921, 307148, 248421
2096921,2096921, 307454, 248608
2096921,2096921, 307539, 248998
2096921,2096921, 307441, 248935
2096921,2096921, 307510, 248914
2096921,2096921, 307340, 248929
2096921,2096921, 307866, 249170
2096921,2096921, 307863, 249170
2096921,2096921, 307664, 249136
2096921,2096921, 307914, 249207
2096921,2096921, 307898, 249156
2096921,2096921, 308129, 249166
2096921,2096921, 308128, 249330
2096921,2096921, 308230, 249403
2096921,2096921, 307921, 249258
2096921,2096921, 307884, 249477
2096921,2096921, 308237, 249207
2096921,2096921, 308339, 249500
2096921,2096921, 308054, 249774
2096921,2096921, 308276, 249437
2096921,2096921, 308226, 249484
2096921,2096921, 308336, 249703
2096921,2096921, 308219, 249754
2096921,2096921, 308566, 249716
2096921,2096921, 308586, 249625
2096921,2096921, 308304, 249525
2096921,2096921, 308592, 250016
2096921,2096921, 308669, 250006
2096921,2096921, 308717, 250171
2096921,2096921, 308713, 250056
2096921,2096921, 309018, 249938
2096921,2096921, 309219, 250207
2096921,2096921, 309237, 250091
2096921,2096921, 309060, 250158
2096921,2096921, 309109, 250064
2096921,2096921, 309231, 250329
2096921,2096921, 309516, 250501
2096921,2096921, 309657, 250634
2096921,2096921, 309674, 250752
2096921,2096921, 309692, 250418
2096921,2096921, 309506, 250626
2096921,2096921, 309492, 250742
2096921,2096921, 309612, 250835
2096921,2096921, 309763, 250960
2096921,2096921, 309472, 250622
2096921,2096921, 309719, 250614
2096921,2096921, 309569, 250754
2096921,2096921, 309545, 250986
2096921,2096921, 309670, 250872
2096921,2096921, 309680, 251117
2096921,2096921, 309827, 250819
2096921,2096921, 310202, 250772
2096921,2096921, 310003, 251096
2096921,2096921, 310152, 251017
2096921,2096921, 310037, 251046
2096921,2096921, 310008, 250977
2096921,2096921, 310256, 251369
2096921,2096921, 310415, 251260
2096921,2096921, 310349, 251059
2096921,2096921, 310436, 251104
2096921,2096921, 310231, 251359
2096921,2096921, 310239, 251364
2096921,2096921, 310475, 251531
2096921,2096921, 310337, 251194
2096921,2096921, 310609, 251219
2096921,2096921, 310620, 251339
2096921,2096921, 310751, 251631
2096921,2096921, 310937, 251661
2096921,2096921, 310710, 251788
2096921,2096921, 310827, 251727
2096921,2096921, 310908, 251737
2096921,2096921, 310925, 251495
2096921,2096921, 310992, 251708
2096921,2096921, 311151, 251677
2096921,2096921, 311345, 252010
2096921,2096921, 311019, 251833
2096921,2096921, 311209, 252102
2096921,2096921, 311255, 251888
2096921,2096921, 311368, 251970
2096921,2096921, 311337, 252071
2096921,2096921, 311272, 251904
2096921,2096921, 311549, 252300
2096921,2096921, 311211, 252060
2096921,2096921, 311301, 252117
2096921,2096921, 311326, 251895
2096921,2096921, 311703, 252019
2096921,2096921, 311381, 251755
2096921,2096921, 311305, 252055
2096921,2096921, 311564, 252018
2096921,2096921, 311599, 252183
2096921,2096921, 311583, 252395
2096921,2096921, 311636, 252371
2096921,2096921, 311514, 252355
2096921,2096921, 311728, 252246
2096921,2096921, 311456, 252396
2096921,2096921, 311772, 252651
2096921,2096921, 311810, 252675
2096921,2096921, 311775, 252540
2096921,2096921, 311779, 252554
2096921,2096921, 311710, 252276
2096921,2096921, 311670, 252306
2096921,2096921, 311954, 252463
2096921,2096921, 311989, 252672
2096921,2096921, 312004, 252585
2096921,2096921, 311835, 252560
2096921,2096921, 311873, 252493
2096921,2096921, 312198, 252577
2096921,2096921, 312061, 252483
2096921,2096921, 312058, 252604
2096921,2096921, 311928, 252552
2096921,2096921, 312229, 252719
2096921,2096921, 312033, 252753
2096921,2096921, 312173, 253015
2096921,2096921, 312050, 252630
2096921,2096921, 312238, 252641
2096921,2096921, 312274, 252606
2096921,2096921, 312338, 252822
2096921,2096921, 312215, 252735
2096921,2096921, 312244, 252756
2096921,2096921, 312040, 252685
2096921,2096921, 311953, 252663
2096921,2096921, 312239, 253099
2096921,2096921, 312347, 252969
2096921,2096921, 312393, 253147
2096921,2096921, 312397, 252965
2096921,2096921, 312170, 252792
2096921,2096921, 312257, 252979
2096921,2096921, 312373, 252951
2096921,2096921, 312184, 253095
2096921,2096921, 312306, 253114
2096921,2096921, 312195, 253161
2096921,2096921, 312419, 252928
2096921,2096921, 312350, 252953
2096921,2096921, 312449, 252862
2096921,2096921, 312255, 252963
2096921,2096921, 312338, 252931
2096921,2096921, 312455, 253248
2096921,2096921, 312433, 253130
2096921,2096921, 312542, 253298
2096921,2096921, 312351, 252970
2096921,2096921, 312400, 253014
2096921,2096921, 312415, 253103
2096921,2096921, 312533, 253176
2096921,2096921, 312468, 253199
2096921,2096921, 312426, 253231
2096921,2096921, 312334, 253136
2096921,2096921, 312552, 253424
2096921,2096921, 312802, 253272
2096921,2096921, 312570, 253220
2096921,2096921, 312531, 253097
2096921,2096921, 312574, 253404
2096921,2096921, 312495, 253365
2096921,2096921, 312371, 253312
2096921,2096921, 312674, 253277
2096921,2096921, 312585, 253429
2096921,2096921, 312696, 253074
2096921,2096921, 312629, 253077
2096921,2096921, 312488, 253217
2096921,2096921, 312632, 253158
2096921,2096921, 312694, 253165
2096921,2096921, 312809, 253137
2096921,2096921, 312668, 253287
2096921,2096921, 312550, 253353
2096921,2096921, 312717, 253133
2096921,2096921, 312553, 253032
2096921,2096921, 312791, 253268
2096921,2096921, 312664, 253171
2096921,2096921, 312681, 253044
2096921,2096921, 312568, 253102
2096921,2096921, 312691, 252886
2096921,2096921, 312632, 253199
2096921,2096921, 312714, 253145
2096921,2096921, 312814, 253020
2096921,2096921, 312889, 253230
2096921,2096921, 312881, 253592
2096921,2096921, 312825, 253310
2096921,2096921, 312574, 253387
2096921,2096921, 312834, 253362
2096921,2096921, 312825, 253654
2096921,2096921, 312801, 253349
2096921,2096921, 312750, 253627
2096921,2096921, 312599, 253600
2096921,2096921, 312803, 253277
2096921,2096921, 313092, 253413
2096921,2096921, 312877, 253400
2096921,2096921, 312802, 253376
2096921,2096921, 312614, 253472
2096921,2096921, 312636, 253405
2096921,2096921, 312989, 253559
2096921,2096921, 312735, 253347
2096921,2096921, 312694, 253339
2096921,2096921, 312827, 253317
2096921,2096921, 312923, 253458
2096921,2096921, 312690, 253345
2096921,2096921, 312794, 253242
2096921,2096921, 312714, 253524
2096921,2096921, 312974, 253252
2096921,2096921, 312711, 253408
2096921,2096921, 312806, 253048
2096921,2096921, 312803, 253498
2096921,2096921, 312803, 253289
2096921,2096921, 312877, 253101
2096921,2096921, 312807, 253426
2096921,2096921, 312802, 253395
2096921,2096921, 312594, 253178
2096921,2096921, 312662, 253163
2096921,2096921, 312671, 253156
2096921,2096921, 312738, 253225
2096921,2096921, 312806, 253259
2096921,2096921, 312659, 253433
2096921,2096921, 312746, 253196
2096921,2096921, 312603, 253114
2096921,2096921, 312553, 253199
2096921,2096921, 312762, 253188
2096921,2096921, 312782, 253194
2096921,2096921, 312727, 253249
2096921,2096921, 312536, 253184
2096921,2096921, 312541, 253053
2096921,2096921, 312620, 253397
2096921,2096921, 312806, 253083
2096921,2096921, 312359, 253019
2096921,2096921, 312269, 253184
2096921,2096921, 312235, 252746
2096921,2096921, 312251, 253033
2096921,2096921, 312657, 253064
2096921,2096921, 312493, 253258
2096921,2096921, 312544, 253388
2096921,2096921, 312172, 253243
2096921,2096921, 312346, 253097
2096921,2096921, 312339, 252965
2096921,2096921, 312365, 252864
2096921,2096921, 312294, 252980
2096921,2096921, 312512, 252855
2096921,2096921, 312290, 252925
2096921,2096921, 312408, 252818
2096921,2096921, 312296, 252777
2096921,2096921, 312350, 252980
2096921,2096921, 312384, 253004
2096921,2096921, 312161, 252806
2096921,2096921, 312381, 253005
2096921,2096921, 312348, 252866
2096921,2096921, 312224, 252827
2096921,2096921, 312252, 252889
2096921,2096921, 312194, 252781
2096921,2096921, 312170, 252687
2096921,2096921, 312073, 252770
2096921,2096921, 311944, 252975
2096921,2096921, 311943, 252627
2096921,2096921, 311972, 252770
2096921,2096921, 312054, 252652
2096921,2096921, 312102, 252496
2096921,2096921, 312107, 252624
2096921,2096921, 312013, 252582
2096921,2096921, 312047, 252602
2096921,2096921, 311990, 252588
2096921,2096921, 312001, 252631
2096921,2096921, 311436, 252532
2096921,2096921, 311235, 252348
2096921,2096921, 311415, 252279
2096921,2096921, 311434, 252220
2096921,2096921, 311283, 252129
2096921,2096921, 311106, 251897
2096921,2096921, 310848, 251819
2096921,2096921, 310852, 251934
2096921,2096921, 311024, 251951
2096921,2096921, 310693, 251727
2096921,2096921, 310284, 251248
2096921,2096921, 310002, 251151
2096921,2096921, 310087, 251108
2096921,2096921, 310218, 251047
2096921,2096921, 309930, 250930
2096921,2096921, 309274, 250573
2096921,2096921, 309193, 250170
2096921,2096921, 309175, 250379
2096921,2096921, 309022, 249979
2096921,2096921, 309025, 250316
2096921,2096921, 308242, 249607
2096921,2096921, 308239, 249427
2096921,2096921, 308019, 249190
2096921,2096921, 308125, 249264
2096921,2096921, 307809, 249224
2096921,2096921, 305892, 248048
2096921,2096921, 305439, 247621
2096921,2096921, 305521, 247260
2096921,2096921, 305107, 247184
2096921,2096921, 305130, 247267
2096921,2096921, 303109, 245816
2096921,2096921, 302450, 244959
2096921,2096921, 302598, 244798
2096921,2096921, 302471, 244583
2096921,2096921, 302455, 244755
2096921,2096921, 300528, 243625
2096921,2096921, 300311, 243084
2096921,2096921, 300165, 242811
2096921,2096921, 300314, 242964
2096921,2096921, 300133, 242877
2096921,2096921, 299060, 242139
2096921,2096921, 298681, 241555
2096921,2096921, 298619, 241407
2096921,2096921, 298401, 241436
2096921,2096921, 298603, 241389
2096921,2096921, 297525, 240769
2096921,2096921, 297323, 240311
2096921,2096921, 297292, 240365
2096921,2096921, 296926, 240394
2096921,2096921, 296927, 240289
2096921,2096921, 296165, 239622
2096921,2096921, 296363, 239569
2096921,2096921, 296202, 239487
2096921,2096921, 296086, 239432
2096921,2096921, 296148, 239187
2096921,2096921, 295591, 239025
2096921,2096921, 295747, 238820
2096921,2096921, 295600, 238755
2096921,2096921, 295522, 238869
2096921,2096921, 295602, 238750
2096921,2096921, 295084, 238431
2096921,2096921, 295050, 238412
2096921,2096921, 294800, 238469
2096921,2096921, 295053, 238540
2096921,2096921, 294962, 238535
2096921,2096921, 294878, 238586
2096921,2096921, 294824, 238479
2096921,2096921, 294723, 238022
2096921,2096921, 294788, 238341
2096921,2096921, 294747, 238307
2096921,2096921, 294811, 238236
2096921,2096921, 294679, 237873
2096921,2096921, 294720, 238304
2096921,2096921, 294716, 238246
2096921,2096921, 294798, 238439
2096921,2096921, 295199, 238250
2096921,2096921, 295015, 238389
2096921,2096921, 294933, 238593
2096921,2096921, 295022, 238468
2096921,2096921, 294818, 238505
2096921,2096921, 294840, 238431
2096921,2096921, 294808, 238527
2096921,2096921, 294808, 238574
2096921,2096921, 295021, 238701
2096921,2096921, 295080, 238451
2096921,2096921, 294971, 238399
2096921,2096921, 294868, 238501
2096921,2096921, 294987, 238599
2096921,2096921, 295076, 238743
2096921,2096921, 294932, 238706
2096921,2096921, 295452, 238840
2096921,2096921, 295503, 238919
2096921,2096921, 295455, 239023
2096921,2096921, 295414, 239022
2096921,2096921, 295562, 238861
2096921,2096921, 295685, 239289
2096921,2096921, 295936, 238958
2096921,2096921, 295939, 239151
2096921,2096921, 295956, 239036
2096921,2096921, 296097, 239170
2096921,2096921, 296410, 239347
2096921,2096921, 296375, 239551
2096921,2096921, 296131, 239416
2096921,2096921, 296617, 239618
2096921,2096921, 296259, 239367
2096921,2096921, 296738, 239644
2096921,2096921, 296977, 239944
2096921,2096921, 296998, 240099
2096921,2096921, 296748, 240101
2096921,2096921, 296560, 239984
2096921,2096921, 297164, 240457
2096921,2096921, 297366, 240471
2096921,2096921, 297354, 240548
2096921,2096921, 297391, 240293
2096921,2096921, 297305, 240380
2096921,2096921, 297343, 240576
2096921,2096921, 297404, 240579
2096921,2096921, 297634, 240620
2096921,2096921, 297631, 240709
2096921,2096921, 297357, 240617
2096921,2096921, 297829, 240805
2096921,2096921, 297967, 240881
2096921,2096921, 298024, 240898
2096921,2096921, 297985, 240817
2096921,2096921, 297958, 240920
2096921,2096921, 298410, 241294
2096921,2096921, 298332, 241181
2096921,2096921, 298352, 241208
2096921,2096921, 298283, 241206
2096921,2096921, 298538, 241516
2096921,2096921, 298591, 241738
2096921,2096921, 298783, 241667
2096921,2096921, 298907, 241727
2096921,2096921, 298846, 241871
2096921,2096921, 299063, 241724
2096921,2096921, 299501, 242095
2096921,2096921, 299263, 242253
2096921,2096921, 299485, 242120
2096921,2096921, 299331, 242191
2096921,2096921, 299539, 242160
2096921,2096921, 299647, 242319
2096921,2096921, 299739, 242417
2096921,2096921, 299948, 242520
2096921,2096921, 299865, 242228
2096921,2096921, 299839, 242570
2096921,2096921, 299714, 242663
2096921,2096921, 300206, 242766
2096921,2096921, 300291, 242755
2096921,2096921, 300199, 242933
2096921,2096921, 300132, 242694
2096921,2096921, 300806, 243025
2096921,2096921, 300587, 243239
2096921,2096921, 300610, 243238
2096921,2096921, 300604, 243391
2096921,2096921, 300700, 243024
2096921,2096921, 300974, 243339
2096921,2096921, 301086, 243261
2096921,2096921, 301085, 243439
2096921,2096921, 301011, 243215
2096921,2096921, 300736, 243298
2096921,2096921, 300997, 243533
2096921,2096921, 300995, 243597
2096921,2096921, 300898, 243394
2096921,2096921, 300798, 243563
2096921,2096921, 300819, 243636
2096921,2096921, 301130, 243852
2096921,2096921, 301360, 243908
2096921,2096921, 301275, 243725
2096921,2096921, 301228, 243780
2096921,2096921, 301331, 243790
2096921,2096921, 301352, 243616
2096921,2096921, 301539, 243889
2096921,2096921, 301299, 243687
2096921,2096921, 301307, 243731
2096921,2096921, 301439, 243439
2096921,2096921, 301144, 243878
2096921,2096921, 301347, 243714
2096921,2096921, 301487, 243850
2096921,2096921, 301424, 243867
2096921,2096921, 301465, 243806
2096921,2096921, 301170, 243721
2096921,2096921, 301490, 243920
2096921,2096921, 301214, 243926
2096921,2096921, 301280, 243824
