2096921,2096921, 304774, 446999
2096921,2096921, 304597, 447065
2096921,2096921, 304716, 447030
2096921,2096921, 304756, 447045
2096921,2096921, 305098, 447199
2096921,2096921, 304734, 446993
2096921,2096921, 304730, 447125
2096921,2096921, 304676, 447163
2096921,2096921, 304671, 447017
2096921,2096921, 304876, 447315
2096921,2096921, 304839, 447040
2096921,2096921, 304932, 447635
2096921,2096921, 304798, 447676
2096921,2096921, 304758, 447560
2096921,2096921, 305016, 447508
2096921,2096921, 305167, 447404
2096921,2096921, 305218, 447606
2096921,2096921, 305090, 447749
2096921,2096921, 305013, 447536
2096921,2096921, 305285, 447346
2096921,2096921, 305631, 447739
2096921,2096921, 305463, 447524
2096921,2096921, 305448, 447586
2096921,2096921, 305363, 447912
2096921,2096921, 305610, 447761
2096921,2096921, 305544, 447890
2096921,2096921, 305509, 447728
2096921,2096921, 305242, 447752
2096921,2096921, 305280, 447785
2096921,2096921, 305633, 447919
2096921,2096921, 305582, 447890
2096921,2096921, 305576, 447909
2096921,2096921, 305891, 447895
2096921,2096921, 305701, 448042
2096921,2096921, 305823, 448338
2096921,2096921, 305847, 448396
2096921,2096921, 305873, 448306
2096921,2096921, 305779, 448290
2096921,2096921, 305691, 448289
2096921,2096921, 305900, 448453
2096921,2096921, 305841, 448296
2096921,2096921, 305944, 448207
2096921,2096921, 305782, 448462
2096921,2096921, 305693, 448229
2096921,2096921, 305970, 448403
2096921,2096921, 306025, 448578
2096921,2096921, 306015, 448711
2096921,2096921, 305934, 448432
2096921,2096921, 305805, 448315
2096921,2096921, 306074, 448388
2096921,2096921, 305968, 448488
2096921,2096921, 305730, 448432
2096921,2096921, 305975, 448523
2096921,2096921, 306102, 448455
2096921,2096921, 306262, 448504
2096921,2096921, 306249, 448472
2096921,2096921, 305925, 448607
2096921,2096921, 306244, 448467
2096921,2096921, 306249, 448439
2096921,2096921, 306148, 448581
2096921,2096921, 306203, 448359
2096921,2096921, 306222, 448301
2096921,2096921, 306122, 448557
2096921,2096921, 306251, 448874
2096921,2096921, 306313, 448805
2096921,2096921, 306171, 448683
2096921,2096921, 306459, 448800
2096921,2096921, 306204, 448718
2096921,2096921, 306282, 448661
2096921,2096921, 306264, 448806
2096921,2096921, 306160, 448655
2096921,2096921, 306313, 448712
2096921,2096921, 306155, 448833
2096921,2096921, 306135, 448944
2096921,2096921, 306317, 448894
2096921,2096921, 306162, 449213
2096921,2096921, 306515, 449057
2096921,2096921, 306346, 448765
2096921,2096921, 306242, 448907
2096921,2096921, 306196, 448897
2096921,2096921, 306268, 448992
2096921,2096921, 306435, 448714
2096921,2096921, 306561, 448993
2096921,2096921, 306406, 448838
2096921,2096921, 306295, 449317
2096921,2096921, 306683, 449105
2096921,2096921, 306738, 449128
2096921,2096921, 306758, 448883
2096921,2096921, 306334, 449036
2096921,2096921, 306313, 449401
2096921,2096921, 306733, 449233
2096921,2096921, 306791, 449006
2096921,2096921, 306981, 449209
2096921,2096921, 306904, 449274
2096921,2096921, 306842, 449284
2096921,2096921, 306969, 449330
2096921,2096921, 307046, 449219
2096921,2096921, 306649, 449242
2096921,2096921, 306745, 449292
2096921,2096921, 306716, 449143
2096921,2096921, 307100, 449277
2096921,2096921, 306397, 449615
2096921,2096921, 306817, 449253
2096921,2096921, 306814, 449295
2096921,2096921, 306955, 449639
2096921,2096921, 306937, 449485
2096921,2096921, 307091, 449507
2096921,2096921, 306771, 449363
2096921,2096921, 306858, 449348
2096921,2096921, 307029, 449498
2096921,2096921, 306900, 449348
2096921,2096921, 307001, 449487
2096921,2096921, 307140, 449787
2096921,2096921, 306888, 449680
2096921,2096921, 306980, 449704
2096921,2096921, 306941, 449440
2096921,2096921, 306973, 449502
2096921,2096921, 306879, 449451
2096921,2096921, 306841, 449504
2096921,2096921, 306784, 449208
2096921,2096921, 306930, 449530
2096921,2096921, 306989, 449759
2096921,2096921, 307037, 449801
2096921,2096921, 307180, 449928
2096921,2096921, 307190, 449675
2096921,2096921, 307199, 449564
2096921,2096921, 307219, 449420
2096921,2096921, 306880, 449836
2096921,2096921, 306972, 449620
2096921,2096921, 306872, 449522
2096921,2096921, 306951, 449471
2096921,2096921, 307227, 449663
2096921,2096921, 307312, 449679
2096921,2096921, 307461, 449933
2096921,2096921, 307250, 449843
2096921,2096921, 307059, 450006
2096921,2096921, 307270, 449430
2096921,2096921, 306913, 449523
2096921,2096921, 306753, 449494
2096921,2096921, 307011, 449753
2096921,2096921, 307074, 449652
2096921,2096921, 306925, 449589
2096921,2096921, 307027, 449513
2096921,2096921, 307118, 449640
2096921,2096921, 307118, 449587
2096921,2096921, 307144, 449843
2096921,2096921, 306909, 449891
2096921,2096921, 307142, 449640
2096921,2096921, 307000, 449530
2096921,2096921, 306957, 449676
2096921,2096921, 306841, 449854
2096921,2096921, 307070, 449645
2096921,2096921, 307150, 449632
2096921,2096921, 306981, 449587
2096921,2096921, 307042, 449660
2096921,2096921, 307207, 449524
2096921,2096921, 307147, 449919
2096921,2096921, 307088, 449702
2096921,2096921, 307040, 449742
2096921,2096921, 306977, 450009
2096921,2096921, 306980, 449739
2096921,2096921, 307081, 449787
2096921,2096921, 307069, 450066
2096921,2096921, 307305, 449825
2096921,2096921, 306894, 450189
2096921,2096921, 307116, 449932
2096921,2096921, 307142, 449680
2096921,2096921, 307356, 449842
2096921,2096921, 307116, 449703
2096921,2096921, 306940, 450047
2096921,2096921, 307036, 449984
2096921,2096921, 307156, 449910
2096921,2096921, 307298, 449784
2096921,2096921, 307028, 449767
2096921,2096921, 306793, 449837
2096921,2096921, 306925, 449750
2096921,2096921, 306910, 449771
2096921,2096921, 306763, 449436
2096921,2096921, 306724, 449411
2096921,2096921, 306504, 448967
2096921,2096921, 306666, 449093
2096921,2096921, 306328, 449216
2096921,2096921, 306768, 449286
2096921,2096921, 306593, 449154
2096921,2096921, 306257, 448876
2096921,2096921, 306359, 448565
2096921,2096921, 305867, 448820
2096921,2096921, 306104, 448480
2096921,2096921, 305725, 448712
2096921,2096921, 305226, 447795
2096921,2096921, 305157, 447763
2096921,2096921, 305209, 447778
2096921,2096921, 305244, 447920
2096921,2096921, 305125, 447798
2096921,2096921, 304591, 447201
2096921,2096921, 304697, 447015
2096921,2096921, 304449, 446920
2096921,2096921, 304333, 447020
2096921,2096921, 304132, 446982
2096921,2096921, 302690, 445345
2096921,2096921, 302504, 444863
2096921,2096921, 302638, 445132
2096921,2096921, 302525, 445106
2096921,2096921, 302071, 445247
2096921,2096921, 300847, 442965
2096921,2096921, 300408, 442345
2096921,2096921, 300311, 442453
2096921,2096921, 300228, 442146
2096921,2096921, 300046, 442101
2096921,2096921, 298721, 440898
2096921,2096921, 298659, 440662
2096921,2096921, 298677, 440877
2096921,2096921, 298921, 440918
2096921,2096921, 298674, 440806
2096921,2096921, 297780, 439753
2096921,2096921, 297510, 439564
2096921,2096921, 297065, 439278
2096921,2096921, 297335, 439207
2096921,2096921, 297280, 439099
2096921,2096921, 296720, 438540
2096921,2096921, 296566, 438358
2096921,2096921, 296738, 438389
2096921,2096921, 296779, 438305
2096921,2096921, 296654, 438170
2096921,2096921, 296155, 437644
2096921,2096921, 295959, 438099
2096921,2096921, 295855, 437681
2096921,2096921, 295985, 437811
2096921,2096921, 296045, 437397
2096921,2096921, 295683, 437268
2096921,2096921, 295643, 437275
2096921,2096921, 295602, 437171
2096921,2096921, 295736, 437052
2096921,2096921, 295446, 437124
2096921,2096921, 295505, 437049
2096921,2096921, 295478, 437041
2096921,2096921, 295498, 436980
2096921,2096921, 295309, 436715
2096921,2096921, 295113, 436920
2096921,2096921, 295201, 436663
2096921,2096921, 295232, 436518
2096921,2096921, 295266, 436671
2096921,2096921, 295317, 436932
2096921,2096921, 295189, 437250
2096921,2096921, 295347, 437017
2096921,2096921, 295596, 437173
2096921,2096921, 295454, 436886
2096921,2096921, 295327, 436976
2096921,2096921, 295250, 436975
2096921,2096921, 295420, 437169
2096921,2096921, 295593, 437399
2096921,2096921, 295554, 437302
2096921,2096921, 295535, 437486
2096921,2096921, 295770, 437392
2096921,2096921, 295927, 437601
2096921,2096921, 295992, 437833
2096921,2096921, 295683, 437453
2096921,2096921, 295898, 437235
2096921,2096921, 295558, 437299
2096921,2096921, 295939, 437783
2096921,2096921, 295985, 437815
2096921,2096921, 296178, 438065
2096921,2096921, 296079, 437713
2096921,2096921, 295996, 438096
2096921,2096921, 296592, 438543
2096921,2096921, 296529, 438639
2096921,2096921, 296437, 438492
2096921,2096921, 296386, 438182
2096921,2096921, 296589, 438660
2096921,2096921, 297162, 438926
2096921,2096921, 296726, 438862
2096921,2096921, 296998, 438790
2096921,2096921, 297097, 439028
2096921,2096921, 297152, 439249
2096921,2096921, 297390, 439558
2096921,2096921, 297503, 439263
2096921,2096921, 297451, 439440
2096921,2096921, 297528, 439505
2096921,2096921, 297600, 439326
2096921,2096921, 297837, 439987
2096921,2096921, 297993, 439811
2096921,2096921, 297977, 439971
2096921,2096921, 298184, 440162
2096921,2096921, 297999, 439953
2096921,2096921, 298307, 440739
2096921,2096921, 298549, 440507
2096921,2096921, 298571, 440670
2096921,2096921, 298287, 440452
2096921,2096921, 298390, 440457
2096921,2096921, 298603, 440994
2096921,2096921, 298588, 441196
2096921,2096921, 298533, 441171
2096921,2096921, 298855, 441177
2096921,2096921, 298874, 441202
2096921,2096921, 299544, 441651
2096921,2096921, 299348, 441760
2096921,2096921, 299530, 441789
2096921,2096921, 299018, 441359
2096921,2096921, 299290, 441679
2096921,2096921, 299395, 442182
2096921,2096921, 299659, 442330
2096921,2096921, 299464, 442265
2096921,2096921, 299867, 442487
2096921,2096921, 299856, 442538
2096921,2096921, 300327, 442922
2096921,2096921, 300268, 443037
2096921,2096921, 300242, 442731
2096921,2096921, 300406, 442852
2096921,2096921, 300344, 442784
2096921,2096921, 300569, 443342
2096921,2096921, 300875, 443321
2096921,2096921, 300924, 443506
2096921,2096921, 300771, 443512
2096921,2096921, 300856, 443545
2096921,2096921, 301298, 443944
2096921,2096921, 301370, 444040
2096921,2096921, 301341, 444072
2096921,2096921, 301215, 444075
2096921,2096921, 301420, 443831
2096921,2096921, 301718, 444253
2096921,2096921, 301926, 444558
2096921,2096921, 301847, 444883
2096921,2096921, 301675, 444838
2096921,2096921, 301826, 444644
2096921,2096921, 302180, 444868
2096921,2096921, 302146, 444927
2096921,2096921, 302149, 445122
2096921,2096921, 302326, 445019
2096921,2096921, 302068, 444885
2096921,2096921, 302511, 445458
2096921,2096921, 302580, 445454
2096921,2096921, 302754, 445518
2096921,2096921, 302887, 445714
2096921,2096921, 302851, 445675
2096921,2096921, 303147, 446127
2096921,2096921, 303417, 446079
2096921,2096921, 303057, 445865
2096921,2096921, 303160, 446112
2096921,2096921, 303096, 446339
2096921,2096921, 303340, 446463
2096921,2096921, 303163, 446420
2096921,2096921, 303209, 446277
2096921,2096921, 303311, 446130
2096921,2096921, 303247, 446728
2096921,2096921, 303726, 446866
2096921,2096921, 303715, 446999
2096921,2096921, 303691, 446980
2096921,2096921, 303604, 446657
2096921,2096921, 303603, 446921
2096921,2096921, 303504, 446916
2096921,2096921, 303358, 446995
2096921,2096921, 303566, 446876
2096921,2096921, 303531, 446878
2096921,2096921, 303755, 446960
2096921,2096921, 303821, 446938
2096921,2096921, 303736, 447304
2096921,2096921, 303828, 447198
2096921,2096921, 303593, 447018
2096921,2096921, 303478, 447124
2096921,2096921, 303475, 446845
2096921,2096921, 303548, 446755
2096921,2096921, 303642, 446902
2096921,2096921, 303621, 447082
2096921,2096921, 303668, 447187
2096921,2096921, 304134, 447254
2096921,2096921, 303837, 446989
2096921,2096921, 303926, 447291
2096921,2096921, 303977, 446873
2096921,2096921, 303835, 447051
2096921,2096921, 303859, 446980
2096921,2096921, 303935, 446949
2096921,2096921, 303918, 447030
2096921,2096921, 303873, 446983
2096921,2096921, 303787, 447116
2096921,2096921, 303844, 447253
2096921,2096921, 303594, 447331
2096921,2096921, 303742, 446972
2096921,2096921, 303738, 447011
2096921,2096921, 303873, 446876
2096921,2096921, 303451, 447277
2096921,2096921, 303714, 447150
2096921,2096921, 303949, 447408
2096921,2096921, 303783, 447482
2096921,2096921, 303876, 447191
2096921,2096921, 303993, 447068
2096921,2096921, 303731, 447600
2096921,2096921, 303683, 447528
2096921,2096921, 303702, 447533
2096921,2096921, 303931, 447333
2096921,2096921, 303716, 447108
2096921,2096921, 303839, 447327
2096921,2096921, 303753, 447323
2096921,2096921, 304141, 447236
2096921,2096921, 303692, 447439
2096921,2096921, 303936, 447677
2096921,2096921, 304051, 447799
2096921,2096921, 303771, 447782
2096921,2096921, 303844, 447610
2096921,2096921, 303623, 447735
2096921,2096921, 303620, 447842
2096921,2096921, 304107, 447834
2096921,2096921, 304483, 447816
2096921,2096921, 304379, 448061
2096921,2096921, 304326, 448115
2096921,2096921, 304178, 448209
2096921,2096921, 304368, 448298
2096921,2096921, 304405, 448139
2096921,2096921, 304423, 448337
2096921,2096921, 304281, 448231
2096921,2096921, 304843, 448497
2096921,2096921, 304914, 448515
2096921,2096921, 304730, 448703
2096921,2096921, 305067, 448702
2096921,2096921, 305044, 448802
2096921,2096921, 305148, 449115
2096921,2096921, 305297, 449546
2096921,2096921, 305237, 449378
2096921,2096921, 305538, 449239
2096921,2096921, 305143, 449337
2096921,2096921, 305797, 449795
2096921,2096921, 305457, 449583
2096921,2096921, 305856, 449754
2096921,2096921, 305764, 449781
2096921,2096921, 306018, 449818
2096921,2096921, 306144, 450327
2096921,2096921, 306372, 450293
2096921,2096921, 306265, 450409
2096921,2096921, 305958, 450233
2096921,2096921, 306395, 450043
2096921,2096921, 306245, 450314
2096921,2096921, 306474, 450479
2096921,2096921, 306506, 450662
2096921,2096921, 306666, 451068
2096921,2096921, 306554, 450925
2096921,2096921, 307066, 451081
2096921,2096921, 307008, 451383
2096921,2096921, 306769, 451180
2096921,2096921, 306892, 451145
2096921,2096921, 306843, 451127
2096921,2096921, 306986, 451462
2096921,2096921, 307186, 451684
2096921,2096921, 307020, 451414
2096921,2096921, 307342, 451714
2096921,2096921, 307370, 451710
2096921,2096921, 307753, 452124
2096921,2096921, 307534, 452164
2096921,2096921, 307487, 452013
2096921,2096921, 307920, 451797
2096921,2096921, 307797, 451810
2096921,2096921, 308123, 452193
2096921,2096921, 307906, 452358
2096921,2096921, 308040, 452378
2096921,2096921, 308240, 452495
2096921,2096921, 308224, 452920
2096921,2096921, 308516, 452937
2096921,2096921, 308361, 452907
2096921,2096921, 308177, 453129
2096921,2096921, 308236, 452700
2096921,2096921, 308148, 452945
2096921,2096921, 308566, 453233
2096921,2096921, 308882, 453436
2096921,2096921, 308484, 453387
2096921,2096921, 308709, 453291
2096921,2096921, 308626, 453544
2096921,2096921, 308749, 453854
2096921,2096921, 309011, 453625
2096921,2096921, 309178, 453645
2096921,2096921, 308791, 453697
2096921,2096921, 308709, 453499
2096921,2096921, 309206, 453847
2096921,2096921, 309454, 453984
2096921,2096921, 309335, 453914
2096921,2096921, 309524, 454273
2096921,2096921, 309409, 454143
2096921,2096921, 309506, 454403
2096921,2096921, 309435, 454489
2096921,2096921, 309518, 454483
2096921,2096921, 309611, 454710
2096921,2096921, 309496, 454404
2096921,2096921, 309891, 454901
2096921,2096921, 309771, 454884
2096921,2096921, 309916, 454937
2096921,2096921, 310012, 455276
2096921,2096921, 309878, 455046
2096921,2096921, 309958, 455145
2096921,2096921, 310360, 455496
2096921,2096921, 310177, 455244
2096921,2096921, 310192, 455406
2096921,2096921, 310112, 455178
2096921,2096921, 310386, 455515
2096921,2096921, 310639, 455487
2096921,2096921, 310842, 455898
2096921,2096921, 310649, 455931
2096921,2096921, 310811, 456076
2096921,2096921, 310760, 456203
2096921,2096921, 310820, 456187
2096921,2096921, 310773, 456110
2096921,2096921, 310842, 456241
2096921,2096921, 310552, 455692
2096921,2096921, 310836, 456063
2096921,2096921, 311079, 456219
2096921,2096921, 311111, 456507
2096921,2096921, 311514, 456336
2096921,2096921, 311278, 456562
2096921,2096921, 311296, 456742
2096921,2096921, 311683, 456828
2096921,2096921, 311308, 456586
2096921,2096921, 311523, 456655
2096921,2096921, 311407, 456436
2096921,2096921, 311789, 456872
2096921,2096921, 311508, 456809
2096921,2096921, 311943, 456901
2096921,2096921, 311630, 456805
2096921,2096921, 311811, 457080
2096921,2096921, 311923, 457318
2096921,2096921, 312016, 457166
2096921,2096921, 311857, 457391
2096921,2096921, 311869, 457629
2096921,2096921, 312033, 457235
2096921,2096921, 312122, 457620
2096921,2096921, 312313, 457722
2096921,2096921, 312267, 457736
2096921,2096921, 312271, 457682
2096921,2096921, 312213, 457765
2096921,2096921, 312307, 458179
2096921,2096921, 312461, 458082
2096921,2096921, 312209, 457965
2096921,2096921, 312371, 458045
2096921,2096921, 312275, 458002
2096921,2096921, 312499, 458644
2096921,2096921, 312742, 458444
2096921,2096921, 312615, 458421
2096921,2096921, 312723, 458404
2096921,2096921, 312534, 458437
2096921,2096921, 313219, 458552
2096921,2096921, 313261, 458648
2096921,2096921, 313194, 458666
2096921,2096921, 312793, 458812
2096921,2096921, 312972, 458585
2096921,2096921, 313235, 458718
2096921,2096921, 313230, 458513
2096921,2096921, 313327, 458967
2096921,2096921, 313417, 459003
2096921,2096921, 313396, 458938
2096921,2096921, 313424, 459288
2096921,2096921, 313484, 459329
2096921,2096921, 313377, 459130
2096921,2096921, 313238, 459093
2096921,2096921, 313339, 459326
2096921,2096921, 313370, 459428
2096921,2096921, 313614, 459500
2096921,2096921, 313546, 459550
2096921,2096921, 313743, 459735
2096921,2096921, 313549, 459507
2096921,2096921, 313830, 459682
2096921,2096921, 313781, 459800
2096921,2096921, 313731, 459700
2096921,2096921, 313832, 459781
2096921,2096921, 313929, 459839
2096921,2096921, 313945, 460076
2096921,2096921, 313986, 460063
2096921,2096921, 313923, 460016
2096921,2096921, 314131, 460146
2096921,2096921, 314033, 460093
2096921,2096921, 314425, 460147
2096921,2096921, 314270, 460226
2096921,2096921, 314175, 460070
2096921,2096921, 314236, 460164
2096921,2096921, 314240, 460139
2096921,2096921, 314190, 460432
2096921,2096921, 314419, 460450
2096921,2096921, 314303, 460475
2096921,2096921, 314584, 460585
2096921,2096921, 314429, 460403
2096921,2096921, 314619, 460785
2096921,2096921, 314559, 460712
2096921,2096921, 314449, 460613
2096921,2096921, 314649, 460644
2096921,2096921, 314335, 460775
2096921,2096921, 314558, 460889
2096921,2096921, 314769, 460886
2096921,2096921, 314818, 460931
2096921,2096921, 314684, 461035
2096921,2096921, 314837, 461038
2096921,2096921, 314784, 461285
2096921,2096921, 314638, 461456
2096921,2096921, 314744, 461014
2096921,2096921, 314681, 461289
2096921,2096921, 314792, 461054
2096921,2096921, 314894, 461092
2096921,2096921, 314833, 461048
2096921,2096921, 315060, 461427
2096921,2096921, 315235, 461433
2096921,2096921, 315133, 461568
2096921,2096921, 315049, 461666
2096921,2096921, 315225, 461315
2096921,2096921, 315130, 461725
2096921,2096921, 315255, 461582
2096921,2096921, 315216, 461617
2096921,2096921, 315634, 461513
2096921,2096921, 315353, 461544
2096921,2096921, 315007, 461611
2096921,2096921, 315223, 461451
2096921,2096921, 315384, 461636
2096921,2096921, 315636, 461803
2096921,2096921, 315526, 461801
2096921,2096921, 315170, 461939
2096921,2096921, 315431, 461976
2096921,2096921, 315214, 461948
2096921,2096921, 315329, 462148
2096921,2096921, 315651, 462131
2096921,2096921, 315730, 462255
2096921,2096921, 315584, 462424
2096921,2096921, 315781, 462295
2096921,2096921, 315716, 462453
2096921,2096921, 315478, 462374
2096921,2096921, 315745, 462149
2096921,2096921, 315776, 462257
2096921,2096921, 315485, 462391
2096921,2096921, 315828, 462566
2096921,2096921, 315923, 462502
2096921,2096921, 316004, 462560
2096921,2096921, 316127, 462425
2096921,2096921, 315961, 462621
2096921,2096921, 316035, 462577
2096921,2096921, 315745, 462729
2096921,2096921, 315820, 462689
2096921,2096921, 315930, 462686
2096921,2096921, 315931, 462610
2096921,2096921, 315935, 462547
2096921,2096921, 315946, 462758
2096921,2096921, 315805, 462775
2096921,2096921, 316017, 462638
2096921,2096921, 315990, 462644
2096921,2096921, 315930, 462501
2096921,2096921, 316169, 462789
2096921,2096921, 316114, 463078
2096921,2096921, 315862, 462623
2096921,2096921, 316119, 462745
2096921,2096921, 316016, 462708
2096921,2096921, 316003, 462579
2096921,2096921, 316287, 462584
2096921,2096921, 316319, 462712
2096921,2096921, 316343, 462693
2096921,2096921, 316605, 463026
2096921,2096921, 316513, 462794
2096921,2096921, 315927, 462876
2096921,2096921, 315942, 462693
2096921,2096921, 316203, 462873
2096921,2096921, 315965, 463011
2096921,2096921, 316195, 462933
2096921,2096921, 316225, 462533
2096921,2096921, 316316, 463081
2096921,2096921, 316300, 462969
2096921,2096921, 316497, 463239
2096921,2096921, 316482, 463060
2096921,2096921, 316397, 462997
2096921,2096921, 316258, 462804
2096921,2096921, 316003, 462986
2096921,2096921, 316057, 463021
2096921,2096921, 316284, 463293
2096921,2096921, 316171, 463130
2096921,2096921, 316517, 462988
2096921,2096921, 316397, 462915
2096921,2096921, 316489, 463153
2096921,2096921, 316385, 463199
2096921,2096921, 316281, 463053
2096921,2096921, 316335, 462924
2096921,2096921, 316245, 462711
2096921,2096921, 316265, 463081
2096921,2096921, 316238, 463694
2096921,2096921, 316284, 463307
2096921,2096921, 316263, 463127
2096921,2096921, 316330, 463364
2096921,2096921, 316051, 462988
2096921,2096921, 316187, 462783
2096921,2096921, 315839, 462669
2096921,2096921, 315901, 462591
2096921,2096921, 315618, 462657
2096921,2096921, 315315, 462342
2096921,2096921, 315646, 462284
2096921,2096921, 315605, 462481
2096921,2096921, 315610, 462575
2096921,2096921, 315609, 462628
2096921,2096921, 315267, 461945
2096921,2096921, 315008, 462009
2096921,2096921, 314976, 461831
2096921,2096921, 314977, 461658
2096921,2096921, 315077, 461670
2096921,2096921, 314116, 461009
2096921,2096921, 314142, 460639
2096921,2096921, 314097, 461063
2096921,2096921, 314200, 460977
2096921,2096921, 314514, 460911
2096921,2096921, 313875, 460453
2096921,2096921, 313801, 459975
2096921,2096921, 313585, 460054
2096921,2096921, 313344, 460155
2096921,2096921, 313036, 459887
2096921,2096921, 311588, 458318
2096921,2096921, 311694, 457884
2096921,2096921, 311494, 457713
2096921,2096921, 311343, 457900
2096921,2096921, 310902, 458160
2096921,2096921, 309656, 456055
2096921,2096921, 309293, 455375
2096921,2096921, 309296, 455346
2096921,2096921, 309220, 455347
2096921,2096921, 308712, 455242
2096921,2096921, 307989, 453800
2096921,2096921, 307595, 453579
2096921,2096921, 307658, 453543
2096921,2096921, 307541, 453922
2096921,2096921, 307241, 453482
2096921,2096921, 306226, 452267
2096921,2096921, 306200, 452090
2096921,2096921, 306176, 452182
2096921,2096921, 306381, 452163
2096921,2096921, 305949, 451845
2096921,2096921, 305402, 450941
2096921,2096921, 305336, 450782
2096921,2096921, 305123, 451065
2096921,2096921, 305246, 451064
2096921,2096921, 305000, 450845
2096921,2096921, 304585, 450344
2096921,2096921, 304714, 450376
2096921,2096921, 304575, 450072
2096921,2096921, 304314, 449975
2096921,2096921, 304439, 450088
2096921,2096921, 304049, 449945
2096921,2096921, 304204, 449584
2096921,2096921, 304415, 449418
2096921,2096921, 304091, 449659
2096921,2096921, 304118, 449744
2096921,2096921, 303771, 449395
2096921,2096921, 303599, 449157
2096921,2096921, 303906, 449063
2096921,2096921, 303589, 448935
2096921,2096921, 303612, 449194
2096921,2096921, 303381, 449128
2096921,2096921, 303611, 449166
2096921,2096921, 303605, 449229
2096921,2096921, 303526, 449163
2096921,2096921, 303635, 449207
2096921,2096921, 303672, 449293
2096921,2096921, 303579, 448986
2096921,2096921, 303508, 448948
2096921,2096921, 303610, 448958
2096921,2096921, 303320, 448794
2096921,2096921, 303782, 449556
2096921,2096921, 304016, 449579
2096921,2096921, 303763, 449206
2096921,2096921, 303772, 449171
2096921,2096921, 304168, 449366
2096921,2096921, 304076, 449449
2096921,2096921, 304111, 449822
2096921,2096921, 303608, 449724
2096921,2096921, 303570, 449392
2096921,2096921, 303723, 449332
2096921,2096921, 303647, 450026
2096921,2096921, 304026, 449779
2096921,2096921, 304218, 449803
2096921,2096921, 304273, 449525
2096921,2096921, 303947, 449567
2096921,2096921, 304471, 450031
2096921,2096921, 304608, 450301
2096921,2096921, 304421, 450366
2096921,2096921, 304335, 450390
2096921,2096921, 304480, 450279
2096921,2096921, 304636, 450525
2096921,2096921, 304873, 450628
2096921,2096921, 304843, 450787
2096921,2096921, 304987, 450736
2096921,2096921, 304865, 450797
2096921,2096921, 305289, 451008
2096921,2096921, 305214, 451310
2096921,2096921, 305182, 451111
2096921,2096921, 305215, 451105
2096921,2096921, 305479, 450966
2096921,2096921, 305674, 451476
2096921,2096921, 305515, 451372
2096921,2096921, 305616, 451478
2096921,2096921, 305666, 451683
2096921,2096921, 305797, 451538
2096921,2096921, 305799, 451951
2096921,2096921, 306071, 451907
2096921,2096921, 305969, 452067
2096921,2096921, 306050, 452055
2096921,2096921, 306300, 452202
2096921,2096921, 306328, 452137
2096921,2096921, 306342, 452350
2096921,2096921, 306482, 452492
2096921,2096921, 306632, 452480
2096921,2096921, 306823, 452193
2096921,2096921, 306720, 452686
2096921,2096921, 306798, 452669
2096921,2096921, 306656, 452453
2096921,2096921, 306762, 452644
2096921,2096921, 306664, 452427
2096921,2096921, 306964, 452744
2096921,2096921, 307049, 453391
2096921,2096921, 307205, 453397
2096921,2096921, 307309, 453260
2096921,2096921, 307427, 453207
2096921,2096921, 307731, 453826
2096921,2096921, 307851, 453519
2096921,2096921, 307711, 453764
2096921,2096921, 307551, 453833
2096921,2096921, 307825, 453541
2096921,2096921, 307805, 454056
2096921,2096921, 307828, 454327
2096921,2096921, 308287, 454073
2096921,2096921, 308311, 454452
2096921,2096921, 308222, 454245
2096921,2096921, 308581, 454750
2096921,2096921, 308603, 454820
2096921,2096921, 308240, 454472
2096921,2096921, 308293, 454570
2096921,2096921, 308706, 454742
2096921,2096921, 309065, 455014
2096921,2096921, 308810, 455400
2096921,2096921, 308885, 455079
2096921,2096921, 308948, 455264
2096921,2096921, 309328, 455248
2096921,2096921, 309338, 455437
2096921,2096921, 309491, 455531
2096921,2096921, 309242, 455459
2096921,2096921, 309027, 455504
2096921,2096921, 309729, 455281
2096921,2096921, 309556, 455761
2096921,2096921, 309571, 455726
2096921,2096921, 309574, 455827
2096921,2096921, 309794, 456034
2096921,2096921, 309799, 456049
2096921,2096921, 309903, 456293
2096921,2096921, 309811, 456204
2096921,2096921, 309661, 456372
2096921,2096921, 309506, 456180
2096921,2096921, 309596, 456140
2096921,2096921, 309634, 456234
2096921,2096921, 310063, 455958
2096921,2096921, 310064, 456331
2096921,2096921, 310155, 456385
2096921,2096921, 310096, 456564
2096921,2096921, 310325, 456332
2096921,2096921, 310196, 456509
2096921,2096921, 310088, 456354
2096921,2096921, 310039, 456251
2096921,2096921, 310231, 456387
2096921,2096921, 310264, 456385
2096921,2096921, 310267, 456188
2096921,2096921, 310380, 456432
2096921,2096921, 310356, 456337
2096921,2096921, 310120, 456337
2096921,2096921, 309942, 456780
2096921,2096921, 310158, 456647
2096921,2096921, 309832, 456351
2096921,2096921, 310079, 456317
2096921,2096921, 309804, 456124
2096921,2096921, 309625, 456334
2096921,2096921, 309824, 456569
2096921,2096921, 310006, 456503
2096921,2096921, 310228, 456227
2096921,2096921, 310152, 456206
2096921,2096921, 309998, 456057
2096921,2096921, 309885, 456232
2096921,2096921, 309815, 456217
2096921,2096921, 310101, 456167
2096921,2096921, 310027, 456109
2096921,2096921, 310100, 455969
2096921,2096921, 309894, 456121
2096921,2096921, 309707, 456201
2096921,2096921, 310042, 456058
2096921,2096921, 309844, 455893
2096921,2096921, 309548, 455869
2096921,2096921, 309637, 455847
2096921,2096921, 309501, 455969
2096921,2096921, 309539, 455698
2096921,2096921, 309454, 455663
2096921,2096921, 309528, 455779
2096921,2096921, 309777, 455444
2096921,2096921, 309507, 455612
2096921,2096921, 309466, 455673
2096921,2096921, 309622, 455848
2096921,2096921, 309510, 455795
2096921,2096921, 309557, 455867
2096921,2096921, 309413, 455518
2096921,2096921, 309424, 455685
2096921,2096921, 309349, 455478
2096921,2096921, 309534, 455474
2096921,2096921, 309463, 455633
2096921,2096921, 309183, 455553
2096921,2096921, 309360, 455615
2096921,2096921, 309737, 455648
2096921,2096921, 309629, 456070
2096921,2096921, 309505, 455590
2096921,2096921, 309254, 455432
2096921,2096921, 309681, 455321
2096921,2096921, 309765, 455529
2096921,2096921, 309555, 455736
2096921,2096921, 309739, 455559
2096921,2096921, 309630, 455862
2096921,2096921, 309605, 455628
2096921,2096921, 309797, 455496
2096921,2096921, 309642, 455895
2096921,2096921, 309655, 455865
2096921,2096921, 309985, 455968
2096921,2096921, 309616, 455785
2096921,2096921, 309764, 455760
2096921,2096921, 310048, 456295
2096921,2096921, 309837, 456275
2096921,2096921, 309878, 456148
2096921,2096921, 310059, 456198
2096921,2096921, 310072, 456055
2096921,2096921, 310415, 456353
2096921,2096921, 310416, 456753
2096921,2096921, 310053, 456550
2096921,2096921, 310068, 456601
2096921,2096921, 310288, 456429
2096921,2096921, 310517, 456505
2096921,2096921, 310657, 456716
2096921,2096921, 310740, 456653
2096921,2096921, 310786, 456760
2096921,2096921, 310511, 456701
2096921,2096921, 310803, 456800
2096921,2096921, 311102, 457073
2096921,2096921, 310795, 457214
2096921,2096921, 310661, 457043
2096921,2096921, 310678, 457067
2096921,2096921, 310875, 456980
2096921,2096921, 311006, 456781
2096921,2096921, 310993, 457300
2096921,2096921, 311303, 457364
2096921,2096921, 311195, 457379
2096921,2096921, 311336, 457504
2096921,2096921, 311484, 457772
2096921,2096921, 311325, 457706
2096921,2096921, 310976, 457333
2096921,2096921, 310918, 457326
2096921,2096921, 311188, 457381
2096921,2096921, 310914, 457363
2096921,2096921, 311547, 457603
2096921,2096921, 311595, 457769
2096921,2096921, 311546, 458068
2096921,2096921, 311453, 458140
2096921,2096921, 311994, 457953
2096921,2096921, 311579, 457965
2096921,2096921, 311581, 457805
2096921,2096921, 311633, 457687
2096921,2096921, 311807, 457952
2096921,2096921, 311891, 457962
2096921,2096921, 312110, 458136
2096921,2096921, 311775, 458182
2096921,2096921, 312079, 458490
2096921,2096921, 311940, 458321
2096921,2096921, 312304, 458352
2096921,2096921, 312198, 458104
2096921,2096921, 312252, 458465
2096921,2096921, 312233, 458177
2096921,2096921, 312147, 458422
2096921,2096921, 311841, 458324
2096921,2096921, 311916, 458196
2096921,2096921, 312284, 458387
2096921,2096921, 312406, 458584
2096921,2096921, 312392, 458426
2096921,2096921, 312253, 458572
2096921,2096921, 312320, 458655
2096921,2096921, 312256, 458421
2096921,2096921, 312327, 458766
2096921,2096921, 312309, 458667
2096921,2096921, 312357, 458728
2096921,2096921, 312551, 458615
2096921,2096921, 312427, 458800
2096921,2096921, 312688, 458964
2096921,2096921, 312538, 459122
2096921,2096921, 312648, 459268
2096921,2096921, 312701, 459074
2096921,2096921, 312613, 459102
2096921,2096921, 312595, 459140
2096921,2096921, 312802, 458870
2096921,2096921, 312733, 458735
2096921,2096921, 312840, 458909
2096921,2096921, 312849, 459036
2096921,2096921, 312869, 459359
2096921,2096921, 312938, 459346
2096921,2096921, 312995, 459335
2096921,2096921, 313073, 459411
2096921,2096921, 312795, 459230
2096921,2096921, 312870, 459092
2096921,2096921, 312476, 459286
2096921,2096921, 313000, 459345
2096921,2096921, 313163, 459313
2096921,2096921, 313047, 459342
2096921,2096921, 313055, 459517
2096921,2096921, 313200, 459592
2096921,2096921, 313185, 459564
2096921,2096921, 313033, 459462
2096921,2096921, 312919, 459401
2096921,2096921, 313043, 459266
2096921,2096921, 313194, 459072
2096921,2096921, 313028, 459497
2096921,2096921, 313028, 459529
2096921,2096921, 313383, 459701
2096921,2096921, 313369, 459860
2096921,2096921, 313432, 459658
2096921,2096921, 313413, 459951
2096921,2096921, 313196, 459504
2096921,2096921, 313319, 459655
2096921,2096921, 313315, 459877
2096921,2096921, 313320, 459569
2096921,2096921, 313418, 459558
2096921,2096921, 313447, 459781
2096921,2096921, 313553, 459916
2096921,2096921, 313595, 460035
2096921,2096921, 313784, 460024
2096921,2096921, 313532, 459958
2096921,2096921, 313650, 460056
2096921,2096921, 313281, 459771
2096921,2096921, 313728, 459805
2096921,2096921, 313486, 459637
2096921,2096921, 313489, 460053
2096921,2096921, 313429, 459741
2096921,2096921, 313456, 459786
2096921,2096921, 313394, 459771
2096921,2096921, 313741, 459810
2096921,2096921, 313626, 459973
2096921,2096921, 313842, 460039
2096921,2096921, 313978, 459653
2096921,2096921, 313587, 459887
2096921,2096921, 313530, 459817
2096921,2096921, 313681, 459478
2096921,2096921, 313851, 459936
2096921,2096921, 313807, 459844
2096921,2096921, 313746, 459860
2096921,2096921, 313856, 459985
2096921,2096921, 313808, 459786
2096921,2096921, 313380, 459840
2096921,2096921, 313455, 459615
2096921,2096921, 313630, 459955
2096921,2096921, 313581, 459759
2096921,2096921, 313788, 459519
2096921,2096921, 313888, 459887
2096921,2096921, 314055, 459953
2096921,2096921, 313862, 460071
2096921,2096921, 313645, 459954
2096921,2096921, 313753, 459944
2096921,2096921, 313817, 459913
2096921,2096921, 313729, 459771
2096921,2096921, 313657, 459495
2096921,2096921, 313964, 459606
2096921,2096921, 313957, 459508
2096921,2096921, 313714, 459737
2096921,2096921, 313873, 459549
2096921,2096921, 313934, 459912
2096921,2096921, 313840, 459638
2096921,2096921, 313853, 459894
2096921,2096921, 313798, 459669
2096921,2096921, 313864, 459644
2096921,2096921, 313776, 459907
2096921,2096921, 313426, 459794
2096921,2096921, 313567, 459849
2096921,2096921, 313738, 459906
2096921,2096921, 313724, 459858
2096921,2096921, 313964, 459827
2096921,2096921, 313407, 459451
2096921,2096921, 313699, 459690
2096921,2096921, 313527, 459876
2096921,2096921, 313865, 459570
2096921,2096921, 313886, 459289
2096921,2096921, 313907, 459348
2096921,2096921, 313815, 459498
2096921,2096921, 313713, 459554
2096921,2096921, 313687, 459620
2096921,2096921, 313876, 459358
2096921,2096921, 313534, 459337
2096921,2096921, 313708, 459367
2096921,2096921, 313338, 459183
2096921,2096921, 313596, 459360
2096921,2096921, 313497, 459461
2096921,2096921, 313501, 459697
2096921,2096921, 313648, 459525
2096921,2096921, 313647, 459255
2096921,2096921, 313699, 459418
2096921,2096921, 313560, 459592
2096921,2096921, 313759, 459478
2096921,2096921, 313513, 459333
2096921,2096921, 313562, 459535
2096921,2096921, 313344, 459282
2096921,2096921, 313604, 459199
2096921,2096921, 313661, 459126
2096921,2096921, 313700, 459356
2096921,2096921, 313782, 459443
2096921,2096921, 313777, 459623
2096921,2096921, 313713, 459255
2096921,2096921, 313594, 459342
2096921,2096921, 313558, 459067
2096921,2096921, 313619, 459226
2096921,2096921, 313565, 459148
2096921,2096921, 313660, 459028
2096921,2096921, 313487, 458718
2096921,2096921, 313517, 458884
2096921,2096921, 313648, 458936
2096921,2096921, 313906, 459086
2096921,2096921, 313679, 459234
2096921,2096921, 313492, 459293
2096921,2096921, 313221, 459126
2096921,2096921, 313362, 459145
2096921,2096921, 313447, 458957
2096921,2096921, 313280, 458915
2096921,2096921, 313282, 458857
2096921,2096921, 313406, 458777
2096921,2096921, 313229, 458766
2096921,2096921, 313397, 459002
2096921,2096921, 313211, 458812
2096921,2096921, 313175, 458716
2096921,2096921, 313009, 458793
2096921,2096921, 313158, 458743
2096921,2096921, 313093, 458525
2096921,2096921, 313013, 458812
2096921,2096921, 313439, 458793
2096921,2096921, 313043, 459000
2096921,2096921, 313301, 458891
2096921,2096921, 313406, 458871
2096921,2096921, 313293, 459049
2096921,2096921, 313073, 459005
2096921,2096921, 313381, 458755
2096921,2096921, 313259, 458700
2096921,2096921, 313529, 458890
2096921,2096921, 313284, 458650
2096921,2096921, 313188, 458534
2096921,2096921, 313051, 458455
2096921,2096921, 313297, 458506
2096921,2096921, 313026, 458593
2096921,2096921, 313140, 458653
2096921,2096921, 313135, 458496
2096921,2096921, 312955, 458350
2096921,2096921, 312802, 458061
2096921,2096921, 312835, 458261
2096921,2096921, 312760, 458106
2096921,2096921, 312576, 458019
2096921,2096921, 312736, 458063
2096921,2096921, 312798, 458135
2096921,2096921, 312773, 458303
2096921,2096921, 312957, 457884
2096921,2096921, 312799, 457721
2096921,2096921, 312594, 457606
2096921,2096921, 312776, 457672
2096921,2096921, 312768, 457764
2096921,2096921, 312483, 457978
2096921,2096921, 312561, 457708
2096921,2096921, 312636, 457729
2096921,2096921, 312806, 457805
2096921,2096921, 312665, 457708
2096921,2096921, 312578, 457472
2096921,2096921, 312450, 457602
2096921,2096921, 312533, 457643
2096921,2096921, 312291, 457476
2096921,2096921, 312433, 457267
2096921,2096921, 312548, 457533
2096921,2096921, 312298, 457473
2096921,2096921, 312312, 457490
2096921,2096921, 312192, 457483
2096921,2096921, 312470, 457743
2096921,2096921, 312403, 457667
2096921,2096921, 312196, 457303
2096921,2096921, 312364, 457365
2096921,2096921, 312018, 457596
2096921,2096921, 312198, 457335
2096921,2096921, 311992, 457167
2096921,2096921, 311858, 456875
2096921,2096921, 311866, 457102
2096921,2096921, 311990, 456930
2096921,2096921, 312231, 456977
2096921,2096921, 311859, 457063
2096921,2096921, 311545, 456797
2096921,2096921, 311572, 456332
2096921,2096921, 311605, 456485
2096921,2096921, 311574, 456604
2096921,2096921, 311612, 456421
2096921,2096921, 311212, 456103
2096921,2096921, 311337, 456019
2096921,2096921, 311445, 456094
2096921,2096921, 311279, 456246
2096921,2096921, 311152, 455923
2096921,2096921, 310781, 455515
2096921,2096921, 310646, 455005
2096921,2096921, 310460, 454988
2096921,2096921, 310292, 454807
2096921,2096921, 310237, 455346
2096921,2096921, 309411, 454289
2096921,2096921, 309737, 454125
2096921,2096921, 309705, 453999
2096921,2096921, 309682, 453910
2096921,2096921, 309395, 454076
2096921,2096921, 309036, 453160
2096921,2096921, 308699, 453244
2096921,2096921, 308568, 452868
2096921,2096921, 308341, 453001
2096921,2096921, 307947, 452969
2096921,2096921, 306790, 451030
2096921,2096921, 306647, 450486
2096921,2096921, 306676, 450387
2096921,2096921, 306439, 450577
2096921,2096921, 305645, 450786
2096921,2096921, 304232, 448610
2096921,2096921, 304056, 448000
2096921,2096921, 304236, 448025
2096921,2096921, 304152, 448110
2096921,2096921, 303571, 447796
2096921,2096921, 302284, 446214
2096921,2096921, 302212, 445877
2096921,2096921, 302311, 445587
2096921,2096921, 302466, 445678
2096921,2096921, 301932, 445913
2096921,2096921, 301282, 444461
2096921,2096921, 300788, 444446
2096921,2096921, 300648, 444258
2096921,2096921, 300774, 444041
2096921,2096921, 300358, 443936
2096921,2096921, 299958, 442864
2096921,2096921, 299799, 442785
2096921,2096921, 300005, 442948
2096921,2096921, 300155, 442982
2096921,2096921, 299777, 442994
2096921,2096921, 299110, 442299
2096921,2096921, 298889, 442128
2096921,2096921, 299010, 442065
2096921,2096921, 298830, 441976
2096921,2096921, 299006, 442025
2096921,2096921, 298382, 441315
2096921,2096921, 298270, 441190
2096921,2096921, 298389, 441380
2096921,2096921, 298574, 441188
2096921,2096921, 298480, 441408
2096921,2096921, 297998, 441260
2096921,2096921, 298099, 441000
2096921,2096921, 297755, 441032
2096921,2096921, 297721, 440762
2096921,2096921, 297519, 440606
2096921,2096921, 297530, 440440
2096921,2096921, 297618, 440302
2096921,2096921, 297819, 440259
2096921,2096921, 297714, 440423
2096921,2096921, 297733, 440331
2096921,2096921, 297650, 440332
2096921,2096921, 297508, 440309
2096921,2096921, 297685, 440405
2096921,2096921, 297877, 440115
2096921,2096921, 297633, 440366
2096921,2096921, 297769, 440323
2096921,2096921, 297717, 440428
2096921,2096921, 297614, 440269
2096921,2096921, 297782, 440430
2096921,2096921, 297848, 440540
2096921,2096921, 297810, 440562
2096921,2096921, 297912, 440724
2096921,2096921, 297743, 440580
2096921,2096921, 297889, 440015
2096921,2096921, 297720, 440585
2096921,2096921, 297665, 440411
2096921,2096921, 297946, 440336
2096921,2096921, 297783, 440468
2096921,2096921, 297762, 440339
2096921,2096921, 298273, 440668
2096921,2096921, 298247, 440812
2096921,2096921, 297783, 440732
2096921,2096921, 297665, 440574
2096921,2096921, 297888, 440584
2096921,2096921, 298068, 440717
2096921,2096921, 298142, 440908
2096921,2096921, 298081, 440787
2096921,2096921, 298303, 440988
2096921,2096921, 298423, 440990
2096921,2096921, 298762, 440820
2096921,2096921, 298752, 440869
2096921,2096921, 298659, 441306
2096921,2096921, 298232, 441039
2096921,2096921, 298355, 440986
2096921,2096921, 298579, 441054
2096921,2096921, 298650, 441053
2096921,2096921, 298777, 441110
2096921,2096921, 298834, 441207
2096921,2096921, 298884, 441223
2096921,2096921, 299251, 441497
2096921,2096921, 299354, 441673
2096921,2096921, 299141, 441884
2096921,2096921, 298995, 441663
2096921,2096921, 298869, 441796
2096921,2096921, 299282, 441427
2096921,2096921, 299392, 441840
2096921,2096921, 299674, 442074
2096921,2096921, 299288, 442225
2096921,2096921, 299529, 442193
2096921,2096921, 299566, 441880
2096921,2096921, 299503, 442251
2096921,2096921, 299741, 442209
2096921,2096921, 299555, 442084
2096921,2096921, 299532, 442256
2096921,2096921, 299442, 442407
2096921,2096921, 299788, 442835
2096921,2096921, 299937, 442467
2096921,2096921, 299936, 442414
2096921,2096921, 300218, 442323
2096921,2096921, 300421, 442674
2096921,2096921, 300205, 442715
2096921,2096921, 300100, 443087
2096921,2096921, 300242, 443089
2096921,2096921, 300291, 442967
2096921,2096921, 300320, 442918
2096921,2096921, 300478, 443122
2096921,2096921, 300556, 442990
2096921,2096921, 300629, 443297
2096921,2096921, 300530, 443274
2096921,2096921, 300746, 443399
2096921,2096921, 300954, 443542
2096921,2096921, 300988, 443753
2096921,2096921, 300861, 443533
2096921,2096921, 300932, 443362
2096921,2096921, 300959, 443423
2096921,2096921, 301229, 443884
2096921,2096921, 301098, 443583
2096921,2096921, 301406, 443627
2096921,2096921, 301253, 443480
2096921,2096921, 301424, 443928
2096921,2096921, 301180, 443984
2096921,2096921, 301602, 444052
2096921,2096921, 301176, 444206
2096921,2096921, 301394, 444064
2096921,2096921, 301524, 444057
2096921,2096921, 301659, 444003
2096921,2096921, 301810, 444260
2096921,2096921, 301860, 444298
2096921,2096921, 301973, 444244
2096921,2096921, 301911, 444451
2096921,2096921, 301960, 444488
2096921,2096921, 301957, 444275
2096921,2096921, 302059, 444295
2096921,2096921, 301841, 444218
2096921,2096921, 301785, 444609
2096921,2096921, 301989, 444666
2096921,2096921, 302303, 444448
2096921,2096921, 302212, 444645
2096921,2096921, 302036, 444486
2096921,2096921, 302049, 444712
2096921,2096921, 302362, 444642
2096921,2096921, 301939, 444620
2096921,2096921, 301996, 444484
2096921,2096921, 301914, 444611
2096921,2096921, 301736, 444352
2096921,2096921, 302024, 444753
2096921,2096921, 302095, 444283
2096921,2096921, 301922, 444479
2096921,2096921, 301879, 444593
2096921,2096921, 301962, 444516
2096921,2096921, 301999, 444601
2096921,2096921, 302096, 443998
2096921,2096921, 301926, 444423
2096921,2096921, 301848, 443832
2096921,2096921, 301563, 444160
2096921,2096921, 301557, 443954
2096921,2096921, 301377, 443973
2096921,2096921, 301606, 443937
2096921,2096921, 301973, 444019
2096921,2096921, 301739, 444195
2096921,2096921, 301610, 443990
2096921,2096921, 301699, 443823
2096921,2096921, 301446, 443864
2096921,2096921, 301593, 443600
2096921,2096921, 301213, 443756
2096921,2096921, 301414, 443399
2096921,2096921, 301164, 443581
2096921,2096921, 301466, 443377
2096921,2096921, 301484, 443545
2096921,2096921, 301297, 443564
2096921,2096921, 301040, 443545
2096921,2096921, 300921, 443476
2096921,2096921, 300773, 443204
2096921,2096921, 300969, 443079
2096921,2096921, 301275, 443324
2096921,2096921, 300973, 443024
2096921,2096921, 300825, 443155
2096921,2096921, 300791, 443118
2096921,2096921, 301088, 443103
2096921,2096921, 301046, 442949
2096921,2096921, 300854, 442927
2096921,2096921, 300597, 442877
2096921,2096921, 300621, 442920
2096921,2096921, 300682, 442715
2096921,2096921, 300549, 442848
2096921,2096921, 300753, 442767
2096921,2096921, 300780, 442751
2096921,2096921, 300750, 443178
2096921,2096921, 300791, 443067
2096921,2096921, 300727, 442821
2096921,2096921, 301308, 442978
2096921,2096921, 300561, 442965
2096921,2096921, 300700, 442821
2096921,2096921, 300701, 442647
2096921,2096921, 300626, 442431
2096921,2096921, 300719, 442494
2096921,2096921, 300683, 442612
2096921,2096921, 300874, 442726
2096921,2096921, 300601, 442937
2096921,2096921, 300585, 442938
2096921,2096921, 300787, 442884
2096921,2096921, 300891, 442963
2096921,2096921, 300689, 442752
2096921,2096921, 300643, 442819
2096921,2096921, 300833, 442404
2096921,2096921, 301050, 443027
2096921,2096921, 300943, 443038
2096921,2096921, 301059, 443280
2096921,2096921, 301106, 443457
2096921,2096921, 301026, 443310
2096921,2096921, 301191, 443689
2096921,2096921, 301163, 443343
2096921,2096921, 301048, 443288
2096921,2096921, 301131, 443435
2096921,2096921, 301224, 443412
2096921,2096921, 301394, 443688
2096921,2096921, 301656, 443750
2096921,2096921, 301967, 443736
2096921,2096921, 301639, 443922
2096921,2096921, 301943, 444001
2096921,2096921, 301753, 444108
2096921,2096921, 301774, 443969
2096921,2096921, 301781, 443937
2096921,2096921, 301930, 444022
2096921,2096921, 301781, 443921
2096921,2096921, 302299, 443981
2096921,2096921, 301972, 444300
2096921,2096921, 302058, 444047
2096921,2096921, 302149, 444377
2096921,2096921, 302251, 444508
2096921,2096921, 302028, 444508
2096921,2096921, 302252, 444431
2096921,2096921, 301923, 444121
2096921,2096921, 301973, 444168
2096921,2096921, 302118, 444228
2096921,2096921, 302219, 444506
2096921,2096921, 302266, 444685
2096921,2096921, 302453, 444413
2096921,2096921, 302365, 444406
2096921,2096921, 302545, 444434
2096921,2096921, 302349, 444999
2096921,2096921, 302478, 445077
2096921,2096921, 302458, 444808
2096921,2096921, 302539, 444575
2096921,2096921, 302374, 444560
2096921,2096921, 302522, 444930
2096921,2096921, 302898, 444916
2096921,2096921, 302878, 444959
2096921,2096921, 302733, 444840
2096921,2096921, 302839, 444880
2096921,2096921, 302919, 445355
2096921,2096921, 302898, 445403
2096921,2096921, 302856, 445424
2096921,2096921, 302947, 445260
2096921,2096921, 303179, 445209
2096921,2096921, 303025, 445287
2096921,2096921, 302848, 445478
2096921,2096921, 303045, 445339
2096921,2096921, 303152, 445632
2096921,2096921, 303400, 445358
2096921,2096921, 303453, 445621
2096921,2096921, 303253, 445626
2096921,2096921, 303463, 445441
2096921,2096921, 303362, 445578
2096921,2096921, 303547, 445448
2096921,2096921, 303750, 445465
2096921,2096921, 303834, 445818
2096921,2096921, 303866, 445735
2096921,2096921, 303958, 445830
2096921,2096921, 303931, 445788
2096921,2096921, 303937, 446091
2096921,2096921, 303823, 446275
2096921,2096921, 303664, 446231
2096921,2096921, 303549, 446066
2096921,2096921, 303820, 446094
2096921,2096921, 303545, 446187
2096921,2096921, 303695, 446292
2096921,2096921, 303763, 446117
2096921,2096921, 303894, 446176
2096921,2096921, 304042, 446569
2096921,2096921, 304190, 446488
2096921,2096921, 303998, 446463
2096921,2096921, 304107, 446525
2096921,2096921, 304192, 446464
2096921,2096921, 304038, 446156
2096921,2096921, 304039, 446334
2096921,2096921, 304349, 446480
2096921,2096921, 304127, 446672
2096921,2096921, 304434, 446794
2096921,2096921, 304182, 446737
2096921,2096921, 304509, 446745
2096921,2096921, 304478, 446957
2096921,2096921, 304541, 447007
2096921,2096921, 304466, 446994
2096921,2096921, 304655, 447124
2096921,2096921, 304601, 447280
2096921,2096921, 304715, 447139
2096921,2096921, 304543, 447443
2096921,2096921, 304636, 447274
2096921,2096921, 304748, 446879
2096921,2096921, 305063, 447059
2096921,2096921, 304920, 447230
2096921,2096921, 304627, 447188
2096921,2096921, 304818, 446999
2096921,2096921, 304796, 447096
2096921,2096921, 304966, 447511
2096921,2096921, 304947, 447433
2096921,2096921, 305084, 447226
2096921,2096921, 305187, 447279
2096921,2096921, 305222, 447513
2096921,2096921, 305229, 447669
2096921,2096921, 305297, 447659
2096921,2096921, 305108, 447385
2096921,2096921, 305100, 447532
2096921,2096921, 304908, 447307
2096921,2096921, 305367, 447319
2096921,2096921, 305492, 447537
2096921,2096921, 305403, 447790
2096921,2096921, 305446, 447921
2096921,2096921, 305385, 447621
2096921,2096921, 305535, 447960
2096921,2096921, 305463, 448313
2096921,2096921, 305250, 448016
2096921,2096921, 305307, 447919
2096921,2096921, 305397, 447589
2096921,2096921, 305187, 447660
2096921,2096921, 305717, 447785
2096921,2096921, 305511, 447924
2096921,2096921, 305589, 448047
2096921,2096921, 305641, 448121
2096921,2096921, 305942, 448291
2096921,2096921, 306068, 448011
2096921,2096921, 305813, 448130
2096921,2096921, 305636, 448303
2096921,2096921, 305900, 448223
2096921,2096921, 305711, 448201
2096921,2096921, 305589, 448476
2096921,2096921, 305818, 448258
2096921,2096921, 305691, 448337
2096921,2096921, 305957, 448200
2096921,2096921, 306011, 448605
2096921,2096921, 305689, 448581
2096921,2096921, 305925, 448307
2096921,2096921, 305866, 448514
2096921,2096921, 306096, 448362
2096921,2096921, 306019, 448392
2096921,2096921, 305831, 448428
2096921,2096921, 306437, 448411
2096921,2096921, 306026, 448757
2096921,2096921, 305975, 448596
2096921,2096921, 305971, 448757
2096921,2096921, 306087, 448616
2096921,2096921, 305735, 448618
2096921,2096921, 305951, 448487
2096921,2096921, 305888, 448509
2096921,2096921, 306123, 448647
2096921,2096921, 306306, 448823
2096921,2096921, 306197, 448568
2096921,2096921, 306189, 449117
2096921,2096921, 306125, 448653
2096921,2096921, 306573, 448919
2096921,2096921, 306220, 448909
2096921,2096921, 306549, 448639
2096921,2096921, 306410, 448716
2096921,2096921, 306519, 448477
2096921,2096921, 306332, 448732
2096921,2096921, 306478, 448837
2096921,2096921, 306093, 448848
2096921,2096921, 306283, 449056
2096921,2096921, 306696, 449431
2096921,2096921, 306592, 449212
2096921,2096921, 306377, 449456
2096921,2096921, 306617, 448961
2096921,2096921, 306520, 448890
2096921,2096921, 306547, 448772
2096921,2096921, 306245, 448999
2096921,2096921, 306391, 449258
2096921,2096921, 306508, 449129
2096921,2096921, 306472, 448678
2096921,2096921, 306459, 449249
2096921,2096921, 306552, 449477
2096921,2096921, 306535, 449245
2096921,2096921, 306359, 449100
2096921,2096921, 306498, 449004
2096921,2096921, 306610, 449205
2096921,2096921, 306398, 449176
2096921,2096921, 306620, 449070
2096921,2096921, 306514, 449267
2096921,2096921, 306664, 448970
2096921,2096921, 306628, 449176
2096921,2096921, 306713, 449048
2096921,2096921, 306728, 449217
2096921,2096921, 306797, 449258
2096921,2096921, 306662, 449216
2096921,2096921, 306638, 449216
2096921,2096921, 306542, 449166
2096921,2096921, 306933, 449062
2096921,2096921, 306957, 449327
2096921,2096921, 306921, 449320
2096921,2096921, 307078, 449509
2096921,2096921, 306631, 449500
2096921,2096921, 306836, 449539
2096921,2096921, 306888, 449423
2096921,2096921, 306752, 449140
2096921,2096921, 306848, 449219
2096921,2096921, 306713, 449400
2096921,2096921, 306732, 449285
2096921,2096921, 307034, 449382
2096921,2096921, 306904, 449367
2096921,2096921, 307082, 449257
2096921,2096921, 307013, 449464
2096921,2096921, 307083, 449488
2096921,2096921, 307273, 449679
2096921,2096921, 306706, 449796
2096921,2096921, 306759, 449694
2096921,2096921, 307061, 449503
2096921,2096921, 306644, 449609
2096921,2096921, 307321, 449344
2096921,2096921, 306815, 449342
2096921,2096921, 307048, 449641
2096921,2096921, 307114, 449646
2096921,2096921, 307017, 449563
2096921,2096921, 306877, 449496
2096921,2096921, 307014, 449727
2096921,2096921, 306758, 449729
2096921,2096921, 307086, 449580
2096921,2096921, 307145, 449624
2096921,2096921, 307249, 449872
2096921,2096921, 307168, 449786
2096921,2096921, 307010, 449496
2096921,2096921, 306869, 449892
2096921,2096921, 307076, 449407
2096921,2096921, 306608, 449324
2096921,2096921, 307097, 449119
2096921,2096921, 307167, 449577
2096921,2096921, 306811, 449534
2096921,2096921, 306955, 449421
2096921,2096921, 307111, 449437
2096921,2096921, 307185, 449671
2096921,2096921, 307163, 449754
2096921,2096921, 306909, 449864
2096921,2096921, 307034, 449565
2096921,2096921, 307073, 449543
2096921,2096921, 306961, 449540
2096921,2096921, 307041, 449456
2096921,2096921, 306719, 449736
2096921,2096921, 307276, 449719
2096921,2096921, 307142, 449652
2096921,2096921, 307333, 449594
2096921,2096921, 307099, 449708
2096921,2096921, 307170, 450007
2096921,2096921, 307135, 449779
2096921,2096921, 307118, 449827
2096921,2096921, 307054, 449252
2096921,2096921, 306941, 449263
2096921,2096921, 307066, 449816
2096921,2096921, 307002, 449917
2096921,2096921, 307159, 449974
2096921,2096921, 307389, 449918
2096921,2096921, 307068, 449934
2096921,2096921, 307112, 449870
2096921,2096921, 307179, 449842
2096921,2096921, 307208, 449586
2096921,2096921, 307174, 449638
2096921,2096921, 307436, 449858
2096921,2096921, 307039, 449606
2096921,2096921, 307219, 450003
2096921,2096921, 307254, 449674
2096921,2096921, 307093, 450045
2096921,2096921, 306883, 450063
2096921,2096921, 306897, 449760
2096921,2096921, 306785, 449473
2096921,2096921, 306688, 449191
2096921,2096921, 306591, 449085
2096921,2096921, 306470, 449299
2096921,2096921, 306215, 448662
2096921,2096921, 306520, 448870
2096921,2096921, 306328, 448978
2096921,2096921, 306466, 448945
2096921,2096921, 306209, 449277
2096921,2096921, 306122, 448584
2096921,2096921, 305874, 448533
2096921,2096921, 305893, 448593
2096921,2096921, 305685, 448275
2096921,2096921, 305613, 448233
2096921,2096921, 305194, 447675
2096921,2096921, 305310, 447702
2096921,2096921, 305115, 447727
2096921,2096921, 305237, 447819
2096921,2096921, 304858, 447756
2096921,2096921, 304390, 447200
2096921,2096921, 304130, 446918
2096921,2096921, 304200, 446669
2096921,2096921, 304205, 446997
2096921,2096921, 303569, 446792
2096921,2096921, 302957, 445101
2096921,2096921, 302281, 444585
2096921,2096921, 302644, 444803
2096921,2096921, 302527, 444690
2096921,2096921, 301810, 444925
2096921,2096921, 300553, 442937
2096921,2096921, 300484, 442493
2096921,2096921, 300263, 442318
2096921,2096921, 300434, 442266
2096921,2096921, 299671, 441628
2096921,2096921, 298967, 440918
2096921,2096921, 298275, 440404
2096921,2096921, 298647, 440430
2096921,2096921, 298672, 440325
2096921,2096921, 298312, 440726
2096921,2096921, 297648, 439342
2096921,2096921, 297217, 439174
2096921,2096921, 297325, 438804
2096921,2096921, 297309, 438947
2096921,2096921, 297038, 439015
2096921,2096921, 296685, 438090
2096921,2096921, 296421, 437828
2096921,2096921, 296621, 438214
2096921,2096921, 296610, 438331
2096921,2096921, 296053, 437937
2096921,2096921, 296021, 437789
2096921,2096921, 296052, 437610
2096921,2096921, 295922, 437314
2096921,2096921, 295699, 437150
2096921,2096921, 295062, 437462
2096921,2096921, 295246, 437103
2096921,2096921, 295512, 436768
2096921,2096921, 295469, 436852
2096921,2096921, 295671, 437240
2096921,2096921, 295002, 437004
2096921,2096921, 295370, 436822
2096921,2096921, 295082, 436761
2096921,2096921, 295275, 436856
2096921,2096921, 295196, 436547
2096921,2096921, 294834, 436403
2096921,2096921, 294892, 436506
2096921,2096921, 295051, 436614
2096921,2096921, 295008, 436386
2096921,2096921, 295025, 436851
2096921,2096921, 294777, 436644
2096921,2096921, 295195, 436859
2096921,2096921, 295114, 436740
2096921,2096921, 295096, 436750
2096921,2096921, 295235, 436635
2096921,2096921, 295344, 436955
2096921,2096921, 295433, 436807
2096921,2096921, 295669, 437073
2096921,2096921, 295434, 437101
2096921,2096921, 295373, 437048
2096921,2096921, 295595, 437074
2096921,2096921, 295848, 437340
2096921,2096921, 295730, 437356
2096921,2096921, 295851, 437449
2096921,2096921, 295298, 437222
2096921,2096921, 295659, 437342
2096921,2096921, 295745, 437488
2096921,2096921, 295628, 437343
2096921,2096921, 295758, 437786
2096921,2096921, 296216, 437726
2096921,2096921, 295970, 437658
2096921,2096921, 296259, 438062
2096921,2096921, 296366, 437983
2096921,2096921, 296095, 437900
2096921,2096921, 295850, 437733
2096921,2096921, 296207, 437752
2096921,2096921, 296611, 438362
2096921,2096921, 296707, 438375
2096921,2096921, 296802, 438494
2096921,2096921, 296890, 438757
2096921,2096921, 296768, 438670
2096921,2096921, 297509, 439376
2096921,2096921, 297183, 439241
2096921,2096921, 297241, 438821
2096921,2096921, 297041, 439044
2096921,2096921, 297114, 439007
2096921,2096921, 297416, 439653
2096921,2096921, 297293, 439403
2096921,2096921, 297439, 439738
2096921,2096921, 298009, 440241
2096921,2096921, 297760, 440272
2096921,2096921, 298105, 440371
2096921,2096921, 298253, 440498
2096921,2096921, 298261, 440118
2096921,2096921, 298282, 440441
2096921,2096921, 298527, 440213
2096921,2096921, 298676, 441002
2096921,2096921, 298375, 441105
2096921,2096921, 298545, 441127
2096921,2096921, 298469, 441020
2096921,2096921, 298751, 441015
2096921,2096921, 299152, 441254
2096921,2096921, 298655, 441312
2096921,2096921, 298586, 441242
2096921,2096921, 299028, 441316
2096921,2096921, 298846, 441361
2096921,2096921, 299474, 441732
2096921,2096921, 299692, 441848
2096921,2096921, 299668, 441865
2096921,2096921, 299761, 441639
2096921,2096921, 300031, 442067
2096921,2096921, 299859, 442363
2096921,2096921, 300052, 442557
2096921,2096921, 299980, 442522
2096921,2096921, 299790, 442597
2096921,2096921, 300224, 442492
2096921,2096921, 300615, 442846
2096921,2096921, 300550, 443102
2096921,2096921, 300591, 443450
2096921,2096921, 300679, 443413
2096921,2096921, 300882, 443280
2096921,2096921, 301248, 443570
2096921,2096921, 301035, 444004
2096921,2096921, 300994, 443840
2096921,2096921, 301209, 443891
2096921,2096921, 301315, 443880
2096921,2096921, 301448, 444364
2096921,2096921, 301473, 444188
2096921,2096921, 301448, 444489
2096921,2096921, 302106, 444529
2096921,2096921, 302041, 444629
2096921,2096921, 302058, 444882
2096921,2096921, 302131, 444819
2096921,2096921, 302315, 445093
2096921,2096921, 302086, 444701
2096921,2096921, 302325, 444570
2096921,2096921, 302350, 445035
2096921,2096921, 302497, 445509
2096921,2096921, 302496, 445437
2096921,2096921, 302739, 445555
2096921,2096921, 302825, 445312
2096921,2096921, 303005, 445655
2096921,2096921, 302693, 445896
2096921,2096921, 302783, 445694
2096921,2096921, 302818, 445879
2096921,2096921, 302545, 445941
2096921,2096921, 302928, 445763
2096921,2096921, 303178, 445757
2096921,2096921, 303272, 446383
2096921,2096921, 303068, 446140
2096921,2096921, 303228, 446301
2096921,2096921, 303517, 446652
2096921,2096921, 303439, 446532
2096921,2096921, 303389, 446159
2096921,2096921, 303364, 446277
2096921,2096921, 303467, 446593
2096921,2096921, 303423, 446342
2096921,2096921, 303480, 446612
2096921,2096921, 303503, 446351
2096921,2096921, 303594, 446757
2096921,2096921, 303577, 446711
2096921,2096921, 303599, 447011
2096921,2096921, 303479, 447003
2096921,2096921, 303671, 446919
2096921,2096921, 303372, 446730
2096921,2096921, 303156, 446773
2096921,2096921, 303191, 446566
2096921,2096921, 303497, 446362
2096921,2096921, 303612, 446766
2096921,2096921, 303666, 446738
2096921,2096921, 303394, 447015
2096921,2096921, 303547, 446817
2096921,2096921, 303271, 446713
2096921,2096921, 303207, 446622
2096921,2096921, 303314, 446614
2096921,2096921, 303330, 446758
2096921,2096921, 303542, 446630
2096921,2096921, 303539, 446794
2096921,2096921, 303457, 446717
2096921,2096921, 303642, 447014
2096921,2096921, 303526, 446731
2096921,2096921, 303606, 447119
2096921,2096921, 303661, 446812
2096921,2096921, 303696, 446967
2096921,2096921, 303710, 446789
2096921,2096921, 303429, 446684
2096921,2096921, 303161, 446785
2096921,2096921, 303344, 446910
2096921,2096921, 303649, 447236
2096921,2096921, 303565, 447048
2096921,2096921, 303331, 446782
2096921,2096921, 303541, 447025
2096921,2096921, 303520, 447012
2096921,2096921, 303559, 446944
2096921,2096921, 303655, 447074
2096921,2096921, 303451, 446571
2096921,2096921, 303764, 447254
2096921,2096921, 303487, 447167
2096921,2096921, 303810, 446967
2096921,2096921, 303642, 447185
2096921,2096921, 303793, 447229
2096921,2096921, 303814, 447488
2096921,2096921, 303897, 447408
2096921,2096921, 303698, 447341
2096921,2096921, 303981, 447228
2096921,2096921, 303891, 447095
2096921,2096921, 304050, 447571
2096921,2096921, 304023, 447628
2096921,2096921, 304133, 447910
2096921,2096921, 304112, 447727
2096921,2096921, 304322, 447811
2096921,2096921, 304337, 448093
2096921,2096921, 304388, 448005
2096921,2096921, 304239, 448105
2096921,2096921, 304158, 448045
2096921,2096921, 304185, 448078
2096921,2096921, 304434, 448240
2096921,2096921, 304504, 448485
2096921,2096921, 304748, 448509
2096921,2096921, 304772, 448494
2096921,2096921, 304946, 448275
2096921,2096921, 305135, 449008
2096921,2096921, 305071, 449285
2096921,2096921, 305367, 449335
2096921,2096921, 305234, 449029
2096921,2096921, 305063, 449095
2096921,2096921, 305278, 449421
2096921,2096921, 305283, 449460
2096921,2096921, 305388, 449516
2096921,2096921, 305524, 449502
2096921,2096921, 305606, 449490
2096921,2096921, 305969, 449865
2096921,2096921, 305856, 449835
2096921,2096921, 305857, 450091
2096921,2096921, 305726, 449957
2096921,2096921, 305944, 450089
2096921,2096921, 306082, 450270
2096921,2096921, 306028, 450294
2096921,2096921, 306225, 450137
2096921,2096921, 306544, 450321
2096921,2096921, 306449, 450342
2096921,2096921, 306666, 451061
2096921,2096921, 306625, 451022
2096921,2096921, 306712, 450919
2096921,2096921, 306658, 450794
2096921,2096921, 306413, 450742
2096921,2096921, 306716, 451277
2096921,2096921, 306991, 451177
2096921,2096921, 306869, 451507
2096921,2096921, 307006, 451321
2096921,2096921, 307075, 451365
2096921,2096921, 307313, 451602
2096921,2096921, 307541, 451841
2096921,2096921, 307238, 451337
2096921,2096921, 307155, 451635
2096921,2096921, 307600, 451834
2096921,2096921, 307428, 451823
2096921,2096921, 307712, 451942
2096921,2096921, 307859, 452075
2096921,2096921, 307509, 452575
2096921,2096921, 308009, 452387
2096921,2096921, 308235, 452601
2096921,2096921, 308007, 452850
2096921,2096921, 307850, 452653
2096921,2096921, 307887, 452779
2096921,2096921, 307888, 452921
2096921,2096921, 308156, 452999
2096921,2096921, 308323, 452948
2096921,2096921, 308460, 453022
2096921,2096921, 308627, 453030
2096921,2096921, 308504, 452919
2096921,2096921, 308534, 453471
2096921,2096921, 308919, 453444
2096921,2096921, 308652, 453391
2096921,2096921, 308899, 453473
2096921,2096921, 308628, 453549
2096921,2096921, 308995, 453549
2096921,2096921, 309072, 453762
2096921,2096921, 309408, 454173
2096921,2096921, 308937, 453936
2096921,2096921, 309369, 453954
2096921,2096921, 309570, 454304
2096921,2096921, 309568, 454332
2096921,2096921, 309353, 454291
2096921,2096921, 309326, 454056
2096921,2096921, 309573, 454255
2096921,2096921, 309730, 454566
2096921,2096921, 309945, 454452
2096921,2096921, 309949, 454983
2096921,2096921, 310052, 454649
2096921,2096921, 310087, 454691
2096921,2096921, 310107, 454991
2096921,2096921, 309917, 455079
2096921,2096921, 309881, 454985
2096921,2096921, 310086, 454761
2096921,2096921, 309890, 454908
2096921,2096921, 310491, 455140
2096921,2096921, 310668, 455262
2096921,2096921, 310569, 455172
2096921,2096921, 310437, 455281
2096921,2096921, 310537, 455477
2096921,2096921, 310931, 455899
2096921,2096921, 310697, 456020
2096921,2096921, 310808, 455686
2096921,2096921, 310881, 455612
2096921,2096921, 310823, 455538
2096921,2096921, 310868, 456149
2096921,2096921, 311090, 456119
2096921,2096921, 311107, 456191
2096921,2096921, 310990, 456268
2096921,2096921, 311198, 456183
2096921,2096921, 311413, 456672
2096921,2096921, 311481, 456691
2096921,2096921, 311450, 456456
2096921,2096921, 311256, 456533
2096921,2096921, 311293, 456703
2096921,2096921, 311374, 456934
2096921,2096921, 311707, 457178
2096921,2096921, 311504, 456805
2096921,2096921, 311306, 456819
2096921,2096921, 311472, 456914
2096921,2096921, 311771, 457255
2096921,2096921, 311906, 457129
2096921,2096921, 312076, 457081
2096921,2096921, 312102, 457132
2096921,2096921, 311891, 457344
2096921,2096921, 312227, 457394
2096921,2096921, 311967, 457532
2096921,2096921, 312349, 457536
2096921,2096921, 312213, 457470
2096921,2096921, 312273, 457457
2096921,2096921, 312461, 458095
2096921,2096921, 312332, 458163
2096921,2096921, 312239, 457754
2096921,2096921, 312290, 457762
2096921,2096921, 312512, 457877
2096921,2096921, 312419, 457672
2096921,2096921, 312656, 457815
2096921,2096921, 312365, 458028
2096921,2096921, 312658, 458056
2096921,2096921, 312587, 458160
2096921,2096921, 312797, 458467
2096921,2096921, 312798, 458325
2096921,2096921, 312776, 458471
2096921,2096921, 312410, 458454
2096921,2096921, 312777, 458241
2096921,2096921, 313096, 458174
2096921,2096921, 312777, 458375
2096921,2096921, 312804, 458507
2096921,2096921, 312935, 458678
2096921,2096921, 313309, 458706
2096921,2096921, 313407, 458970
2096921,2096921, 313163, 458845
2096921,2096921, 313212, 458971
2096921,2096921, 313320, 459069
2096921,2096921, 313504, 459039
2096921,2096921, 313684, 459383
2096921,2096921, 313314, 459039
2096921,2096921, 313101, 459164
2096921,2096921, 313173, 459339
2096921,2096921, 313435, 459237
2096921,2096921, 313665, 459301
2096921,2096921, 313468, 459529
2096921,2096921, 313692, 459552
2096921,2096921, 313399, 459800
2096921,2096921, 313608, 459279
2096921,2096921, 313767, 459802
2096921,2096921, 313975, 459623
2096921,2096921, 313848, 459720
2096921,2096921, 313670, 459734
2096921,2096921, 313973, 459865
2096921,2096921, 314139, 459787
2096921,2096921, 313913, 460008
2096921,2096921, 313748, 459916
2096921,2096921, 313711, 459741
2096921,2096921, 314005, 459835
2096921,2096921, 314019, 459920
2096921,2096921, 313959, 460153
2096921,2096921, 314216, 460228
2096921,2096921, 314047, 459842
2096921,2096921, 314498, 460104
2096921,2096921, 314275, 460222
2096921,2096921, 314534, 460450
2096921,2096921, 314134, 460437
2096921,2096921, 314110, 459946
2096921,2096921, 314182, 460389
2096921,2096921, 314685, 460882
2096921,2096921, 314586, 460794
2096921,2096921, 314357, 460690
2096921,2096921, 314160, 460763
2096921,2096921, 314625, 460775
2096921,2096921, 314528, 460939
2096921,2096921, 314754, 461008
2096921,2096921, 314573, 460769
2096921,2096921, 314721, 460527
2096921,2096921, 314719, 460851
2096921,2096921, 314799, 461558
2096921,2096921, 314880, 461143
2096921,2096921, 314892, 461085
2096921,2096921, 314908, 461220
2096921,2096921, 315082, 461006
2096921,2096921, 315346, 461137
2096921,2096921, 315050, 461247
2096921,2096921, 315024, 461159
2096921,2096921, 314950, 461168
2096921,2096921, 315049, 460966
2096921,2096921, 314857, 461408
2096921,2096921, 315044, 461705
2096921,2096921, 315413, 461591
2096921,2096921, 315112, 461667
2096921,2096921, 315257, 461585
2096921,2096921, 315454, 461628
2096921,2096921, 315398, 461809
2096921,2096921, 315141, 461713
2096921,2096921, 315066, 461737
2096921,2096921, 315319, 461939
2096921,2096921, 315652, 461743
2096921,2096921, 315172, 462089
2096921,2096921, 315343, 461838
2096921,2096921, 315396, 462140
2096921,2096921, 315544, 461879
2096921,2096921, 315619, 462255
2096921,2096921, 315415, 462056
2096921,2096921, 315589, 462022
2096921,2096921, 315435, 461831
2096921,2096921, 315179, 462088
2096921,2096921, 315415, 461787
2096921,2096921, 315619, 461940
2096921,2096921, 315743, 461885
2096921,2096921, 316026, 462134
2096921,2096921, 315564, 462011
2096921,2096921, 315717, 462257
2096921,2096921, 315736, 462322
2096921,2096921, 315814, 462171
2096921,2096921, 315626, 462292
2096921,2096921, 315462, 462243
2096921,2096921, 315542, 462348
2096921,2096921, 315713, 462419
2096921,2096921, 315607, 462208
2096921,2096921, 315656, 462221
2096921,2096921, 315724, 462588
2096921,2096921, 316249, 462694
2096921,2096921, 315970, 462476
2096921,2096921, 315922, 462445
2096921,2096921, 315852, 462390
2096921,2096921, 316173, 462403
2096921,2096921, 315829, 462445
2096921,2096921, 315709, 462526
2096921,2096921, 315980, 462756
2096921,2096921, 315995, 462639
2096921,2096921, 315869, 462838
2096921,2096921, 316058, 462780
2096921,2096921, 315681, 462707
2096921,2096921, 315910, 462684
2096921,2096921, 315713, 462602
2096921,2096921, 315729, 462680
2096921,2096921, 315869, 462437
2096921,2096921, 316131, 462464
2096921,2096921, 316097, 462654
2096921,2096921, 315934, 462863
2096921,2096921, 316158, 463045
2096921,2096921, 316276, 463059
2096921,2096921, 316137, 463072
2096921,2096921, 315976, 462765
2096921,2096921, 316025, 462694
2096921,2096921, 316195, 462898
2096921,2096921, 316449, 462976
2096921,2096921, 316236, 463224
2096921,2096921, 316279, 463238
2096921,2096921, 316262, 463120
2096921,2096921, 316317, 463326
2096921,2096921, 316616, 463271
2096921,2096921, 316421, 463165
2096921,2096921, 316326, 463077
2096921,2096921, 316495, 462844
2096921,2096921, 316260, 462922
2096921,2096921, 316455, 462897
2096921,2096921, 316556, 463035
2096921,2096921, 316530, 463304
2096921,2096921, 316401, 463267
2096921,2096921, 316292, 463035
2096921,2096921, 315812, 462528
2096921,2096921, 316063, 462858
2096921,2096921, 315914, 462880
2096921,2096921, 316090, 462484
2096921,2096921, 315687, 462706
2096921,2096921, 315637, 462670
2096921,2096921, 315448, 462270
2096921,2096921, 315832, 462308
2096921,2096921, 315801, 462305
2096921,2096921, 315354, 462554
2096921,2096921, 315210, 462106
2096921,2096921, 315300, 461906
2096921,2096921, 315221, 461807
2096921,2096921, 315077, 461658
2096921,2096921, 314710, 461954
2096921,2096921, 314538, 461142
2096921,2096921, 314514, 461170
2096921,2096921, 314356, 460842
2096921,2096921, 314667, 460934
2096921,2096921, 314210, 460970
2096921,2096921, 313697, 460439
2096921,2096921, 313476, 460315
2096921,2096921, 313314, 460175
2096921,2096921, 313448, 459852
2096921,2096921, 312653, 460283
2096921,2096921, 311814, 458391
2096921,2096921, 311871, 458235
2096921,2096921, 311866, 458168
2096921,2096921, 311768, 458277
2096921,2096921, 310743, 458118
2096921,2096921, 309712, 456122
2096921,2096921, 309442, 455429
2096921,2096921, 309550, 455720
2096921,2096921, 309216, 455338
2096921,2096921, 308227, 455312
2096921,2096921, 307631, 453800
2096921,2096921, 307633, 453653
2096921,2096921, 307453, 453344
2096921,2096921, 307434, 453546
2096921,2096921, 306983, 453402
2096921,2096921, 306400, 452329
2096921,2096921, 305967, 452013
2096921,2096921, 306284, 451881
2096921,2096921, 306251, 451847
2096921,2096921, 305872, 451999
2096921,2096921, 305088, 451027
2096921,2096921, 305278, 450884
2096921,2096921, 305083, 450915
2096921,2096921, 305566, 451079
2096921,2096921, 304958, 450989
2096921,2096921, 304583, 450180
2096921,2096921, 304594, 449932
2096921,2096921, 304668, 450121
2096921,2096921, 304551, 450082
2096921,2096921, 304446, 450442
2096921,2096921, 304139, 450125
2096921,2096921, 304177, 449983
2096921,2096921, 304290, 449890
2096921,2096921, 304167, 449956
2096921,2096921, 304063, 449813
2096921,2096921, 303883, 449295
2096921,2096921, 303632, 449386
2096921,2096921, 303608, 449338
2096921,2096921, 303556, 449299
2096921,2096921, 303670, 449125
2096921,2096921, 303624, 448807
2096921,2096921, 303521, 449216
2096921,2096921, 303479, 449432
2096921,2096921, 303659, 449028
2096921,2096921, 303671, 449260
2096921,2096921, 303764, 449284
2096921,2096921, 303827, 449204
2096921,2096921, 303943, 449013
2096921,2096921, 303648, 449071
2096921,2096921, 303687, 448987
2096921,2096921, 303949, 449213
2096921,2096921, 303877, 449233
2096921,2096921, 303670, 449301
2096921,2096921, 303908, 449575
2096921,2096921, 304212, 449587
2096921,2096921, 303947, 449627
2096921,2096921, 303869, 449608
2096921,2096921, 303891, 449546
2096921,2096921, 303746, 449516
2096921,2096921, 304164, 449781
2096921,2096921, 304127, 449622
2096921,2096921, 303977, 449575
2096921,2096921, 304340, 449556
2096921,2096921, 304076, 449790
2096921,2096921, 304459, 449621
2096921,2096921, 304448, 450211
2096921,2096921, 304477, 450280
2096921,2096921, 304255, 449923
2096921,2096921, 304717, 449812
2096921,2096921, 304653, 450103
2096921,2096921, 304847, 450220
2096921,2096921, 304712, 450445
2096921,2096921, 304795, 450588
2096921,2096921, 304754, 450583
2096921,2096921, 304768, 451044
2096921,2096921, 304856, 451090
2096921,2096921, 305181, 451040
2096921,2096921, 305102, 451053
2096921,2096921, 305187, 450867
2096921,2096921, 305487, 451091
2096921,2096921, 305665, 451307
2096921,2096921, 305667, 451379
2096921,2096921, 305737, 451430
2096921,2096921, 305906, 451729
2096921,2096921, 306111, 451657
2096921,2096921, 306186, 452097
2096921,2096921, 305989, 452129
2096921,2096921, 306093, 452098
2096921,2096921, 306138, 451736
2096921,2096921, 306353, 452133
2096921,2096921, 306183, 452253
2096921,2096921, 306743, 452283
2096921,2096921, 306647, 452357
2096921,2096921, 306587, 452723
2096921,2096921, 306761, 452654
2096921,2096921, 306881, 453277
2096921,2096921, 307083, 452814
2096921,2096921, 306963, 452816
2096921,2096921, 306989, 452695
2096921,2096921, 307272, 452939
2096921,2096921, 307526, 453502
2096921,2096921, 307477, 453244
2096921,2096921, 307638, 453297
2096921,2096921, 307543, 453157
2096921,2096921, 307733, 452994
2096921,2096921, 307854, 453676
2096921,2096921, 307739, 454110
2096921,2096921, 307958, 453812
2096921,2096921, 307827, 453653
2096921,2096921, 307876, 453663
2096921,2096921, 307786, 454038
2096921,2096921, 308285, 454328
2096921,2096921, 308235, 454471
2096921,2096921, 308459, 454283
2096921,2096921, 308465, 454164
2096921,2096921, 308706, 454443
2096921,2096921, 308643, 454829
2096921,2096921, 308739, 454611
2096921,2096921, 308405, 454705
2096921,2096921, 308388, 454537
2096921,2096921, 308815, 454793
2096921,2096921, 308958, 454857
2096921,2096921, 309036, 454740
2096921,2096921, 309183, 455006
2096921,2096921, 309093, 454944
2096921,2096921, 309170, 455512
2096921,2096921, 309113, 455780
2096921,2096921, 309341, 455463
2096921,2096921, 308965, 455590
2096921,2096921, 309231, 455379
2096921,2096921, 309595, 455616
2096921,2096921, 309713, 455767
2096921,2096921, 309450, 455542
2096921,2096921, 309771, 456210
2096921,2096921, 310023, 456190
2096921,2096921, 310173, 455987
2096921,2096921, 309989, 456212
2096921,2096921, 309723, 456159
2096921,2096921, 309678, 456133
2096921,2096921, 310035, 455932
2096921,2096921, 310025, 456257
2096921,2096921, 309974, 456237
2096921,2096921, 310067, 456515
2096921,2096921, 310135, 456464
2096921,2096921, 310078, 456430
2096921,2096921, 310216, 456253
2096921,2096921, 310113, 456195
2096921,2096921, 310031, 456247
2096921,2096921, 309960, 456367
2096921,2096921, 309986, 456225
2096921,2096921, 310022, 456364
2096921,2096921, 310146, 456329
2096921,2096921, 310480, 456306
2096921,2096921, 310184, 456511
2096921,2096921, 310293, 456699
2096921,2096921, 310328, 456671
2096921,2096921, 310424, 456494
2096921,2096921, 310019, 456244
2096921,2096921, 310234, 456276
2096921,2096921, 310072, 456212
2096921,2096921, 309864, 456315
2096921,2096921, 309952, 456282
2096921,2096921, 310148, 456431
2096921,2096921, 310132, 456531
2096921,2096921, 310227, 456234
2096921,2096921, 310112, 455978
2096921,2096921, 309868, 456024
2096921,2096921, 309655, 456126
2096921,2096921, 309777, 456061
2096921,2096921, 309539, 455940
2096921,2096921, 309674, 455992
2096921,2096921, 309591, 455956
2096921,2096921, 309684, 455656
2096921,2096921, 310095, 455939
2096921,2096921, 309878, 455887
2096921,2096921, 309821, 456000
2096921,2096921, 309668, 455775
2096921,2096921, 309585, 455763
2096921,2096921, 309547, 455794
2096921,2096921, 309160, 455418
2096921,2096921, 309327, 455576
2096921,2096921, 309201, 455580
2096921,2096921, 309297, 455642
2096921,2096921, 309488, 455774
2096921,2096921, 309660, 455642
2096921,2096921, 309606, 455934
2096921,2096921, 309722, 455576
2096921,2096921, 309371, 455600
2096921,2096921, 309381, 455576
2096921,2096921, 309214, 455547
2096921,2096921, 309621, 455456
2096921,2096921, 309252, 455822
2096921,2096921, 309753, 455975
2096921,2096921, 309873, 455666
2096921,2096921, 309606, 455816
2096921,2096921, 309482, 455920
2096921,2096921, 309783, 455842
2096921,2096921, 309772, 455711
2096921,2096921, 309693, 455620
2096921,2096921, 309890, 455565
2096921,2096921, 309780, 455530
2096921,2096921, 309844, 455807
2096921,2096921, 309621, 455972
2096921,2096921, 309740, 455794
2096921,2096921, 309914, 456004
2096921,2096921, 309834, 456069
2096921,2096921, 309612, 456127
2096921,2096921, 309781, 456127
2096921,2096921, 309552, 455978
2096921,2096921, 309798, 455832
2096921,2096921, 310103, 456151
2096921,2096921, 310210, 455852
2096921,2096921, 309864, 456151
2096921,2096921, 310023, 456466
2096921,2096921, 310208, 456101
2096921,2096921, 310607, 456367
2096921,2096921, 310345, 456404
2096921,2096921, 310291, 456278
2096921,2096921, 310329, 456718
2096921,2096921, 310153, 456502
2096921,2096921, 310294, 456930
2096921,2096921, 310521, 456656
2096921,2096921, 310754, 457101
2096921,2096921, 310710, 457159
2096921,2096921, 310788, 457029
2096921,2096921, 310689, 457051
2096921,2096921, 310787, 457331
2096921,2096921, 310719, 456901
2096921,2096921, 310603, 457023
2096921,2096921, 310889, 456993
2096921,2096921, 311011, 457244
2096921,2096921, 310802, 457280
2096921,2096921, 311142, 457703
2096921,2096921, 310918, 457608
2096921,2096921, 311047, 457229
2096921,2096921, 310972, 457484
2096921,2096921, 311226, 457596
2096921,2096921, 311307, 457732
2096921,2096921, 311193, 457622
2096921,2096921, 311282, 457552
2096921,2096921, 311513, 457619
2096921,2096921, 311310, 457594
2096921,2096921, 311286, 457926
2096921,2096921, 311614, 457850
2096921,2096921, 311580, 457818
2096921,2096921, 311564, 458174
2096921,2096921, 311847, 458087
2096921,2096921, 311533, 458154
2096921,2096921, 311932, 457918
2096921,2096921, 311919, 458022
2096921,2096921, 311808, 458322
2096921,2096921, 311853, 458399
2096921,2096921, 312018, 458573
2096921,2096921, 311684, 458540
2096921,2096921, 312395, 458360
2096921,2096921, 312254, 458541
2096921,2096921, 312206, 458446
2096921,2096921, 312067, 458382
2096921,2096921, 311968, 458371
2096921,2096921, 312304, 458330
2096921,2096921, 312494, 458407
2096921,2096921, 312561, 458615
2096921,2096921, 312370, 458356
2096921,2096921, 312773, 458596
2096921,2096921, 312503, 458721
2096921,2096921, 312567, 458833
2096921,2096921, 312599, 458648
2096921,2096921, 312444, 458727
2096921,2096921, 312206, 458960
2096921,2096921, 312550, 459009
2096921,2096921, 312563, 458745
2096921,2096921, 312492, 459059
2096921,2096921, 312632, 458941
2096921,2096921, 312708, 459098
2096921,2096921, 312992, 458921
2096921,2096921, 312956, 459331
2096921,2096921, 312869, 459142
2096921,2096921, 312693, 459004
2096921,2096921, 312939, 458829
2096921,2096921, 312920, 458972
2096921,2096921, 313221, 458966
2096921,2096921, 313146, 459326
2096921,2096921, 313224, 459121
2096921,2096921, 313127, 459360
2096921,2096921, 313264, 459187
2096921,2096921, 313139, 459145
2096921,2096921, 313077, 459349
2096921,2096921, 312743, 459183
2096921,2096921, 312929, 459382
2096921,2096921, 313048, 459485
2096921,2096921, 312915, 459527
2096921,2096921, 312999, 459305
2096921,2096921, 312929, 459554
2096921,2096921, 313038, 459497
2096921,2096921, 313127, 459575
2096921,2096921, 313716, 459724
2096921,2096921, 313486, 459746
2096921,2096921, 313356, 459565
2096921,2096921, 313285, 459497
2096921,2096921, 313149, 459542
2096921,2096921, 313299, 459784
2096921,2096921, 313392, 459551
2096921,2096921, 313530, 459463
2096921,2096921, 313706, 460025
2096921,2096921, 313581, 459847
2096921,2096921, 313419, 459705
2096921,2096921, 313472, 459894
2096921,2096921, 313619, 460104
2096921,2096921, 313542, 460190
2096921,2096921, 313399, 459803
2096921,2096921, 313470, 459507
2096921,2096921, 313523, 460026
2096921,2096921, 313553, 460045
2096921,2096921, 313611, 459747
2096921,2096921, 314107, 460044
2096921,2096921, 313988, 460201
2096921,2096921, 313826, 460202
2096921,2096921, 313579, 460215
2096921,2096921, 313633, 460065
2096921,2096921, 314033, 459752
2096921,2096921, 314137, 460109
2096921,2096921, 313741, 459994
2096921,2096921, 314069, 459783
2096921,2096921, 313754, 459984
2096921,2096921, 313839, 459955
2096921,2096921, 314030, 460148
2096921,2096921, 313731, 460133
2096921,2096921, 313840, 460250
2096921,2096921, 314121, 459760
2096921,2096921, 313864, 459983
2096921,2096921, 314028, 459930
2096921,2096921, 314100, 460015
2096921,2096921, 314108, 460192
2096921,2096921, 314140, 460177
2096921,2096921, 314081, 460135
2096921,2096921, 313839, 460184
2096921,2096921, 313721, 460071
2096921,2096921, 313774, 460099
2096921,2096921, 313995, 460096
2096921,2096921, 313936, 459982
2096921,2096921, 313899, 459829
2096921,2096921, 313828, 460115
2096921,2096921, 313885, 460099
2096921,2096921, 314145, 460187
2096921,2096921, 314092, 460094
2096921,2096921, 313934, 459998
2096921,2096921, 313780, 460223
2096921,2096921, 313691, 460103
2096921,2096921, 313725, 459944
2096921,2096921, 313803, 460119
2096921,2096921, 313842, 460326
2096921,2096921, 313893, 459708
2096921,2096921, 313885, 459938
2096921,2096921, 313953, 459942
2096921,2096921, 314122, 460031
2096921,2096921, 313938, 460124
2096921,2096921, 313724, 459975
2096921,2096921, 313769, 460280
2096921,2096921, 313854, 459974
2096921,2096921, 313814, 459919
2096921,2096921, 313921, 459785
2096921,2096921, 313878, 460074
2096921,2096921, 313960, 460058
2096921,2096921, 314146, 460065
2096921,2096921, 314269, 459890
2096921,2096921, 313757, 460136
2096921,2096921, 313726, 459946
2096921,2096921, 313852, 459942
2096921,2096921, 313951, 459711
2096921,2096921, 313954, 459886
2096921,2096921, 314005, 459698
2096921,2096921, 313893, 459742
2096921,2096921, 313787, 459732
2096921,2096921, 314075, 459993
2096921,2096921, 314019, 459854
2096921,2096921, 314006, 459744
2096921,2096921, 313826, 459644
2096921,2096921, 313944, 459705
2096921,2096921, 313976, 459800
2096921,2096921, 314108, 459554
2096921,2096921, 313793, 460045
2096921,2096921, 313892, 459717
2096921,2096921, 313958, 459981
2096921,2096921, 314037, 459810
2096921,2096921, 314108, 459801
2096921,2096921, 313992, 459589
2096921,2096921, 313920, 459680
2096921,2096921, 313890, 459439
2096921,2096921, 313967, 459592
2096921,2096921, 313850, 459418
2096921,2096921, 313861, 459704
2096921,2096921, 314061, 459678
2096921,2096921, 313968, 459931
2096921,2096921, 314159, 459813
2096921,2096921, 314207, 459858
2096921,2096921, 314075, 459733
2096921,2096921, 314172, 459738
2096921,2096921, 313770, 459522
2096921,2096921, 313666, 459286
2096921,2096921, 313721, 459452
2096921,2096921, 313661, 459366
2096921,2096921, 314043, 459471
2096921,2096921, 313924, 459626
2096921,2096921, 313819, 459779
2096921,2096921, 313937, 459627
2096921,2096921, 313894, 459486
2096921,2096921, 314002, 459592
2096921,2096921, 313620, 459474
2096921,2096921, 313660, 459378
2096921,2096921, 313681, 459241
2096921,2096921, 313467, 459579
2096921,2096921, 313696, 459225
2096921,2096921, 313698, 459524
2096921,2096921, 313924, 459268
2096921,2096921, 313849, 459534
2096921,2096921, 313783, 459132
2096921,2096921, 313674, 459194
2096921,2096921, 313502, 458896
2096921,2096921, 313739, 459187
2096921,2096921, 313287, 459157
2096921,2096921, 313670, 459223
2096921,2096921, 313615, 459108
2096921,2096921, 313220, 459088
2096921,2096921, 313497, 459192
2096921,2096921, 313715, 459349
2096921,2096921, 313553, 459080
2096921,2096921, 313369, 459124
2096921,2096921, 313091, 458796
2096921,2096921, 313254, 458934
2096921,2096921, 313278, 458814
2096921,2096921, 313307, 459007
2096921,2096921, 313291, 458981
2096921,2096921, 313609, 458782
2096921,2096921, 313603, 459028
2096921,2096921, 313648, 459148
2096921,2096921, 313554, 459073
2096921,2096921, 313386, 458770
2096921,2096921, 313252, 458649
2096921,2096921, 313413, 458736
2096921,2096921, 313197, 458234
2096921,2096921, 313089, 458459
2096921,2096921, 313072, 458515
2096921,2096921, 312762, 458360
2096921,2096921, 313158, 458521
2096921,2096921, 313248, 458329
2096921,2096921, 312991, 458334
2096921,2096921, 312799, 458133
2096921,2096921, 312811, 458480
2096921,2096921, 312896, 458038
2096921,2096921, 312967, 458319
2096921,2096921, 312749, 457890
2096921,2096921, 313116, 458055
2096921,2096921, 312961, 458237
2096921,2096921, 313031, 457891
2096921,2096921, 312973, 457960
2096921,2096921, 312982, 457931
2096921,2096921, 312840, 457863
2096921,2096921, 312595, 458043
2096921,2096921, 312726, 457913
2096921,2096921, 312626, 457846
2096921,2096921, 312484, 457595
2096921,2096921, 312700, 457604
2096921,2096921, 312685, 457731
2096921,2096921, 312672, 457763
2096921,2096921, 312776, 457571
2096921,2096921, 312541, 457660
2096921,2096921, 312648, 457728
2096921,2096921, 312360, 457601
2096921,2096921, 312587, 457421
2096921,2096921, 312385, 457485
2096921,2096921, 312178, 457367
2096921,2096921, 312350, 457311
2096921,2096921, 312321, 457257
2096921,2096921, 312254, 457532
2096921,2096921, 311981, 457516
2096921,2096921, 311826, 456589
2096921,2096921, 311878, 456702
2096921,2096921, 311938, 456648
2096921,2096921, 311809, 456726
2096921,2096921, 311913, 456833
2096921,2096921, 311348, 456459
2096921,2096921, 311398, 456270
2096921,2096921, 311199, 456098
2096921,2096921, 311608, 455846
2096921,2096921, 310732, 456220
2096921,2096921, 310979, 455555
2096921,2096921, 310773, 455472
2096921,2096921, 310626, 455221
2096921,2096921, 310520, 455248
2096921,2096921, 310104, 455186
2096921,2096921, 309838, 454581
2096921,2096921, 310228, 454417
2096921,2096921, 309798, 454336
2096921,2096921, 310255, 454245
2096921,2096921, 309672, 454601
2096921,2096921, 308649, 453797
2096921,2096921, 308862, 453556
2096921,2096921, 308844, 453057
2096921,2096921, 308681, 453242
2096921,2096921, 307593, 453267
2096921,2096921, 306998, 451701
2096921,2096921, 306924, 451133
2096921,2096921, 307036, 451350
2096921,2096921, 306978, 450788
2096921,2096921, 305767, 450944
2096921,2096921, 304470, 448847
2096921,2096921, 304305, 448372
2096921,2096921, 304098, 448214
2096921,2096921, 304399, 447962
2096921,2096921, 303493, 448237
2096921,2096921, 302624, 446308
2096921,2096921, 302583, 446427
2096921,2096921, 302624, 446242
2096921,2096921, 302519, 446161
2096921,2096921, 301794, 445966
2096921,2096921, 301158, 444845
2096921,2096921, 301105, 444849
2096921,2096921, 301052, 444505
2096921,2096921, 301286, 444635
2096921,2096921, 300579, 444623
2096921,2096921, 300206, 443803
2096921,2096921, 299927, 443520
2096921,2096921, 300294, 443247
2096921,2096921, 299956, 443321
2096921,2096921, 299712, 443466
2096921,2096921, 299591, 442415
2096921,2096921, 299119, 442357
2096921,2096921, 299016, 442519
2096921,2096921, 299126, 442299
2096921,2096921, 298758, 442696
2096921,2096921, 298569, 441920
2096921,2096921, 298550, 441875
2096921,2096921, 298706, 441760
2096921,2096921, 298659, 441963
2096921,2096921, 298314, 441765
2096921,2096921, 298421, 441557
2096921,2096921, 298265, 441214
2096921,2096921, 297868, 441240
2096921,2096921, 297936, 441034
2096921,2096921, 297820, 441275
2096921,2096921, 297797, 440525
2096921,2096921, 298025, 440736
2096921,2096921, 298053, 440866
2096921,2096921, 297750, 440956
2096921,2096921, 297963, 440867
2096921,2096921, 297814, 440590
2096921,2096921, 297592, 440502
2096921,2096921, 297673, 440649
2096921,2096921, 297593, 440659
2096921,2096921, 297717, 440538
2096921,2096921, 297872, 440169
2096921,2096921, 298020, 440622
2096921,2096921, 297873, 440582
2096921,2096921, 298088, 440636
2096921,2096921, 298178, 440686
2096921,2096921, 298062, 440812
2096921,2096921, 297828, 440881
2096921,2096921, 297955, 440755
2096921,2096921, 297621, 440414
2096921,2096921, 297930, 440460
2096921,2096921, 297977, 440362
2096921,2096921, 297776, 440656
2096921,2096921, 297589, 440583
2096921,2096921, 298103, 440828
2096921,2096921, 298485, 440329
2096921,2096921, 297969, 441051
2096921,2096921, 298039, 440941
2096921,2096921, 298060, 440710
2096921,2096921, 297970, 440961
2096921,2096921, 298522, 440853
2096921,2096921, 298444, 440905
2096921,2096921, 298630, 441088
2096921,2096921, 298314, 441223
2096921,2096921, 298440, 441273
2096921,2096921, 298552, 441100
2096921,2096921, 298511, 441526
2096921,2096921, 298818, 441357
2096921,2096921, 298365, 441082
2096921,2096921, 298644, 441548
2096921,2096921, 298628, 441395
2096921,2096921, 298807, 441840
2096921,2096921, 298937, 441679
2096921,2096921, 298903, 441306
2096921,2096921, 298952, 441743
2096921,2096921, 299107, 441665
2096921,2096921, 299228, 442081
2096921,2096921, 299325, 442144
2096921,2096921, 299276, 441822
2096921,2096921, 299441, 442134
2096921,2096921, 299254, 441885
2096921,2096921, 299590, 442280
2096921,2096921, 299847, 441958
2096921,2096921, 299816, 442492
2096921,2096921, 299842, 442338
2096921,2096921, 300190, 442784
2096921,2096921, 300112, 442739
2096921,2096921, 299731, 442778
2096921,2096921, 299841, 442439
2096921,2096921, 299918, 442579
2096921,2096921, 299781, 442297
2096921,2096921, 300279, 442903
2096921,2096921, 300220, 442654
2096921,2096921, 300474, 442709
2096921,2096921, 299910, 442980
2096921,2096921, 300425, 442965
2096921,2096921, 300508, 443199
2096921,2096921, 300506, 443092
2096921,2096921, 300118, 442993
2096921,2096921, 300379, 443166
2096921,2096921, 300634, 443032
2096921,2096921, 300848, 443128
2096921,2096921, 300878, 443230
2096921,2096921, 300870, 443666
2096921,2096921, 300769, 443691
2096921,2096921, 301082, 443353
2096921,2096921, 301097, 443551
2096921,2096921, 301187, 443670
2096921,2096921, 300941, 443839
2096921,2096921, 300928, 443827
2096921,2096921, 300980, 443728
2096921,2096921, 301289, 443988
2096921,2096921, 301500, 444166
2096921,2096921, 301414, 444055
2096921,2096921, 301441, 444381
2096921,2096921, 301565, 444063
2096921,2096921, 301538, 444558
2096921,2096921, 301828, 444348
2096921,2096921, 301826, 444309
2096921,2096921, 301731, 444549
2096921,2096921, 301643, 444548
2096921,2096921, 301904, 444662
2096921,2096921, 301791, 444645
2096921,2096921, 302021, 444645
2096921,2096921, 301824, 444604
2096921,2096921, 302161, 444885
2096921,2096921, 301999, 444960
2096921,2096921, 301847, 444909
2096921,2096921, 301941, 444685
2096921,2096921, 301759, 444663
2096921,2096921, 301807, 444507
2096921,2096921, 302076, 444648
2096921,2096921, 302098, 444706
2096921,2096921, 302131, 444483
2096921,2096921, 301975, 444694
2096921,2096921, 302094, 444725
2096921,2096921, 302054, 444842
2096921,2096921, 302076, 444670
2096921,2096921, 302057, 444513
2096921,2096921, 302044, 444659
2096921,2096921, 302066, 444752
2096921,2096921, 302016, 444557
2096921,2096921, 302199, 444598
2096921,2096921, 301776, 444634
2096921,2096921, 302196, 444629
2096921,2096921, 301862, 444570
2096921,2096921, 302009, 444417
2096921,2096921, 301934, 444516
2096921,2096921, 302142, 444643
2096921,2096921, 301990, 444463
2096921,2096921, 301785, 444396
2096921,2096921, 301639, 444274
2096921,2096921, 301807, 444423
2096921,2096921, 301563, 444501
2096921,2096921, 301603, 444220
2096921,2096921, 301596, 444252
2096921,2096921, 301718, 444180
2096921,2096921, 301656, 444252
2096921,2096921, 301683, 444044
2096921,2096921, 301593, 443711
2096921,2096921, 301393, 444106
2096921,2096921, 301365, 444195
2096921,2096921, 301297, 443994
2096921,2096921, 301307, 444004
2096921,2096921, 301571, 444026
2096921,2096921, 301460, 443907
2096921,2096921, 301420, 443354
2096921,2096921, 300939, 443425
2096921,2096921, 301002, 443359
2096921,2096921, 301130, 443219
2096921,2096921, 301065, 443121
2096921,2096921, 301326, 443131
2096921,2096921, 300873, 443119
2096921,2096921, 301116, 443633
2096921,2096921, 301059, 443536
2096921,2096921, 300956, 443365
2096921,2096921, 300717, 443186
2096921,2096921, 300548, 443474
2096921,2096921, 300500, 443082
2096921,2096921, 300438, 443221
2096921,2096921, 300605, 442968
2096921,2096921, 300677, 443096
2096921,2096921, 300712, 442878
2096921,2096921, 301048, 443004
2096921,2096921, 300806, 443005
2096921,2096921, 301013, 443326
2096921,2096921, 300935, 442882
2096921,2096921, 300902, 443089
2096921,2096921, 300533, 442897
2096921,2096921, 300701, 443042
2096921,2096921, 300798, 443093
2096921,2096921, 300799, 442983
2096921,2096921, 300961, 443116
2096921,2096921, 301119, 443003
2096921,2096921, 301086, 443367
2096921,2096921, 301081, 443101
2096921,2096921, 300886, 442991
2096921,2096921, 300834, 443117
2096921,2096921, 300766, 443058
2096921,2096921, 300635, 443264
2096921,2096921, 300804, 443050
2096921,2096921, 301255, 443537
2096921,2096921, 301098, 443450
2096921,2096921, 301179, 443331
2096921,2096921, 300961, 443032
2096921,2096921, 301348, 443382
2096921,2096921, 301404, 443814
2096921,2096921, 301396, 443773
2096921,2096921, 301193, 443678
2096921,2096921, 301455, 443371
2096921,2096921, 301421, 443648
2096921,2096921, 301491, 443904
2096921,2096921, 301669, 443708
2096921,2096921, 301615, 443719
2096921,2096921, 301655, 443749
2096921,2096921, 301806, 444030
2096921,2096921, 301779, 443923
2096921,2096921, 301803, 443904
2096921,2096921, 301853, 444157
2096921,2096921, 301403, 443651
2096921,2096921, 301918, 443898
2096921,2096921, 301623, 444146
2096921,2096921, 302021, 444292
2096921,2096921, 302120, 444196
2096921,2096921, 302150, 444040
2096921,2096921, 302320, 444205
2096921,2096921, 302503, 444614
2096921,2096921, 302088, 444624
2096921,2096921, 302203, 444641
2096921,2096921, 302230, 444467
2096921,2096921, 302451, 444404
2096921,2096921, 302435, 444645
2096921,2096921, 302739, 444680
2096921,2096921, 302437, 444571
2096921,2096921, 302668, 444790
2096921,2096921, 302539, 444685
2096921,2096921, 302793, 444898
2096921,2096921, 302725, 444584
2096921,2096921, 302494, 444822
2096921,2096921, 302373, 444738
2096921,2096921, 302649, 444668
2096921,2096921, 302745, 444879
2096921,2096921, 302774, 444933
2096921,2096921, 303265, 445082
2096921,2096921, 303039, 445214
2096921,2096921, 302938, 444976
2096921,2096921, 302726, 445300
2096921,2096921, 302975, 445495
2096921,2096921, 303036, 445480
2096921,2096921, 302686, 445086
2096921,2096921, 302957, 444864
2096921,2096921, 303071, 445540
2096921,2096921, 303219, 445516
2096921,2096921, 303125, 445626
2096921,2096921, 303167, 445583
2096921,2096921, 303468, 445666
2096921,2096921, 303259, 445841
2096921,2096921, 303305, 445928
2096921,2096921, 303426, 445606
2096921,2096921, 303570, 445591
2096921,2096921, 303066, 445400
2096921,2096921, 303399, 445924
2096921,2096921, 303487, 445657
2096921,2096921, 303671, 445702
2096921,2096921, 303698, 445882
2096921,2096921, 303727, 446091
2096921,2096921, 303923, 445982
2096921,2096921, 303792, 446314
2096921,2096921, 303741, 446049
2096921,2096921, 303794, 445864
2096921,2096921, 303673, 445957
2096921,2096921, 303816, 446372
2096921,2096921, 303801, 446372
2096921,2096921, 303837, 446631
2096921,2096921, 303896, 446282
2096921,2096921, 304079, 446194
2096921,2096921, 304006, 446765
2096921,2096921, 303881, 446552
2096921,2096921, 303988, 446471
2096921,2096921, 303961, 446117
2096921,2096921, 304122, 446176
2096921,2096921, 304566, 446492
2096921,2096921, 304262, 446576
2096921,2096921, 304304, 446757
2096921,2096921, 304438, 446806
2096921,2096921, 304483, 446766
2096921,2096921, 304451, 446918
2096921,2096921, 304505, 446718
2096921,2096921, 304561, 447096
2096921,2096921, 304303, 446890
2096921,2096921, 304627, 447101
2096921,2096921, 304660, 447040
2096921,2096921, 304966, 447052
2096921,2096921, 304857, 446855
2096921,2096921, 304585, 447201
2096921,2096921, 304913, 447223
2096921,2096921, 304929, 447251
2096921,2096921, 305075, 447257
2096921,2096921, 304839, 447132
2096921,2096921, 304631, 447064
2096921,2096921, 304938, 447441
2096921,2096921, 304926, 447237
2096921,2096921, 305157, 447598
2096921,2096921, 305194, 447533
2096921,2096921, 305208, 447617
2096921,2096921, 305149, 447536
2096921,2096921, 305268, 447765
2096921,2096921, 305343, 447669
2096921,2096921, 304954, 447581
2096921,2096921, 304993, 447245
2096921,2096921, 305102, 447459
2096921,2096921, 304982, 447381
2096921,2096921, 305153, 447659
2096921,2096921, 305253, 447662
2096921,2096921, 305391, 447782
2096921,2096921, 305582, 447864
2096921,2096921, 305527, 448093
2096921,2096921, 305513, 448157
2096921,2096921, 305611, 448014
2096921,2096921, 305762, 447841
2096921,2096921, 305597, 448025
2096921,2096921, 305585, 448140
2096921,2096921, 305559, 447829
2096921,2096921, 305501, 448130
2096921,2096921, 305717, 447990
2096921,2096921, 305719, 447990
2096921,2096921, 305915, 448166
2096921,2096921, 305684, 447953
2096921,2096921, 305511, 448287
2096921,2096921, 305757, 448417
2096921,2096921, 305681, 448267
2096921,2096921, 305737, 448370
2096921,2096921, 305722, 448369
2096921,2096921, 305715, 448391
2096921,2096921, 306146, 448240
2096921,2096921, 306332, 448684
2096921,2096921, 306056, 448911
2096921,2096921, 305858, 448345
2096921,2096921, 305817, 448398
2096921,2096921, 305676, 448370
2096921,2096921, 305754, 448242
2096921,2096921, 305956, 448329
2096921,2096921, 306109, 448823
2096921,2096921, 306033, 448406
2096921,2096921, 306068, 448613
2096921,2096921, 306041, 448672
2096921,2096921, 306020, 448703
2096921,2096921, 305820, 448556
2096921,2096921, 305983, 448666
2096921,2096921, 306179, 448661
2096921,2096921, 305910, 448255
2096921,2096921, 305985, 448534
2096921,2096921, 306058, 448356
2096921,2096921, 306318, 448803
2096921,2096921, 306369, 448696
2096921,2096921, 306106, 448841
2096921,2096921, 306171, 448557
2096921,2096921, 306230, 448884
2096921,2096921, 306229, 448671
2096921,2096921, 306113, 448798
2096921,2096921, 306119, 448707
2096921,2096921, 306622, 448933
2096921,2096921, 306057, 448991
2096921,2096921, 306387, 448724
2096921,2096921, 306288, 448917
2096921,2096921, 306452, 449026
2096921,2096921, 306398, 449037
2096921,2096921, 306563, 449207
2096921,2096921, 306795, 449003
2096921,2096921, 306677, 448955
2096921,2096921, 306530, 448886
2096921,2096921, 306479, 449002
2096921,2096921, 306631, 449187
2096921,2096921, 306756, 449241
2096921,2096921, 306626, 448941
2096921,2096921, 306709, 448963
2096921,2096921, 306559, 449090
2096921,2096921, 306566, 449067
2096921,2096921, 306354, 448976
2096921,2096921, 306451, 449027
2096921,2096921, 306685, 448875
2096921,2096921, 306715, 449191
2096921,2096921, 306705, 449312
2096921,2096921, 306667, 449196
2096921,2096921, 306803, 449140
2096921,2096921, 306827, 449429
2096921,2096921, 306635, 449224
2096921,2096921, 306845, 449104
2096921,2096921, 306500, 449298
2096921,2096921, 306549, 448918
2096921,2096921, 306456, 449090
2096921,2096921, 306755, 449434
2096921,2096921, 306832, 449260
2096921,2096921, 306666, 449199
2096921,2096921, 306569, 449368
2096921,2096921, 306649, 449549
2096921,2096921, 306738, 449572
2096921,2096921, 306452, 449301
2096921,2096921, 306732, 449568
2096921,2096921, 306901, 449370
2096921,2096921, 306951, 449614
2096921,2096921, 306946, 449537
2096921,2096921, 306755, 449554
2096921,2096921, 307060, 449570
2096921,2096921, 307233, 449842
2096921,2096921, 306991, 449691
2096921,2096921, 307235, 449697
2096921,2096921, 306935, 449427
2096921,2096921, 306854, 449672
2096921,2096921, 306974, 449481
2096921,2096921, 306849, 449406
2096921,2096921, 306900, 449479
2096921,2096921, 306952, 449513
2096921,2096921, 307049, 449572
2096921,2096921, 307063, 449654
2096921,2096921, 307120, 449648
2096921,2096921, 307143, 449538
2096921,2096921, 307047, 449268
2096921,2096921, 307083, 449535
2096921,2096921, 306752, 449552
2096921,2096921, 307065, 449464
2096921,2096921, 307015, 449550
2096921,2096921, 307218, 449705
2096921,2096921, 307233, 449676
2096921,2096921, 307433, 449843
2096921,2096921, 307011, 450089
2096921,2096921, 307159, 449752
2096921,2096921, 306884, 449640
2096921,2096921, 307318, 449500
2096921,2096921, 306967, 449565
2096921,2096921, 307134, 449569
2096921,2096921, 306785, 449381
2096921,2096921, 307201, 449432
2096921,2096921, 307246, 449767
2096921,2096921, 307179, 449775
2096921,2096921, 307150, 449642
2096921,2096921, 306906, 449659
2096921,2096921, 306920, 449465
2096921,2096921, 306847, 449381
2096921,2096921, 306991, 449524
2096921,2096921, 306829, 449734
2096921,2096921, 307071, 449642
2096921,2096921, 306856, 449497
2096921,2096921, 307330, 449831
2096921,2096921, 307104, 449492
2096921,2096921, 307154, 449737
2096921,2096921, 307166, 449496
2096921,2096921, 306871, 449683
2096921,2096921, 307041, 449695
2096921,2096921, 307048, 449579
2096921,2096921, 307042, 449671
2096921,2096921, 307100, 449582
2096921,2096921, 307129, 449765
2096921,2096921, 306859, 449726
2096921,2096921, 306894, 449797
2096921,2096921, 307028, 449760
2096921,2096921, 306986, 449744
2096921,2096921, 306641, 449801
2096921,2096921, 306750, 449441
2096921,2096921, 306946, 449678
2096921,2096921, 306848, 449734
2096921,2096921, 307371, 449748
2096921,2096921, 307334, 449668
2096921,2096921, 307251, 449923
2096921,2096921, 307347, 449930
2096921,2096921, 306905, 449594
2096921,2096921, 306467, 449282
2096921,2096921, 306717, 449724
2096921,2096921, 306609, 449402
2096921,2096921, 306508, 449098
2096921,2096921, 306297, 448977
2096921,2096921, 306326, 448814
2096921,2096921, 306109, 449033
2096921,2096921, 306399, 448971
2096921,2096921, 306585, 449293
2096921,2096921, 306243, 449142
2096921,2096921, 306122, 448684
2096921,2096921, 305962, 448510
2096921,2096921, 305795, 448374
2096921,2096921, 305870, 448421
2096921,2096921, 305346, 448334
2096921,2096921, 305099, 447913
2096921,2096921, 305165, 447912
2096921,2096921, 305175, 447831
2096921,2096921, 305047, 447809
2096921,2096921, 304999, 447458
2096921,2096921, 304546, 446684
2096921,2096921, 304309, 446520
2096921,2096921, 304373, 446689
2096921,2096921, 304106, 446688
2096921,2096921, 303577, 446835
2096921,2096921, 302788, 444950
2096921,2096921, 302539, 444614
2096921,2096921, 302526, 444759
2096921,2096921, 302339, 444700
2096921,2096921, 301279, 444808
2096921,2096921, 300636, 442711
2096921,2096921, 300346, 442289
2096921,2096921, 300347, 442114
2096921,2096921, 299857, 442077
2096921,2096921, 298980, 442155
2096921,2096921, 298783, 440580
2096921,2096921, 298631, 440268
2096921,2096921, 298818, 440449
2096921,2096921, 298600, 440489
2096921,2096921, 298150, 440517
2096921,2096921, 297523, 439470
2096921,2096921, 297059, 439327
2096921,2096921, 297140, 439060
2096921,2096921, 297251, 439050
2096921,2096921, 296617, 438927
2096921,2096921, 296229, 437832
2096921,2096921, 296729, 438005
2096921,2096921, 296300, 437758
2096921,2096921, 296161, 438008
2096921,2096921, 295998, 437943
2096921,2096921, 295803, 437459
2096921,2096921, 295580, 437138
2096921,2096921, 295954, 437281
2096921,2096921, 295526, 437152
2096921,2096921, 295461, 437051
2096921,2096921, 295392, 436625
2096921,2096921, 295638, 436823
2096921,2096921, 295249, 436779
2096921,2096921, 295274, 437001
2096921,2096921, 295325, 436970
2096921,2096921, 294847, 436570
2096921,2096921, 294933, 436466
2096921,2096921, 294891, 436618
2096921,2096921, 295017, 436542
2096921,2096921, 294979, 436174
2096921,2096921, 295056, 436425
2096921,2096921, 295044, 436631
2096921,2096921, 295021, 436806
2096921,2096921, 295209, 436661
2096921,2096921, 295287, 436615
2096921,2096921, 294906, 436511
2096921,2096921, 294928, 436666
2096921,2096921, 294996, 436558
2096921,2096921, 295022, 436720
2096921,2096921, 295013, 436603
2096921,2096921, 295104, 436644
2096921,2096921, 295241, 436970
2096921,2096921, 295735, 436683
2096921,2096921, 295527, 436855
2096921,2096921, 295403, 437111
2096921,2096921, 295293, 436983
2096921,2096921, 295388, 437292
2096921,2096921, 295114, 436761
2096921,2096921, 295258, 436938
2096921,2096921, 295207, 436858
2096921,2096921, 295673, 437215
2096921,2096921, 295888, 437527
2096921,2096921, 295885, 437339
2096921,2096921, 295746, 437301
2096921,2096921, 295632, 437408
2096921,2096921, 295835, 437801
2096921,2096921, 295867, 438195
2096921,2096921, 296095, 437887
2096921,2096921, 296242, 437798
2096921,2096921, 296228, 437821
2096921,2096921, 296426, 438068
2096921,2096921, 296409, 438445
2096921,2096921, 296565, 438229
2096921,2096921, 296775, 438431
2096921,2096921, 296744, 438526
2096921,2096921, 297094, 438723
2096921,2096921, 296899, 438946
2096921,2096921, 297131, 439074
2096921,2096921, 297089, 439239
2096921,2096921, 297418, 439101
2096921,2096921, 297328, 439487
2096921,2096921, 297100, 439603
2096921,2096921, 297526, 439493
2096921,2096921, 297596, 439589
2096921,2096921, 297766, 439810
2096921,2096921, 297936, 440108
2096921,2096921, 298246, 440161
2096921,2096921, 297939, 440326
2096921,2096921, 298235, 440028
2096921,2096921, 298313, 440079
2096921,2096921, 298310, 440316
2096921,2096921, 298428, 440952
2096921,2096921, 298383, 440667
2096921,2096921, 298447, 440933
2096921,2096921, 298641, 440698
2096921,2096921, 298700, 440860
2096921,2096921, 298625, 440875
2096921,2096921, 298721, 440995
2096921,2096921, 298581, 441122
2096921,2096921, 298918, 441176
2096921,2096921, 299437, 441428
2096921,2096921, 299333, 442000
2096921,2096921, 299385, 441797
2096921,2096921, 299355, 441756
2096921,2096921, 299435, 441642
2096921,2096921, 299638, 442267
2096921,2096921, 299924, 442148
2096921,2096921, 299767, 442223
2096921,2096921, 299419, 442367
2096921,2096921, 300055, 442615
2096921,2096921, 300462, 442722
2096921,2096921, 300354, 442925
2096921,2096921, 300413, 442948
2096921,2096921, 300617, 443118
2096921,2096921, 300863, 442944
2096921,2096921, 300910, 443617
2096921,2096921, 300943, 443610
2096921,2096921, 301033, 443561
2096921,2096921, 301124, 443683
2096921,2096921, 301440, 443287
2096921,2096921, 301475, 443882
2096921,2096921, 301667, 444244
2096921,2096921, 301728, 444240
2096921,2096921, 301488, 444379
2096921,2096921, 301468, 443902
2096921,2096921, 301671, 444322
2096921,2096921, 301702, 444704
2096921,2096921, 302126, 444594
2096921,2096921, 301864, 444642
2096921,2096921, 301763, 444709
2096921,2096921, 302059, 445077
2096921,2096921, 302043, 444867
2096921,2096921, 302234, 445444
2096921,2096921, 302349, 444901
2096921,2096921, 302190, 445345
2096921,2096921, 302455, 445523
2096921,2096921, 302384, 445358
2096921,2096921, 302784, 445141
2096921,2096921, 302660, 445373
2096921,2096921, 302463, 445387
2096921,2096921, 302904, 445721
2096921,2096921, 302886, 445988
2096921,2096921, 303032, 445818
2096921,2096921, 303109, 445985
2096921,2096921, 303203, 445923
2096921,2096921, 303198, 446020
2096921,2096921, 302935, 446201
2096921,2096921, 302847, 446118
2096921,2096921, 302772, 446158
2096921,2096921, 303053, 446105
2096921,2096921, 303339, 446266
2096921,2096921, 303419, 446451
2096921,2096921, 303470, 446278
2096921,2096921, 303401, 446182
2096921,2096921, 303385, 446432
2096921,2096921, 303273, 446426
2096921,2096921, 303269, 446550
2096921,2096921, 303275, 446487
2096921,2096921, 303416, 446522
2096921,2096921, 303286, 446579
2096921,2096921, 303461, 446654
2096921,2096921, 303146, 446539
2096921,2096921, 303395, 446478
2096921,2096921, 303140, 446517
2096921,2096921, 303644, 446785
2096921,2096921, 303189, 446801
2096921,2096921, 303160, 446206
2096921,2096921, 303396, 446547
2096921,2096921, 303461, 446424
2096921,2096921, 303234, 446565
2096921,2096921, 303178, 446485
2096921,2096921, 303519, 446633
2096921,2096921, 303463, 446579
2096921,2096921, 303432, 446980
2096921,2096921, 303443, 446612
2096921,2096921, 303292, 446555
2096921,2096921, 303021, 446755
2096921,2096921, 303185, 446931
2096921,2096921, 303180, 446394
2096921,2096921, 303287, 446379
2096921,2096921, 303295, 446696
2096921,2096921, 303332, 446662
2096921,2096921, 303517, 446782
2096921,2096921, 303219, 446907
2096921,2096921, 303177, 446941
2096921,2096921, 303315, 446960
2096921,2096921, 303118, 446647
2096921,2096921, 303177, 446853
2096921,2096921, 303341, 446628
2096921,2096921, 303484, 446432
2096921,2096921, 303473, 446407
2096921,2096921, 303545, 446651
2096921,2096921, 303672, 446713
2096921,2096921, 303550, 446996
2096921,2096921, 303502, 447161
2096921,2096921, 303463, 447216
2096921,2096921, 303499, 447068
2096921,2096921, 303481, 447005
2096921,2096921, 303773, 447148
2096921,2096921, 303624, 446674
2096921,2096921, 303897, 447061
2096921,2096921, 303653, 447200
2096921,2096921, 303760, 447455
2096921,2096921, 303904, 447187
2096921,2096921, 303898, 447199
2096921,2096921, 303740, 447478
2096921,2096921, 303854, 447751
2096921,2096921, 304073, 447604
2096921,2096921, 304102, 447586
2096921,2096921, 304332, 447438
2096921,2096921, 304192, 447791
2096921,2096921, 304399, 448141
2096921,2096921, 304299, 448424
2096921,2096921, 304517, 448293
2096921,2096921, 304819, 448164
2096921,2096921, 304908, 448611
2096921,2096921, 304709, 448739
2096921,2096921, 304899, 448598
2096921,2096921, 304934, 448633
2096921,2096921, 305068, 448344
2096921,2096921, 305165, 448755
2096921,2096921, 305370, 449035
2096921,2096921, 305331, 449488
2096921,2096921, 305526, 449234
2096921,2096921, 305335, 449262
2096921,2096921, 305879, 449393
2096921,2096921, 305732, 449704
2096921,2096921, 305716, 449576
2096921,2096921, 305531, 449415
2096921,2096921, 305768, 449486
2096921,2096921, 306104, 449866
2096921,2096921, 305999, 449907
2096921,2096921, 306082, 450108
2096921,2096921, 305994, 450165
2096921,2096921, 306095, 449916
2096921,2096921, 306300, 450237
2096921,2096921, 306222, 450597
2096921,2096921, 306096, 450552
2096921,2096921, 306208, 450684
2096921,2096921, 306195, 450357
2096921,2096921, 306951, 450920
2096921,2096921, 306929, 451002
2096921,2096921, 306849, 451094
2096921,2096921, 307153, 450746
2096921,2096921, 306949, 450966
2096921,2096921, 306788, 451397
2096921,2096921, 307046, 451207
2096921,2096921, 306762, 451138
2096921,2096921, 306975, 451234
2096921,2096921, 307120, 451542
2096921,2096921, 307412, 451760
2096921,2096921, 307474, 451639
2096921,2096921, 307629, 451637
2096921,2096921, 307494, 451674
2096921,2096921, 307853, 451740
2096921,2096921, 307659, 451830
2096921,2096921, 307723, 452212
2096921,2096921, 307565, 452276
2096921,2096921, 307795, 452299
2096921,2096921, 307698, 452407
2096921,2096921, 308009, 452565
2096921,2096921, 308106, 452490
2096921,2096921, 308192, 452806
2096921,2096921, 308041, 452792
2096921,2096921, 308383, 452903
2096921,2096921, 308357, 453189
2096921,2096921, 308535, 453184
2096921,2096921, 308424, 453201
2096921,2096921, 308475, 452800
2096921,2096921, 308622, 453166
2096921,2096921, 308981, 453592
2096921,2096921, 308657, 453601
2096921,2096921, 308803, 453406
2096921,2096921, 309070, 453703
2096921,2096921, 309157, 453580
2096921,2096921, 308942, 453814
2096921,2096921, 309236, 453819
2096921,2096921, 309093, 453698
2096921,2096921, 308816, 453970
2096921,2096921, 309175, 453891
2096921,2096921, 309255, 454030
2096921,2096921, 309464, 454149
2096921,2096921, 309516, 454272
2096921,2096921, 309561, 454257
2096921,2096921, 309747, 454440
2096921,2096921, 309870, 454807
2096921,2096921, 309806, 454690
2096921,2096921, 309843, 454764
2096921,2096921, 309909, 454900
2096921,2096921, 310213, 454631
2096921,2096921, 310150, 454792
2096921,2096921, 310138, 454977
2096921,2096921, 310083, 455074
2096921,2096921, 310154, 455428
2096921,2096921, 310053, 454971
2096921,2096921, 310088, 455415
2096921,2096921, 310145, 455368
2096921,2096921, 310405, 455522
2096921,2096921, 310576, 455511
2096921,2096921, 310734, 455536
2096921,2096921, 310583, 455359
2096921,2096921, 310581, 455648
2096921,2096921, 310450, 456153
2096921,2096921, 310876, 455933
2096921,2096921, 310955, 455725
2096921,2096921, 310953, 455895
2096921,2096921, 310745, 456056
2096921,2096921, 310886, 456184
2096921,2096921, 310752, 455992
2096921,2096921, 311161, 455931
2096921,2096921, 311185, 456649
2096921,2096921, 311442, 456771
2096921,2096921, 311132, 456743
2096921,2096921, 311419, 456715
2096921,2096921, 311566, 456639
2096921,2096921, 311454, 456586
2096921,2096921, 311329, 457059
2096921,2096921, 311182, 456655
2096921,2096921, 311475, 456583
2096921,2096921, 311634, 456569
2096921,2096921, 311670, 457301
2096921,2096921, 311982, 457217
2096921,2096921, 311880, 457425
2096921,2096921, 311721, 457509
2096921,2096921, 311733, 457507
2096921,2096921, 312011, 457306
2096921,2096921, 312097, 457432
2096921,2096921, 311916, 457269
2096921,2096921, 311808, 457442
2096921,2096921, 312192, 457431
2096921,2096921, 312496, 457635
2096921,2096921, 312557, 457577
2096921,2096921, 312557, 458131
2096921,2096921, 312284, 457889
2096921,2096921, 312281, 457993
2096921,2096921, 312873, 458148
2096921,2096921, 312508, 458136
2096921,2096921, 312429, 458141
2096921,2096921, 312501, 458273
2096921,2096921, 312305, 457930
2096921,2096921, 312906, 458252
2096921,2096921, 312884, 458501
2096921,2096921, 312562, 458585
2096921,2096921, 312524, 458548
2096921,2096921, 312802, 458560
2096921,2096921, 312927, 458637
2096921,2096921, 313012, 458629
2096921,2096921, 312820, 458799
2096921,2096921, 312740, 458598
2096921,2096921, 313070, 458786
2096921,2096921, 313144, 458910
2096921,2096921, 312872, 458731
2096921,2096921, 312991, 458969
2096921,2096921, 313081, 458923
2096921,2096921, 313303, 458918
2096921,2096921, 313328, 458982
2096921,2096921, 313373, 459022
2096921,2096921, 313296, 458989
2096921,2096921, 313213, 459118
2096921,2096921, 313646, 459333
2096921,2096921, 313340, 459042
2096921,2096921, 313715, 459233
2096921,2096921, 313633, 459243
2096921,2096921, 313536, 459074
2096921,2096921, 313662, 459410
2096921,2096921, 313635, 459813
2096921,2096921, 313885, 459660
2096921,2096921, 313494, 459595
2096921,2096921, 313630, 459542
2096921,2096921, 313824, 459775
2096921,2096921, 313834, 459659
2096921,2096921, 313856, 459890
2096921,2096921, 313830, 459756
2096921,2096921, 314143, 459745
2096921,2096921, 314297, 459610
2096921,2096921, 314016, 459997
2096921,2096921, 314061, 459794
2096921,2096921, 313996, 460132
2096921,2096921, 314027, 459881
2096921,2096921, 314040, 459801
2096921,2096921, 313841, 460093
2096921,2096921, 314132, 460288
2096921,2096921, 314364, 460105
2096921,2096921, 314418, 460444
2096921,2096921, 314305, 460440
2096921,2096921, 314183, 460404
2096921,2096921, 314224, 460399
2096921,2096921, 314463, 460350
2096921,2096921, 314198, 460739
2096921,2096921, 314445, 460399
2096921,2096921, 314496, 460706
2096921,2096921, 314757, 460859
2096921,2096921, 314599, 460868
2096921,2096921, 314789, 461005
2096921,2096921, 314783, 460918
2096921,2096921, 314764, 460946
2096921,2096921, 314552, 460935
2096921,2096921, 314540, 460975
2096921,2096921, 314403, 460873
2096921,2096921, 314966, 461081
2096921,2096921, 315032, 461156
2096921,2096921, 314981, 461514
2096921,2096921, 314858, 461356
2096921,2096921, 315048, 461024
2096921,2096921, 315295, 461342
2096921,2096921, 315269, 461670
2096921,2096921, 314951, 461697
2096921,2096921, 314968, 461611
2096921,2096921, 314920, 461583
2096921,2096921, 315135, 461356
2096921,2096921, 315020, 461459
2096921,2096921, 315169, 461525
2096921,2096921, 315175, 461515
2096921,2096921, 315085, 462004
2096921,2096921, 315385, 461940
2096921,2096921, 315620, 462063
2096921,2096921, 315285, 461902
2096921,2096921, 315368, 461784
2096921,2096921, 315309, 461877
2096921,2096921, 315273, 461762
2096921,2096921, 315685, 462011
2096921,2096921, 315459, 461831
2096921,2096921, 315946, 462267
2096921,2096921, 315422, 461937
2096921,2096921, 315699, 462103
2096921,2096921, 315378, 462210
2096921,2096921, 315523, 462138
2096921,2096921, 315681, 462033
2096921,2096921, 315619, 462106
2096921,2096921, 315645, 462493
2096921,2096921, 315925, 462240
2096921,2096921, 315693, 462211
2096921,2096921, 315924, 462235
2096921,2096921, 315875, 462431
2096921,2096921, 315941, 462393
2096921,2096921, 315631, 462418
2096921,2096921, 315694, 462259
2096921,2096921, 315375, 462217
2096921,2096921, 315917, 461931
2096921,2096921, 315786, 462155
2096921,2096921, 315898, 462363
2096921,2096921, 315742, 462402
2096921,2096921, 315900, 462661
2096921,2096921, 315995, 462655
2096921,2096921, 315961, 462423
2096921,2096921, 315785, 462357
2096921,2096921, 316012, 462271
2096921,2096921, 315675, 462446
2096921,2096921, 315753, 462719
2096921,2096921, 315799, 462556
2096921,2096921, 316151, 462604
2096921,2096921, 316071, 462667
2096921,2096921, 316103, 462858
2096921,2096921, 316065, 462712
2096921,2096921, 316194, 462962
2096921,2096921, 316152, 462884
2096921,2096921, 316101, 462742
2096921,2096921, 315866, 462776
2096921,2096921, 316034, 462568
2096921,2096921, 315958, 462455
2096921,2096921, 316165, 462643
2096921,2096921, 316220, 462874
2096921,2096921, 316063, 462843
2096921,2096921, 316179, 462907
2096921,2096921, 316118, 462732
2096921,2096921, 316019, 462985
2096921,2096921, 316189, 462952
2096921,2096921, 316272, 462977
2096921,2096921, 315978, 462668
2096921,2096921, 315986, 462759
2096921,2096921, 316186, 462839
2096921,2096921, 316185, 463128
2096921,2096921, 316107, 463144
2096921,2096921, 316292, 463293
2096921,2096921, 315824, 463088
2096921,2096921, 315504, 462647
2096921,2096921, 315967, 462488
2096921,2096921, 315813, 462320
2096921,2096921, 315640, 462361
2096921,2096921, 315511, 462280
2096921,2096921, 315547, 462014
2096921,2096921, 315716, 462109
2096921,2096921, 315903, 462160
2096921,2096921, 315459, 462498
2096921,2096921, 315525, 462507
2096921,2096921, 315311, 461923
2096921,2096921, 315062, 461546
2096921,2096921, 314950, 461431
2096921,2096921, 314711, 461451
2096921,2096921, 314504, 461466
2096921,2096921, 314107, 461037
2096921,2096921, 314427, 460928
2096921,2096921, 314296, 461007
2096921,2096921, 314323, 460943
2096921,2096921, 314010, 460913
2096921,2096921, 313510, 460144
2096921,2096921, 313428, 460032
2096921,2096921, 313618, 459964
2096921,2096921, 313363, 459769
2096921,2096921, 312456, 459721
2096921,2096921, 311525, 458560
2096921,2096921, 311691, 457951
2096921,2096921, 311689, 457877
2096921,2096921, 311542, 457783
2096921,2096921, 310176, 457787
2096921,2096921, 309583, 455864
2096921,2096921, 309144, 455498
2096921,2096921, 309104, 455027
2096921,2096921, 309040, 455235
2096921,2096921, 308320, 455347
2096921,2096921, 307711, 454161
2096921,2096921, 307692, 453837
2096921,2096921, 307549, 453391
2096921,2096921, 307553, 453369
2096921,2096921, 306887, 453476
2096921,2096921, 306460, 452245
2096921,2096921, 306165, 451770
2096921,2096921, 305791, 451571
2096921,2096921, 305954, 452096
2096921,2096921, 305516, 451895
2096921,2096921, 305142, 450988
2096921,2096921, 305015, 450748
2096921,2096921, 305066, 451073
2096921,2096921, 305087, 450947
2096921,2096921, 305044, 450879
2096921,2096921, 304866, 450077
2096921,2096921, 304612, 450014
2096921,2096921, 304307, 449968
2096921,2096921, 304526, 449910
2096921,2096921, 304006, 449925
2096921,2096921, 304107, 449398
2096921,2096921, 304011, 449483
2096921,2096921, 303982, 449666
2096921,2096921, 304143, 449599
2096921,2096921, 303819, 449487
2096921,2096921, 303890, 449424
2096921,2096921, 303560, 449287
2096921,2096921, 303257, 449197
2096921,2096921, 303690, 449361
2096921,2096921, 303503, 449183
2096921,2096921, 303544, 449277
2096921,2096921, 303484, 449245
2096921,2096921, 303503, 449340
2096921,2096921, 303703, 449176
2096921,2096921, 303844, 449198
2096921,2096921, 303593, 449562
2096921,2096921, 303722, 448823
2096921,2096921, 303547, 448944
2096921,2096921, 303588, 449016
2096921,2096921, 303562, 449263
2096921,2096921, 303663, 449013
