2096921,2096921,181306,604844,0
2096921,2096921,181111,605042,0
2096921,2096921,181135,605133,0
2096921,2096921,181366,605976,0
2096921,2096921,181410,605991,0
2096921,2096921,181392,606042,0
2096921,2096921,181039,605943,0
2096921,2096921,181216,605931,0
2096921,2096921,181313,606531,0
2096921,2096921,181423,606830,0
2096921,2096921,181444,606697,0
2096921,2096921,181569,606894,0
2096921,2096921,181778,606804,0
2096921,2096921,181907,607416,0
2096921,2096921,182025,607939,0
2096921,2096921,181950,607835,0
2096921,2096921,181909,607783,0
2096921,2096921,182242,607576,0
2096921,2096921,181962,608364,0
2096921,2096921,182102,608411,0
2096921,2096921,182169,608676,0
2096921,2096921,182320,608613,0
2096921,2096921,182459,608346,0
2096921,2096921,182229,609041,0
2096921,2096921,182215,609206,0
2096921,2096921,182419,609177,0
2096921,2096921,182557,609273,0
2096921,2096921,182494,609179,0
2096921,2096921,182513,609947,0
2096921,2096921,182359,610231,0
2096921,2096921,182671,610055,0
2096921,2096921,182519,610158,0
2096921,2096921,182831,610442,0
2096921,2096921,183090,610801,0
2096921,2096921,182862,611030,0
2096921,2096921,183038,610995,0
2096921,2096921,183154,610740,0
2096921,2096921,182997,611003,0
2096921,2096921,183094,611474,0
2096921,2096921,183296,611683,0
2096921,2096921,183229,611766,0
2096921,2096921,183195,611748,0
2096921,2096921,183252,611840,0
2096921,2096921,183410,612585,0
2096921,2096921,183213,612155,0
2096921,2096921,183323,612270,0
2096921,2096921,183410,612524,0
2096921,2096921,183567,612321,0
2096921,2096921,183652,612869,0
2096921,2096921,183418,612900,0
2096921,2096921,183526,613346,0
2096921,2096921,183508,613207,0
2096921,2096921,183867,613331,0
2096921,2096921,183890,613724,0
2096921,2096921,183753,613821,0
2096921,2096921,183577,613570,0
2096921,2096921,183764,613730,0
2096921,2096921,184060,613631,0
2096921,2096921,184088,614083,0
2096921,2096921,183873,614550,0
2096921,2096921,184141,614476,0
2096921,2096921,184075,615015,0
2096921,2096921,184046,614698,0
2096921,2096921,184428,615103,0
2096921,2096921,184227,615151,0
2096921,2096921,184365,614645,0
2096921,2096921,184108,614909,0
2096921,2096921,184267,614968,0
2096921,2096921,184323,615601,0
2096921,2096921,184304,615539,0
2096921,2096921,184601,615856,0
2096921,2096921,184474,615841,0
2096921,2096921,184665,615672,0
2096921,2096921,184655,616328,0
2096921,2096921,184431,616239,0
2096921,2096921,184652,616425,0
2096921,2096921,184439,616275,0
2096921,2096921,184935,616056,0
2096921,2096921,185123,616711,0
2096921,2096921,184759,616972,0
2096921,2096921,184914,616941,0
2096921,2096921,184924,616951,0
2096921,2096921,184880,617264,0
2096921,2096921,184580,617444,0
2096921,2096921,184884,617349,0
2096921,2096921,185116,617536,0
2096921,2096921,185166,617601,0
2096921,2096921,185203,617384,0
2096921,2096921,185198,617709,0
2096921,2096921,185091,617749,0
2096921,2096921,185086,618201,0
2096921,2096921,184992,618031,0
2096921,2096921,185645,617966,0
2096921,2096921,185316,618401,0
2096921,2096921,185126,618495,0
2096921,2096921,185243,618445,0
2096921,2096921,185011,618590,0
2096921,2096921,185170,618507,0
2096921,2096921,185358,618727,0
2096921,2096921,185414,618751,0
2096921,2096921,185632,618774,0
2096921,2096921,185461,618883,0
2096921,2096921,185543,618850,0
2096921,2096921,185696,619531,0
2096921,2096921,185546,619243,0
2096921,2096921,185422,619393,0
2096921,2096921,185488,619358,0
2096921,2096921,185663,619303,0
2096921,2096921,185857,619758,0
2096921,2096921,185651,619584,0
2096921,2096921,185801,619614,0
2096921,2096921,185718,619544,0
2096921,2096921,185925,619774,0
2096921,2096921,185634,620076,0
2096921,2096921,185872,620205,0
2096921,2096921,185615,620093,0
2096921,2096921,185698,620360,0
2096921,2096921,185645,619969,0
2096921,2096921,185818,620441,0
2096921,2096921,185992,620561,0
2096921,2096921,186149,620694,0
2096921,2096921,186211,620598,0
2096921,2096921,186242,620716,0
2096921,2096921,186043,620875,0
2096921,2096921,185927,620846,0
2096921,2096921,186034,620533,0
2096921,2096921,185960,620794,0
2096921,2096921,186173,620549,0
2096921,2096921,186307,621471,0
2096921,2096921,186252,620940,0
2096921,2096921,186228,621348,0
2096921,2096921,186110,621367,0
2096921,2096921,186103,621579,0
2096921,2096921,186294,621673,0
2096921,2096921,186130,621628,0
2096921,2096921,186391,621931,0
2096921,2096921,186156,621989,0
2096921,2096921,186199,621718,0
2096921,2096921,186451,621780,0
2096921,2096921,186300,622018,0
2096921,2096921,186601,621901,0
2096921,2096921,186559,622032,0
2096921,2096921,186678,621929,0
2096921,2096921,186445,622553,0
2096921,2096921,186673,622463,0
2096921,2096921,186347,622401,0
2096921,2096921,186364,622261,0
2096921,2096921,186575,622568,0
2096921,2096921,186851,622803,0
2096921,2096921,186463,622921,0
2096921,2096921,186557,622936,0
2096921,2096921,186404,622719,0
2096921,2096921,186917,623025,0
2096921,2096921,186675,623041,0
2096921,2096921,186446,623357,0
2096921,2096921,186507,623203,0
2096921,2096921,186390,623130,0
2096921,2096921,186896,623044,0
2096921,2096921,186980,623327,0
2096921,2096921,186966,623305,0
2096921,2096921,186764,623597,0
2096921,2096921,186453,623233,0
2096921,2096921,186837,623630,0
2096921,2096921,186809,623621,0
2096921,2096921,186774,623663,0
2096921,2096921,186854,623757,0
2096921,2096921,186677,623987,0
2096921,2096921,186943,623820,0
2096921,2096921,186685,624023,0
2096921,2096921,187186,623766,0
2096921,2096921,186976,623959,0
2096921,2096921,186953,624041,0
2096921,2096921,187105,623833,0
2096921,2096921,186944,624099,0
2096921,2096921,187031,624370,0
2096921,2096921,187098,624368,0
2096921,2096921,187094,624257,0
2096921,2096921,187025,624267,0
2096921,2096921,187214,624409,0
2096921,2096921,187145,624231,0
2096921,2096921,187181,624319,0
2096921,2096921,187163,624220,0
2096921,2096921,186976,624534,0
2096921,2096921,187147,624275,0
2096921,2096921,187029,624682,0
2096921,2096921,187210,624510,0
2096921,2096921,187211,624379,0
2096921,2096921,187093,624327,0
2096921,2096921,186890,624573,0
2096921,2096921,187351,624484,0
2096921,2096921,187147,624567,0
2096921,2096921,187223,624697,0
2096921,2096921,187325,624762,0
2096921,2096921,187091,624585,0
2096921,2096921,187022,624754,0
2096921,2096921,186817,624790,0
2096921,2096921,187098,624842,0
2096921,2096921,187194,624599,0
2096921,2096921,187153,624593,0
2096921,2096921,187404,624789,0
2096921,2096921,187353,624788,0
2096921,2096921,187477,624690,0
2096921,2096921,187261,624809,0
2096921,2096921,187315,624710,0
2096921,2096921,187385,624720,0
2096921,2096921,187214,624693,0
2096921,2096921,187405,625011,0
2096921,2096921,187100,624997,0
2096921,2096921,187040,625008,0
2096921,2096921,187378,625092,0
2096921,2096921,187363,625118,0
2096921,2096921,187505,625274,0
2096921,2096921,187171,624719,0
2096921,2096921,187351,624969,0
2096921,2096921,187299,624936,0
2096921,2096921,187148,625159,0
2096921,2096921,187404,625046,0
2096921,2096921,187206,625152,0
2096921,2096921,187520,625164,0
2096921,2096921,187390,625201,0
2096921,2096921,187376,625087,0
2096921,2096921,187382,625192,0
2096921,2096921,187217,625038,0
2096921,2096921,187382,624888,0
2096921,2096921,187270,625140,0
2096921,2096921,187014,625065,0
2096921,2096921,187063,625311,0
2096921,2096921,186711,625499,0
2096921,2096921,186852,624440,0
2096921,2096921,187117,624559,0
2096921,2096921,187222,624273,0
2096921,2096921,187231,624252,0
2096921,2096921,186887,623988,0
2096921,2096921,187009,623814,0
2096921,2096921,186904,623511,0
2096921,2096921,187107,623272,0
2096921,2096921,186702,623289,0
2096921,2096921,186237,623231,0
2096921,2096921,186442,621946,0
2096921,2096921,186520,622371,0
2096921,2096921,186500,622243,0
2096921,2096921,186192,622339,0
2096921,2096921,185966,621999,0
2096921,2096921,185761,620347,0
2096921,2096921,185652,620196,0
2096921,2096921,185936,620224,0
2096921,2096921,185870,620188,0
2096921,2096921,185158,620166,0
2096921,2096921,185305,618469,0
2096921,2096921,185130,618211,0
2096921,2096921,185264,618626,0
2096921,2096921,185060,617928,0
2096921,2096921,184147,618188,0
2096921,2096921,183404,614528,0
2096921,2096921,183266,613536,0
2096921,2096921,183618,613400,0
2096921,2096921,183158,613670,0
2096921,2096921,182076,613578,0
2096921,2096921,181916,609013,0
2096921,2096921,181744,607977,0
2096921,2096921,181770,607552,0
2096921,2096921,181935,607928,0
2096921,2096921,181093,607653,0
2096921,2096921,180611,604652,0
2096921,2096921,180578,603664,0
2096921,2096921,180722,603597,0
2096921,2096921,180500,603618,0
2096921,2096921,179618,603419,0
2096921,2096921,179729,601031,0
2096921,2096921,179805,600290,0
2096921,2096921,179625,600140,0
2096921,2096921,179532,600200,0
2096921,2096921,178966,600454,0
2096921,2096921,179028,598425,0
2096921,2096921,178985,597883,0
2096921,2096921,179012,597833,0
2096921,2096921,178839,597729,0
2096921,2096921,178418,597861,0
2096921,2096921,178083,596497,0
2096921,2096921,177976,596057,0
2096921,2096921,178279,596390,0
2096921,2096921,178110,596214,0
2096921,2096921,177950,596393,0
2096921,2096921,177947,595457,0
2096921,2096921,178156,595065,0
2096921,2096921,177648,595086,0
2096921,2096921,177788,595004,0
2096921,2096921,177552,594959,0
2096921,2096921,177729,594221,0
2096921,2096921,177742,594316,0
2096921,2096921,177665,594491,0
2096921,2096921,177710,594164,0
2096921,2096921,177267,594300,0
2096921,2096921,177539,594206,0
2096921,2096921,177598,594138,0
2096921,2096921,177413,594232,0
2096921,2096921,177423,594019,0
2096921,2096921,177480,594093,0
2096921,2096921,177502,594023,0
2096921,2096921,177390,594361,0
2096921,2096921,177658,593974,0
2096921,2096921,177906,594083,0
2096921,2096921,177519,594072,0
2096921,2096921,177430,594303,0
2096921,2096921,177577,594385,0
2096921,2096921,177651,594529,0
2096921,2096921,177666,594612,0
2096921,2096921,177463,594664,0
2096921,2096921,177894,594667,0
2096921,2096921,177623,594920,0
2096921,2096921,177750,594625,0
2096921,2096921,177735,594792,0
2096921,2096921,177838,594617,0
2096921,2096921,178041,595226,0
2096921,2096921,177902,595084,0
2096921,2096921,177767,594920,0
2096921,2096921,177846,594984,0
2096921,2096921,177868,595154,0
2096921,2096921,177964,595805,0
2096921,2096921,177920,595852,0
2096921,2096921,178094,596061,0
2096921,2096921,178155,595926,0
2096921,2096921,178531,595920,0
2096921,2096921,178497,596676,0
2096921,2096921,178344,596795,0
2096921,2096921,178400,596723,0
2096921,2096921,178542,596982,0
2096921,2096921,178856,596957,0
2096921,2096921,178719,597657,0
2096921,2096921,178869,597852,0
2096921,2096921,178624,597780,0
2096921,2096921,178821,597943,0
2096921,2096921,178910,597858,0
2096921,2096921,179150,598919,0
2096921,2096921,178883,599043,0
2096921,2096921,179003,599144,0
2096921,2096921,178958,599278,0
2096921,2096921,179154,598994,0
2096921,2096921,179625,599800,0
2096921,2096921,179330,600278,0
2096921,2096921,179305,599953,0
2096921,2096921,179022,599989,0
2096921,2096921,179421,599693,0
2096921,2096921,179932,600915,0
2096921,2096921,179537,600790,0
2096921,2096921,179507,600918,0
2096921,2096921,179522,600748,0
2096921,2096921,179789,600639,0
2096921,2096921,180156,601634,0
2096921,2096921,180091,601693,0
2096921,2096921,180049,601761,0
2096921,2096921,180098,602052,0
2096921,2096921,180104,601604,0
2096921,2096921,180522,602784,0
2096921,2096921,180465,602832,0
2096921,2096921,180593,602736,0
2096921,2096921,180473,602781,0
2096921,2096921,180710,602526,0
2096921,2096921,180766,603722,0
2096921,2096921,180508,603737,0
2096921,2096921,180749,603803,0
2096921,2096921,180675,603541,0
2096921,2096921,180962,603858,0
2096921,2096921,181004,604627,0
2096921,2096921,180818,604822,0
2096921,2096921,180825,604896,0
2096921,2096921,180899,604795,0
2096921,2096921,181072,604647,0
2096921,2096921,181364,605878,0
2096921,2096921,181266,606112,0
2096921,2096921,181369,605937,0
2096921,2096921,181079,605817,0
2096921,2096921,181518,605892,0
2096921,2096921,181689,606680,0
2096921,2096921,181682,606788,0
2096921,2096921,181831,606750,0
2096921,2096921,181587,606842,0
2096921,2096921,181562,606820,0
2096921,2096921,181606,607574,0
2096921,2096921,181961,607823,0
2096921,2096921,182290,607651,0
2096921,2096921,182108,607571,0
2096921,2096921,182056,607835,0
2096921,2096921,182075,608264,0
2096921,2096921,182000,608334,0
2096921,2096921,181818,608287,0
2096921,2096921,181937,608338,0
2096921,2096921,182059,608337,0
2096921,2096921,182095,608620,0
2096921,2096921,182171,608869,0
2096921,2096921,182248,608663,0
2096921,2096921,182390,608980,0
2096921,2096921,182272,608755,0
2096921,2096921,182382,608852,0
2096921,2096921,182451,609363,0
2096921,2096921,182574,609071,0
2096921,2096921,182409,609582,0
2096921,2096921,182590,609515,0
2096921,2096921,182478,609550,0
2096921,2096921,182121,609648,0
2096921,2096921,182336,609557,0
2096921,2096921,182592,609733,0
2096921,2096921,182184,609661,0
2096921,2096921,182486,609431,0
2096921,2096921,182409,609705,0
2096921,2096921,182540,609342,0
2096921,2096921,182587,609419,0
2096921,2096921,182355,609422,0
2096921,2096921,182365,608982,0
2096921,2096921,182481,609244,0
2096921,2096921,182717,609450,0
2096921,2096921,182467,609742,0
2096921,2096921,182163,609399,0
2096921,2096921,182287,609435,0
2096921,2096921,182327,609353,0
2096921,2096921,182214,609320,0
2096921,2096921,182407,609481,0
2096921,2096921,182199,609236,0
2096921,2096921,182134,608688,0
2096921,2096921,181784,608913,0
2096921,2096921,182008,608816,0
2096921,2096921,181964,608594,0
2096921,2096921,181867,609068,0
2096921,2096921,182200,608805,0
2096921,2096921,182060,608485,0
2096921,2096921,182035,608331,0
2096921,2096921,181964,608674,0
2096921,2096921,182019,608509,0
2096921,2096921,181720,608096,0
2096921,2096921,181892,608098,0
2096921,2096921,181805,608121,0
2096921,2096921,182003,608198,0
2096921,2096921,181827,608117,0
2096921,2096921,182047,607721,0
2096921,2096921,181530,607752,0
2096921,2096921,181703,607534,0
2096921,2096921,181900,607614,0
2096921,2096921,181758,607602,0
2096921,2096921,181662,607267,0
2096921,2096921,181874,607516,0
2096921,2096921,181842,607499,0
2096921,2096921,181694,607659,0
2096921,2096921,181861,607863,0
2096921,2096921,181929,607487,0
2096921,2096921,181513,607483,0
2096921,2096921,181700,607625,0
2096921,2096921,181874,607545,0
2096921,2096921,181596,607572,0
2096921,2096921,181752,607195,0
2096921,2096921,181760,607260,0
2096921,2096921,181632,607439,0
2096921,2096921,182087,607467,0
2096921,2096921,182011,607663,0
2096921,2096921,181997,607736,0
2096921,2096921,181926,607905,0
2096921,2096921,181914,607429,0
2096921,2096921,181861,607858,0
2096921,2096921,181755,607443,0
2096921,2096921,181795,607626,0
2096921,2096921,181741,607562,0
2096921,2096921,181718,607790,0
2096921,2096921,181766,607656,0
2096921,2096921,181928,608009,0
2096921,2096921,182179,608388,0
2096921,2096921,181962,608256,0
2096921,2096921,182020,608496,0
2096921,2096921,182018,608576,0
2096921,2096921,182204,608564,0
2096921,2096921,182193,608958,0
2096921,2096921,182167,609058,0
2096921,2096921,182424,609239,0
2096921,2096921,182509,609248,0
2096921,2096921,182301,609222,0
2096921,2096921,182644,609442,0
2096921,2096921,182660,609665,0
2096921,2096921,182463,609467,0
2096921,2096921,182732,609647,0
2096921,2096921,182575,609645,0
2096921,2096921,182609,610016,0
2096921,2096921,182503,610240,0
2096921,2096921,182547,610108,0
2096921,2096921,182559,610109,0
2096921,2096921,182754,610264,0
2096921,2096921,182767,610530,0
2096921,2096921,182911,610591,0
2096921,2096921,182759,610368,0
2096921,2096921,182712,610132,0
2096921,2096921,182819,610526,0
2096921,2096921,182697,610901,0
2096921,2096921,182875,611023,0
2096921,2096921,182732,611114,0
2096921,2096921,182708,610769,0
2096921,2096921,183099,611105,0
2096921,2096921,182984,611261,0
2096921,2096921,182984,611366,0
2096921,2096921,182911,611131,0
2096921,2096921,183070,611147,0
2096921,2096921,182910,611351,0
2096921,2096921,182734,611516,0
2096921,2096921,183053,611366,0
2096921,2096921,183041,611920,0
2096921,2096921,183008,611837,0
2096921,2096921,183157,611766,0
2096921,2096921,183090,612335,0
2096921,2096921,183377,612127,0
2096921,2096921,183380,611957,0
2096921,2096921,183503,611915,0
2096921,2096921,183415,612207,0
2096921,2096921,183316,612743,0
2096921,2096921,183351,612582,0
2096921,2096921,183614,612728,0
2096921,2096921,183348,612616,0
2096921,2096921,183715,612591,0
2096921,2096921,183649,613195,0
2096921,2096921,183576,612869,0
2096921,2096921,183711,612928,0
2096921,2096921,183570,612690,0
2096921,2096921,183503,612762,0
2096921,2096921,183569,613218,0
2096921,2096921,183575,613288,0
2096921,2096921,183537,613533,0
2096921,2096921,183404,613548,0
2096921,2096921,183423,613375,0
2096921,2096921,183808,613337,0
2096921,2096921,183720,613628,0
2096921,2096921,183526,613411,0
2096921,2096921,183438,613609,0
2096921,2096921,183959,613523,0
2096921,2096921,183740,613618,0
2096921,2096921,183810,613859,0
2096921,2096921,183968,613882,0
2096921,2096921,183931,614152,0
2096921,2096921,183875,614097,0
2096921,2096921,183785,614323,0
2096921,2096921,183852,613950,0
2096921,2096921,183877,614205,0
2096921,2096921,183473,614062,0
2096921,2096921,183984,614152,0
2096921,2096921,183670,614271,0
2096921,2096921,183650,614727,0
2096921,2096921,183921,614420,0
2096921,2096921,184028,614575,0
2096921,2096921,184237,614387,0
2096921,2096921,184153,615014,0
2096921,2096921,183935,614725,0
2096921,2096921,183992,614784,0
2096921,2096921,183895,614884,0
2096921,2096921,184075,614739,0
2096921,2096921,184324,614888,0
2096921,2096921,184347,614822,0
2096921,2096921,184453,614961,0
2096921,2096921,184516,614802,0
2096921,2096921,184169,614752,0
2096921,2096921,184199,615094,0
2096921,2096921,183992,615496,0
2096921,2096921,184219,615446,0
2096921,2096921,183970,615110,0
2096921,2096921,184144,614827,0
2096921,2096921,184373,615214,0
2096921,2096921,184198,615412,0
2096921,2096921,184301,615683,0
2096921,2096921,184355,615496,0
2096921,2096921,184306,615331,0
2096921,2096921,184251,615462,0
2096921,2096921,184431,615400,0
2096921,2096921,184493,615404,0
2096921,2096921,184343,615505,0
2096921,2096921,184643,615268,0
2096921,2096921,184351,615632,0
2096921,2096921,184612,615601,0
2096921,2096921,184693,615575,0
2096921,2096921,184332,615717,0
2096921,2096921,184701,615812,0
2096921,2096921,184474,616146,0
2096921,2096921,184517,615982,0
2096921,2096921,184421,615906,0
2096921,2096921,184253,615995,0
2096921,2096921,184261,615697,0
2096921,2096921,184528,615726,0
2096921,2096921,184641,615825,0
2096921,2096921,184470,615868,0
2096921,2096921,184388,615978,0
2096921,2096921,184506,615933,0
2096921,2096921,184357,616126,0
2096921,2096921,184386,615779,0
2096921,2096921,184484,616183,0
2096921,2096921,184235,616046,0
2096921,2096921,184450,615656,0
2096921,2096921,184691,615813,0
2096921,2096921,184492,616012,0
2096921,2096921,184772,616116,0
2096921,2096921,184640,615998,0
2096921,2096921,184597,616033,0
2096921,2096921,184378,615529,0
2096921,2096921,184499,615853,0
2096921,2096921,184327,615717,0
2096921,2096921,184382,615978,0
2096921,2096921,184360,616039,0
2096921,2096921,184463,615983,0
2096921,2096921,184701,615988,0
2096921,2096921,184418,615968,0
2096921,2096921,184790,615787,0
2096921,2096921,184509,615530,0
2096921,2096921,184582,616087,0
2096921,2096921,184293,616027,0
2096921,2096921,184394,616035,0
2096921,2096921,184580,616002,0
2096921,2096921,184756,615740,0
2096921,2096921,184327,615604,0
2096921,2096921,184486,615861,0
2096921,2096921,184473,615734,0
2096921,2096921,184619,615861,0
2096921,2096921,184394,615778,0
2096921,2096921,184777,615609,0
2096921,2096921,184733,615591,0
2096921,2096921,184243,615574,0
2096921,2096921,184166,615608,0
2096921,2096921,184445,615662,0
2096921,2096921,184326,615249,0
2096921,2096921,184426,615901,0
2096921,2096921,184375,615917,0
2096921,2096921,184487,615600,0
2096921,2096921,184525,615916,0
2096921,2096921,184516,615555,0
2096921,2096921,184148,615662,0
2096921,2096921,184357,615570,0
2096921,2096921,184242,615374,0
2096921,2096921,184542,615411,0
2096921,2096921,184385,615384,0
2096921,2096921,184369,615313,0
2096921,2096921,184319,615185,0
2096921,2096921,184515,615410,0
2096921,2096921,184161,615525,0
2096921,2096921,184244,615624,0
2096921,2096921,184391,615515,0
2096921,2096921,184270,615507,0
2096921,2096921,184333,615414,0
2096921,2096921,184324,615257,0
2096921,2096921,184261,615013,0
2096921,2096921,184097,615066,0
2096921,2096921,184430,615450,0
2096921,2096921,184253,615343,0
2096921,2096921,184147,615078,0
2096921,2096921,184090,615129,0
2096921,2096921,184082,615049,0
2096921,2096921,184109,615105,0
2096921,2096921,184263,615004,0
2096921,2096921,184144,614844,0
2096921,2096921,184305,615104,0
2096921,2096921,184337,615199,0
2096921,2096921,184179,615053,0
2096921,2096921,184348,615013,0
2096921,2096921,184085,614972,0
2096921,2096921,184415,615038,0
2096921,2096921,184319,614920,0
2096921,2096921,184178,614781,0
2096921,2096921,184079,615184,0
2096921,2096921,184139,615105,0
2096921,2096921,184157,614881,0
2096921,2096921,184447,614862,0
2096921,2096921,184102,614547,0
2096921,2096921,184356,614694,0
2096921,2096921,184112,614830,0
2096921,2096921,183931,614666,0
2096921,2096921,183929,614344,0
2096921,2096921,184020,614381,0
2096921,2096921,184023,614418,0
2096921,2096921,183778,614374,0
2096921,2096921,183861,614325,0
2096921,2096921,184090,614367,0
2096921,2096921,184161,614457,0
2096921,2096921,184119,614578,0
2096921,2096921,183858,614463,0
2096921,2096921,183959,614241,0
2096921,2096921,183884,613778,0
2096921,2096921,183628,614297,0
2096921,2096921,183755,613814,0
2096921,2096921,183889,614200,0
2096921,2096921,183758,614155,0
2096921,2096921,183801,614091,0
2096921,2096921,184014,613825,0
2096921,2096921,183980,613571,0
2096921,2096921,183843,613952,0
2096921,2096921,183708,613682,0
2096921,2096921,183516,613476,0
2096921,2096921,183531,613663,0
2096921,2096921,183640,613598,0
2096921,2096921,183703,613467,0
2096921,2096921,183560,613326,0
2096921,2096921,183519,613345,0
2096921,2096921,183560,613328,0
2096921,2096921,183587,613543,0
2096921,2096921,183871,613325,0
2096921,2096921,183595,613243,0
2096921,2096921,183539,613152,0
2096921,2096921,183641,613072,0
2096921,2096921,183500,613170,0
2096921,2096921,183509,612934,0
2096921,2096921,183433,612837,0
2096921,2096921,183640,613050,0
2096921,2096921,183514,612844,0
2096921,2096921,183508,612588,0
2096921,2096921,183196,612720,0
2096921,2096921,183635,612692,0
2096921,2096921,183417,612316,0
2096921,2096921,183479,612447,0
2096921,2096921,183433,612391,0
2096921,2096921,183336,612591,0
2096921,2096921,183436,612310,0
2096921,2096921,183151,612397,0
2096921,2096921,183525,612138,0
2096921,2096921,183428,612230,0
2096921,2096921,183133,611965,0
2096921,2096921,183009,611624,0
2096921,2096921,183152,611726,0
2096921,2096921,182921,611805,0
2096921,2096921,182983,611846,0
2096921,2096921,182929,611714,0
2096921,2096921,183073,611414,0
2096921,2096921,182898,611564,0
2096921,2096921,182995,611534,0
2096921,2096921,183223,611545,0
2096921,2096921,183112,611506,0
2096921,2096921,182905,610979,0
2096921,2096921,183050,610995,0
2096921,2096921,182733,610957,0
2096921,2096921,182951,610845,0
2096921,2096921,182535,610668,0
2096921,2096921,182644,610252,0
2096921,2096921,182790,610074,0
2096921,2096921,182719,609896,0
2096921,2096921,182805,609818,0
2096921,2096921,182500,609751,0
2096921,2096921,182356,608856,0
2096921,2096921,182336,608445,0
2096921,2096921,182267,608687,0
2096921,2096921,182463,608693,0
2096921,2096921,181933,608888,0
2096921,2096921,181605,607538,0
2096921,2096921,181900,607083,0
2096921,2096921,181632,606846,0
2096921,2096921,181693,606684,0
2096921,2096921,180880,606763,0
2096921,2096921,180857,605389,0
2096921,2096921,181086,604957,0
2096921,2096921,180847,604933,0
2096921,2096921,181121,605081,0
2096921,2096921,180428,604834,0
2096921,2096921,180186,602912,0
2096921,2096921,180446,602974,0
2096921,2096921,180352,602626,0
2096921,2096921,180107,602432,0
2096921,2096921,179006,602774,0
2096921,2096921,178629,598760,0
2096921,2096921,178451,598083,0
2096921,2096921,178666,598127,0
2096921,2096921,179088,597731,0
2096921,2096921,177184,597572,0
2096921,2096921,176918,592957,0
2096921,2096921,176873,592146,0
2096921,2096921,176991,591805,0
2096921,2096921,177079,591807,0
2096921,2096921,175948,592102,0
2096921,2096921,175632,588352,0
2096921,2096921,175425,587846,0
2096921,2096921,175414,587411,0
2096921,2096921,175296,587427,0
2096921,2096921,174784,587422,0
2096921,2096921,174379,584414,0
2096921,2096921,174448,584093,0
2096921,2096921,174693,583977,0
2096921,2096921,174617,584203,0
2096921,2096921,173965,583895,0
2096921,2096921,173703,581929,0
2096921,2096921,173844,581638,0
2096921,2096921,173642,581498,0
2096921,2096921,173891,581246,0
2096921,2096921,173013,581282,0
2096921,2096921,173090,580105,0
2096921,2096921,173343,579820,0
2096921,2096921,172988,579570,0
2096921,2096921,173293,579809,0
2096921,2096921,172877,579661,0
2096921,2096921,172925,578457,0
2096921,2096921,172657,577999,0
2096921,2096921,172322,577835,0
2096921,2096921,172667,578345,0
2096921,2096921,172387,578017,0
2096921,2096921,172148,577218,0
2096921,2096921,172109,577040,0
2096921,2096921,172221,577045,0
2096921,2096921,172203,576778,0
2096921,2096921,172062,577013,0
2096921,2096921,172204,576766,0
2096921,2096921,172177,576503,0
2096921,2096921,172309,576637,0
2096921,2096921,172101,576545,0
2096921,2096921,172107,576350,0
2096921,2096921,171736,576188,0
2096921,2096921,171927,576358,0
2096921,2096921,171984,576497,0
2096921,2096921,171901,576556,0
2096921,2096921,171912,576381,0
2096921,2096921,172163,576646,0
2096921,2096921,172131,576676,0
2096921,2096921,172301,576725,0
2096921,2096921,172162,576381,0
2096921,2096921,172288,576380,0
2096921,2096921,172028,576400,0
2096921,2096921,171868,576417,0
2096921,2096921,172264,576535,0
2096921,2096921,172387,576307,0
2096921,2096921,172038,576548,0
2096921,2096921,171783,576753,0
2096921,2096921,172087,576329,0
2096921,2096921,172158,576453,0
2096921,2096921,172005,576547,0
2096921,2096921,172150,576224,0
2096921,2096921,172148,577190,0
2096921,2096921,172250,577259,0
2096921,2096921,172301,577688,0
2096921,2096921,172102,577266,0
2096921,2096921,172271,577243,0
2096921,2096921,172551,577813,0
2096921,2096921,172257,577852,0
2096921,2096921,172490,577836,0
2096921,2096921,172525,577894,0
2096921,2096921,172770,577866,0
2096921,2096921,172740,578248,0
2096921,2096921,172820,578568,0
2096921,2096921,172717,578572,0
2096921,2096921,173185,578573,0
2096921,2096921,173073,578631,0
2096921,2096921,173073,579220,0
2096921,2096921,172672,579279,0
2096921,2096921,172887,579465,0
2096921,2096921,172878,579488,0
2096921,2096921,173324,579395,0
2096921,2096921,173171,579937,0
2096921,2096921,173314,580165,0
2096921,2096921,173408,579955,0
2096921,2096921,173265,580266,0
2096921,2096921,173224,580117,0
2096921,2096921,173325,580709,0
2096921,2096921,173510,580866,0
2096921,2096921,173370,580778,0
2096921,2096921,173316,580659,0
2096921,2096921,173362,580722,0
2096921,2096921,173649,581317,0
2096921,2096921,173779,581311,0
2096921,2096921,173992,581378,0
2096921,2096921,173612,581521,0
2096921,2096921,173720,581398,0
2096921,2096921,173975,582166,0
2096921,2096921,173792,582089,0
2096921,2096921,174033,581959,0
2096921,2096921,173833,582044,0
2096921,2096921,173924,582195,0
2096921,2096921,174127,583049,0
2096921,2096921,174040,583035,0
2096921,2096921,174083,582790,0
2096921,2096921,173945,582994,0
2096921,2096921,174031,582793,0
2096921,2096921,174323,583520,0
2096921,2096921,174323,583540,0
2096921,2096921,174439,583517,0
2096921,2096921,174366,583579,0
2096921,2096921,174525,583523,0
2096921,2096921,174487,584078,0
2096921,2096921,174802,584330,0
2096921,2096921,174979,584275,0
2096921,2096921,174632,584367,0
2096921,2096921,174674,584293,0
2096921,2096921,174723,585393,0
2096921,2096921,174703,585422,0
2096921,2096921,175058,585612,0
2096921,2096921,174910,585418,0
2096921,2096921,175097,585314,0
2096921,2096921,175303,585923,0
2096921,2096921,174981,585768,0
2096921,2096921,175085,585594,0
2096921,2096921,174839,586037,0
2096921,2096921,175284,585994,0
2096921,2096921,175494,586718,0
2096921,2096921,175212,586107,0
2096921,2096921,174976,586262,0
2096921,2096921,174859,586177,0
2096921,2096921,175211,586335,0
2096921,2096921,175308,586640,0
2096921,2096921,175147,586421,0
2096921,2096921,175542,586708,0
2096921,2096921,175287,586481,0
2096921,2096921,175506,586486,0
2096921,2096921,175618,587004,0
2096921,2096921,175366,586888,0
2096921,2096921,175399,587098,0
2096921,2096921,175357,586955,0
2096921,2096921,175526,586603,0
2096921,2096921,175540,586941,0
2096921,2096921,175129,587197,0
2096921,2096921,175466,587035,0
2096921,2096921,175337,587019,0
2096921,2096921,175236,586892,0
2096921,2096921,175542,587038,0
2096921,2096921,175342,586629,0
2096921,2096921,175460,587081,0
2096921,2096921,175498,587103,0
2096921,2096921,175245,586954,0
2096921,2096921,175343,586872,0
2096921,2096921,175377,586872,0
2096921,2096921,175492,586934,0
2096921,2096921,175349,586834,0
2096921,2096921,175364,586823,0
2096921,2096921,175289,586730,0
2096921,2096921,175206,586455,0
2096921,2096921,175381,586316,0
2096921,2096921,175342,586497,0
2096921,2096921,174964,586363,0
2096921,2096921,175022,586253,0
2096921,2096921,175262,585939,0
2096921,2096921,175211,585878,0
2096921,2096921,175033,585883,0
2096921,2096921,175086,585832,0
2096921,2096921,175040,585780,0
2096921,2096921,174772,585665,0
2096921,2096921,175032,585585,0
2096921,2096921,174778,585426,0
2096921,2096921,174739,585448,0
2096921,2096921,174740,585469,0
2096921,2096921,174861,585443,0
2096921,2096921,174938,584942,0
2096921,2096921,175108,585210,0
2096921,2096921,174772,584982,0
2096921,2096921,174711,584755,0
2096921,2096921,174614,584734,0
2096921,2096921,174811,584718,0
2096921,2096921,174772,584791,0
2096921,2096921,174517,584553,0
2096921,2096921,174536,584206,0
2096921,2096921,174730,584439,0
2096921,2096921,174836,584380,0
2096921,2096921,174760,584505,0
2096921,2096921,174558,584332,0
2096921,2096921,174564,584225,0
2096921,2096921,174765,584155,0
2096921,2096921,174561,584265,0
2096921,2096921,174389,584410,0
2096921,2096921,174369,584431,0
2096921,2096921,174338,584115,0
2096921,2096921,174457,584181,0
2096921,2096921,174645,584334,0
2096921,2096921,174803,584311,0
2096921,2096921,174769,584364,0
2096921,2096921,174715,584535,0
2096921,2096921,174464,584587,0
2096921,2096921,174629,584546,0
2096921,2096921,174690,584810,0
2096921,2096921,174811,584469,0
2096921,2096921,174618,584422,0
2096921,2096921,174771,584553,0
2096921,2096921,174962,584695,0
2096921,2096921,174772,584500,0
2096921,2096921,175109,584810,0
2096921,2096921,174954,585406,0
2096921,2096921,174829,585376,0
2096921,2096921,174904,585198,0
2096921,2096921,174771,585493,0
2096921,2096921,174969,585209,0
2096921,2096921,175349,586030,0
2096921,2096921,175338,585979,0
2096921,2096921,175355,585853,0
2096921,2096921,175444,586252,0
2096921,2096921,175357,586189,0
2096921,2096921,175338,586845,0
2096921,2096921,175285,586677,0
2096921,2096921,175447,587043,0
2096921,2096921,175593,586805,0
2096921,2096921,175318,586857,0
2096921,2096921,175700,587243,0
2096921,2096921,175246,587224,0
2096921,2096921,175470,587343,0
2096921,2096921,175358,587514,0
2096921,2096921,175760,587420,0
2096921,2096921,175995,587825,0
2096921,2096921,175592,587914,0
2096921,2096921,175436,587730,0
2096921,2096921,175636,588254,0
2096921,2096921,175609,587793,0
2096921,2096921,175753,588444,0
2096921,2096921,175739,588206,0
2096921,2096921,175795,588283,0
2096921,2096921,175858,588523,0
2096921,2096921,175911,588620,0
2096921,2096921,176053,588989,0
2096921,2096921,175859,588810,0
2096921,2096921,176131,588834,0
2096921,2096921,175858,589016,0
2096921,2096921,176295,588752,0
2096921,2096921,176055,589323,0
2096921,2096921,176114,589245,0
2096921,2096921,176004,589043,0
2096921,2096921,176189,589507,0
2096921,2096921,176426,589214,0
2096921,2096921,176521,589954,0
2096921,2096921,176410,589893,0
2096921,2096921,176549,589911,0
2096921,2096921,176500,590081,0
2096921,2096921,176026,589985,0
2096921,2096921,176309,590762,0
2096921,2096921,176379,590855,0
2096921,2096921,176461,590864,0
2096921,2096921,176491,590756,0
2096921,2096921,176754,590627,0
2096921,2096921,176748,590681,0
2096921,2096921,176828,591114,0
2096921,2096921,176655,591035,0
2096921,2096921,176675,590991,0
2096921,2096921,176683,591208,0
2096921,2096921,176983,591634,0
2096921,2096921,176807,591393,0
2096921,2096921,176991,591697,0
2096921,2096921,176946,591583,0
2096921,2096921,177202,591452,0
2096921,2096921,176994,591985,0
2096921,2096921,177030,592013,0
2096921,2096921,176917,591934,0
2096921,2096921,177208,592378,0
2096921,2096921,177196,591875,0
2096921,2096921,177231,592162,0
2096921,2096921,177099,592367,0
2096921,2096921,176917,592431,0
2096921,2096921,177139,592376,0
2096921,2096921,177223,592410,0
2096921,2096921,177599,592933,0
2096921,2096921,177370,593012,0
2096921,2096921,177542,592906,0
2096921,2096921,177565,592841,0
2096921,2096921,177605,593026,0
2096921,2096921,177610,593258,0
2096921,2096921,177469,593465,0
2096921,2096921,177733,593507,0
2096921,2096921,177546,593816,0
2096921,2096921,177758,593498,0
2096921,2096921,177835,593855,0
2096921,2096921,177900,594119,0
2096921,2096921,177758,593864,0
2096921,2096921,177736,593784,0
2096921,2096921,177477,593812,0
2096921,2096921,177705,594214,0
2096921,2096921,177677,594252,0
2096921,2096921,177734,594331,0
2096921,2096921,177815,594163,0
2096921,2096921,177903,594370,0
2096921,2096921,177932,594599,0
2096921,2096921,178008,594716,0
2096921,2096921,177797,594621,0
2096921,2096921,177663,594927,0
2096921,2096921,178021,594531,0
2096921,2096921,178185,594850,0
2096921,2096921,178055,595086,0
2096921,2096921,177917,594896,0
2096921,2096921,178041,595189,0
2096921,2096921,177820,595269,0
2096921,2096921,178014,595544,0
2096921,2096921,177954,595604,0
2096921,2096921,178155,595510,0
2096921,2096921,177978,595605,0
2096921,2096921,178201,595623,0
2096921,2096921,178295,595737,0
2096921,2096921,178187,596150,0
2096921,2096921,178174,595845,0
2096921,2096921,178261,596033,0
2096921,2096921,178342,596134,0
2096921,2096921,178367,596139,0
2096921,2096921,178400,596184,0
2096921,2096921,178565,596206,0
2096921,2096921,178648,596240,0
2096921,2096921,178669,596257,0
2096921,2096921,178599,596711,0
2096921,2096921,178178,596756,0
2096921,2096921,178322,596507,0
2096921,2096921,178598,596437,0
2096921,2096921,178693,596439,0
2096921,2096921,178536,596880,0
2096921,2096921,178622,596729,0
2096921,2096921,178772,596881,0
2096921,2096921,178714,597120,0
2096921,2096921,178406,596658,0
2096921,2096921,178594,597097,0
2096921,2096921,178470,597381,0
2096921,2096921,178714,597538,0
2096921,2096921,178797,597397,0
2096921,2096921,178521,597134,0
2096921,2096921,178980,597386,0
2096921,2096921,178583,597541,0
2096921,2096921,178481,597247,0
2096921,2096921,178743,597211,0
2096921,2096921,178747,597251,0
2096921,2096921,178839,597597,0
2096921,2096921,178737,597727,0
2096921,2096921,178714,597240,0
2096921,2096921,178775,597644,0
2096921,2096921,178789,597556,0
2096921,2096921,178697,597824,0
2096921,2096921,178743,597777,0
2096921,2096921,178776,597890,0
2096921,2096921,178835,597959,0
2096921,2096921,179059,597939,0
2096921,2096921,179091,597980,0
2096921,2096921,178940,598201,0
2096921,2096921,178797,598254,0
2096921,2096921,179095,598219,0
2096921,2096921,178850,598252,0
2096921,2096921,179249,598345,0
2096921,2096921,179227,598422,0
2096921,2096921,178929,598245,0
2096921,2096921,178648,598538,0
2096921,2096921,178988,598341,0
2096921,2096921,179126,598253,0
2096921,2096921,179158,598471,0
2096921,2096921,179075,598666,0
2096921,2096921,179197,598642,0
2096921,2096921,179158,598556,0
2096921,2096921,179303,598621,0
2096921,2096921,179343,598809,0
2096921,2096921,178928,598474,0
2096921,2096921,179029,598543,0
2096921,2096921,179166,598753,0
2096921,2096921,179183,598831,0
2096921,2096921,179347,598871,0
2096921,2096921,179184,598798,0
2096921,2096921,179238,598815,0
2096921,2096921,178742,598893,0
2096921,2096921,179101,599036,0
2096921,2096921,179187,599102,0
2096921,2096921,179323,599092,0
2096921,2096921,179180,598947,0
2096921,2096921,179346,599215,0
2096921,2096921,179118,598989,0
2096921,2096921,179266,599071,0
2096921,2096921,179173,599060,0
2096921,2096921,179374,599477,0
2096921,2096921,179543,599361,0
2096921,2096921,179099,599339,0
2096921,2096921,179369,599451,0
2096921,2096921,179439,599263,0
2096921,2096921,179467,599010,0
2096921,2096921,179320,598954,0
2096921,2096921,179241,599463,0
2096921,2096921,179440,599604,0
2096921,2096921,179316,599757,0
2096921,2096921,179526,599619,0
2096921,2096921,179585,599891,0
2096921,2096921,179583,599701,0
2096921,2096921,179295,599754,0
2096921,2096921,179362,599841,0
2096921,2096921,179068,599778,0
2096921,2096921,179295,599723,0
2096921,2096921,179392,599606,0
2096921,2096921,179689,599763,0
2096921,2096921,179259,600302,0
2096921,2096921,179224,600111,0
2096921,2096921,179510,600166,0
2096921,2096921,179560,600390,0
2096921,2096921,179485,600095,0
2096921,2096921,179529,600013,0
2096921,2096921,179845,600045,0
2096921,2096921,179696,600169,0
2096921,2096921,179699,600312,0
2096921,2096921,179476,600248,0
2096921,2096921,179505,600379,0
2096921,2096921,179468,600244,0
2096921,2096921,179607,600271,0
2096921,2096921,179785,600226,0
2096921,2096921,179730,600380,0
2096921,2096921,179790,600508,0
2096921,2096921,179844,600583,0
2096921,2096921,179817,600500,0
2096921,2096921,179758,600424,0
2096921,2096921,179868,600518,0
2096921,2096921,180006,600658,0
2096921,2096921,179796,600678,0
2096921,2096921,179816,600629,0
2096921,2096921,179900,600548,0
2096921,2096921,179582,600526,0
2096921,2096921,179542,600307,0
2096921,2096921,179686,600523,0
2096921,2096921,179788,600327,0
2096921,2096921,179895,600862,0
2096921,2096921,179711,600544,0
2096921,2096921,179975,600817,0
2096921,2096921,179895,600782,0
2096921,2096921,179614,600654,0
2096921,2096921,179804,600835,0
2096921,2096921,179746,600756,0
2096921,2096921,179907,600582,0
2096921,2096921,179783,600658,0
2096921,2096921,180056,600724,0
2096921,2096921,180103,600891,0
2096921,2096921,179741,601260,0
2096921,2096921,179322,600902,0
2096921,2096921,179972,601051,0
2096921,2096921,179825,601039,0
2096921,2096921,179961,600925,0
2096921,2096921,179925,600996,0
2096921,2096921,180015,601224,0
2096921,2096921,180132,601063,0
2096921,2096921,180054,601026,0
2096921,2096921,180130,600988,0
2096921,2096921,180040,601125,0
2096921,2096921,179976,601261,0
2096921,2096921,180092,601211,0
2096921,2096921,180246,601170,0
2096921,2096921,180168,601390,0
2096921,2096921,179926,601339,0
2096921,2096921,179597,601385,0
2096921,2096921,179850,601403,0
2096921,2096921,180119,601516,0
2096921,2096921,179757,601416,0
2096921,2096921,179720,601462,0
2096921,2096921,179951,601853,0
2096921,2096921,180014,601582,0
2096921,2096921,180147,601796,0
2096921,2096921,179748,601674,0
2096921,2096921,179842,601492,0
2096921,2096921,179911,601697,0
2096921,2096921,179851,601545,0
2096921,2096921,179756,601720,0
2096921,2096921,179791,600985,0
2096921,2096921,179950,600609,0
2096921,2096921,179409,600827,0
2096921,2096921,179528,600778,0
2096921,2096921,179703,600750,0
2096921,2096921,179661,600493,0
2096921,2096921,179531,600415,0
2096921,2096921,179433,600170,0
2096921,2096921,179333,599886,0
2096921,2096921,178934,600366,0
2096921,2096921,179036,599062,0
2096921,2096921,179153,598986,0
2096921,2096921,179400,599156,0
2096921,2096921,179165,599027,0
2096921,2096921,178793,599039,0
2096921,2096921,178568,597689,0
2096921,2096921,178788,597395,0
2096921,2096921,178483,597392,0
2096921,2096921,178492,597052,0
2096921,2096921,178197,596994,0
2096921,2096921,177957,595589,0
2096921,2096921,178118,595470,0
2096921,2096921,178078,595389,0
2096921,2096921,178175,595229,0
2096921,2096921,177040,595323,0
2096921,2096921,176649,592026,0
2096921,2096921,176995,591569,0
2096921,2096921,176718,590878,0
2096921,2096921,176655,590879,0
2096921,2096921,175491,591123,0
2096921,2096921,175244,586935,0
2096921,2096921,175107,586146,0
2096921,2096921,175013,586001,0
2096921,2096921,174965,585987,0
2096921,2096921,173773,585813,0
2096921,2096921,173933,582715,0
2096921,2096921,173962,582072,0
2096921,2096921,173526,581913,0
2096921,2096921,173580,581559,0
2096921,2096921,173031,581807,0
2096921,2096921,172791,579513,0
2096921,2096921,172915,579437,0
2096921,2096921,172823,579063,0
2096921,2096921,172974,579180,0
2096921,2096921,172265,579076,0
2096921,2096921,172167,577234,0
2096921,2096921,172288,576826,0
2096921,2096921,171924,576723,0
2096921,2096921,171997,576808,0
2096921,2096921,171815,576936,0
2096921,2096921,171946,575560,0
2096921,2096921,171804,575555,0
2096921,2096921,171743,575402,0
2096921,2096921,171837,575486,0
2096921,2096921,171513,575460,0
2096921,2096921,171554,574580,0
2096921,2096921,171315,574467,0
2096921,2096921,171437,574341,0
2096921,2096921,171447,574606,0
2096921,2096921,171337,574449,0
2096921,2096921,171495,574141,0
2096921,2096921,171504,573977,0
2096921,2096921,171208,573876,0
2096921,2096921,171161,573893,0
2096921,2096921,171316,574079,0
2096921,2096921,171513,573870,0
2096921,2096921,171000,574101,0
2096921,2096921,171338,573744,0
2096921,2096921,171356,574023,0
2096921,2096921,171052,573801,0
2096921,2096921,171362,574195,0
2096921,2096921,171482,574226,0
2096921,2096921,171210,574003,0
2096921,2096921,171256,574401,0
2096921,2096921,171777,574233,0
2096921,2096921,171464,574682,0
2096921,2096921,171489,574861,0
2096921,2096921,171418,574795,0
2096921,2096921,171599,574791,0
2096921,2096921,171544,574596,0
2096921,2096921,171821,575268,0
2096921,2096921,171592,575359,0
2096921,2096921,171840,575344,0
2096921,2096921,171702,575394,0
2096921,2096921,171731,575264,0
2096921,2096921,171832,575963,0
2096921,2096921,171461,576087,0
2096921,2096921,172041,575871,0
2096921,2096921,171857,575929,0
2096921,2096921,171965,575931,0
2096921,2096921,172095,577013,0
2096921,2096921,172351,576875,0
2096921,2096921,172212,576864,0
2096921,2096921,172284,576766,0
2096921,2096921,172150,576853,0
2096921,2096921,172352,578200,0
2096921,2096921,172213,578026,0
2096921,2096921,172551,577962,0
2096921,2096921,172434,578368,0
2096921,2096921,172860,578246,0
2096921,2096921,172853,579175,0
2096921,2096921,172711,579419,0
2096921,2096921,172752,579347,0
2096921,2096921,172847,579284,0
2096921,2096921,173094,579508,0
2096921,2096921,173256,580303,0
2096921,2096921,173363,580202,0
2096921,2096921,173331,580213,0
2096921,2096921,173339,580312,0
2096921,2096921,173743,580471,0
2096921,2096921,173792,581718,0
2096921,2096921,173573,581627,0
2096921,2096921,173782,581912,0
2096921,2096921,173969,581904,0
2096921,2096921,174308,581738,0
2096921,2096921,174130,582452,0
2096921,2096921,174119,582952,0
2096921,2096921,174098,582808,0
2096921,2096921,174196,582893,0
2096921,2096921,174424,582771,0
2096921,2096921,174404,583827,0
2096921,2096921,174399,584011,0
2096921,2096921,174894,584162,0
2096921,2096921,174440,584053,0
2096921,2096921,174853,584112,0
2096921,2096921,174798,584954,0
2096921,2096921,174847,585185,0
2096921,2096921,175030,585343,0
2096921,2096921,174884,585403,0
2096921,2096921,175453,585373,0
2096921,2096921,175337,586459,0
2096921,2096921,175329,586410,0
2096921,2096921,175276,586686,0
2096921,2096921,175371,586600,0
2096921,2096921,175521,586615,0
2096921,2096921,175615,587737,0
2096921,2096921,175444,587579,0
2096921,2096921,175894,587676,0
2096921,2096921,175789,587562,0
2096921,2096921,175891,587606,0
2096921,2096921,176027,588688,0
2096921,2096921,175919,589222,0
2096921,2096921,176370,589284,0
2096921,2096921,176008,589499,0
2096921,2096921,176421,589120,0
2096921,2096921,176474,590119,0
2096921,2096921,176321,590357,0
2096921,2096921,176668,590444,0
2096921,2096921,176628,590273,0
2096921,2096921,176742,590282,0
2096921,2096921,176872,591400,0
2096921,2096921,176831,591578,0
2096921,2096921,176931,591367,0
2096921,2096921,176853,591374,0
2096921,2096921,177154,591477,0
2096921,2096921,177117,592209,0
2096921,2096921,177017,592657,0
2096921,2096921,177037,592695,0
2096921,2096921,176662,592639,0
2096921,2096921,177194,592639,0
2096921,2096921,177497,592943,0
2096921,2096921,177641,593365,0
2096921,2096921,177283,593536,0
2096921,2096921,177470,593453,0
2096921,2096921,177465,593276,0
2096921,2096921,177564,593602,0
2096921,2096921,177563,593815,0
2096921,2096921,177359,593563,0
2096921,2096921,177535,593894,0
2096921,2096921,177502,594026,0
2096921,2096921,177489,594232,0
2096921,2096921,177692,594421,0
2096921,2096921,177927,594596,0
2096921,2096921,177726,594475,0
2096921,2096921,177552,594230,0
2096921,2096921,177772,594844,0
2096921,2096921,177476,594666,0
2096921,2096921,177735,594779,0
2096921,2096921,177695,594681,0
2096921,2096921,177884,594586,0
2096921,2096921,178133,594864,0
2096921,2096921,177743,594875,0
2096921,2096921,178059,595124,0
2096921,2096921,177765,594991,0
2096921,2096921,178116,594991,0
2096921,2096921,177976,594949,0
2096921,2096921,177826,595158,0
2096921,2096921,177776,595129,0
2096921,2096921,177840,595114,0
2096921,2096921,177927,594960,0
2096921,2096921,177783,594904,0
2096921,2096921,177821,594941,0
2096921,2096921,177872,595119,0
2096921,2096921,177737,595122,0
2096921,2096921,177732,595222,0
2096921,2096921,177899,595231,0
2096921,2096921,177798,595100,0
2096921,2096921,178050,594939,0
2096921,2096921,177710,594767,0
2096921,2096921,177833,594864,0
2096921,2096921,178010,595075,0
2096921,2096921,177690,594856,0
2096921,2096921,177873,595153,0
2096921,2096921,178011,595105,0
2096921,2096921,177822,594961,0
2096921,2096921,177968,595045,0
2096921,2096921,177861,594988,0
2096921,2096921,177845,594884,0
2096921,2096921,177744,594983,0
2096921,2096921,177792,594994,0
2096921,2096921,177950,595296,0
2096921,2096921,177715,595043,0
2096921,2096921,177978,595504,0
2096921,2096921,177854,595580,0
2096921,2096921,177996,595297,0
2096921,2096921,177848,595508,0
2096921,2096921,178228,595625,0
2096921,2096921,177981,595536,0
2096921,2096921,178183,595493,0
2096921,2096921,178300,595674,0
2096921,2096921,177996,596051,0
2096921,2096921,178006,596049,0
2096921,2096921,178158,596090,0
2096921,2096921,178172,596177,0
2096921,2096921,178621,595943,0
2096921,2096921,178697,596551,0
2096921,2096921,178434,596424,0
2096921,2096921,178307,596577,0
2096921,2096921,178170,596434,0
2096921,2096921,178514,596329,0
2096921,2096921,178679,596962,0
2096921,2096921,178502,596876,0
2096921,2096921,178611,597170,0
2096921,2096921,178594,597236,0
2096921,2096921,178928,597164,0
2096921,2096921,178999,598116,0
2096921,2096921,178968,598087,0
2096921,2096921,178839,598126,0
2096921,2096921,178919,597994,0
2096921,2096921,179147,598177,0
2096921,2096921,179299,598912,0
2096921,2096921,179183,599191,0
2096921,2096921,179242,599160,0
2096921,2096921,179256,599346,0
2096921,2096921,179601,599317,0
2096921,2096921,179326,600124,0
2096921,2096921,179375,600090,0
2096921,2096921,179156,600175,0
2096921,2096921,179574,599908,0
2096921,2096921,179917,600146,0
2096921,2096921,179978,600793,0
2096921,2096921,179829,600867,0
2096921,2096921,179841,600955,0
2096921,2096921,179620,601126,0
2096921,2096921,179945,601403,0
2096921,2096921,180129,602046,0
2096921,2096921,179975,602138,0
2096921,2096921,180154,601836,0
2096921,2096921,179831,601877,0
2096921,2096921,180286,601901,0
2096921,2096921,180090,602757,0
2096921,2096921,180490,602775,0
2096921,2096921,180662,602775,0
2096921,2096921,180545,602891,0
2096921,2096921,180474,602746,0
2096921,2096921,180883,603712,0
2096921,2096921,180768,603845,0
2096921,2096921,180650,603590,0
2096921,2096921,180779,603913,0
2096921,2096921,180734,603589,0
2096921,2096921,181141,604201,0
2096921,2096921,180942,604561,0
2096921,2096921,180945,604681,0
2096921,2096921,180898,604586,0
2096921,2096921,181110,604383,0
2096921,2096921,181209,605227,0
2096921,2096921,181240,605399,0
2096921,2096921,181216,605373,0
2096921,2096921,181520,605593,0
2096921,2096921,181467,605650,0
2096921,2096921,181537,606180,0
2096921,2096921,181486,606362,0
2096921,2096921,181490,606245,0
2096921,2096921,181245,606560,0
2096921,2096921,181725,606442,0
2096921,2096921,181769,606936,0
2096921,2096921,181755,607386,0
2096921,2096921,181435,607188,0
2096921,2096921,181538,607460,0
2096921,2096921,181933,606959,0
2096921,2096921,181979,607739,0
2096921,2096921,181960,607766,0
2096921,2096921,181946,607992,0
2096921,2096921,182177,608007,0
2096921,2096921,182135,607962,0
2096921,2096921,182341,608860,0
2096921,2096921,182030,608979,0
2096921,2096921,182149,608651,0
2096921,2096921,182292,608580,0
2096921,2096921,182271,608815,0
2096921,2096921,182354,609194,0
2096921,2096921,182279,609581,0
2096921,2096921,182112,609665,0
2096921,2096921,182450,609489,0
2096921,2096921,182524,609453,0
2096921,2096921,182864,610212,0
2096921,2096921,182695,610421,0
2096921,2096921,182506,610434,0
2096921,2096921,182703,610141,0
2096921,2096921,182907,610258,0
2096921,2096921,183013,610815,0
2096921,2096921,182904,611334,0
2096921,2096921,183399,611107,0
2096921,2096921,183097,611231,0
2096921,2096921,183217,611457,0
2096921,2096921,183219,611617,0
2096921,2096921,183232,612024,0
2096921,2096921,182861,611787,0
2096921,2096921,183198,611989,0
2096921,2096921,183371,612098,0
2096921,2096921,183435,612422,0
2096921,2096921,183527,612667,0
2096921,2096921,183554,612763,0
2096921,2096921,183503,612807,0
2096921,2096921,183445,612914,0
2096921,2096921,183671,613034,0
2096921,2096921,183706,613166,0
2096921,2096921,183720,613127,0
2096921,2096921,183780,613639,0
2096921,2096921,183878,613603,0
2096921,2096921,183748,613770,0
2096921,2096921,184009,613915,0
2096921,2096921,183697,613967,0
2096921,2096921,183683,613814,0
2096921,2096921,183981,613962,0
2096921,2096921,184016,614342,0
2096921,2096921,183945,614293,0
2096921,2096921,183859,614478,0
2096921,2096921,183473,614309,0
2096921,2096921,183814,614407,0
2096921,2096921,184100,614798,0
2096921,2096921,184313,615228,0
2096921,2096921,184028,615395,0
2096921,2096921,184068,615282,0
2096921,2096921,184305,615391,0
2096921,2096921,184364,615754,0
2096921,2096921,184574,615721,0
2096921,2096921,184311,615871,0
2096921,2096921,184432,616013,0
2096921,2096921,184476,615924,0
2096921,2096921,184716,616218,0
2096921,2096921,184860,616250,0
2096921,2096921,184773,616559,0
2096921,2096921,184589,616375,0
2096921,2096921,184542,616568,0
2096921,2096921,184634,617164,0
2096921,2096921,184915,617083,0
2096921,2096921,184657,617094,0
2096921,2096921,184622,617176,0
2096921,2096921,185184,617139,0
2096921,2096921,185019,617289,0
2096921,2096921,184831,617201,0
2096921,2096921,185077,617379,0
2096921,2096921,185170,617578,0
2096921,2096921,185466,617515,0
2096921,2096921,185200,618011,0
2096921,2096921,184873,617954,0
2096921,2096921,185210,617859,0
2096921,2096921,184737,618092,0
2096921,2096921,184783,618011,0
2096921,2096921,185247,618481,0
2096921,2096921,185255,618509,0
2096921,2096921,185180,618534,0
2096921,2096921,185251,618544,0
2096921,2096921,185409,618747,0
2096921,2096921,185696,619109,0
2096921,2096921,185385,618894,0
2096921,2096921,185275,618928,0
2096921,2096921,185370,618892,0
2096921,2096921,185527,618839,0
2096921,2096921,185819,619448,0
2096921,2096921,185500,619519,0
2096921,2096921,185865,619399,0
2096921,2096921,185808,619304,0
2096921,2096921,185782,619331,0
2096921,2096921,185862,619863,0
2096921,2096921,185862,620017,0
2096921,2096921,185628,619600,0
2096921,2096921,185705,619859,0
2096921,2096921,185453,619817,0
2096921,2096921,185505,620127,0
2096921,2096921,185725,620439,0
2096921,2096921,185806,620211,0
2096921,2096921,186083,620173,0
2096921,2096921,185954,620051,0
2096921,2096921,186066,620570,0
2096921,2096921,185811,620437,0
2096921,2096921,185756,620634,0
2096921,2096921,185825,620837,0
2096921,2096921,186271,620570,0
2096921,2096921,186085,620932,0
2096921,2096921,186023,620938,0
2096921,2096921,186246,621230,0
2096921,2096921,186507,621354,0
2096921,2096921,186211,620953,0
2096921,2096921,185991,621451,0
2096921,2096921,185952,621540,0
2096921,2096921,185936,621268,0
2096921,2096921,186117,621183,0
2096921,2096921,186240,621563,0
2096921,2096921,186263,621933,0
2096921,2096921,186222,621928,0
2096921,2096921,186166,621781,0
2096921,2096921,186244,621862,0
2096921,2096921,186555,621715,0
2096921,2096921,186383,622077,0
2096921,2096921,186574,622060,0
2096921,2096921,186604,621817,0
2096921,2096921,186340,621681,0
2096921,2096921,186633,621913,0
2096921,2096921,186377,622069,0
2096921,2096921,186600,622725,0
2096921,2096921,186615,622537,0
2096921,2096921,186395,622326,0
2096921,2096921,186473,622794,0
2096921,2096921,186439,622855,0
2096921,2096921,186659,623029,0
2096921,2096921,186768,623038,0
2096921,2096921,186603,622920,0
2096921,2096921,186716,622935,0
2096921,2096921,186672,623083,0
2096921,2096921,187052,623409,0
2096921,2096921,186770,623386,0
2096921,2096921,186570,623202,0
2096921,2096921,186968,623165,0
2096921,2096921,186766,623338,0
2096921,2096921,186669,623321,0
2096921,2096921,186902,623611,0
2096921,2096921,186495,623277,0
2096921,2096921,186764,623279,0
2096921,2096921,186761,623584,0
2096921,2096921,187092,623498,0
2096921,2096921,187146,623608,0
2096921,2096921,186998,623713,0
2096921,2096921,187000,623560,0
2096921,2096921,186973,624255,0
2096921,2096921,187051,624147,0
2096921,2096921,186840,623942,0
2096921,2096921,186835,624080,0
2096921,2096921,186778,623916,0
2096921,2096921,187063,624188,0
2096921,2096921,187130,624083,0
2096921,2096921,187104,624365,0
2096921,2096921,187031,624259,0
2096921,2096921,187405,624294,0
2096921,2096921,187456,624348,0
2096921,2096921,187178,624604,0
2096921,2096921,187148,624316,0
2096921,2096921,187085,624310,0
2096921,2096921,187187,624262,0
2096921,2096921,187173,624574,0
2096921,2096921,187322,624707,0
2096921,2096921,187138,624388,0
2096921,2096921,187179,624682,0
2096921,2096921,187026,624747,0
2096921,2096921,187304,624404,0
2096921,2096921,187287,624479,0
2096921,2096921,186875,624220,0
2096921,2096921,187263,624373,0
2096921,2096921,187209,624862,0
2096921,2096921,187175,624559,0
2096921,2096921,187432,624721,0
2096921,2096921,187166,624764,0
2096921,2096921,187275,624645,0
2096921,2096921,187467,624546,0
2096921,2096921,187104,624653,0
2096921,2096921,187207,624540,0
2096921,2096921,187219,624754,0
2096921,2096921,187555,624664,0
2096921,2096921,187220,624713,0
2096921,2096921,187007,624884,0
2096921,2096921,187218,624945,0
2096921,2096921,187169,624695,0
2096921,2096921,187314,624796,0
2096921,2096921,187394,624805,0
2096921,2096921,187220,625045,0
2096921,2096921,187375,625244,0
2096921,2096921,187420,625128,0
2096921,2096921,187307,625006,0
2096921,2096921,187387,624767,0
2096921,2096921,187398,624944,0
2096921,2096921,187402,624933,0
2096921,2096921,187347,625163,0
2096921,2096921,187206,624991,0
2096921,2096921,187415,625161,0
2096921,2096921,187453,625024,0
2096921,2096921,187395,624832,0
2096921,2096921,187375,624975,0
2096921,2096921,187200,624975,0
2096921,2096921,187180,624910,0
2096921,2096921,187023,624396,0
2096921,2096921,187212,624270,0
2096921,2096921,187197,624532,0
2096921,2096921,187232,624417,0
2096921,2096921,186906,624136,0
2096921,2096921,186912,623546,0
2096921,2096921,186943,623224,0
2096921,2096921,187041,623302,0
2096921,2096921,186739,623424,0
2096921,2096921,186240,623395,0
2096921,2096921,186387,622616,0
2096921,2096921,186231,622124,0
2096921,2096921,186391,622298,0
2096921,2096921,186049,621928,0
2096921,2096921,185961,622017,0
2096921,2096921,185507,620286,0
2096921,2096921,185659,620004,0
2096921,2096921,185686,619821,0
2096921,2096921,185658,620268,0
2096921,2096921,185262,619788,0
2096921,2096921,185113,618421,0
2096921,2096921,185129,617993,0
2096921,2096921,185151,618141,0
2096921,2096921,185113,618033,0
2096921,2096921,184070,618172,0
2096921,2096921,184019,614751,0
2096921,2096921,183488,613596,0
2096921,2096921,183599,613446,0
2096921,2096921,183650,613519,0
2096921,2096921,182564,613142,0
2096921,2096921,182006,608781,0
2096921,2096921,181812,607749,0
2096921,2096921,181883,607735,0
2096921,2096921,181717,607735,0
2096921,2096921,180833,607797,0
2096921,2096921,180550,604360,0
2096921,2096921,180334,603778,0
2096921,2096921,180568,603712,0
2096921,2096921,180499,603654,0
2096921,2096921,179744,603441,0
2096921,2096921,179709,601309,0
2096921,2096921,179590,600658,0
2096921,2096921,179388,600596,0
2096921,2096921,179515,600461,0
2096921,2096921,178889,600641,0
2096921,2096921,178567,598865,0
2096921,2096921,178272,598203,0
2096921,2096921,178484,598092,0
2096921,2096921,178908,597994,0
2096921,2096921,178226,597758,0
2096921,2096921,178371,596882,0
2096921,2096921,178158,596470,0
2096921,2096921,178420,596441,0
2096921,2096921,178144,596505,0
2096921,2096921,177803,596306,0
2096921,2096921,177638,595233,0
2096921,2096921,177614,594993,0
2096921,2096921,177733,594878,0
2096921,2096921,177829,594970,0
2096921,2096921,177565,595242,0
2096921,2096921,177814,594658,0
2096921,2096921,177589,594358,0
2096921,2096921,177652,594482,0
2096921,2096921,177737,594544,0
2096921,2096921,177579,594401,0
2096921,2096921,177651,594374,0
2096921,2096921,177275,593971,0
2096921,2096921,177601,593970,0
2096921,2096921,177407,594074,0
2096921,2096921,177168,594053,0
2096921,2096921,177608,594138,0
2096921,2096921,177788,594129,0
2096921,2096921,177869,594192,0
2096921,2096921,177717,594169,0
2096921,2096921,177789,594045,0
2096921,2096921,177617,594567,0
2096921,2096921,177459,594505,0
2096921,2096921,177620,594653,0
2096921,2096921,177511,594696,0
2096921,2096921,177927,594520,0
2096921,2096921,177766,594871,0
2096921,2096921,177992,594719,0
2096921,2096921,177900,594966,0
2096921,2096921,177621,594718,0
2096921,2096921,177649,594758,0
2096921,2096921,177812,595180,0
2096921,2096921,177867,595176,0
2096921,2096921,177915,594989,0
2096921,2096921,177873,595183,0
2096921,2096921,178324,595023,0
2096921,2096921,178553,596059,0
2096921,2096921,178379,596336,0
2096921,2096921,178018,596149,0
2096921,2096921,178289,596304,0
2096921,2096921,178418,595977,0
2096921,2096921,178597,596820,0
2096921,2096921,178258,596900,0
2096921,2096921,178662,596773,0
2096921,2096921,178414,596797,0
2096921,2096921,178716,596933,0
2096921,2096921,179063,597631,0
2096921,2096921,178770,597911,0
2096921,2096921,178925,598117,0
2096921,2096921,178915,597976,0
2096921,2096921,179006,597841,0
2096921,2096921,179127,598962,0
2096921,2096921,179246,598988,0
2096921,2096921,178994,599054,0
2096921,2096921,178843,599161,0
2096921,2096921,179236,599146,0
2096921,2096921,179333,599869,0
2096921,2096921,179551,600072,0
2096921,2096921,179466,599942,0
2096921,2096921,179306,600227,0
2096921,2096921,179436,600071,0
2096921,2096921,179680,600759,0
2096921,2096921,179519,600894,0
2096921,2096921,179775,600689,0
2096921,2096921,179623,600712,0
2096921,2096921,180158,600490,0
2096921,2096921,179887,601269,0
2096921,2096921,180029,601666,0
2096921,2096921,180184,601745,0
2096921,2096921,180017,601944,0
2096921,2096921,179916,601782,0
2096921,2096921,180387,602566,0
2096921,2096921,180226,602880,0
2096921,2096921,180302,602903,0
2096921,2096921,180401,602758,0
2096921,2096921,180508,602542,0
2096921,2096921,180826,603435,0
2096921,2096921,180611,603700,0
2096921,2096921,180659,603678,0
2096921,2096921,180918,603881,0
2096921,2096921,181041,603886,0
2096921,2096921,180852,604890,0
2096921,2096921,180952,604785,0
2096921,2096921,181046,604662,0
2096921,2096921,181054,604759,0
2096921,2096921,181227,604556,0
2096921,2096921,181220,605378,0
2096921,2096921,181229,605714,0
2096921,2096921,181385,605978,0
2096921,2096921,181507,606063,0
2096921,2096921,181429,605883,0
2096921,2096921,181367,606453,0
2096921,2096921,181501,606705,0
2096921,2096921,181050,606728,0
2096921,2096921,181540,606685,0
2096921,2096921,181761,607171,0
2096921,2096921,181678,607531,0
2096921,2096921,182115,607754,0
2096921,2096921,181988,607880,0
2096921,2096921,181857,607824,0
2096921,2096921,182323,607924,0
2096921,2096921,182009,608331,0
2096921,2096921,182259,608573,0
2096921,2096921,181776,608502,0
2096921,2096921,181945,608587,0
2096921,2096921,182042,608692,0
2096921,2096921,182165,609122,0
2096921,2096921,182488,609123,0
2096921,2096921,182323,608981,0
2096921,2096921,182136,608922,0
2096921,2096921,182503,609071,0
2096921,2096921,182242,609045,0
2096921,2096921,182339,609374,0
2096921,2096921,182278,609444,0
2096921,2096921,182343,609520,0
2096921,2096921,182700,609494,0
2096921,2096921,182519,609680,0
2096921,2096921,182639,609709,0
2096921,2096921,182463,610099,0
2096921,2096921,182475,609962,0
2096921,2096921,182484,609865,0
2096921,2096921,182506,609638,0
2096921,2096921,182402,609580,0
2096921,2096921,182432,609741,0
2096921,2096921,182320,609688,0
2096921,2096921,182356,609678,0
2096921,2096921,182360,609745,0
2096921,2096921,182498,609552,0
2096921,2096921,182583,609464,0
2096921,2096921,182536,610043,0
2096921,2096921,182679,609637,0
2096921,2096921,182487,609356,0
2096921,2096921,182229,609415,0
2096921,2096921,182204,609495,0
2096921,2096921,182288,609512,0
2096921,2096921,182253,609549,0
2096921,2096921,182271,609473,0
2096921,2096921,182310,609217,0
2096921,2096921,182225,609261,0
2096921,2096921,182151,609018,0
2096921,2096921,182335,608951,0
2096921,2096921,182359,608725,0
2096921,2096921,181978,608446,0
2096921,2096921,182165,608383,0
2096921,2096921,182050,608707,0
2096921,2096921,182274,608634,0
2096921,2096921,182210,608353,0
2096921,2096921,181850,608414,0
2096921,2096921,182047,608385,0
2096921,2096921,182194,608309,0
2096921,2096921,182111,608212,0
2096921,2096921,182152,607893,0
2096921,2096921,181900,608097,0
2096921,2096921,181842,607749,0
2096921,2096921,181856,608152,0
2096921,2096921,181876,607964,0
2096921,2096921,181955,607831,0
2096921,2096921,181875,607859,0
2096921,2096921,181920,607634,0
2096921,2096921,181863,607968,0
2096921,2096921,181764,607837,0
2096921,2096921,182208,607955,0
2096921,2096921,182011,607612,0
2096921,2096921,181877,607513,0
2096921,2096921,181914,607736,0
2096921,2096921,181616,607675,0
2096921,2096921,181912,607938,0
2096921,2096921,181912,607700,0
2096921,2096921,181827,607592,0
2096921,2096921,181833,607763,0
2096921,2096921,181602,607803,0
2096921,2096921,181890,607858,0
2096921,2096921,181564,607889,0
2096921,2096921,181908,607646,0
2096921,2096921,181925,607809,0
2096921,2096921,181941,607806,0
2096921,2096921,181942,608124,0
2096921,2096921,182086,608226,0
2096921,2096921,181729,608141,0
2096921,2096921,181831,608366,0
2096921,2096921,182153,608226,0
2096921,2096921,182084,608650,0
2096921,2096921,181934,608687,0
2096921,2096921,182163,608864,0
2096921,2096921,181971,608404,0
2096921,2096921,182116,608820,0
2096921,2096921,182241,609008,0
2096921,2096921,182523,609210,0
2096921,2096921,182353,609604,0
2096921,2096921,182258,609444,0
2096921,2096921,182525,609444,0
2096921,2096921,182581,609708,0
2096921,2096921,182763,609874,0
2096921,2096921,182609,609925,0
2096921,2096921,182474,609996,0
2096921,2096921,182627,609921,0
2096921,2096921,182461,610304,0
2096921,2096921,182699,610306,0
2096921,2096921,183083,610517,0
2096921,2096921,182717,610453,0
2096921,2096921,183226,610456,0
2096921,2096921,182805,610804,0
2096921,2096921,182810,610742,0
2096921,2096921,182967,610976,0
2096921,2096921,182947,610817,0
2096921,2096921,183074,610910,0
2096921,2096921,182849,611360,0
2096921,2096921,183248,611124,0
2096921,2096921,182861,611252,0
2096921,2096921,183055,611355,0
2096921,2096921,183019,611273,0
2096921,2096921,183336,611457,0
2096921,2096921,183286,611668,0
2096921,2096921,183228,611475,0
2096921,2096921,183015,611489,0
2096921,2096921,183080,611423,0
2096921,2096921,183224,611904,0
2096921,2096921,183321,612256,0
2096921,2096921,183085,612213,0
2096921,2096921,183114,612298,0
2096921,2096921,183253,612024,0
2096921,2096921,183309,612282,0
2096921,2096921,183066,612175,0
2096921,2096921,183242,612335,0
2096921,2096921,183383,612547,0
2096921,2096921,183361,612362,0
2096921,2096921,183522,612681,0
2096921,2096921,183345,613146,0
2096921,2096921,183424,613086,0
2096921,2096921,183777,613069,0
2096921,2096921,183442,613061,0
2096921,2096921,183738,613098,0
2096921,2096921,183886,613218,0
2096921,2096921,183615,613312,0
2096921,2096921,183604,613402,0
2096921,2096921,183828,613353,0
2096921,2096921,183663,613729,0
2096921,2096921,183700,613443,0
2096921,2096921,183657,613636,0
2096921,2096921,183708,613810,0
2096921,2096921,183742,614042,0
2096921,2096921,183739,613861,0
2096921,2096921,183484,613939,0
2096921,2096921,183988,613960,0
2096921,2096921,183751,613962,0
2096921,2096921,183954,613796,0
2096921,2096921,183920,614284,0
2096921,2096921,184170,614531,0
2096921,2096921,183978,614423,0
2096921,2096921,184193,614313,0
2096921,2096921,184320,614261,0
2096921,2096921,184292,614596,0
2096921,2096921,183917,614331,0
2096921,2096921,183834,614633,0
2096921,2096921,183858,614416,0
2096921,2096921,184268,614566,0
2096921,2096921,184189,614944,0
2096921,2096921,183982,614627,0
2096921,2096921,184267,614884,0
2096921,2096921,184227,615117,0
2096921,2096921,184553,615031,0
2096921,2096921,184202,615368,0
2096921,2096921,184195,615010,0
2096921,2096921,184423,614934,0
2096921,2096921,184008,615089,0
2096921,2096921,184302,614988,0
2096921,2096921,184304,615447,0
2096921,2096921,184250,615310,0
2096921,2096921,184500,615452,0
2096921,2096921,184289,615602,0
2096921,2096921,184388,615530,0
2096921,2096921,184374,615481,0
2096921,2096921,184254,615711,0
2096921,2096921,184190,615338,0
2096921,2096921,184441,615493,0
2096921,2096921,184491,615565,0
2096921,2096921,184284,615561,0
2096921,2096921,184184,615779,0
2096921,2096921,184497,615702,0
2096921,2096921,184451,615857,0
2096921,2096921,184413,615773,0
2096921,2096921,184443,615956,0
2096921,2096921,184312,615867,0
2096921,2096921,184341,615876,0
2096921,2096921,184586,615797,0
2096921,2096921,184588,615816,0
2096921,2096921,184616,616165,0
2096921,2096921,184508,616093,0
2096921,2096921,184753,616056,0
2096921,2096921,184520,616034,0
2096921,2096921,184605,615879,0
2096921,2096921,184434,616031,0
2096921,2096921,184216,616273,0
2096921,2096921,184451,616009,0
2096921,2096921,184426,616168,0
2096921,2096921,184713,615828,0
2096921,2096921,184807,616321,0
2096921,2096921,184450,616077,0
2096921,2096921,184567,616304,0
2096921,2096921,184813,616361,0
2096921,2096921,184548,616150,0
2096921,2096921,184451,616320,0
2096921,2096921,184406,616213,0
2096921,2096921,184248,616022,0
2096921,2096921,184675,616099,0
2096921,2096921,184750,616352,0
2096921,2096921,184688,616297,0
2096921,2096921,184593,616073,0
2096921,2096921,184445,615981,0
2096921,2096921,184555,616122,0
2096921,2096921,184613,615870,0
2096921,2096921,184380,616028,0
2096921,2096921,184667,616028,0
2096921,2096921,184593,615940,0
2096921,2096921,184537,615932,0
2096921,2096921,184457,616083,0
2096921,2096921,184473,616013,0
2096921,2096921,184613,616083,0
2096921,2096921,184544,616287,0
2096921,2096921,184504,616122,0
2096921,2096921,184566,616339,0
2096921,2096921,184538,616370,0
2096921,2096921,184612,616126,0
2096921,2096921,184609,616319,0
2096921,2096921,184530,616073,0
2096921,2096921,184363,616049,0
2096921,2096921,184290,616166,0
2096921,2096921,184555,616090,0
2096921,2096921,184298,616201,0
2096921,2096921,184545,616038,0
2096921,2096921,184705,616088,0
2096921,2096921,184488,616001,0
2096921,2096921,184469,615983,0
2096921,2096921,184697,616016,0
2096921,2096921,184523,616214,0
2096921,2096921,184491,616282,0
2096921,2096921,184496,616021,0
2096921,2096921,184774,616130,0
2096921,2096921,184486,616095,0
2096921,2096921,184570,615896,0
2096921,2096921,184606,615668,0
2096921,2096921,184421,615934,0
2096921,2096921,184549,615847,0
2096921,2096921,184542,615676,0
2096921,2096921,184283,615440,0
2096921,2096921,184623,615808,0
2096921,2096921,184541,615993,0
2096921,2096921,184447,615847,0
2096921,2096921,184522,615563,0
2096921,2096921,184285,615658,0
2096921,2096921,184162,615691,0
2096921,2096921,184532,615790,0
2096921,2096921,184219,615737,0
2096921,2096921,184518,615668,0
2096921,2096921,184574,615635,0
2096921,2096921,184435,615555,0
2096921,2096921,184677,615156,0
2096921,2096921,184349,615309,0
2096921,2096921,184460,615249,0
2096921,2096921,184055,615353,0
2096921,2096921,184412,615608,0
2096921,2096921,184118,615464,0
2096921,2096921,184195,615301,0
2096921,2096921,184253,615262,0
2096921,2096921,184174,615332,0
2096921,2096921,184063,615263,0
2096921,2096921,184045,615350,0
2096921,2096921,184067,615075,0
2096921,2096921,184318,615108,0
2096921,2096921,184385,614970,0
2096921,2096921,184284,615254,0
2096921,2096921,184333,615214,0
2096921,2096921,183981,615335,0
2096921,2096921,183853,615108,0
2096921,2096921,184123,615189,0
2096921,2096921,184203,615317,0
2096921,2096921,183735,615167,0
2096921,2096921,184213,614955,0
2096921,2096921,184042,615037,0
2096921,2096921,184158,615134,0
2096921,2096921,184319,614797,0
2096921,2096921,184409,614676,0
2096921,2096921,183843,614673,0
2096921,2096921,184124,614912,0
2096921,2096921,183841,614764,0
2096921,2096921,183967,614482,0
2096921,2096921,184088,614722,0
2096921,2096921,184042,614765,0
2096921,2096921,184167,614485,0
2096921,2096921,183930,614740,0
2096921,2096921,183824,614733,0
2096921,2096921,183960,614307,0
2096921,2096921,183985,614532,0
2096921,2096921,183908,614327,0
2096921,2096921,184095,614797,0
2096921,2096921,183867,614489,0
2096921,2096921,183789,614083,0
2096921,2096921,184023,614252,0
2096921,2096921,183876,614310,0
2096921,2096921,184084,614206,0
2096921,2096921,183822,614370,0
2096921,2096921,183759,613778,0
2096921,2096921,183718,614117,0
2096921,2096921,183715,614103,0
2096921,2096921,183833,613796,0
2096921,2096921,183735,613719,0
2096921,2096921,183848,613879,0
2096921,2096921,183971,613670,0
2096921,2096921,183622,613355,0
2096921,2096921,183709,613479,0
2096921,2096921,183739,613633,0
2096921,2096921,183726,613437,0
2096921,2096921,183610,613085,0
2096921,2096921,183666,613143,0
2096921,2096921,183620,613082,0
2096921,2096921,183581,613263,0
2096921,2096921,183588,613053,0
2096921,2096921,183747,612998,0
2096921,2096921,183682,612964,0
2096921,2096921,183681,612813,0
2096921,2096921,183619,612893,0
2096921,2096921,183381,612881,0
2096921,2096921,183411,612878,0
2096921,2096921,183410,612681,0
2096921,2096921,183525,612451,0
2096921,2096921,183198,612480,0
2096921,2096921,183203,612335,0
2096921,2096921,183087,612292,0
2096921,2096921,183320,612227,0
2096921,2096921,183287,612697,0
2096921,2096921,183312,612481,0
2096921,2096921,183154,611899,0
2096921,2096921,183399,612017,0
2096921,2096921,183229,611888,0
2096921,2096921,183343,612246,0
2096921,2096921,183235,612213,0
2096921,2096921,183546,612313,0
2096921,2096921,183191,611914,0
2096921,2096921,183072,611832,0
2096921,2096921,183613,612079,0
2096921,2096921,183311,612057,0
2096921,2096921,183253,611764,0
2096921,2096921,183074,611901,0
2096921,2096921,182722,611810,0
2096921,2096921,183050,611895,0
2096921,2096921,182561,612019,0
2096921,2096921,182522,610683,0
2096921,2096921,182779,610709,0
2096921,2096921,182834,610238,0
2096921,2096921,182927,610385,0
2096921,2096921,182598,610422,0
2096921,2096921,182270,609384,0
2096921,2096921,182309,609429,0
2096921,2096921,182441,609578,0
2096921,2096921,182524,609479,0
2096921,2096921,181917,609613,0
2096921,2096921,182128,608237,0
2096921,2096921,181892,607856,0
2096921,2096921,181811,607667,0
2096921,2096921,181742,607787,0
2096921,2096921,181512,607555,0
2096921,2096921,181387,605752,0
2096921,2096921,181419,605438,0
2096921,2096921,180969,605431,0
2096921,2096921,180984,605121,0
2096921,2096921,180573,605501,0
2096921,2096921,180251,603769,0
2096921,2096921,180450,603476,0
2096921,2096921,180831,603091,0
2096921,2096921,180270,602946,0
2096921,2096921,179296,603356,0
2096921,2096921,178989,599377,0
2096921,2096921,179006,598734,0
2096921,2096921,178742,598379,0
2096921,2096921,178754,598175,0
2096921,2096921,177291,598360,0
2096921,2096921,177061,593863,0
2096921,2096921,177293,592933,0
2096921,2096921,177296,592703,0
2096921,2096921,177605,592330,0
2096921,2096921,176086,592440,0
2096921,2096921,175907,589055,0
2096921,2096921,175669,587975,0
2096921,2096921,175858,588239,0
2096921,2096921,175610,587961,0
2096921,2096921,174662,588319,0
2096921,2096921,174681,585500,0
2096921,2096921,174516,584746,0
2096921,2096921,174577,584553,0
2096921,2096921,174842,584563,0
2096921,2096921,174038,584691,0
2096921,2096921,173790,582620,0
2096921,2096921,173847,582065,0
2096921,2096921,173671,581947,0
2096921,2096921,173588,581842,0
2096921,2096921,173392,582138,0
2096921,2096921,173271,580625,0
2096921,2096921,173184,579937,0
2096921,2096921,173454,580270,0
2096921,2096921,173406,580009,0
2096921,2096921,172812,580443,0
2096921,2096921,172855,578992,0
2096921,2096921,172694,578880,0
2096921,2096921,172673,578757,0
2096921,2096921,172665,578689,0
2096921,2096921,172353,578682,0
2096921,2096921,172426,577659,0
2096921,2096921,172679,577556,0
2096921,2096921,172516,577731,0
2096921,2096921,172387,577676,0
2096921,2096921,172284,577592,0
2096921,2096921,172490,577118,0
2096921,2096921,172178,577242,0
2096921,2096921,171996,577128,0
2096921,2096921,172289,576952,0
2096921,2096921,172167,576806,0
2096921,2096921,172170,576655,0
2096921,2096921,172275,576653,0
2096921,2096921,172078,576851,0
2096921,2096921,172059,576921,0
2096921,2096921,172404,576843,0
2096921,2096921,172112,576730,0
2096921,2096921,172165,577105,0
2096921,2096921,172167,577156,0
2096921,2096921,172237,577147,0
2096921,2096921,171832,577019,0
2096921,2096921,172324,576765,0
2096921,2096921,172202,577029,0
2096921,2096921,172258,577230,0
2096921,2096921,172307,576926,0
2096921,2096921,172208,576956,0
2096921,2096921,172325,576997,0
2096921,2096921,171947,577280,0
2096921,2096921,172046,577195,0
2096921,2096921,172160,577128,0
2096921,2096921,172322,576831,0
2096921,2096921,172400,577656,0
2096921,2096921,172365,577721,0
2096921,2096921,172362,577794,0
2096921,2096921,172721,577753,0
2096921,2096921,172821,577536,0
2096921,2096921,172585,578044,0
2096921,2096921,172684,578570,0
2096921,2096921,172411,578420,0
2096921,2096921,172523,578140,0
2096921,2096921,173091,578285,0
2096921,2096921,173052,579039,0
2096921,2096921,173318,579300,0
2096921,2096921,172950,579226,0
2096921,2096921,173190,579324,0
2096921,2096921,173406,579166,0
2096921,2096921,173112,579698,0
2096921,2096921,173172,579586,0
2096921,2096921,173194,579911,0
2096921,2096921,173131,579655,0
2096921,2096921,173264,579775,0
2096921,2096921,173416,580166,0
2096921,2096921,173467,580749,0
2096921,2096921,173260,580595,0
2096921,2096921,173534,580553,0
2096921,2096921,173784,580512,0
2096921,2096921,173443,581259,0
2096921,2096921,173373,580958,0
2096921,2096921,173646,581054,0
2096921,2096921,173631,581173,0
2096921,2096921,173977,581276,0
2096921,2096921,173786,581588,0
2096921,2096921,173659,581472,0
2096921,2096921,173675,581853,0
2096921,2096921,173659,581866,0
2096921,2096921,174137,582053,0
2096921,2096921,174186,582457,0
2096921,2096921,173903,582372,0
2096921,2096921,174167,582183,0
2096921,2096921,173722,582309,0
2096921,2096921,174186,582493,0
2096921,2096921,174211,583157,0
2096921,2096921,174467,583432,0
2096921,2096921,174380,583342,0
2096921,2096921,174297,583401,0
2096921,2096921,174510,583255,0
2096921,2096921,174183,584001,0
2096921,2096921,174306,583719,0
2096921,2096921,174494,584058,0
2096921,2096921,174430,584037,0
2096921,2096921,174819,584068,0
2096921,2096921,174844,584673,0
2096921,2096921,174808,584963,0
2096921,2096921,174814,584908,0
2096921,2096921,174687,584930,0
2096921,2096921,175063,584722,0
2096921,2096921,175321,585457,0
2096921,2096921,175178,585758,0
2096921,2096921,174955,585689,0
2096921,2096921,174846,585404,0
2096921,2096921,174858,585465,0
2096921,2096921,175055,586139,0
2096921,2096921,175110,586102,0
2096921,2096921,175155,586131,0
2096921,2096921,175148,586446,0
2096921,2096921,175170,586350,0
2096921,2096921,175173,586672,0
2096921,2096921,174986,586873,0
2096921,2096921,175319,586656,0
2096921,2096921,175319,586701,0
2096921,2096921,175410,586582,0
2096921,2096921,175295,587197,0
2096921,2096921,175604,586987,0
2096921,2096921,175662,587251,0
2096921,2096921,175668,587250,0
2096921,2096921,175692,587376,0
2096921,2096921,175497,587362,0
2096921,2096921,175385,587437,0
2096921,2096921,175613,587365,0
2096921,2096921,175419,587468,0
2096921,2096921,175582,587258,0
2096921,2096921,175648,587365,0
2096921,2096921,175673,587914,0
2096921,2096921,175577,587590,0
2096921,2096921,175916,587777,0
2096921,2096921,175647,587715,0
2096921,2096921,175590,587504,0
2096921,2096921,175548,587376,0
2096921,2096921,175790,587379,0
2096921,2096921,175596,587145,0
2096921,2096921,175315,586811,0
2096921,2096921,175379,586894,0
2096921,2096921,175334,587032,0
2096921,2096921,175308,587044,0
2096921,2096921,175551,586911,0
2096921,2096921,175136,587325,0
2096921,2096921,175404,586954,0
2096921,2096921,175415,586655,0
2096921,2096921,175565,586561,0
2096921,2096921,175387,586702,0
2096921,2096921,175054,586526,0
2096921,2096921,175259,586168,0
2096921,2096921,175198,586279,0
2096921,2096921,175285,586202,0
2096921,2096921,175212,586586,0
2096921,2096921,175040,586118,0
2096921,2096921,175064,585861,0
2096921,2096921,174986,585599,0
2096921,2096921,174977,585640,0
2096921,2096921,174919,585849,0
2096921,2096921,174604,585870,0
2096921,2096921,174875,585236,0
2096921,2096921,174990,585317,0
2096921,2096921,174879,585228,0
2096921,2096921,174944,585463,0
2096921,2096921,174580,585452,0
2096921,2096921,174490,584938,0
2096921,2096921,174637,584755,0
2096921,2096921,174670,584792,0
2096921,2096921,174564,584896,0
2096921,2096921,174499,584497,0
2096921,2096921,175007,584712,0
2096921,2096921,174722,584697,0
2096921,2096921,174586,584865,0
2096921,2096921,174748,584963,0
2096921,2096921,174788,584932,0
2096921,2096921,174493,584625,0
2096921,2096921,174653,584836,0
2096921,2096921,174322,584722,0
2096921,2096921,174801,584722,0
2096921,2096921,174534,584661,0
2096921,2096921,174621,584743,0
2096921,2096921,174873,584774,0
2096921,2096921,174430,584795,0
2096921,2096921,174688,584664,0
2096921,2096921,174669,584635,0
2096921,2096921,174579,584737,0
2096921,2096921,174397,584680,0
2096921,2096921,174490,584573,0
2096921,2096921,174516,584346,0
2096921,2096921,174823,584573,0
2096921,2096921,174823,584827,0
2096921,2096921,174977,584846,0
2096921,2096921,174793,584872,0
2096921,2096921,174862,584890,0
2096921,2096921,175093,585285,0
2096921,2096921,174931,585570,0
2096921,2096921,174902,585555,0
2096921,2096921,174933,585257,0
2096921,2096921,174954,585347,0
2096921,2096921,175331,585696,0
2096921,2096921,175115,586090,0
2096921,2096921,175161,586313,0
2096921,2096921,175368,586278,0
2096921,2096921,175030,586431,0
2096921,2096921,175364,586227,0
2096921,2096921,175453,586910,0
2096921,2096921,175231,586677,0
2096921,2096921,175227,586642,0
2096921,2096921,175329,586920,0
2096921,2096921,175404,586748,0
2096921,2096921,175473,587415,0
2096921,2096921,175415,587452,0
2096921,2096921,175352,587389,0
2096921,2096921,175578,587344,0
2096921,2096921,175541,587233,0
2096921,2096921,175883,587823,0
2096921,2096921,175536,587788,0
2096921,2096921,175438,587680,0
2096921,2096921,175430,587973,0
2096921,2096921,175812,587814,0
2096921,2096921,175700,588521,0
2096921,2096921,175874,588434,0
2096921,2096921,175722,588476,0
2096921,2096921,175799,588794,0
2096921,2096921,175854,588374,0
2096921,2096921,176014,588857,0
2096921,2096921,175808,588881,0
2096921,2096921,175695,588756,0
2096921,2096921,175761,588873,0
2096921,2096921,176115,588818,0
2096921,2096921,176038,589297,0
2096921,2096921,176191,589379,0
2096921,2096921,176530,589404,0
2096921,2096921,176170,589489,0
2096921,2096921,176394,589298,0
2096921,2096921,176363,590167,0
2096921,2096921,176426,589773,0
2096921,2096921,176494,589790,0
2096921,2096921,176199,589891,0
2096921,2096921,176467,589869,0
2096921,2096921,176518,590386,0
2096921,2096921,176611,590459,0
2096921,2096921,176498,590671,0
2096921,2096921,176617,590337,0
2096921,2096921,176473,590447,0
2096921,2096921,176668,590726,0
2096921,2096921,176570,591059,0
2096921,2096921,176384,591116,0
2096921,2096921,176536,591190,0
2096921,2096921,176745,591130,0
2096921,2096921,176943,591323,0
2096921,2096921,176823,591330,0
2096921,2096921,176699,591702,0
2096921,2096921,176761,591642,0
2096921,2096921,176936,591459,0
2096921,2096921,176703,591970,0
2096921,2096921,176668,591988,0
2096921,2096921,176907,591988,0
2096921,2096921,176980,591917,0
2096921,2096921,177087,592023,0
2096921,2096921,177167,592342,0
2096921,2096921,177320,592826,0
2096921,2096921,177045,592549,0
2096921,2096921,177467,592416,0
2096921,2096921,177450,592308,0
2096921,2096921,177196,592773,0
2096921,2096921,177094,593109,0
2096921,2096921,177331,592990,0
2096921,2096921,177173,592883,0
2096921,2096921,177337,592984,0
2096921,2096921,177391,593164,0
2096921,2096921,177557,593568,0
2096921,2096921,177467,593613,0
2096921,2096921,177471,593567,0
2096921,2096921,177667,593686,0
2096921,2096921,177453,593851,0
2096921,2096921,177916,593563,0
2096921,2096921,177650,593508,0
2096921,2096921,177344,593818,0
2096921,2096921,177642,593854,0
2096921,2096921,177632,594401,0
2096921,2096921,177502,594429,0
2096921,2096921,177574,594420,0
2096921,2096921,177763,594139,0
2096921,2096921,177893,594363,0
2096921,2096921,177707,594325,0
2096921,2096921,177955,594560,0
2096921,2096921,178170,594719,0
2096921,2096921,177981,594891,0
2096921,2096921,177993,594790,0
2096921,2096921,177952,595026,0
2096921,2096921,177955,595123,0
2096921,2096921,178016,594993,0
2096921,2096921,177969,595160,0
2096921,2096921,177903,595209,0
2096921,2096921,178043,595249,0
2096921,2096921,178188,595143,0
2096921,2096921,178308,595311,0
2096921,2096921,177906,595329,0
2096921,2096921,178005,595324,0
2096921,2096921,178072,595647,0
2096921,2096921,178286,595861,0
2096921,2096921,178265,595982,0
2096921,2096921,178368,596005,0
2096921,2096921,178400,595944,0
2096921,2096921,178050,596271,0
2096921,2096921,178330,596309,0
2096921,2096921,178334,596200,0
2096921,2096921,178276,596055,0
2096921,2096921,178321,596274,0
2096921,2096921,178481,596612,0
2096921,2096921,178579,596479,0
2096921,2096921,178535,596763,0
2096921,2096921,178260,596629,0
2096921,2096921,178483,596646,0
2096921,2096921,178378,596883,0
2096921,2096921,178467,596647,0
2096921,2096921,178589,596652,0
2096921,2096921,178350,596955,0
2096921,2096921,178544,596779,0
2096921,2096921,178646,597219,0
2096921,2096921,178789,597151,0
2096921,2096921,178787,597011,0
2096921,2096921,178683,597204,0
2096921,2096921,178589,597136,0
2096921,2096921,178789,596970,0
2096921,2096921,178673,597433,0
2096921,2096921,178775,597424,0
2096921,2096921,178423,597560,0
2096921,2096921,178557,597222,0
2096921,2096921,178971,597314,0
2096921,2096921,178934,597857,0
2096921,2096921,178574,597506,0
2096921,2096921,178692,597689,0
2096921,2096921,178780,597955,0
2096921,2096921,178920,598075,0
2096921,2096921,179066,597806,0
2096921,2096921,178922,597793,0
2096921,2096921,178895,597839,0
2096921,2096921,178690,598196,0
2096921,2096921,178934,598133,0
2096921,2096921,178849,598062,0
2096921,2096921,179107,597960,0
2096921,2096921,179073,598031,0
2096921,2096921,178836,598080,0
2096921,2096921,178893,597923,0
2096921,2096921,178980,598105,0
2096921,2096921,178874,598003,0
2096921,2096921,179162,598098,0
2096921,2096921,179091,598102,0
2096921,2096921,179350,598183,0
2096921,2096921,178995,598316,0
2096921,2096921,178780,598543,0
2096921,2096921,179204,598552,0
2096921,2096921,179070,598721,0
2096921,2096921,178688,598316,0
2096921,2096921,178999,598400,0
2096921,2096921,178946,598539,0
2096921,2096921,179191,598623,0
2096921,2096921,179327,598541,0
2096921,2096921,179108,598946,0
2096921,2096921,179267,598771,0
2096921,2096921,178854,598529,0
2096921,2096921,178905,598802,0
2096921,2096921,178723,598936,0
2096921,2096921,178724,599299,0
2096921,2096921,179174,599047,0
2096921,2096921,179279,598953,0
2096921,2096921,179094,598741,0
2096921,2096921,179293,598936,0
2096921,2096921,179384,599070,0
2096921,2096921,179400,599324,0
2096921,2096921,179337,599244,0
2096921,2096921,178910,599077,0
2096921,2096921,179357,598935,0
2096921,2096921,179363,599434,0
2096921,2096921,179273,599265,0
2096921,2096921,179269,599267,0
2096921,2096921,179266,599392,0
2096921,2096921,179327,599530,0
2096921,2096921,179432,599505,0
2096921,2096921,179204,599576,0
2096921,2096921,179431,599514,0
2096921,2096921,179366,599673,0
2096921,2096921,179294,599702,0
2096921,2096921,179578,599661,0
2096921,2096921,179373,599792,0
2096921,2096921,179515,599738,0
2096921,2096921,179429,599578,0
2096921,2096921,179601,599480,0
2096921,2096921,179525,599873,0
2096921,2096921,179589,600178,0
2096921,2096921,179399,599942,0
2096921,2096921,179700,599902,0
2096921,2096921,179628,599874,0
2096921,2096921,179448,600277,0
2096921,2096921,179526,600192,0
2096921,2096921,179563,600137,0
2096921,2096921,179760,599961,0
2096921,2096921,179456,600045,0
2096921,2096921,179573,600063,0
2096921,2096921,179776,600148,0
2096921,2096921,179369,600244,0
2096921,2096921,179556,600255,0
2096921,2096921,179624,600117,0
2096921,2096921,179634,600458,0
2096921,2096921,179763,600208,0
2096921,2096921,179423,600318,0
2096921,2096921,179529,600097,0
2096921,2096921,179482,600387,0
2096921,2096921,179729,600296,0
2096921,2096921,179856,600512,0
2096921,2096921,179828,600665,0
2096921,2096921,179843,600746,0
2096921,2096921,179669,600680,0
2096921,2096921,179381,600593,0
2096921,2096921,179439,600905,0
2096921,2096921,179807,600759,0
2096921,2096921,179655,600700,0
2096921,2096921,179915,600509,0
2096921,2096921,179630,600899,0
2096921,2096921,179725,600685,0
2096921,2096921,180002,600733,0
2096921,2096921,179951,600495,0
2096921,2096921,179925,600627,0
2096921,2096921,179870,600673,0
2096921,2096921,179863,600785,0
2096921,2096921,179755,600611,0
2096921,2096921,179651,600768,0
2096921,2096921,179758,600607,0
2096921,2096921,179664,600848,0
2096921,2096921,179501,600961,0
2096921,2096921,179680,600679,0
2096921,2096921,179658,600831,0
2096921,2096921,179448,600903,0
2096921,2096921,179583,600767,0
2096921,2096921,179754,600830,0
2096921,2096921,179339,600795,0
2096921,2096921,179759,600818,0
2096921,2096921,179712,600740,0
2096921,2096921,179747,600979,0
2096921,2096921,180027,601260,0
2096921,2096921,179558,600849,0
2096921,2096921,179856,600865,0
2096921,2096921,180095,600905,0
2096921,2096921,179892,600863,0
2096921,2096921,179793,601276,0
2096921,2096921,179663,600937,0
2096921,2096921,179665,601077,0
2096921,2096921,179842,601124,0
2096921,2096921,179819,601103,0
2096921,2096921,179975,601153,0
2096921,2096921,180195,600952,0
2096921,2096921,179843,600958,0
2096921,2096921,179800,601190,0
2096921,2096921,179814,601094,0
2096921,2096921,179864,601121,0
2096921,2096921,180026,601294,0
2096921,2096921,179958,601287,0
2096921,2096921,179551,601490,0
2096921,2096921,179533,600609,0
2096921,2096921,179645,600392,0
2096921,2096921,179712,600429,0
2096921,2096921,179621,600365,0
2096921,2096921,179610,600475,0
2096921,2096921,179478,600005,0
2096921,2096921,179282,599679,0
2096921,2096921,179485,599932,0
2096921,2096921,179147,599830,0
2096921,2096921,179175,599928,0
2096921,2096921,179022,598870,0
2096921,2096921,179128,598450,0
2096921,2096921,179186,598436,0
2096921,2096921,179062,598608,0
2096921,2096921,178501,598262,0
2096921,2096921,178433,597287,0
2096921,2096921,178166,596760,0
2096921,2096921,178631,597060,0
2096921,2096921,178543,596910,0
2096921,2096921,178050,596773,0
2096921,2096921,177927,595365,0
2096921,2096921,177981,595060,0
2096921,2096921,177975,595102,0
2096921,2096921,177787,595009,0
2096921,2096921,176999,595100,0
2096921,2096921,176467,591685,0
2096921,2096921,176532,590595,0
2096921,2096921,176623,590672,0
2096921,2096921,176434,590572,0
2096921,2096921,175540,590661,0
2096921,2096921,175102,586370,0
2096921,2096921,174892,585493,0
2096921,2096921,175063,585354,0
2096921,2096921,175244,585251,0
2096921,2096921,174203,585182,0
2096921,2096921,173663,582370,0
2096921,2096921,173492,581716,0
2096921,2096921,173711,581450,0
2096921,2096921,173608,581560,0
2096921,2096921,173123,581538,0
2096921,2096921,172691,579143,0
2096921,2096921,172581,578834,0
2096921,2096921,172835,578495,0
2096921,2096921,172604,578788,0
2096921,2096921,172387,578616,0
2096921,2096921,172169,577131,0
2096921,2096921,172198,576427,0
2096921,2096921,172145,576640,0
2096921,2096921,172007,576738,0
2096921,2096921,171513,576442,0
2096921,2096921,171519,575317,0
2096921,2096921,171566,574852,0
2096921,2096921,171482,575330,0
2096921,2096921,171685,574785,0
2096921,2096921,171451,575137,0
2096921,2096921,171412,574253,0
2096921,2096921,171123,573972,0
2096921,2096921,171387,573847,0
2096921,2096921,170970,574062,0
2096921,2096921,171230,574282,0
2096921,2096921,171302,573638,0
2096921,2096921,171329,573478,0
2096921,2096921,171296,573763,0
2096921,2096921,171294,573568,0
2096921,2096921,171520,573705,0
2096921,2096921,171245,573834,0
2096921,2096921,171344,573365,0
2096921,2096921,171206,573396,0
2096921,2096921,171295,573504,0
2096921,2096921,171282,573712,0
2096921,2096921,171130,573463,0
2096921,2096921,170942,573772,0
2096921,2096921,171356,573432,0
2096921,2096921,170980,573608,0
2096921,2096921,171451,573628,0
2096921,2096921,171406,573934,0
2096921,2096921,171333,574187,0
2096921,2096921,171495,574557,0
2096921,2096921,171352,574258,0
2096921,2096921,171537,574376,0
2096921,2096921,171622,574895,0
2096921,2096921,171660,575008,0
2096921,2096921,171712,575052,0
2096921,2096921,171720,575223,0
2096921,2096921,171906,575004,0
2096921,2096921,171773,575455,0
2096921,2096921,171713,575520,0
2096921,2096921,171990,575895,0
2096921,2096921,171452,575250,0
2096921,2096921,171846,575528,0
2096921,2096921,171972,576352,0
2096921,2096921,171945,576765,0
2096921,2096921,172048,576767,0
2096921,2096921,172180,576556,0
2096921,2096921,172322,576657,0
2096921,2096921,172286,577447,0
2096921,2096921,172300,577475,0
2096921,2096921,172663,577561,0
2096921,2096921,172406,577823,0
2096921,2096921,172667,577720,0
2096921,2096921,172661,578574,0
2096921,2096921,172901,578630,0
2096921,2096921,172919,578745,0
2096921,2096921,172888,578783,0
2096921,2096921,173150,578627,0
2096921,2096921,173273,580109,0
2096921,2096921,173196,580040,0
2096921,2096921,173232,579954,0
2096921,2096921,173143,579769,0
2096921,2096921,173311,580084,0
2096921,2096921,173618,581019,0
2096921,2096921,173518,581176,0
2096921,2096921,173615,581521,0
2096921,2096921,173687,581555,0
2096921,2096921,173887,581326,0
2096921,2096921,173630,582007,0
2096921,2096921,173795,582211,0
2096921,2096921,173871,582306,0
2096921,2096921,173896,582285,0
2096921,2096921,174430,582517,0
2096921,2096921,174353,583443,0
2096921,2096921,174373,583395,0
2096921,2096921,174426,583504,0
2096921,2096921,174686,583549,0
2096921,2096921,174756,583886,0
2096921,2096921,174583,584402,0
2096921,2096921,174636,584641,0
2096921,2096921,174693,584486,0
2096921,2096921,174570,584490,0
2096921,2096921,174921,584554,0
2096921,2096921,175167,585828,0
2096921,2096921,175223,585902,0
2096921,2096921,175306,586074,0
2096921,2096921,175012,586338,0
2096921,2096921,175484,586303,0
2096921,2096921,175560,587242,0
2096921,2096921,175312,587191,0
2096921,2096921,175427,587435,0
2096921,2096921,175561,587417,0
2096921,2096921,175971,587228,0
2096921,2096921,175661,588458,0
2096921,2096921,175838,588550,0
2096921,2096921,175955,588588,0
2096921,2096921,175948,588815,0
2096921,2096921,176195,588918,0
2096921,2096921,176255,589912,0
2096921,2096921,176295,589709,0
2096921,2096921,176444,589760,0
2096921,2096921,176450,589705,0
2096921,2096921,176546,589699,0
2096921,2096921,176739,590708,0
2096921,2096921,176450,590670,0
2096921,2096921,176607,590872,0
2096921,2096921,176651,591092,0
2096921,2096921,176827,590814,0
2096921,2096921,176911,591649,0
2096921,2096921,176982,591830,0
2096921,2096921,177070,591713,0
2096921,2096921,176955,591929,0
2096921,2096921,177164,591785,0
2096921,2096921,177338,592765,0
2096921,2096921,177507,592928,0
2096921,2096921,177105,592760,0
2096921,2096921,177226,592831,0
2096921,2096921,177495,592675,0
2096921,2096921,177499,593155,0
2096921,2096921,177279,593285,0
2096921,2096921,177241,593110,0
2096921,2096921,177441,593224,0
2096921,2096921,177250,593487,0
2096921,2096921,177843,593885,0
2096921,2096921,177533,594100,0
2096921,2096921,177542,593794,0
2096921,2096921,177776,594053,0
2096921,2096921,177817,594108,0
2096921,2096921,177947,594330,0
2096921,2096921,177676,594297,0
2096921,2096921,177507,594102,0
2096921,2096921,177656,594399,0
2096921,2096921,177795,594367,0
2096921,2096921,177839,594455,0
2096921,2096921,177906,594628,0
2096921,2096921,177852,594216,0
2096921,2096921,177882,594303,0
2096921,2096921,177985,594436,0
2096921,2096921,177640,594782,0
2096921,2096921,177528,594782,0
2096921,2096921,177760,594492,0
2096921,2096921,177831,594687,0
2096921,2096921,177839,594620,0
2096921,2096921,178040,594642,0
2096921,2096921,177862,594598,0
2096921,2096921,177521,594714,0
2096921,2096921,177753,594428,0
2096921,2096921,177491,594960,0
2096921,2096921,177674,594699,0
2096921,2096921,177867,594692,0
2096921,2096921,177734,594534,0
2096921,2096921,177671,594707,0
2096921,2096921,177775,594615,0
2096921,2096921,177638,594448,0
2096921,2096921,177837,594762,0
2096921,2096921,177844,594822,0
2096921,2096921,177828,594647,0
2096921,2096921,177699,594762,0
2096921,2096921,177469,594634,0
2096921,2096921,177808,594795,0
2096921,2096921,177761,594624,0
2096921,2096921,177536,594551,0
2096921,2096921,177614,594559,0
2096921,2096921,177762,594828,0
2096921,2096921,177904,594828,0
2096921,2096921,178123,594941,0
2096921,2096921,177730,594771,0
2096921,2096921,178133,594867,0
2096921,2096921,177877,595152,0
2096921,2096921,178116,595009,0
2096921,2096921,178062,595433,0
2096921,2096921,177968,595025,0
2096921,2096921,177911,595187,0
2096921,2096921,177767,595540,0
2096921,2096921,178361,595306,0
2096921,2096921,178230,595846,0
2096921,2096921,178049,595694,0
2096921,2096921,178116,595844,0
2096921,2096921,177912,596020,0
2096921,2096921,178310,596135,0
2096921,2096921,178179,596205,0
2096921,2096921,178249,596254,0
2096921,2096921,178536,596199,0
2096921,2096921,178265,596686,0
2096921,2096921,178395,596492,0
2096921,2096921,178659,596605,0
2096921,2096921,178479,596937,0
2096921,2096921,178588,596865,0
2096921,2096921,178738,597437,0
2096921,2096921,178839,597696,0
2096921,2096921,178829,597757,0
2096921,2096921,178856,597622,0
2096921,2096921,179217,597534,0
2096921,2096921,179329,598662,0
2096921,2096921,179273,598878,0
2096921,2096921,179098,598966,0
2096921,2096921,178963,599004,0
2096921,2096921,179498,598635,0
2096921,2096921,179370,599580,0
2096921,2096921,179269,599932,0
2096921,2096921,179287,599985,0
2096921,2096921,179407,599913,0
2096921,2096921,179470,599891,0
2096921,2096921,179885,600482,0
2096921,2096921,179610,600579,0
2096921,2096921,179665,600419,0
2096921,2096921,179858,600835,0
2096921,2096921,180150,600794,0
2096921,2096921,180044,601285,0
2096921,2096921,180267,601580,0
2096921,2096921,179973,601569,0
2096921,2096921,180001,601761,0
2096921,2096921,180145,601803,0
2096921,2096921,180112,602428,0
2096921,2096921,180320,602626,0
2096921,2096921,180170,602477,0
2096921,2096921,180427,602630,0
2096921,2096921,180407,602656,0
2096921,2096921,180669,603373,0
2096921,2096921,180527,603284,0
2096921,2096921,180360,603361,0
2096921,2096921,180303,603283,0
2096921,2096921,180797,603403,0
2096921,2096921,180832,604206,0
2096921,2096921,180925,604106,0
2096921,2096921,180883,603969,0
2096921,2096921,180842,604021,0
2096921,2096921,181178,603976,0
2096921,2096921,181071,605050,0
2096921,2096921,181009,604748,0
2096921,2096921,181194,604714,0
2096921,2096921,180882,605044,0
2096921,2096921,181446,604997,0
2096921,2096921,181313,605749,0
2096921,2096921,181129,606109,0
2096921,2096921,181365,605936,0
2096921,2096921,181691,605921,0
2096921,2096921,181620,606017,0
2096921,2096921,181480,606994,0
2096921,2096921,181293,606567,0
2096921,2096921,181622,606771,0
2096921,2096921,181451,607038,0
2096921,2096921,181521,607001,0
2096921,2096921,181818,607607,0
2096921,2096921,182114,607844,0
2096921,2096921,182016,607700,0
2096921,2096921,181924,607496,0
2096921,2096921,182212,607728,0
2096921,2096921,182322,608404,0
2096921,2096921,182008,608407,0
2096921,2096921,181906,608543,0
2096921,2096921,182015,608301,0
2096921,2096921,182133,608296,0
2096921,2096921,182091,609219,0
2096921,2096921,182297,609444,0
2096921,2096921,182455,609566,0
2096921,2096921,182757,609365,0
2096921,2096921,182786,609256,0
2096921,2096921,182811,609749,0
2096921,2096921,182690,609844,0
2096921,2096921,182544,609741,0
2096921,2096921,182371,610054,0
2096921,2096921,182743,610265,0
2096921,2096921,183038,610893,0
2096921,2096921,182753,611070,0
2096921,2096921,182826,610953,0
2096921,2096921,182792,611050,0
2096921,2096921,183093,610851,0
2096921,2096921,183080,611208,0
2096921,2096921,183220,611389,0
2096921,2096921,182901,611597,0
2096921,2096921,183030,611436,0
2096921,2096921,183275,611559,0
2096921,2096921,183115,611893,0
2096921,2096921,183350,612142,0
2096921,2096921,183157,612289,0
2096921,2096921,183334,612090,0
2096921,2096921,183103,612341,0
2096921,2096921,183356,612263,0
2096921,2096921,183428,612721,0
2096921,2096921,183511,612665,0
2096921,2096921,183020,612455,0
2096921,2096921,183598,612829,0
2096921,2096921,183255,612940,0
2096921,2096921,183639,613192,0
2096921,2096921,183546,613333,0
2096921,2096921,183514,613055,0
2096921,2096921,183879,613207,0
2096921,2096921,183793,613716,0
2096921,2096921,183775,613769,0
2096921,2096921,183696,613965,0
2096921,2096921,183431,614087,0
2096921,2096921,184056,613997,0
2096921,2096921,184275,614422,0
2096921,2096921,184020,614799,0
2096921,2096921,183861,614697,0
2096921,2096921,184194,614830,0
2096921,2096921,184443,614825,0
2096921,2096921,184121,615471,0
2096921,2096921,184165,615474,0
2096921,2096921,184213,615293,0
2096921,2096921,184170,615105,0
2096921,2096921,184289,615024,0
2096921,2096921,184455,615668,0
2096921,2096921,184497,615892,0
2096921,2096921,184430,615548,0
2096921,2096921,184525,615961,0
2096921,2096921,184739,616170,0
2096921,2096921,184670,616542,0
2096921,2096921,184773,616488,0
2096921,2096921,184573,616283,0
2096921,2096921,184823,616508,0
2096921,2096921,184859,616568,0
2096921,2096921,184946,616925,0
2096921,2096921,184874,616972,0
2096921,2096921,184829,617157,0
2096921,2096921,184961,617204,0
2096921,2096921,184979,616840,0
2096921,2096921,185054,617673,0
2096921,2096921,184875,617235,0
2096921,2096921,184988,617317,0
2096921,2096921,184907,617332,0
2096921,2096921,185235,617454,0
2096921,2096921,184925,618090,0
2096921,2096921,185269,618049,0
2096921,2096921,185180,618001,0
2096921,2096921,185230,618083,0
2096921,2096921,185361,618181,0
2096921,2096921,185219,618487,0
2096921,2096921,185221,618541,0
2096921,2096921,185167,618369,0
2096921,2096921,185086,618369,0
2096921,2096921,185576,618587,0
2096921,2096921,185465,618774,0
2096921,2096921,185305,618772,0
2096921,2096921,185387,619112,0
2096921,2096921,185722,618874,0
2096921,2096921,185791,618921,0
2096921,2096921,185853,619219,0
2096921,2096921,185534,619216,0
2096921,2096921,185670,619361,0
2096921,2096921,185565,619438,0
2096921,2096921,185719,619050,0
2096921,2096921,185534,619731,0
2096921,2096921,185350,619863,0
2096921,2096921,185720,619946,0
2096921,2096921,185850,619701,0
2096921,2096921,185780,619768,0
2096921,2096921,185714,620242,0
2096921,2096921,185800,620114,0
2096921,2096921,185620,620140,0
2096921,2096921,185623,619912,0
2096921,2096921,185931,620070,0
2096921,2096921,185852,620296,0
2096921,2096921,186028,620433,0
2096921,2096921,185608,620487,0
2096921,2096921,186049,620582,0
2096921,2096921,186044,620722,0
2096921,2096921,186179,621093,0
2096921,2096921,185994,621283,0
2096921,2096921,186033,621358,0
2096921,2096921,186143,620942,0
2096921,2096921,186059,620906,0
2096921,2096921,185958,621354,0
2096921,2096921,185988,621272,0
2096921,2096921,186137,621652,0
2096921,2096921,186140,621629,0
2096921,2096921,186603,621731,0
2096921,2096921,186148,622105,0
2096921,2096921,186207,622098,0
2096921,2096921,186333,621649,0
2096921,2096921,186223,621765,0
2096921,2096921,186443,621769,0
2096921,2096921,186466,622197,0
2096921,2096921,186454,622187,0
2096921,2096921,186361,622287,0
2096921,2096921,186047,622033,0
2096921,2096921,186466,622065,0
2096921,2096921,186785,622450,0
2096921,2096921,186213,622719,0
2096921,2096921,186397,622121,0
2096921,2096921,186148,622437,0
2096921,2096921,186674,622086,0
2096921,2096921,186672,622733,0
2096921,2096921,186579,622928,0
2096921,2096921,186692,622854,0
2096921,2096921,186472,622819,0
2096921,2096921,186639,622870,0
2096921,2096921,186907,622973,0
2096921,2096921,186508,623034,0
2096921,2096921,186805,622951,0
2096921,2096921,186872,622738,0
2096921,2096921,186718,623132,0
2096921,2096921,186855,623287,0
2096921,2096921,187022,623422,0
2096921,2096921,186667,623355,0
2096921,2096921,187027,623533,0
2096921,2096921,186877,623310,0
2096921,2096921,186860,623581,0
2096921,2096921,186852,623621,0
2096921,2096921,186818,623778,0
2096921,2096921,187052,623581,0
2096921,2096921,187096,623465,0
2096921,2096921,187023,623799,0
2096921,2096921,187087,624002,0
2096921,2096921,187216,624131,0
2096921,2096921,187298,623871,0
2096921,2096921,187146,623783,0
2096921,2096921,187097,624092,0
2096921,2096921,186925,624068,0
2096921,2096921,186866,624080,0
2096921,2096921,186811,623992,0
2096921,2096921,187327,623941,0
2096921,2096921,187005,624412,0
2096921,2096921,187221,624509,0
2096921,2096921,186954,624297,0
2096921,2096921,187147,624280,0
2096921,2096921,187129,624323,0
2096921,2096921,187437,624414,0
2096921,2096921,186937,624522,0
2096921,2096921,186879,624187,0
2096921,2096921,186732,624323,0
2096921,2096921,187201,624323,0
2096921,2096921,187159,624414,0
2096921,2096921,187398,624563,0
2096921,2096921,187299,624299,0
2096921,2096921,187302,624368,0
2096921,2096921,187180,624606,0
2096921,2096921,187132,624616,0
2096921,2096921,187039,624597,0
2096921,2096921,186930,624525,0
2096921,2096921,187411,624327,0
2096921,2096921,187438,624284,0
2096921,2096921,187162,624749,0
2096921,2096921,187175,624507,0
2096921,2096921,187426,624909,0
2096921,2096921,187831,624709,0
2096921,2096921,187713,624935,0
2096921,2096921,187260,624855,0
2096921,2096921,187120,624656,0
2096921,2096921,187188,624988,0
2096921,2096921,187012,624547,0
2096921,2096921,187112,624736,0
2096921,2096921,187025,624798,0
2096921,2096921,187301,624540,0
2096921,2096921,187258,624824,0
2096921,2096921,187175,624889,0
2096921,2096921,187404,625053,0
2096921,2096921,187409,624890,0
2096921,2096921,187087,624979,0
2096921,2096921,187244,624902,0
2096921,2096921,187162,624918,0
2096921,2096921,186967,624962,0
2096921,2096921,186961,624039,0
2096921,2096921,187263,624171,0
2096921,2096921,186955,624039,0
2096921,2096921,187129,624124,0
2096921,2096921,186638,623544,0
2096921,2096921,186566,623049,0
2096921,2096921,186733,622989,0
2096921,2096921,186824,623129,0
2096921,2096921,186807,623605,0
2096921,2096921,186332,623201,0
2096921,2096921,186373,622118,0
2096921,2096921,186422,622222,0
2096921,2096921,186478,621696,0
2096921,2096921,186419,621799,0
2096921,2096921,185789,621788,0
2096921,2096921,185799,620338,0
2096921,2096921,185901,620142,0
2096921,2096921,185689,619727,0
2096921,2096921,185789,620028,0
2096921,2096921,185312,620196,0
2096921,2096921,185174,618315,0
2096921,2096921,185156,618046,0
2096921,2096921,185072,618159,0
2096921,2096921,185232,618057,0
2096921,2096921,183761,617764,0
2096921,2096921,183804,614081,0
2096921,2096921,183643,613638,0
2096921,2096921,183391,613077,0
2096921,2096921,183593,613465,0
2096921,2096921,182199,613475,0
2096921,2096921,181929,609056,0
2096921,2096921,182120,608109,0
2096921,2096921,181516,607754,0
2096921,2096921,182082,607702,0
2096921,2096921,180726,607685,0
2096921,2096921,180506,604322,0
2096921,2096921,180323,603747,0
2096921,2096921,180263,603526,0
2096921,2096921,180372,603494,0
2096921,2096921,179807,603513,0
2096921,2096921,179486,600967,0
2096921,2096921,179657,600708,0
2096921,2096921,179348,600478,0
2096921,2096921,179478,600533,0
2096921,2096921,178903,600552,0
2096921,2096921,178930,598505,0
2096921,2096921,178875,598177,0
2096921,2096921,178628,597697,0
2096921,2096921,178821,598020,0
2096921,2096921,177908,598339,0
2096921,2096921,178168,596544,0
2096921,2096921,178112,596358,0
2096921,2096921,178480,596325,0
2096921,2096921,177978,596432,0
2096921,2096921,178179,596390,0
2096921,2096921,177964,595229,0
2096921,2096921,177590,594847,0
2096921,2096921,177505,595072,0
2096921,2096921,177705,595106,0
2096921,2096921,177504,595195,0
2096921,2096921,177724,594451,0
2096921,2096921,177792,594511,0
2096921,2096921,177846,594470,0
2096921,2096921,177705,594266,0
2096921,2096921,177515,594399,0
2096921,2096921,177668,594178,0
2096921,2096921,177337,594316,0
2096921,2096921,177699,593897,0
2096921,2096921,177527,593742,0
2096921,2096921,177733,594066,0
2096921,2096921,177338,594167,0
2096921,2096921,178062,594124,0
2096921,2096921,177720,594194,0
2096921,2096921,177675,594044,0
2096921,2096921,177729,594033,0
2096921,2096921,177579,594520,0
2096921,2096921,177621,594572,0
2096921,2096921,177379,594706,0
2096921,2096921,177723,594508,0
2096921,2096921,177766,594412,0
2096921,2096921,177751,594719,0
2096921,2096921,177972,594676,0
2096921,2096921,177972,594807,0
2096921,2096921,177594,594889,0
2096921,2096921,177775,595038,0
2096921,2096921,177657,595018,0
2096921,2096921,177811,595220,0
2096921,2096921,178109,595163,0
2096921,2096921,177745,595171,0
2096921,2096921,178105,594940,0
2096921,2096921,178152,596004,0
2096921,2096921,178186,596142,0
2096921,2096921,178251,596366,0
2096921,2096921,178190,596000,0
2096921,2096921,178385,596260,0
2096921,2096921,178400,596709,0
2096921,2096921,178252,597003,0
2096921,2096921,178493,596922,0
2096921,2096921,177974,597230,0
2096921,2096921,178410,596836,0
2096921,2096921,178537,597836,0
2096921,2096921,178790,598222,0
2096921,2096921,179017,598071,0
2096921,2096921,178888,598164,0
2096921,2096921,178958,597871,0
2096921,2096921,179109,598570,0
2096921,2096921,179122,598757,0
2096921,2096921,178958,599242,0
2096921,2096921,179099,598905,0
2096921,2096921,179383,598814,0
2096921,2096921,179248,599808,0
2096921,2096921,179029,599722,0
2096921,2096921,179404,599744,0
2096921,2096921,179246,599802,0
2096921,2096921,179763,599574,0
2096921,2096921,179531,600612,0
2096921,2096921,179519,600451,0
2096921,2096921,179699,600930,0
2096921,2096921,179858,600926,0
2096921,2096921,179864,600849,0
2096921,2096921,180323,601598,0
2096921,2096921,180294,601596,0
2096921,2096921,179927,602088,0
2096921,2096921,179823,601972,0
2096921,2096921,180382,601982,0
2096921,2096921,180225,602517,0
2096921,2096921,180362,602654,0
2096921,2096921,180311,602656,0
2096921,2096921,180232,602677,0
2096921,2096921,180567,602802,0
2096921,2096921,180549,603729,0
2096921,2096921,180843,603780,0
2096921,2096921,180954,604353,0
2096921,2096921,180735,604126,0
2096921,2096921,180831,603551,0
2096921,2096921,181119,604822,0
2096921,2096921,181005,604425,0
2096921,2096921,181129,604892,0
2096921,2096921,181090,604829,0
2096921,2096921,181240,604989,0
2096921,2096921,181395,605952,0
2096921,2096921,181326,606070,0
2096921,2096921,181084,605908,0
2096921,2096921,181452,605829,0
2096921,2096921,181678,605826,0
2096921,2096921,181535,606883,0
2096921,2096921,181479,606816,0
2096921,2096921,181375,607250,0
2096921,2096921,181774,606880,0
2096921,2096921,181725,606802,0
2096921,2096921,181873,607497,0
2096921,2096921,181949,607877,0
2096921,2096921,181877,607519,0
2096921,2096921,181664,607808,0
2096921,2096921,181848,607936,0
2096921,2096921,182183,608258,0
2096921,2096921,181792,608699,0
2096921,2096921,182103,608560,0
2096921,2096921,182265,608539,0
2096921,2096921,182364,608570,0
2096921,2096921,182441,608985,0
2096921,2096921,182396,609188,0
2096921,2096921,182308,609030,0
2096921,2096921,182331,609279,0
2096921,2096921,182413,609182,0
2096921,2096921,182543,609277,0
2096921,2096921,182481,609398,0
2096921,2096921,182115,609451,0
2096921,2096921,182198,609482,0
2096921,2096921,182418,609526,0
2096921,2096921,182438,609543,0
2096921,2096921,182655,609714,0
2096921,2096921,182501,609833,0
2096921,2096921,182595,609726,0
2096921,2096921,182617,609700,0
2096921,2096921,182461,609524,0
2096921,2096921,182395,609803,0
2096921,2096921,182269,609779,0
2096921,2096921,182405,609697,0
2096921,2096921,182365,609851,0
2096921,2096921,182513,609537,0
2096921,2096921,182455,609763,0
2096921,2096921,182573,609729,0
2096921,2096921,182218,609578,0
2096921,2096921,182337,609492,0
2096921,2096921,182348,609296,0
2096921,2096921,182460,609316,0
2096921,2096921,182475,609464,0
2096921,2096921,182120,609458,0
2096921,2096921,182368,609514,0
2096921,2096921,182378,609222,0
2096921,2096921,182279,609085,0
2096921,2096921,182727,609064,0
2096921,2096921,182210,609138,0
2096921,2096921,182133,609066,0
2096921,2096921,182275,609087,0
2096921,2096921,182034,608930,0
2096921,2096921,182095,608560,0
2096921,2096921,181998,608677,0
2096921,2096921,182150,608376,0
2096921,2096921,182222,608158,0
2096921,2096921,182041,607925,0
2096921,2096921,182013,608454,0
2096921,2096921,182069,608471,0
2096921,2096921,181875,608274,0
2096921,2096921,181967,608084,0
2096921,2096921,181888,607997,0
2096921,2096921,181863,608051,0
2096921,2096921,182013,608386,0
2096921,2096921,181819,608386,0
2096921,2096921,181791,608217,0
2096921,2096921,181874,607886,0
2096921,2096921,182070,608198,0
2096921,2096921,181711,607975,0
2096921,2096921,181781,607616,0
2096921,2096921,181761,607392,0
2096921,2096921,181681,607659,0
2096921,2096921,181827,607718,0
2096921,2096921,182214,607958,0
2096921,2096921,182156,607499,0
2096921,2096921,182129,607752,0
2096921,2096921,181938,607775,0
2096921,2096921,181702,607844,0
2096921,2096921,181914,607960,0
2096921,2096921,181785,608150,0
2096921,2096921,181954,607930,0
2096921,2096921,181969,607954,0
2096921,2096921,182105,607670,0
2096921,2096921,182120,608250,0
2096921,2096921,182024,608241,0
2096921,2096921,182259,608217,0
2096921,2096921,182033,608293,0
2096921,2096921,181963,608193,0
2096921,2096921,182074,608287,0
2096921,2096921,182054,608221,0
2096921,2096921,182093,608778,0
2096921,2096921,182224,609085,0
2096921,2096921,182053,608934,0
2096921,2096921,182285,609014,0
2096921,2096921,182280,608932,0
2096921,2096921,182360,609314,0
2096921,2096921,182561,609494,0
2096921,2096921,182613,609512,0
2096921,2096921,182464,609599,0
2096921,2096921,182361,609715,0
2096921,2096921,182569,610279,0
2096921,2096921,182565,610112,0
2096921,2096921,182424,609934,0
2096921,2096921,182319,609711,0
2096921,2096921,182800,610213,0
2096921,2096921,182734,610579,0
2096921,2096921,182871,610975,0
2096921,2096921,182811,610752,0
2096921,2096921,182731,610425,0
2096921,2096921,182937,610559,0
2096921,2096921,183172,610983,0
2096921,2096921,182929,611065,0
2096921,2096921,182905,611099,0
2096921,2096921,182878,611086,0
2096921,2096921,183201,611412,0
2096921,2096921,183036,611375,0
2096921,2096921,182961,611773,0
2096921,2096921,182860,611696,0
2096921,2096921,183255,611625,0
2096921,2096921,183148,611369,0
2096921,2096921,183211,612008,0
2096921,2096921,183003,611761,0
2096921,2096921,183124,611884,0
2096921,2096921,183234,611869,0
2096921,2096921,183260,611777,0
2096921,2096921,183346,612344,0
2096921,2096921,183251,612487,0
2096921,2096921,183303,612332,0
2096921,2096921,183392,612475,0
2096921,2096921,183422,612161,0
2096921,2096921,183527,612820,0
2096921,2096921,183321,612923,0
2096921,2096921,183313,612771,0
2096921,2096921,183307,612803,0
2096921,2096921,183538,612687,0
2096921,2096921,183562,613067,0
2096921,2096921,183356,613124,0
2096921,2096921,183651,613196,0
2096921,2096921,183616,613374,0
2096921,2096921,183943,613145,0
2096921,2096921,183772,613585,0
2096921,2096921,184036,613527,0
2096921,2096921,183690,613494,0
2096921,2096921,183731,613517,0
2096921,2096921,183911,613773,0
2096921,2096921,183786,613951,0
2096921,2096921,183811,613934,0
2096921,2096921,183787,614128,0
2096921,2096921,183849,613903,0
2096921,2096921,183895,614161,0
2096921,2096921,183945,614136,0
2096921,2096921,183964,614316,0
2096921,2096921,183656,614327,0
2096921,2096921,183651,614380,0
2096921,2096921,183857,614660,0
2096921,2096921,183909,614749,0
2096921,2096921,184169,614819,0
2096921,2096921,184219,614920,0
2096921,2096921,183868,614834,0
2096921,2096921,184014,614951,0
2096921,2096921,184180,614797,0
2096921,2096921,184275,614870,0
2096921,2096921,184065,615269,0
2096921,2096921,184033,614892,0
2096921,2096921,183925,614989,0
2096921,2096921,184107,615380,0
2096921,2096921,184335,615480,0
2096921,2096921,184244,615137,0
2096921,2096921,184242,615353,0
2096921,2096921,184379,615142,0
2096921,2096921,184515,615566,0
2096921,2096921,184284,615246,0
2096921,2096921,184575,615905,0
2096921,2096921,184140,615726,0
2096921,2096921,184612,615548,0
2096921,2096921,184375,615825,0
2096921,2096921,184260,615705,0
2096921,2096921,184584,615871,0
2096921,2096921,184126,615846,0
2096921,2096921,184105,616005,0
2096921,2096921,184406,616004,0
2096921,2096921,184433,616034,0
2096921,2096921,184335,615899,0
2096921,2096921,184474,615877,0
2096921,2096921,184372,615993,0
2096921,2096921,184475,616275,0
2096921,2096921,184442,616301,0
2096921,2096921,184354,616052,0
2096921,2096921,184432,616348,0
2096921,2096921,184367,616141,0
2096921,2096921,184503,616242,0
2096921,2096921,184263,616030,0
2096921,2096921,184505,616105,0
2096921,2096921,184516,616349,0
2096921,2096921,184411,616318,0
2096921,2096921,184401,616504,0
2096921,2096921,184609,616607,0
2096921,2096921,184519,616318,0
2096921,2096921,184553,616401,0
2096921,2096921,184850,616455,0
2096921,2096921,184634,616546,0
2096921,2096921,184687,616345,0
2096921,2096921,184747,616425,0
2096921,2096921,184753,616512,0
2096921,2096921,184630,616541,0
2096921,2096921,184630,616836,0
2096921,2096921,184709,616843,0
2096921,2096921,184526,616690,0
2096921,2096921,184766,616592,0
2096921,2096921,184698,616847,0
2096921,2096921,184586,616473,0
2096921,2096921,184728,616729,0
2096921,2096921,185045,616758,0
2096921,2096921,184759,616472,0
2096921,2096921,184873,616762,0
2096921,2096921,184812,616901,0
2096921,2096921,184551,616753,0
2096921,2096921,184759,616735,0
2096921,2096921,184899,616771,0
2096921,2096921,184869,616786,0
2096921,2096921,184669,616880,0
2096921,2096921,184484,616861,0
2096921,2096921,184658,616732,0
2096921,2096921,184437,616969,0
2096921,2096921,184664,616549,0
2096921,2096921,184852,616542,0
2096921,2096921,184730,616854,0
2096921,2096921,184853,617088,0
2096921,2096921,184886,616907,0
2096921,2096921,184805,616743,0
2096921,2096921,184672,616933,0
2096921,2096921,184409,616849,0
2096921,2096921,184600,616776,0
2096921,2096921,184987,616835,0
2096921,2096921,184759,616591,0
2096921,2096921,184759,616657,0
2096921,2096921,184756,616786,0
2096921,2096921,184587,616623,0
2096921,2096921,184657,616589,0
2096921,2096921,184741,616617,0
2096921,2096921,184708,616833,0
2096921,2096921,184415,616404,0
2096921,2096921,184535,616438,0
2096921,2096921,184492,616397,0
2096921,2096921,184554,616395,0
2096921,2096921,184731,616410,0
2096921,2096921,184404,616452,0
2096921,2096921,184617,616875,0
2096921,2096921,184777,616769,0
2096921,2096921,184873,616951,0
2096921,2096921,184533,616201,0
2096921,2096921,184589,616376,0
2096921,2096921,184655,616389,0
2096921,2096921,184735,616220,0
2096921,2096921,184483,616553,0
2096921,2096921,184516,616656,0
2096921,2096921,184566,616641,0
2096921,2096921,184687,616821,0
2096921,2096921,184491,616316,0
2096921,2096921,184809,616537,0
2096921,2096921,184711,616431,0
2096921,2096921,184450,616508,0
2096921,2096921,184511,616301,0
2096921,2096921,184538,615928,0
2096921,2096921,184453,616188,0
2096921,2096921,184613,616069,0
2096921,2096921,184518,616188,0
2096921,2096921,184822,616271,0
2096921,2096921,184642,616275,0
2096921,2096921,184619,616439,0
2096921,2096921,184420,616113,0
2096921,2096921,184443,616308,0
2096921,2096921,184289,616065,0
2096921,2096921,184441,615840,0
2096921,2096921,184514,615939,0
2096921,2096921,184466,616051,0
2096921,2096921,184237,615762,0
2096921,2096921,184428,616033,0
2096921,2096921,184540,615879,0
2096921,2096921,184663,615793,0
2096921,2096921,184380,615816,0
2096921,2096921,184448,615617,0
2096921,2096921,184339,615542,0
2096921,2096921,184433,615421,0
2096921,2096921,184314,615437,0
2096921,2096921,184365,615516,0
2096921,2096921,184525,615694,0
2096921,2096921,184180,615673,0
2096921,2096921,184433,615431,0
2096921,2096921,184248,615597,0
2096921,2096921,184288,615739,0
2096921,2096921,184187,615524,0
2096921,2096921,184356,615535,0
2096921,2096921,184387,615108,0
2096921,2096921,184194,615259,0
2096921,2096921,184203,615182,0
2096921,2096921,184664,615372,0
2096921,2096921,184408,615678,0
2096921,2096921,184267,615383,0
2096921,2096921,184358,615504,0
2096921,2096921,184155,614967,0
2096921,2096921,184264,614723,0
2096921,2096921,184131,615128,0
2096921,2096921,183999,614969,0
2096921,2096921,184083,614737,0
2096921,2096921,184212,614704,0
2096921,2096921,184195,614701,0
2096921,2096921,184401,614774,0
2096921,2096921,184202,614862,0
2096921,2096921,184070,614797,0
2096921,2096921,184194,614591,0
2096921,2096921,184040,614797,0
2096921,2096921,183880,614337,0
2096921,2096921,184003,614343,0
2096921,2096921,183773,614420,0
2096921,2096921,184279,614461,0
2096921,2096921,184026,614141,0
2096921,2096921,183913,613997,0
2096921,2096921,184269,614079,0
2096921,2096921,183990,614369,0
2096921,2096921,183794,614185,0
2096921,2096921,183752,613954,0
2096921,2096921,183738,613872,0
2096921,2096921,183784,613922,0
2096921,2096921,183770,613963,0
2096921,2096921,183837,613432,0
2096921,2096921,183960,613579,0
2096921,2096921,183687,613386,0
2096921,2096921,183623,613535,0
2096921,2096921,183649,613746,0
2096921,2096921,183699,613474,0
2096921,2096921,183583,613195,0
2096921,2096921,183453,613290,0
2096921,2096921,183568,613009,0
2096921,2096921,183382,613252,0
2096921,2096921,183585,613046,0
2096921,2096921,183550,613021,0
2096921,2096921,183680,613033,0
2096921,2096921,183570,612783,0
2096921,2096921,183855,613039,0
2096921,2096921,183550,612548,0
2096921,2096921,183666,612595,0
2096921,2096921,183528,612660,0
2096921,2096921,183421,612729,0
2096921,2096921,183385,612682,0
2096921,2096921,183375,612515,0
2096921,2096921,183121,612539,0
2096921,2096921,183550,612258,0
2096921,2096921,183289,612295,0
2096921,2096921,183423,612403,0
2096921,2096921,183185,612207,0
2096921,2096921,183292,612125,0
2096921,2096921,183129,611965,0
2096921,2096921,183270,612222,0
2096921,2096921,183006,611969,0
2096921,2096921,182892,611015,0
2096921,2096921,182988,610841,0
2096921,2096921,182809,610850,0
2096921,2096921,183046,611001,0
2096921,2096921,182614,610897,0
2096921,2096921,182633,610055,0
2096921,2096921,182569,609798,0
2096921,2096921,182366,609660,0
2096921,2096921,182496,609861,0
2096921,2096921,182120,609912,0
2096921,2096921,181795,608228,0
2096921,2096921,181968,608149,0
2096921,2096921,181975,608189,0
2096921,2096921,181982,608053,0
2096921,2096921,181477,608185,0
2096921,2096921,180961,606450,0
2096921,2096921,181343,605848,0
2096921,2096921,181065,605635,0
2096921,2096921,181217,605656,0
2096921,2096921,180541,605561,0
2096921,2096921,180676,603813,0
2096921,2096921,180580,603545,0
