2096921,2096921, 162613, 697584
2096921,2096921, 162739, 697774
2096921,2096921, 162737, 697871
2096921,2096921, 162541, 698159
2096921,2096921, 162338, 698205
2096921,2096921, 162671, 698134
2096921,2096921, 162765, 698078
2096921,2096921, 162682, 698817
2096921,2096921, 162803, 698728
2096921,2096921, 162853, 698921
2096921,2096921, 162938, 698900
2096921,2096921, 163221, 698950
2096921,2096921, 163296, 699303
2096921,2096921, 162995, 699616
2096921,2096921, 163060, 699490
2096921,2096921, 162959, 699787
2096921,2096921, 163360, 699453
2096921,2096921, 163096, 700110
2096921,2096921, 163147, 700066
2096921,2096921, 163320, 700051
2096921,2096921, 163185, 700223
2096921,2096921, 163249, 700379
2096921,2096921, 163432, 700560
2096921,2096921, 163570, 700720
2096921,2096921, 163243, 701012
2096921,2096921, 163238, 700951
2096921,2096921, 163516, 700975
2096921,2096921, 163668, 701244
2096921,2096921, 163668, 701803
2096921,2096921, 163572, 701488
2096921,2096921, 163710, 701504
2096921,2096921, 163943, 701511
2096921,2096921, 163944, 702090
2096921,2096921, 163723, 702030
2096921,2096921, 164010, 702049
2096921,2096921, 163832, 702040
2096921,2096921, 164048, 701898
2096921,2096921, 164108, 702578
2096921,2096921, 164217, 702690
2096921,2096921, 164231, 702623
2096921,2096921, 163968, 702742
2096921,2096921, 163954, 702742
2096921,2096921, 164265, 702943
2096921,2096921, 164055, 703147
2096921,2096921, 164036, 703041
2096921,2096921, 164271, 702795
2096921,2096921, 164295, 703132
2096921,2096921, 163955, 703188
2096921,2096921, 164264, 703142
2096921,2096921, 164075, 703183
2096921,2096921, 164035, 703109
2096921,2096921, 164357, 702944
2096921,2096921, 164275, 703501
2096921,2096921, 164305, 703433
2096921,2096921, 164292, 703749
2096921,2096921, 163870, 703445
2096921,2096921, 164262, 703543
2096921,2096921, 164306, 703566
2096921,2096921, 164422, 703530
2096921,2096921, 163827, 703603
2096921,2096921, 164048, 703720
2096921,2096921, 164092, 703883
2096921,2096921, 164209, 703526
2096921,2096921, 164074, 703433
2096921,2096921, 164355, 703479
2096921,2096921, 164214, 703422
2096921,2096921, 164168, 703377
2096921,2096921, 163864, 703370
2096921,2096921, 164268, 703506
2096921,2096921, 164274, 703124
2096921,2096921, 164283, 703480
2096921,2096921, 164115, 703282
2096921,2096921, 164061, 703163
2096921,2096921, 164393, 703376
2096921,2096921, 164342, 703194
2096921,2096921, 164275, 702958
2096921,2096921, 164052, 703082
2096921,2096921, 164130, 703057
2096921,2096921, 164216, 703103
2096921,2096921, 164107, 703091
2096921,2096921, 163979, 703092
2096921,2096921, 164098, 703033
2096921,2096921, 164179, 702797
2096921,2096921, 164067, 702749
2096921,2096921, 164042, 702686
2096921,2096921, 164000, 702707
2096921,2096921, 164128, 702719
2096921,2096921, 164029, 702549
2096921,2096921, 163951, 702574
2096921,2096921, 164014, 702576
2096921,2096921, 163887, 702814
2096921,2096921, 163787, 702520
2096921,2096921, 163862, 702659
2096921,2096921, 163877, 702600
2096921,2096921, 164063, 702721
2096921,2096921, 163770, 702421
2096921,2096921, 163573, 702395
2096921,2096921, 163600, 702717
2096921,2096921, 163954, 702757
2096921,2096921, 163817, 702475
2096921,2096921, 164158, 702798
2096921,2096921, 164116, 702963
2096921,2096921, 164129, 702646
2096921,2096921, 163930, 702654
2096921,2096921, 164161, 702558
2096921,2096921, 163971, 702730
2096921,2096921, 163972, 702693
2096921,2096921, 164179, 702742
2096921,2096921, 163930, 702422
2096921,2096921, 163939, 702758
2096921,2096921, 164028, 702949
2096921,2096921, 163971, 702656
2096921,2096921, 164178, 702990
2096921,2096921, 163861, 703135
2096921,2096921, 164060, 703122
2096921,2096921, 163868, 703172
2096921,2096921, 164032, 703013
2096921,2096921, 164067, 703492
2096921,2096921, 164185, 703053
2096921,2096921, 164178, 703438
2096921,2096921, 163922, 703231
2096921,2096921, 164162, 703386
2096921,2096921, 164180, 704143
2096921,2096921, 164363, 703937
2096921,2096921, 164316, 704032
2096921,2096921, 164307, 704059
2096921,2096921, 164265, 704088
2096921,2096921, 164417, 703950
2096921,2096921, 164478, 704379
2096921,2096921, 164234, 704516
2096921,2096921, 164252, 704331
2096921,2096921, 164409, 704451
2096921,2096921, 164367, 704868
2096921,2096921, 164150, 704835
2096921,2096921, 164321, 704719
2096921,2096921, 164632, 704780
2096921,2096921, 164649, 704906
2096921,2096921, 164545, 705281
2096921,2096921, 164503, 704861
2096921,2096921, 164852, 704766
2096921,2096921, 164588, 704918
2096921,2096921, 164623, 704967
2096921,2096921, 164756, 705463
2096921,2096921, 164909, 705560
2096921,2096921, 164847, 705286
2096921,2096921, 164843, 705331
2096921,2096921, 164717, 705216
2096921,2096921, 164919, 705781
2096921,2096921, 164715, 705832
2096921,2096921, 164378, 705743
2096921,2096921, 164941, 706018
2096921,2096921, 165110, 705828
2096921,2096921, 164932, 706209
2096921,2096921, 165094, 706408
2096921,2096921, 164937, 706406
2096921,2096921, 165136, 706093
2096921,2096921, 164764, 706059
2096921,2096921, 165103, 706548
2096921,2096921, 164705, 706592
2096921,2096921, 165102, 706558
2096921,2096921, 164764, 706598
2096921,2096921, 165253, 706573
2096921,2096921, 164851, 706837
2096921,2096921, 165014, 706977
2096921,2096921, 164987, 707113
2096921,2096921, 165237, 706952
2096921,2096921, 165228, 706939
2096921,2096921, 165047, 707032
2096921,2096921, 165043, 707199
2096921,2096921, 165250, 707096
2096921,2096921, 165652, 707272
2096921,2096921, 165608, 707381
2096921,2096921, 165466, 707805
2096921,2096921, 165172, 707635
2096921,2096921, 165350, 707869
2096921,2096921, 165526, 707682
2096921,2096921, 165405, 707490
2096921,2096921, 165324, 707738
2096921,2096921, 165337, 707884
2096921,2096921, 165331, 707884
2096921,2096921, 165318, 707676
2096921,2096921, 165581, 707565
2096921,2096921, 165475, 707993
2096921,2096921, 165282, 708117
2096921,2096921, 165412, 708403
2096921,2096921, 165422, 708094
2096921,2096921, 165616, 708304
2096921,2096921, 165463, 708513
2096921,2096921, 165506, 708586
2096921,2096921, 165559, 708517
2096921,2096921, 165489, 708475
2096921,2096921, 165592, 708634
2096921,2096921, 165588, 709001
2096921,2096921, 165791, 709038
2096921,2096921, 165646, 708921
2096921,2096921, 165552, 708973
2096921,2096921, 165771, 708969
2096921,2096921, 165902, 709225
2096921,2096921, 165956, 708887
2096921,2096921, 165749, 709039
2096921,2096921, 165939, 709015
2096921,2096921, 165936, 709076
2096921,2096921, 165828, 709282
2096921,2096921, 165732, 709451
2096921,2096921, 165547, 709249
2096921,2096921, 165816, 709181
2096921,2096921, 165857, 709335
2096921,2096921, 165923, 709845
2096921,2096921, 165554, 709523
2096921,2096921, 165994, 709432
2096921,2096921, 165834, 709545
2096921,2096921, 165654, 709656
2096921,2096921, 165735, 709877
2096921,2096921, 165656, 710374
2096921,2096921, 165498, 710026
2096921,2096921, 165647, 709886
2096921,2096921, 166008, 709961
2096921,2096921, 165627, 710108
2096921,2096921, 165927, 710172
2096921,2096921, 165954, 710130
2096921,2096921, 165825, 710386
2096921,2096921, 166105, 710184
2096921,2096921, 166171, 710545
2096921,2096921, 166107, 710514
2096921,2096921, 166161, 710274
2096921,2096921, 166148, 710366
2096921,2096921, 166193, 710555
2096921,2096921, 166105, 710719
2096921,2096921, 165928, 710334
2096921,2096921, 166129, 710181
2096921,2096921, 166376, 710595
2096921,2096921, 166398, 710562
2096921,2096921, 166374, 710914
2096921,2096921, 166321, 710639
2096921,2096921, 166297, 710767
2096921,2096921, 165936, 710742
2096921,2096921, 166054, 711028
2096921,2096921, 166050, 710847
2096921,2096921, 166390, 711206
2096921,2096921, 166192, 710892
2096921,2096921, 166249, 711375
2096921,2096921, 166087, 711180
2096921,2096921, 166345, 711344
2096921,2096921, 166232, 711477
2096921,2096921, 166322, 711286
2096921,2096921, 166190, 711357
2096921,2096921, 166190, 711270
2096921,2096921, 166092, 711366
2096921,2096921, 166114, 711210
2096921,2096921, 166124, 711235
2096921,2096921, 166152, 711004
2096921,2096921, 166163, 711378
2096921,2096921, 166171, 711445
2096921,2096921, 166253, 711531
2096921,2096921, 166458, 711749
2096921,2096921, 166338, 711506
2096921,2096921, 166259, 711745
2096921,2096921, 166338, 711929
2096921,2096921, 166624, 711736
2096921,2096921, 166448, 711823
2096921,2096921, 166336, 711422
2096921,2096921, 166430, 711579
2096921,2096921, 166811, 711638
2096921,2096921, 166361, 711174
2096921,2096921, 166582, 711867
2096921,2096921, 166512, 711835
2096921,2096921, 166679, 711717
2096921,2096921, 166538, 711803
2096921,2096921, 166590, 711697
2096921,2096921, 166308, 711575
2096921,2096921, 166264, 711733
2096921,2096921, 166407, 711818
2096921,2096921, 166282, 711997
2096921,2096921, 166378, 712006
2096921,2096921, 166726, 711993
2096921,2096921, 166652, 711870
2096921,2096921, 166586, 711833
2096921,2096921, 166557, 712233
2096921,2096921, 166527, 712144
2096921,2096921, 166595, 712114
2096921,2096921, 166579, 712353
2096921,2096921, 166544, 712014
2096921,2096921, 166811, 712163
2096921,2096921, 166473, 712033
2096921,2096921, 166568, 711840
2096921,2096921, 166527, 712333
2096921,2096921, 166465, 712336
2096921,2096921, 166742, 712147
2096921,2096921, 166583, 712199
2096921,2096921, 166361, 712315
2096921,2096921, 166681, 712312
2096921,2096921, 166773, 712327
2096921,2096921, 167004, 712346
2096921,2096921, 166822, 712186
2096921,2096921, 166739, 712384
2096921,2096921, 166765, 712520
2096921,2096921, 166539, 712333
2096921,2096921, 166714, 712411
2096921,2096921, 166710, 712370
2096921,2096921, 166726, 712274
2096921,2096921, 166714, 712422
2096921,2096921, 166754, 712467
2096921,2096921, 166804, 712742
2096921,2096921, 166622, 712574
2096921,2096921, 166679, 712606
2096921,2096921, 166854, 712656
2096921,2096921, 166539, 712530
2096921,2096921, 166335, 712642
2096921,2096921, 166508, 712557
2096921,2096921, 166496, 712811
2096921,2096921, 166734, 712715
2096921,2096921, 166666, 712600
2096921,2096921, 166650, 712762
2096921,2096921, 166667, 712986
2096921,2096921, 166896, 712945
2096921,2096921, 166684, 712627
2096921,2096921, 166587, 712433
2096921,2096921, 166536, 712737
2096921,2096921, 166827, 712550
2096921,2096921, 166501, 712615
2096921,2096921, 166447, 712701
2096921,2096921, 166624, 712516
2096921,2096921, 166711, 712830
2096921,2096921, 166753, 712971
2096921,2096921, 166915, 713086
2096921,2096921, 166947, 712980
2096921,2096921, 166710, 712852
2096921,2096921, 166697, 712883
2096921,2096921, 166562, 712878
2096921,2096921, 166497, 712762
2096921,2096921, 166843, 712695
2096921,2096921, 166797, 712864
2096921,2096921, 166775, 712835
2096921,2096921, 166899, 712747
2096921,2096921, 167071, 712867
2096921,2096921, 166791, 712851
2096921,2096921, 166304, 713026
2096921,2096921, 166862, 712568
2096921,2096921, 167028, 712811
2096921,2096921, 166857, 712687
2096921,2096921, 166860, 712872
2096921,2096921, 166764, 712779
2096921,2096921, 166771, 712915
2096921,2096921, 166674, 712780
2096921,2096921, 166677, 712946
2096921,2096921, 166795, 712639
2096921,2096921, 166507, 712805
2096921,2096921, 166861, 712582
2096921,2096921, 166509, 712504
2096921,2096921, 166639, 712335
2096921,2096921, 166531, 712536
2096921,2096921, 166646, 712854
2096921,2096921, 166692, 712737
2096921,2096921, 166908, 712771
2096921,2096921, 166541, 712849
2096921,2096921, 166898, 712586
2096921,2096921, 166607, 712405
2096921,2096921, 166676, 712592
2096921,2096921, 166538, 712634
2096921,2096921, 166365, 712752
2096921,2096921, 166612, 712760
2096921,2096921, 166828, 712751
2096921,2096921, 166789, 712453
2096921,2096921, 166610, 712538
2096921,2096921, 166643, 712508
2096921,2096921, 166576, 712393
2096921,2096921, 166538, 712452
2096921,2096921, 166545, 712465
2096921,2096921, 166217, 712302
2096921,2096921, 166562, 712533
2096921,2096921, 166764, 712718
2096921,2096921, 166781, 712413
2096921,2096921, 166659, 712465
2096921,2096921, 167045, 712671
2096921,2096921, 166835, 712605
2096921,2096921, 166408, 712646
2096921,2096921, 166399, 712395
2096921,2096921, 166634, 712194
2096921,2096921, 166782, 712197
2096921,2096921, 166526, 712377
2096921,2096921, 166714, 711869
2096921,2096921, 166372, 711849
2096921,2096921, 166588, 712005
2096921,2096921, 166277, 711928
2096921,2096921, 166302, 711279
2096921,2096921, 166134, 711195
2096921,2096921, 166424, 711033
2096921,2096921, 166371, 711121
2096921,2096921, 166211, 711262
2096921,2096921, 166079, 710563
2096921,2096921, 165854, 710257
2096921,2096921, 166031, 710202
2096921,2096921, 165973, 710513
2096921,2096921, 165667, 710129
2096921,2096921, 165683, 709138
2096921,2096921, 165388, 708956
2096921,2096921, 165291, 708970
2096921,2096921, 165507, 708805
2096921,2096921, 165427, 709074
2096921,2096921, 165356, 707851
2096921,2096921, 165253, 707735
2096921,2096921, 165223, 707464
2096921,2096921, 165270, 707257
2096921,2096921, 164564, 707363
2096921,2096921, 164315, 705351
2096921,2096921, 164404, 704631
2096921,2096921, 164504, 704716
2096921,2096921, 164673, 704736
2096921,2096921, 163711, 705017
2096921,2096921, 163489, 701890
2096921,2096921, 163350, 701206
2096921,2096921, 163399, 700856
2096921,2096921, 163556, 700934
2096921,2096921, 163006, 700964
2096921,2096921, 162620, 699031
2096921,2096921, 162658, 698617
2096921,2096921, 162732, 698335
2096921,2096921, 163064, 698324
2096921,2096921, 162378, 698709
2096921,2096921, 162278, 696994
2096921,2096921, 162258, 696460
2096921,2096921, 162488, 696343
2096921,2096921, 162213, 696682
2096921,2096921, 162534, 695888
2096921,2096921, 162153, 694857
2096921,2096921, 161988, 694682
2096921,2096921, 161778, 694439
2096921,2096921, 162059, 694632
2096921,2096921, 161616, 694870
2096921,2096921, 161469, 693834
2096921,2096921, 161168, 693645
2096921,2096921, 161592, 693698
2096921,2096921, 161574, 693779
2096921,2096921, 161591, 693646
2096921,2096921, 161310, 693118
2096921,2096921, 161590, 692443
2096921,2096921, 161333, 692715
2096921,2096921, 161228, 692876
2096921,2096921, 161178, 692966
2096921,2096921, 161500, 692580
2096921,2096921, 161072, 692290
2096921,2096921, 161413, 692175
2096921,2096921, 160700, 692581
2096921,2096921, 160986, 692089
2096921,2096921, 161113, 692126
2096921,2096921, 161279, 691847
2096921,2096921, 161066, 691982
2096921,2096921, 160833, 691700
2096921,2096921, 161118, 692138
2096921,2096921, 160941, 692079
2096921,2096921, 161113, 691997
2096921,2096921, 161158, 691974
2096921,2096921, 160803, 691927
2096921,2096921, 161067, 692072
2096921,2096921, 161178, 692067
2096921,2096921, 161008, 692029
2096921,2096921, 160789, 692193
2096921,2096921, 161232, 692201
2096921,2096921, 161064, 692121
2096921,2096921, 161006, 692104
2096921,2096921, 161377, 692416
2096921,2096921, 161288, 692437
2096921,2096921, 161081, 692143
2096921,2096921, 161508, 691982
2096921,2096921, 161200, 691834
2096921,2096921, 161054, 692118
2096921,2096921, 161357, 692147
2096921,2096921, 161262, 692220
2096921,2096921, 161160, 692507
2096921,2096921, 161520, 692693
2096921,2096921, 161371, 692604
2096921,2096921, 161575, 692781
2096921,2096921, 161485, 692602
2096921,2096921, 161514, 692989
2096921,2096921, 161213, 693157
2096921,2096921, 161458, 693244
2096921,2096921, 161377, 693324
2096921,2096921, 161384, 693301
2096921,2096921, 161508, 693331
2096921,2096921, 161249, 693799
2096921,2096921, 161458, 693687
2096921,2096921, 161457, 693993
2096921,2096921, 161653, 693902
2096921,2096921, 161833, 693503
2096921,2096921, 161613, 694003
2096921,2096921, 161603, 694351
2096921,2096921, 161486, 694162
2096921,2096921, 161629, 694329
2096921,2096921, 161793, 694381
2096921,2096921, 161636, 694820
2096921,2096921, 161767, 694940
2096921,2096921, 161648, 695203
2096921,2096921, 161841, 694597
2096921,2096921, 161964, 694776
2096921,2096921, 161912, 695194
2096921,2096921, 161996, 695357
2096921,2096921, 161997, 695277
2096921,2096921, 161964, 695348
2096921,2096921, 162029, 695481
2096921,2096921, 162275, 695770
2096921,2096921, 162391, 695935
2096921,2096921, 162478, 695968
2096921,2096921, 162196, 695684
2096921,2096921, 162204, 695838
2096921,2096921, 162357, 696059
2096921,2096921, 162079, 696454
2096921,2096921, 161978, 696229
2096921,2096921, 162282, 696025
2096921,2096921, 162276, 696098
2096921,2096921, 162211, 696745
2096921,2096921, 162509, 696834
2096921,2096921, 162400, 696881
2096921,2096921, 162421, 696966
2096921,2096921, 162642, 696766
2096921,2096921, 162612, 697490
2096921,2096921, 162660, 697655
2096921,2096921, 162683, 697727
2096921,2096921, 162608, 697473
2096921,2096921, 162804, 697425
2096921,2096921, 162864, 697776
2096921,2096921, 163125, 697814
2096921,2096921, 162851, 698084
2096921,2096921, 162793, 698118
2096921,2096921, 162765, 698160
2096921,2096921, 162971, 698513
2096921,2096921, 162959, 698698
2096921,2096921, 162696, 698671
2096921,2096921, 162557, 698153
2096921,2096921, 163077, 698529
2096921,2096921, 163066, 698836
2096921,2096921, 163178, 698853
2096921,2096921, 162682, 699087
2096921,2096921, 162982, 699094
2096921,2096921, 163023, 698976
2096921,2096921, 163197, 699320
2096921,2096921, 163154, 699487
2096921,2096921, 163056, 699549
2096921,2096921, 163069, 699685
2096921,2096921, 163089, 699463
2096921,2096921, 163281, 699833
2096921,2096921, 163064, 699575
2096921,2096921, 163132, 699559
2096921,2096921, 163142, 699526
2096921,2096921, 163049, 699461
2096921,2096921, 163230, 699861
2096921,2096921, 163231, 699802
2096921,2096921, 163232, 699759
2096921,2096921, 163216, 699737
2096921,2096921, 163311, 699978
2096921,2096921, 163226, 700108
2096921,2096921, 163111, 699922
2096921,2096921, 163148, 699964
2096921,2096921, 163612, 699694
2096921,2096921, 163244, 699819
2096921,2096921, 163231, 699672
2096921,2096921, 163367, 699694
2096921,2096921, 163277, 699621
2096921,2096921, 163426, 699729
2096921,2096921, 163516, 699655
2096921,2096921, 163500, 699781
2096921,2096921, 163652, 699688
2096921,2096921, 163418, 699813
2096921,2096921, 163251, 699778
2096921,2096921, 163418, 699819
2096921,2096921, 162960, 699592
2096921,2096921, 162909, 699466
2096921,2096921, 162675, 699579
2096921,2096921, 163059, 699677
2096921,2096921, 163211, 699789
2096921,2096921, 163202, 699580
2096921,2096921, 162901, 699370
2096921,2096921, 163011, 699101
2096921,2096921, 162960, 699509
2096921,2096921, 162952, 699310
2096921,2096921, 162898, 698911
2096921,2096921, 162721, 698813
2096921,2096921, 162922, 698936
2096921,2096921, 163037, 699000
2096921,2096921, 163119, 699187
2096921,2096921, 163385, 698989
2096921,2096921, 163125, 698865
2096921,2096921, 163183, 698774
2096921,2096921, 162942, 698758
2096921,2096921, 162823, 698643
2096921,2096921, 163002, 698398
2096921,2096921, 162935, 698443
2096921,2096921, 162989, 698441
2096921,2096921, 162899, 698217
2096921,2096921, 162941, 698143
2096921,2096921, 163163, 698076
2096921,2096921, 162940, 698088
2096921,2096921, 162975, 698308
2096921,2096921, 162873, 698465
2096921,2096921, 162740, 698143
2096921,2096921, 162643, 698013
2096921,2096921, 162646, 698360
2096921,2096921, 162573, 698229
2096921,2096921, 162606, 698147
2096921,2096921, 162832, 698057
2096921,2096921, 162815, 698036
2096921,2096921, 162735, 698532
2096921,2096921, 162889, 698265
2096921,2096921, 162903, 698379
2096921,2096921, 162692, 698043
2096921,2096921, 162729, 698269
2096921,2096921, 162816, 698338
2096921,2096921, 162876, 698158
2096921,2096921, 162774, 698022
2096921,2096921, 162879, 698604
2096921,2096921, 163022, 698514
2096921,2096921, 162817, 698509
2096921,2096921, 163108, 697928
2096921,2096921, 162905, 698209
2096921,2096921, 163017, 698340
2096921,2096921, 162922, 698735
2096921,2096921, 163013, 698679
2096921,2096921, 162853, 698799
2096921,2096921, 162876, 698768
2096921,2096921, 162972, 698815
2096921,2096921, 163132, 698977
2096921,2096921, 162841, 699214
2096921,2096921, 163379, 699003
2096921,2096921, 163058, 698572
2096921,2096921, 163135, 698743
2096921,2096921, 163180, 699306
2096921,2096921, 163269, 699043
2096921,2096921, 163036, 699556
2096921,2096921, 163445, 699566
2096921,2096921, 163164, 699632
2096921,2096921, 163341, 699964
2096921,2096921, 163404, 700206
2096921,2096921, 163156, 699515
2096921,2096921, 163192, 699639
2096921,2096921, 163545, 700006
2096921,2096921, 163190, 699956
2096921,2096921, 163387, 700144
2096921,2096921, 162959, 700149
2096921,2096921, 163272, 699892
2096921,2096921, 163305, 700290
2096921,2096921, 163366, 700246
2096921,2096921, 163067, 700136
2096921,2096921, 163210, 700466
2096921,2096921, 163417, 700578
2096921,2096921, 163368, 700459
2096921,2096921, 163334, 700458
2096921,2096921, 163504, 700601
2096921,2096921, 163587, 700345
2096921,2096921, 163583, 700121
2096921,2096921, 163459, 700637
2096921,2096921, 163516, 700975
2096921,2096921, 163576, 701064
2096921,2096921, 163672, 701102
2096921,2096921, 163723, 701006
2096921,2096921, 163541, 700889
2096921,2096921, 163610, 700857
2096921,2096921, 163599, 701096
2096921,2096921, 163493, 701027
2096921,2096921, 164070, 701166
2096921,2096921, 164086, 701285
2096921,2096921, 163729, 701409
2096921,2096921, 163940, 701765
2096921,2096921, 163516, 701543
2096921,2096921, 163773, 701460
2096921,2096921, 163841, 701410
2096921,2096921, 163546, 701748
2096921,2096921, 163812, 701915
2096921,2096921, 163715, 701646
2096921,2096921, 163880, 701904
2096921,2096921, 163890, 701558
2096921,2096921, 164124, 701751
2096921,2096921, 163999, 702011
2096921,2096921, 163669, 702063
2096921,2096921, 163870, 701671
2096921,2096921, 163724, 701582
2096921,2096921, 163843, 701959
2096921,2096921, 163787, 702331
2096921,2096921, 163806, 702350
2096921,2096921, 163610, 702092
2096921,2096921, 163894, 702263
2096921,2096921, 163999, 702653
2096921,2096921, 164193, 702497
2096921,2096921, 164104, 702818
2096921,2096921, 163843, 702627
2096921,2096921, 164170, 702755
2096921,2096921, 163995, 702848
2096921,2096921, 164198, 702639
2096921,2096921, 163869, 702378
2096921,2096921, 164047, 702674
2096921,2096921, 164285, 702841
2096921,2096921, 163990, 702948
2096921,2096921, 164138, 702808
2096921,2096921, 163977, 702920
2096921,2096921, 164000, 703132
2096921,2096921, 164189, 703217
2096921,2096921, 164249, 703146
2096921,2096921, 164459, 703153
2096921,2096921, 164241, 703232
2096921,2096921, 164064, 703182
2096921,2096921, 164295, 703026
2096921,2096921, 164377, 703223
2096921,2096921, 164217, 703133
2096921,2096921, 164384, 703401
2096921,2096921, 164302, 703021
2096921,2096921, 164336, 702945
2096921,2096921, 164329, 703064
2096921,2096921, 164642, 703457
2096921,2096921, 164199, 703470
2096921,2096921, 164139, 703614
2096921,2096921, 164550, 703291
2096921,2096921, 164615, 703818
2096921,2096921, 164314, 703389
2096921,2096921, 164661, 703131
2096921,2096921, 164463, 703535
2096921,2096921, 164283, 703911
2096921,2096921, 164241, 703716
2096921,2096921, 164341, 703899
2096921,2096921, 164318, 703846
2096921,2096921, 164627, 704154
2096921,2096921, 164451, 704041
2096921,2096921, 164463, 704098
2096921,2096921, 164679, 704003
2096921,2096921, 164517, 703974
2096921,2096921, 164457, 703769
2096921,2096921, 164605, 704201
2096921,2096921, 164571, 704182
2096921,2096921, 164523, 704144
2096921,2096921, 164483, 704060
2096921,2096921, 164260, 704025
2096921,2096921, 165026, 704213
2096921,2096921, 164649, 704265
2096921,2096921, 164684, 704059
2096921,2096921, 164415, 704195
2096921,2096921, 164710, 704435
2096921,2096921, 164503, 704702
2096921,2096921, 164726, 704622
2096921,2096921, 164818, 704496
2096921,2096921, 164815, 704505
2096921,2096921, 164763, 704444
2096921,2096921, 164533, 704193
2096921,2096921, 164704, 704432
2096921,2096921, 164854, 704307
2096921,2096921, 164740, 704494
2096921,2096921, 164740, 704335
2096921,2096921, 164710, 704372
2096921,2096921, 164486, 704520
2096921,2096921, 164685, 704882
2096921,2096921, 164811, 704540
2096921,2096921, 164782, 704726
2096921,2096921, 164960, 704791
2096921,2096921, 164722, 705091
2096921,2096921, 164866, 705139
2096921,2096921, 165016, 705007
2096921,2096921, 164772, 704998
2096921,2096921, 164507, 704875
2096921,2096921, 164935, 704838
2096921,2096921, 164709, 705067
2096921,2096921, 164690, 704785
2096921,2096921, 164938, 705121
2096921,2096921, 165088, 705370
2096921,2096921, 164773, 705172
2096921,2096921, 164631, 704797
2096921,2096921, 164456, 705168
2096921,2096921, 164548, 705234
2096921,2096921, 164667, 704941
2096921,2096921, 164736, 705238
2096921,2096921, 165280, 705252
2096921,2096921, 164910, 705205
2096921,2096921, 164378, 705132
2096921,2096921, 164654, 705258
2096921,2096921, 164640, 705458
2096921,2096921, 164634, 705424
2096921,2096921, 164860, 705327
2096921,2096921, 164511, 705230
2096921,2096921, 164664, 705144
2096921,2096921, 164797, 705278
2096921,2096921, 164503, 705151
2096921,2096921, 164833, 705383
2096921,2096921, 164986, 705275
2096921,2096921, 164990, 705266
2096921,2096921, 165017, 705354
2096921,2096921, 165066, 705503
2096921,2096921, 165099, 705366
2096921,2096921, 165147, 705292
2096921,2096921, 165116, 705249
2096921,2096921, 165113, 705224
2096921,2096921, 165092, 705086
2096921,2096921, 165071, 705404
2096921,2096921, 165073, 705375
2096921,2096921, 165128, 705383
2096921,2096921, 165206, 705234
2096921,2096921, 165058, 705351
2096921,2096921, 165136, 705357
2096921,2096921, 164920, 705621
2096921,2096921, 164709, 705510
2096921,2096921, 165065, 705792
2096921,2096921, 164755, 705737
2096921,2096921, 164879, 705598
2096921,2096921, 165071, 705712
2096921,2096921, 165196, 705657
2096921,2096921, 165022, 705495
2096921,2096921, 164864, 706089
2096921,2096921, 164923, 706103
2096921,2096921, 164820, 706240
2096921,2096921, 164869, 705854
2096921,2096921, 164979, 706144
2096921,2096921, 165130, 705700
2096921,2096921, 164799, 705722
2096921,2096921, 164673, 705851
2096921,2096921, 164815, 705894
2096921,2096921, 165161, 705696
2096921,2096921, 165190, 706366
2096921,2096921, 165154, 706132
2096921,2096921, 164850, 705926
2096921,2096921, 165074, 705702
2096921,2096921, 165023, 705864
2096921,2096921, 165139, 705934
2096921,2096921, 165191, 706052
2096921,2096921, 165135, 705741
2096921,2096921, 165364, 706195
2096921,2096921, 165020, 705895
2096921,2096921, 165111, 705799
2096921,2096921, 165065, 705886
2096921,2096921, 165082, 706362
2096921,2096921, 165187, 705996
2096921,2096921, 164992, 706089
2096921,2096921, 165459, 706042
2096921,2096921, 165111, 706053
2096921,2096921, 165184, 705948
2096921,2096921, 165109, 706153
2096921,2096921, 165240, 706004
2096921,2096921, 164994, 706140
2096921,2096921, 165114, 706191
2096921,2096921, 165157, 706016
2096921,2096921, 165338, 705898
2096921,2096921, 165235, 705915
2096921,2096921, 165119, 705965
2096921,2096921, 165001, 705919
2096921,2096921, 165589, 706014
2096921,2096921, 165155, 705872
2096921,2096921, 165031, 706259
2096921,2096921, 165167, 706384
2096921,2096921, 165007, 706235
2096921,2096921, 165193, 706177
2096921,2096921, 165225, 706159
2096921,2096921, 165286, 706109
2096921,2096921, 165537, 705895
2096921,2096921, 165291, 706161
2096921,2096921, 165161, 706182
2096921,2096921, 165235, 706266
2096921,2096921, 165046, 706089
2096921,2096921, 164893, 706067
2096921,2096921, 165058, 706058
2096921,2096921, 165176, 706165
2096921,2096921, 165110, 706176
2096921,2096921, 165132, 706035
2096921,2096921, 165089, 705780
2096921,2096921, 165020, 706003
2096921,2096921, 164998, 706358
2096921,2096921, 165252, 706109
2096921,2096921, 165238, 706170
2096921,2096921, 165165, 706142
2096921,2096921, 165124, 706213
2096921,2096921, 164670, 706364
2096921,2096921, 164842, 706176
2096921,2096921, 165056, 706142
2096921,2096921, 164946, 706519
2096921,2096921, 164861, 706221
2096921,2096921, 164836, 706285
2096921,2096921, 164995, 706287
2096921,2096921, 165176, 706118
2096921,2096921, 165125, 706299
2096921,2096921, 165227, 706125
2096921,2096921, 165055, 706246
2096921,2096921, 164962, 706143
2096921,2096921, 165053, 706046
2096921,2096921, 164826, 706238
2096921,2096921, 165020, 706044
2096921,2096921, 165083, 706041
2096921,2096921, 165274, 705931
2096921,2096921, 164989, 705453
2096921,2096921, 164832, 705332
2096921,2096921, 164970, 705510
2096921,2096921, 164945, 705518
2096921,2096921, 164829, 705481
2096921,2096921, 164932, 705160
2096921,2096921, 164929, 705152
2096921,2096921, 164649, 704907
2096921,2096921, 164803, 705134
2096921,2096921, 164627, 704935
2096921,2096921, 164641, 704293
2096921,2096921, 164580, 704222
2096921,2096921, 164414, 704025
2096921,2096921, 164599, 704129
2096921,2096921, 164353, 704250
2096921,2096921, 164129, 703106
2096921,2096921, 164356, 703208
2096921,2096921, 164269, 702936
2096921,2096921, 163873, 703217
2096921,2096921, 163695, 703130
2096921,2096921, 163591, 702067
2096921,2096921, 163673, 701912
2096921,2096921, 163968, 701918
2096921,2096921, 163888, 701858
2096921,2096921, 163208, 702014
2096921,2096921, 162970, 699590
2096921,2096921, 163132, 698950
2096921,2096921, 163377, 698750
2096921,2096921, 163335, 698899
2096921,2096921, 162192, 699040
2096921,2096921, 162197, 696651
2096921,2096921, 162145, 695656
2096921,2096921, 162134, 695494
2096921,2096921, 162159, 695456
2096921,2096921, 161585, 695639
2096921,2096921, 161552, 693223
2096921,2096921, 161704, 692687
2096921,2096921, 161112, 692842
2096921,2096921, 161363, 692700
2096921,2096921, 160880, 692843
2096921,2096921, 160845, 691236
2096921,2096921, 160965, 690901
2096921,2096921, 160968, 690819
2096921,2096921, 160769, 690879
2096921,2096921, 160446, 690764
2096921,2096921, 160468, 689841
2096921,2096921, 160310, 689226
2096921,2096921, 160467, 689352
2096921,2096921, 160338, 689199
2096921,2096921, 160461, 689533
2096921,2096921, 160154, 688811
2096921,2096921, 160089, 688651
2096921,2096921, 159918, 688288
2096921,2096921, 160032, 688669
2096921,2096921, 159650, 688458
2096921,2096921, 159613, 687711
2096921,2096921, 159825, 687807
2096921,2096921, 159701, 687538
2096921,2096921, 159844, 687411
2096921,2096921, 159864, 687401
2096921,2096921, 159671, 687205
2096921,2096921, 159742, 687184
2096921,2096921, 159934, 686997
2096921,2096921, 159951, 686977
2096921,2096921, 159962, 687043
2096921,2096921, 159882, 686811
2096921,2096921, 159786, 687059
2096921,2096921, 159839, 686858
2096921,2096921, 159770, 686961
2096921,2096921, 159928, 686987
2096921,2096921, 160082, 686862
2096921,2096921, 160322, 686699
2096921,2096921, 160044, 686820
2096921,2096921, 159938, 686591
2096921,2096921, 159846, 687004
2096921,2096921, 159868, 687213
2096921,2096921, 159984, 687137
2096921,2096921, 160067, 687263
2096921,2096921, 159875, 687304
2096921,2096921, 159904, 687258
2096921,2096921, 159787, 687441
2096921,2096921, 159866, 687495
2096921,2096921, 159730, 687551
2096921,2096921, 159856, 687652
2096921,2096921, 159727, 687250
2096921,2096921, 160136, 687380
2096921,2096921, 160128, 687374
2096921,2096921, 160034, 687376
2096921,2096921, 160145, 687538
2096921,2096921, 160041, 687902
2096921,2096921, 160056, 688203
2096921,2096921, 160177, 688233
2096921,2096921, 160287, 688087
2096921,2096921, 160076, 688064
2096921,2096921, 160162, 688080
2096921,2096921, 160340, 688605
2096921,2096921, 160550, 688655
2096921,2096921, 160512, 688550
2096921,2096921, 160423, 688819
2096921,2096921, 160228, 688995
2096921,2096921, 160650, 689024
2096921,2096921, 160461, 689686
2096921,2096921, 160402, 689319
2096921,2096921, 160667, 689270
2096921,2096921, 160589, 689150
2096921,2096921, 160685, 689683
2096921,2096921, 160399, 689259
2096921,2096921, 160614, 689950
2096921,2096921, 160619, 689948
2096921,2096921, 160638, 690244
2096921,2096921, 160819, 690724
2096921,2096921, 160607, 690897
2096921,2096921, 160686, 690955
2096921,2096921, 160939, 690741
2096921,2096921, 160794, 690261
2096921,2096921, 160982, 690993
2096921,2096921, 160802, 691209
2096921,2096921, 160746, 690926
2096921,2096921, 160854, 690878
2096921,2096921, 161150, 690899
2096921,2096921, 161110, 691434
2096921,2096921, 161170, 691994
2096921,2096921, 161297, 691856
2096921,2096921, 161453, 691954
2096921,2096921, 161482, 691621
2096921,2096921, 161275, 692079
2096921,2096921, 161106, 692487
2096921,2096921, 161208, 692113
2096921,2096921, 161298, 692264
2096921,2096921, 161647, 692227
2096921,2096921, 161412, 692735
2096921,2096921, 161356, 692837
2096921,2096921, 161320, 692692
2096921,2096921, 161481, 693126
2096921,2096921, 161456, 692759
2096921,2096921, 161609, 693580
2096921,2096921, 161480, 693440
2096921,2096921, 161729, 693604
2096921,2096921, 161794, 693527
2096921,2096921, 162050, 693413
2096921,2096921, 161763, 693851
2096921,2096921, 161725, 694120
2096921,2096921, 161706, 694027
2096921,2096921, 161691, 694208
2096921,2096921, 162144, 694310
2096921,2096921, 162016, 694891
2096921,2096921, 162089, 694864
2096921,2096921, 162149, 695072
2096921,2096921, 161981, 695092
2096921,2096921, 161882, 694997
2096921,2096921, 162293, 695514
2096921,2096921, 162027, 695348
2096921,2096921, 162066, 695421
2096921,2096921, 162060, 695427
2096921,2096921, 162308, 695633
2096921,2096921, 162270, 695810
2096921,2096921, 162343, 695864
2096921,2096921, 162031, 695895
2096921,2096921, 162111, 695765
2096921,2096921, 162668, 695930
2096921,2096921, 162411, 696039
2096921,2096921, 162442, 695916
2096921,2096921, 162448, 696064
2096921,2096921, 162583, 696280
2096921,2096921, 162284, 696108
2096921,2096921, 162354, 696371
2096921,2096921, 162363, 696582
2096921,2096921, 162341, 696194
2096921,2096921, 162405, 696505
2096921,2096921, 162371, 696169
2096921,2096921, 162599, 696304
2096921,2096921, 162354, 696615
2096921,2096921, 162757, 696680
2096921,2096921, 162661, 696810
2096921,2096921, 162662, 696730
2096921,2096921, 162477, 696548
2096921,2096921, 162341, 696615
2096921,2096921, 162596, 696934
2096921,2096921, 162597, 696854
2096921,2096921, 162379, 696807
2096921,2096921, 162216, 696877
2096921,2096921, 162464, 696806
2096921,2096921, 162804, 697085
2096921,2096921, 162705, 696903
2096921,2096921, 162423, 696635
2096921,2096921, 162765, 696759
2096921,2096921, 162599, 696602
2096921,2096921, 162462, 696411
2096921,2096921, 162327, 696409
2096921,2096921, 162432, 696602
2096921,2096921, 162447, 696395
2096921,2096921, 162656, 696600
2096921,2096921, 162524, 696472
2096921,2096921, 162569, 696413
2096921,2096921, 162421, 696368
2096921,2096921, 162282, 696216
2096921,2096921, 162505, 696083
2096921,2096921, 162524, 696052
2096921,2096921, 162645, 696207
2096921,2096921, 162197, 696467
2096921,2096921, 162232, 696278
2096921,2096921, 162478, 696237
2096921,2096921, 162461, 696107
2096921,2096921, 162540, 696032
2096921,2096921, 162137, 696084
2096921,2096921, 162136, 695889
2096921,2096921, 162251, 696024
2096921,2096921, 161986, 695644
2096921,2096921, 162197, 696184
2096921,2096921, 162274, 696333
2096921,2096921, 162388, 696675
2096921,2096921, 162337, 696233
2096921,2096921, 162410, 696354
2096921,2096921, 162206, 696205
2096921,2096921, 162384, 696391
2096921,2096921, 162327, 695935
2096921,2096921, 162234, 696121
2096921,2096921, 162129, 695943
2096921,2096921, 162151, 696235
2096921,2096921, 162201, 695985
2096921,2096921, 162333, 696393
2096921,2096921, 162293, 696159
2096921,2096921, 162481, 696198
2096921,2096921, 162154, 695920
2096921,2096921, 162347, 696152
2096921,2096921, 162511, 696365
2096921,2096921, 162375, 696246
2096921,2096921, 162466, 696448
2096921,2096921, 162534, 696326
2096921,2096921, 162488, 696360
2096921,2096921, 162664, 696670
2096921,2096921, 162789, 696571
2096921,2096921, 162478, 696702
2096921,2096921, 162390, 696707
2096921,2096921, 162824, 696704
2096921,2096921, 162702, 696889
2096921,2096921, 162668, 697115
2096921,2096921, 162833, 696994
2096921,2096921, 162496, 697127
2096921,2096921, 162611, 697095
2096921,2096921, 162865, 697626
2096921,2096921, 162935, 697610
2096921,2096921, 162581, 697747
2096921,2096921, 162685, 697635
2096921,2096921, 162528, 697731
2096921,2096921, 162757, 698349
2096921,2096921, 162853, 698181
2096921,2096921, 163013, 698378
2096921,2096921, 163064, 698348
2096921,2096921, 163188, 698290
2096921,2096921, 162880, 698722
2096921,2096921, 162969, 698763
2096921,2096921, 162938, 698726
2096921,2096921, 163008, 698891
2096921,2096921, 162863, 698456
2096921,2096921, 162810, 698711
2096921,2096921, 162933, 698940
2096921,2096921, 162905, 699040
2096921,2096921, 163072, 699007
2096921,2096921, 163562, 699252
2096921,2096921, 163199, 699226
2096921,2096921, 163555, 699504
2096921,2096921, 162966, 699433
2096921,2096921, 163324, 699378
2096921,2096921, 163591, 699577
2096921,2096921, 163299, 699870
2096921,2096921, 163424, 699652
2096921,2096921, 163144, 699607
2096921,2096921, 163158, 699768
2096921,2096921, 163817, 699665
2096921,2096921, 163428, 700230
2096921,2096921, 163586, 700149
2096921,2096921, 163461, 700089
2096921,2096921, 163572, 700200
2096921,2096921, 163367, 700117
2096921,2096921, 163751, 700606
2096921,2096921, 163467, 700646
2096921,2096921, 163743, 700615
2096921,2096921, 163589, 700693
2096921,2096921, 163552, 700834
2096921,2096921, 163444, 701510
2096921,2096921, 164083, 701377
2096921,2096921, 163882, 701283
2096921,2096921, 163455, 700849
2096921,2096921, 163608, 701226
2096921,2096921, 163760, 701461
2096921,2096921, 163643, 701252
2096921,2096921, 163653, 701463
2096921,2096921, 163710, 701690
2096921,2096921, 163849, 701788
2096921,2096921, 163991, 702015
2096921,2096921, 163820, 701892
2096921,2096921, 163740, 702165
2096921,2096921, 163819, 702072
2096921,2096921, 164017, 702104
2096921,2096921, 163832, 702336
2096921,2096921, 163712, 702278
2096921,2096921, 163936, 702260
2096921,2096921, 163854, 702441
2096921,2096921, 164136, 702276
2096921,2096921, 163979, 702606
2096921,2096921, 163993, 702867
2096921,2096921, 163667, 703036
2096921,2096921, 164284, 702553
2096921,2096921, 164129, 702723
2096921,2096921, 164119, 703412
2096921,2096921, 163943, 703186
2096921,2096921, 163810, 702966
2096921,2096921, 164210, 703084
2096921,2096921, 164467, 703279
2096921,2096921, 164340, 703523
2096921,2096921, 164334, 703523
2096921,2096921, 164264, 703627
2096921,2096921, 164136, 703716
2096921,2096921, 164408, 703363
2096921,2096921, 164592, 703659
2096921,2096921, 164496, 703925
2096921,2096921, 164153, 703704
2096921,2096921, 164217, 703896
2096921,2096921, 164495, 703746
2096921,2096921, 164384, 703726
2096921,2096921, 164668, 704313
2096921,2096921, 164361, 704206
2096921,2096921, 164476, 704195
2096921,2096921, 164445, 704223
2096921,2096921, 164355, 704455
2096921,2096921, 164508, 704513
2096921,2096921, 164428, 704575
2096921,2096921, 164340, 704628
2096921,2096921, 164970, 704977
2096921,2096921, 164681, 704896
2096921,2096921, 164694, 705079
2096921,2096921, 164708, 704932
2096921,2096921, 164644, 704860
2096921,2096921, 164606, 704933
2096921,2096921, 164741, 705064
2096921,2096921, 164573, 705178
2096921,2096921, 164874, 705136
2096921,2096921, 164660, 705196
2096921,2096921, 165118, 705114
2096921,2096921, 164876, 705407
2096921,2096921, 164965, 705542
2096921,2096921, 165191, 705497
2096921,2096921, 164825, 705731
2096921,2096921, 164998, 705211
2096921,2096921, 165063, 705858
2096921,2096921, 164828, 705757
2096921,2096921, 164579, 705770
2096921,2096921, 165142, 705688
2096921,2096921, 164841, 705829
2096921,2096921, 164957, 706186
2096921,2096921, 165134, 706017
2096921,2096921, 165014, 705865
2096921,2096921, 165004, 705699
2096921,2096921, 165111, 706131
2096921,2096921, 165238, 706444
2096921,2096921, 165637, 706046
2096921,2096921, 164849, 706392
2096921,2096921, 165018, 706216
2096921,2096921, 165287, 706283
2096921,2096921, 165319, 706695
2096921,2096921, 165157, 706950
2096921,2096921, 165332, 707061
2096921,2096921, 165069, 706923
2096921,2096921, 165311, 706935
2096921,2096921, 165147, 706753
2096921,2096921, 165310, 706850
2096921,2096921, 165103, 706943
2096921,2096921, 165180, 707037
2096921,2096921, 165238, 706824
2096921,2096921, 165366, 707061
2096921,2096921, 165156, 707196
2096921,2096921, 165159, 707135
2096921,2096921, 165244, 707389
2096921,2096921, 165311, 707119
2096921,2096921, 165238, 707167
2096921,2096921, 165107, 707515
2096921,2096921, 165535, 707326
2096921,2096921, 165588, 707417
2096921,2096921, 165690, 707633
2096921,2096921, 165356, 707539
2096921,2096921, 165168, 707726
2096921,2096921, 165340, 707661
2096921,2096921, 165355, 707569
2096921,2096921, 165491, 707843
2096921,2096921, 165330, 707727
2096921,2096921, 165025, 707859
2096921,2096921, 165308, 707635
2096921,2096921, 165628, 707772
2096921,2096921, 165514, 707732
2096921,2096921, 165696, 707971
2096921,2096921, 165928, 708081
2096921,2096921, 165921, 707992
2096921,2096921, 165857, 707952
2096921,2096921, 165837, 707984
2096921,2096921, 165542, 707949
2096921,2096921, 165652, 708110
2096921,2096921, 165766, 708188
2096921,2096921, 165659, 708105
2096921,2096921, 165612, 708453
2096921,2096921, 165659, 708629
2096921,2096921, 165416, 708285
2096921,2096921, 165463, 708191
2096921,2096921, 165680, 708377
2096921,2096921, 165644, 708148
2096921,2096921, 165686, 708541
2096921,2096921, 165557, 708613
2096921,2096921, 165680, 708666
2096921,2096921, 165785, 708850
2096921,2096921, 165768, 708798
2096921,2096921, 165735, 708937
2096921,2096921, 165806, 709164
2096921,2096921, 165802, 709371
2096921,2096921, 165786, 708927
2096921,2096921, 165794, 709121
2096921,2096921, 165538, 709040
2096921,2096921, 165599, 709196
2096921,2096921, 165617, 709422
2096921,2096921, 165694, 709056
2096921,2096921, 165933, 709013
2096921,2096921, 165718, 709241
2096921,2096921, 165885, 709165
2096921,2096921, 165806, 709522
2096921,2096921, 165672, 709370
2096921,2096921, 165719, 709342
2096921,2096921, 165883, 709279
2096921,2096921, 166132, 709705
2096921,2096921, 166108, 709742
2096921,2096921, 166037, 709685
2096921,2096921, 166071, 709588
2096921,2096921, 166040, 709562
2096921,2096921, 165777, 709812
2096921,2096921, 165898, 709540
2096921,2096921, 165949, 709467
2096921,2096921, 165908, 709625
2096921,2096921, 165920, 709742
2096921,2096921, 166026, 709774
2096921,2096921, 165924, 710073
2096921,2096921, 165831, 709965
2096921,2096921, 165961, 709556
2096921,2096921, 165758, 709954
2096921,2096921, 166131, 710274
2096921,2096921, 166167, 710216
2096921,2096921, 166117, 709996
2096921,2096921, 166171, 709894
2096921,2096921, 165998, 709812
2096921,2096921, 166224, 710197
2096921,2096921, 165837, 710240
2096921,2096921, 165972, 710308
2096921,2096921, 166297, 709937
2096921,2096921, 166135, 710043
2096921,2096921, 166267, 710180
2096921,2096921, 165933, 710506
2096921,2096921, 166125, 710470
2096921,2096921, 166070, 710384
2096921,2096921, 165974, 710484
2096921,2096921, 165899, 710626
2096921,2096921, 166209, 710534
2096921,2096921, 166289, 710479
2096921,2096921, 166351, 710322
2096921,2096921, 166335, 710448
2096921,2096921, 166231, 710649
2096921,2096921, 166268, 710820
2096921,2096921, 166376, 710575
2096921,2096921, 166407, 710550
2096921,2096921, 166267, 710852
2096921,2096921, 165999, 710514
2096921,2096921, 166328, 710551
2096921,2096921, 166250, 710446
2096921,2096921, 166425, 710483
2096921,2096921, 166222, 710679
2096921,2096921, 166304, 710804
2096921,2096921, 166386, 710499
2096921,2096921, 166232, 710477
2096921,2096921, 166279, 710736
2096921,2096921, 166148, 710564
2096921,2096921, 166027, 710614
2096921,2096921, 166217, 710882
2096921,2096921, 166241, 710744
2096921,2096921, 166429, 710924
2096921,2096921, 166072, 710817
2096921,2096921, 166537, 710863
2096921,2096921, 166281, 711004
2096921,2096921, 166425, 710796
2096921,2096921, 166253, 710666
2096921,2096921, 166277, 710896
2096921,2096921, 166243, 710904
2096921,2096921, 166575, 710793
2096921,2096921, 166163, 710910
2096921,2096921, 166029, 710995
2096921,2096921, 166201, 711184
2096921,2096921, 166297, 711238
2096921,2096921, 166186, 711065
2096921,2096921, 166431, 711194
2096921,2096921, 166408, 711000
2096921,2096921, 166490, 711162
2096921,2096921, 166319, 710952
2096921,2096921, 166548, 710806
2096921,2096921, 166526, 711056
2096921,2096921, 166287, 711067
2096921,2096921, 166128, 710801
2096921,2096921, 165921, 710492
2096921,2096921, 166113, 710640
2096921,2096921, 165963, 710721
2096921,2096921, 165836, 710536
2096921,2096921, 165923, 710534
2096921,2096921, 165623, 710222
2096921,2096921, 165847, 710266
2096921,2096921, 166053, 709976
2096921,2096921, 165842, 710063
2096921,2096921, 165870, 709339
2096921,2096921, 166009, 709395
2096921,2096921, 165582, 709271
2096921,2096921, 165608, 709312
2096921,2096921, 165610, 709298
2096921,2096921, 165583, 708453
2096921,2096921, 165460, 708237
2096921,2096921, 165326, 708326
2096921,2096921, 165324, 708210
2096921,2096921, 165309, 708243
2096921,2096921, 165248, 707175
2096921,2096921, 165150, 707183
2096921,2096921, 165036, 706987
2096921,2096921, 165145, 707218
2096921,2096921, 164313, 706888
2096921,2096921, 164251, 704666
2096921,2096921, 164369, 704171
2096921,2096921, 164510, 704119
2096921,2096921, 164367, 703989
2096921,2096921, 163749, 703965
2096921,2096921, 163733, 701569
2096921,2096921, 163623, 701019
2096921,2096921, 163292, 700812
2096921,2096921, 163483, 700899
2096921,2096921, 162861, 700574
2096921,2096921, 162543, 698583
2096921,2096921, 162563, 698242
2096921,2096921, 162648, 698062
2096921,2096921, 162908, 698139
2096921,2096921, 162419, 698186
2096921,2096921, 162086, 696628
2096921,2096921, 161874, 696617
2096921,2096921, 162164, 696590
2096921,2096921, 162132, 696750
2096921,2096921, 162240, 696242
2096921,2096921, 161783, 695450
2096921,2096921, 161463, 695082
2096921,2096921, 161844, 695116
2096921,2096921, 162033, 694980
2096921,2096921, 161470, 695190
2096921,2096921, 161460, 694109
2096921,2096921, 161449, 694240
2096921,2096921, 161643, 693829
2096921,2096921, 161674, 694071
2096921,2096921, 161476, 693957
2096921,2096921, 161579, 693408
2096921,2096921, 161309, 693443
2096921,2096921, 161319, 693080
2096921,2096921, 161588, 693158
2096921,2096921, 161519, 693091
2096921,2096921, 161470, 692834
2096921,2096921, 161588, 692687
2096921,2096921, 161447, 692986
2096921,2096921, 161169, 692802
2096921,2096921, 161346, 692988
2096921,2096921, 161018, 692694
2096921,2096921, 161042, 692813
2096921,2096921, 161220, 692754
2096921,2096921, 161302, 692950
2096921,2096921, 161121, 693112
2096921,2096921, 161263, 693017
2096921,2096921, 161196, 693137
2096921,2096921, 160814, 692960
2096921,2096921, 161074, 692945
2096921,2096921, 161226, 693013
2096921,2096921, 161254, 693226
2096921,2096921, 161169, 693237
2096921,2096921, 161260, 693320
2096921,2096921, 161400, 693205
2096921,2096921, 161308, 693271
2096921,2096921, 161619, 693318
2096921,2096921, 161353, 693510
2096921,2096921, 161310, 693507
2096921,2096921, 161357, 693193
2096921,2096921, 161441, 693500
2096921,2096921, 161369, 693483
2096921,2096921, 161477, 693685
2096921,2096921, 161745, 693702
2096921,2096921, 161953, 693370
2096921,2096921, 161408, 693488
2096921,2096921, 161737, 694235
2096921,2096921, 161554, 694531
2096921,2096921, 161696, 694601
2096921,2096921, 161773, 694601
2096921,2096921, 161782, 694212
2096921,2096921, 162104, 694680
2096921,2096921, 161771, 694994
2096921,2096921, 161808, 694825
2096921,2096921, 162023, 694710
2096921,2096921, 162384, 694786
2096921,2096921, 162139, 695280
2096921,2096921, 162139, 695360
2096921,2096921, 161877, 695641
2096921,2096921, 161897, 695469
2096921,2096921, 161934, 695419
2096921,2096921, 162136, 696168
2096921,2096921, 162146, 696246
2096921,2096921, 162093, 696034
2096921,2096921, 162006, 696557
2096921,2096921, 162270, 696376
2096921,2096921, 162269, 697251
2096921,2096921, 162353, 697208
2096921,2096921, 162242, 697044
2096921,2096921, 162181, 697038
2096921,2096921, 162648, 696740
2096921,2096921, 162452, 697340
2096921,2096921, 162438, 697469
2096921,2096921, 162523, 697232
2096921,2096921, 162827, 697520
2096921,2096921, 162858, 697427
2096921,2096921, 162530, 698056
2096921,2096921, 162642, 698014
2096921,2096921, 162474, 698180
2096921,2096921, 162786, 698049
2096921,2096921, 162647, 698351
2096921,2096921, 162700, 698765
2096921,2096921, 163091, 698968
2096921,2096921, 163119, 698779
2096921,2096921, 163190, 698726
2096921,2096921, 163244, 698712
2096921,2096921, 163230, 699333
2096921,2096921, 163093, 699430
2096921,2096921, 163352, 699501
2096921,2096921, 163134, 699401
2096921,2096921, 163344, 699362
2096921,2096921, 163506, 700080
2096921,2096921, 163366, 700044
2096921,2096921, 163284, 700320
2096921,2096921, 163132, 699945
2096921,2096921, 163477, 700126
2096921,2096921, 163673, 700955
2096921,2096921, 163650, 700763
2096921,2096921, 163554, 700831
2096921,2096921, 163551, 700696
2096921,2096921, 163664, 700949
2096921,2096921, 163652, 701293
2096921,2096921, 163673, 701533
2096921,2096921, 163877, 701470
2096921,2096921, 163633, 701655
2096921,2096921, 163520, 701800
2096921,2096921, 163602, 702115
2096921,2096921, 163759, 702188
2096921,2096921, 163595, 702302
2096921,2096921, 163659, 702329
2096921,2096921, 163497, 702215
2096921,2096921, 163859, 702440
2096921,2096921, 163914, 703004
2096921,2096921, 163743, 702884
2096921,2096921, 163665, 702406
2096921,2096921, 163830, 702637
2096921,2096921, 163955, 702983
2096921,2096921, 163879, 702799
2096921,2096921, 163661, 702663
2096921,2096921, 163828, 702536
2096921,2096921, 163912, 702433
2096921,2096921, 163951, 702976
2096921,2096921, 163756, 702926
2096921,2096921, 163896, 702938
2096921,2096921, 164049, 703245
2096921,2096921, 164105, 703066
2096921,2096921, 164001, 703139
2096921,2096921, 164240, 703510
2096921,2096921, 164083, 703456
2096921,2096921, 164147, 703379
2096921,2096921, 164178, 703403
2096921,2096921, 164132, 703749
2096921,2096921, 164099, 703523
2096921,2096921, 164301, 703286
2096921,2096921, 164367, 703360
2096921,2096921, 164580, 703526
2096921,2096921, 164254, 703708
2096921,2096921, 164491, 703199
2096921,2096921, 164183, 703577
2096921,2096921, 164444, 703299
2096921,2096921, 164063, 703407
2096921,2096921, 164133, 703370
2096921,2096921, 164061, 703207
2096921,2096921, 164069, 703558
2096921,2096921, 164195, 703530
2096921,2096921, 164182, 703430
2096921,2096921, 164050, 703173
2096921,2096921, 164210, 703294
2096921,2096921, 164458, 703267
2096921,2096921, 164326, 703022
2096921,2096921, 164091, 703125
2096921,2096921, 163965, 703325
2096921,2096921, 164143, 703052
2096921,2096921, 164097, 703166
2096921,2096921, 164179, 702893
2096921,2096921, 163985, 702731
2096921,2096921, 163970, 702914
2096921,2096921, 163985, 702948
2096921,2096921, 164198, 702915
2096921,2096921, 164274, 702912
2096921,2096921, 163797, 702997
2096921,2096921, 163838, 702863
2096921,2096921, 163811, 702723
2096921,2096921, 163841, 702682
2096921,2096921, 164038, 702766
2096921,2096921, 164042, 702643
2096921,2096921, 164169, 702805
2096921,2096921, 164211, 702495
2096921,2096921, 164107, 702788
2096921,2096921, 163903, 702574
2096921,2096921, 163905, 702411
2096921,2096921, 163778, 702825
2096921,2096921, 163752, 702579
2096921,2096921, 163928, 702392
2096921,2096921, 163863, 702448
2096921,2096921, 164130, 702468
2096921,2096921, 164000, 702541
2096921,2096921, 164009, 702678
2096921,2096921, 164252, 702559
2096921,2096921, 164153, 702710
2096921,2096921, 164118, 702426
2096921,2096921, 164118, 702994
2096921,2096921, 164258, 702890
2096921,2096921, 163919, 702802
2096921,2096921, 164086, 703112
2096921,2096921, 164166, 702898
2096921,2096921, 164138, 702954
2096921,2096921, 164100, 703231
2096921,2096921, 163949, 703072
2096921,2096921, 164184, 703029
2096921,2096921, 164055, 702775
2096921,2096921, 164095, 703240
2096921,2096921, 164036, 703113
2096921,2096921, 164139, 703381
2096921,2096921, 164361, 703504
2096921,2096921, 164272, 703331
2096921,2096921, 164200, 704039
2096921,2096921, 163984, 704054
2096921,2096921, 164145, 704007
2096921,2096921, 164213, 704124
2096921,2096921, 164471, 704205
2096921,2096921, 164352, 704426
2096921,2096921, 164608, 704459
2096921,2096921, 164330, 704561
2096921,2096921, 164612, 704275
2096921,2096921, 164300, 704341
2096921,2096921, 164441, 704922
2096921,2096921, 164352, 705242
2096921,2096921, 164432, 704944
2096921,2096921, 164654, 704956
2096921,2096921, 164576, 704738
2096921,2096921, 164615, 705270
2096921,2096921, 164791, 704913
2096921,2096921, 164465, 705107
2096921,2096921, 164701, 704898
2096921,2096921, 164739, 705160
2096921,2096921, 164865, 705452
2096921,2096921, 164728, 705423
2096921,2096921, 164966, 705480
2096921,2096921, 164815, 705654
2096921,2096921, 164893, 705355
2096921,2096921, 164801, 705740
2096921,2096921, 164825, 705736
2096921,2096921, 164442, 705767
2096921,2096921, 164830, 705644
2096921,2096921, 164928, 705620
2096921,2096921, 165016, 706075
2096921,2096921, 164777, 706233
2096921,2096921, 164922, 706334
2096921,2096921, 164907, 706127
2096921,2096921, 165023, 706146
2096921,2096921, 165166, 706434
2096921,2096921, 165007, 706500
2096921,2096921, 165087, 706455
2096921,2096921, 164741, 706610
2096921,2096921, 165021, 706789
2096921,2096921, 165386, 706670
2096921,2096921, 164914, 706990
2096921,2096921, 165280, 707355
2096921,2096921, 165154, 706738
2096921,2096921, 165290, 706812
2096921,2096921, 165263, 707044
2096921,2096921, 165009, 707107
2096921,2096921, 164938, 707369
2096921,2096921, 165396, 707483
2096921,2096921, 165461, 707378
2096921,2096921, 165281, 707504
2096921,2096921, 165316, 707497
2096921,2096921, 165430, 707695
2096921,2096921, 165384, 707473
2096921,2096921, 165345, 707457
2096921,2096921, 165273, 707569
2096921,2096921, 165298, 707884
2096921,2096921, 165201, 707978
2096921,2096921, 165395, 708370
2096921,2096921, 165446, 708124
2096921,2096921, 165549, 708270
2096921,2096921, 165473, 708423
2096921,2096921, 165312, 708328
2096921,2096921, 165331, 708418
2096921,2096921, 165335, 707984
2096921,2096921, 165600, 708396
2096921,2096921, 165616, 708488
2096921,2096921, 165434, 708515
2096921,2096921, 165726, 708662
2096921,2096921, 165660, 708670
2096921,2096921, 165550, 708768
2096921,2096921, 165497, 709050
2096921,2096921, 165616, 708978
2096921,2096921, 165651, 708863
2096921,2096921, 165799, 708876
2096921,2096921, 165787, 708746
2096921,2096921, 165567, 708977
2096921,2096921, 165721, 708835
2096921,2096921, 165868, 709224
2096921,2096921, 165894, 709298
2096921,2096921, 166055, 709364
2096921,2096921, 166019, 709322
2096921,2096921, 165991, 709322
2096921,2096921, 165696, 709417
2096921,2096921, 165935, 709442
2096921,2096921, 165954, 709495
2096921,2096921, 165584, 709760
2096921,2096921, 165738, 709612
2096921,2096921, 165533, 709339
2096921,2096921, 165818, 709597
2096921,2096921, 166036, 709708
2096921,2096921, 166075, 709873
2096921,2096921, 165635, 709942
2096921,2096921, 165681, 709831
2096921,2096921, 165840, 709954
2096921,2096921, 165767, 710097
2096921,2096921, 165565, 710367
2096921,2096921, 165815, 710211
2096921,2096921, 165571, 710004
2096921,2096921, 165857, 710136
2096921,2096921, 165853, 710206
2096921,2096921, 166244, 710544
2096921,2096921, 166206, 710428
2096921,2096921, 166225, 710595
2096921,2096921, 166057, 710398
2096921,2096921, 166143, 710689
2096921,2096921, 166012, 710561
2096921,2096921, 166248, 710519
2096921,2096921, 166046, 710548
2096921,2096921, 166299, 710122
2096921,2096921, 166049, 710653
2096921,2096921, 166351, 710383
2096921,2096921, 166309, 710661
2096921,2096921, 166450, 710830
2096921,2096921, 166473, 710782
2096921,2096921, 166746, 710786
2096921,2096921, 166329, 710969
2096921,2096921, 166449, 710863
2096921,2096921, 166191, 711133
2096921,2096921, 166296, 711083
2096921,2096921, 166483, 710949
2096921,2096921, 166261, 711156
2096921,2096921, 166128, 711229
2096921,2096921, 166028, 711015
2096921,2096921, 166325, 710949
2096921,2096921, 166202, 711413
2096921,2096921, 166129, 711431
2096921,2096921, 166382, 711212
2096921,2096921, 166590, 711485
2096921,2096921, 166407, 711593
2096921,2096921, 166369, 711670
2096921,2096921, 166208, 711800
2096921,2096921, 166404, 711646
2096921,2096921, 166376, 711747
2096921,2096921, 166276, 711754
2096921,2096921, 166081, 711631
2096921,2096921, 166118, 711857
2096921,2096921, 166270, 711836
2096921,2096921, 166197, 711581
2096921,2096921, 166606, 711640
2096921,2096921, 166420, 712013
2096921,2096921, 166447, 711926
2096921,2096921, 166449, 711748
2096921,2096921, 166328, 711737
2096921,2096921, 166143, 711628
2096921,2096921, 166279, 711775
2096921,2096921, 166346, 712138
2096921,2096921, 166350, 711740
2096921,2096921, 166469, 712163
2096921,2096921, 166724, 711888
2096921,2096921, 166671, 712340
2096921,2096921, 166490, 712161
2096921,2096921, 166692, 712279
2096921,2096921, 166261, 712167
2096921,2096921, 166394, 712099
2096921,2096921, 166503, 711945
2096921,2096921, 166635, 711873
2096921,2096921, 166191, 712062
2096921,2096921, 166557, 711865
2096921,2096921, 166644, 712298
2096921,2096921, 166583, 712077
2096921,2096921, 166660, 712044
2096921,2096921, 166697, 712288
2096921,2096921, 166696, 712292
2096921,2096921, 166594, 712146
2096921,2096921, 166545, 712437
2096921,2096921, 166680, 712514
2096921,2096921, 166600, 712347
2096921,2096921, 166688, 712249
2096921,2096921, 166869, 712217
2096921,2096921, 166562, 712257
2096921,2096921, 166671, 712530
2096921,2096921, 166681, 712250
2096921,2096921, 166492, 712331
2096921,2096921, 166568, 712342
2096921,2096921, 166542, 712823
2096921,2096921, 166598, 712861
2096921,2096921, 166649, 712719
2096921,2096921, 166775, 712475
2096921,2096921, 166892, 712503
2096921,2096921, 166920, 712641
2096921,2096921, 166941, 712592
2096921,2096921, 166559, 712700
2096921,2096921, 166685, 712869
2096921,2096921, 166738, 712705
2096921,2096921, 166633, 712638
2096921,2096921, 166899, 712702
2096921,2096921, 166551, 712678
2096921,2096921, 166709, 712929
2096921,2096921, 166664, 712649
2096921,2096921, 166738, 712559
2096921,2096921, 166837, 712690
2096921,2096921, 166737, 712748
2096921,2096921, 166624, 712799
2096921,2096921, 166626, 712588
2096921,2096921, 166747, 712764
2096921,2096921, 166719, 712944
2096921,2096921, 166671, 712916
2096921,2096921, 166794, 712923
2096921,2096921, 166728, 712880
2096921,2096921, 166670, 712711
2096921,2096921, 166684, 712943
2096921,2096921, 166656, 712868
2096921,2096921, 166799, 713056
2096921,2096921, 166637, 712607
2096921,2096921, 166710, 712820
2096921,2096921, 166689, 712834
2096921,2096921, 166553, 712799
2096921,2096921, 166551, 713076
2096921,2096921, 166589, 713132
2096921,2096921, 166840, 713046
2096921,2096921, 166537, 713186
2096921,2096921, 166604, 713007
2096921,2096921, 166856, 712886
2096921,2096921, 166769, 712738
2096921,2096921, 166687, 712807
2096921,2096921, 166835, 712777
2096921,2096921, 166737, 712773
2096921,2096921, 166932, 712959
2096921,2096921, 166758, 712805
2096921,2096921, 166768, 712867
2096921,2096921, 166698, 712942
2096921,2096921, 166755, 712656
2096921,2096921, 166381, 712691
2096921,2096921, 167020, 712790
2096921,2096921, 166549, 712782
2096921,2096921, 166248, 712881
2096921,2096921, 166420, 712586
2096921,2096921, 166472, 712419
2096921,2096921, 166959, 713102
2096921,2096921, 166910, 712653
2096921,2096921, 166890, 712656
2096921,2096921, 166918, 712812
2096921,2096921, 167015, 712792
2096921,2096921, 166857, 712979
2096921,2096921, 166962, 712668
2096921,2096921, 166851, 712791
2096921,2096921, 166776, 712758
2096921,2096921, 166924, 712759
2096921,2096921, 166809, 712438
2096921,2096921, 166775, 712513
2096921,2096921, 166758, 712634
2096921,2096921, 166800, 712604
2096921,2096921, 166656, 712242
2096921,2096921, 166519, 712626
2096921,2096921, 166760, 712188
2096921,2096921, 166601, 712604
2096921,2096921, 166549, 712488
2096921,2096921, 166847, 712920
2096921,2096921, 166954, 712757
2096921,2096921, 166964, 712581
2096921,2096921, 166593, 712551
2096921,2096921, 166730, 712794
2096921,2096921, 166933, 712330
2096921,2096921, 166796, 712446
2096921,2096921, 166792, 712586
2096921,2096921, 166530, 712369
2096921,2096921, 166386, 712216
2096921,2096921, 166679, 712403
2096921,2096921, 166411, 712376
2096921,2096921, 166490, 711873
2096921,2096921, 166680, 711902
2096921,2096921, 166291, 711733
2096921,2096921, 166390, 711924
2096921,2096921, 166100, 711861
2096921,2096921, 166049, 711555
2096921,2096921, 166167, 711743
2096921,2096921, 166087, 711327
2096921,2096921, 165950, 711383
2096921,2096921, 166118, 711373
2096921,2096921, 166064, 710526
2096921,2096921, 166446, 710517
2096921,2096921, 166064, 710709
2096921,2096921, 165908, 710454
2096921,2096921, 165529, 710212
2096921,2096921, 165463, 709168
2096921,2096921, 165520, 709005
2096921,2096921, 165560, 708834
2096921,2096921, 165632, 709245
2096921,2096921, 165559, 709197
2096921,2096921, 165324, 708013
2096921,2096921, 165531, 708030
2096921,2096921, 165638, 707862
2096921,2096921, 165529, 707928
2096921,2096921, 164818, 707705
2096921,2096921, 164713, 705461
2096921,2096921, 164557, 705133
2096921,2096921, 164791, 704710
2096921,2096921, 164424, 704982
2096921,2096921, 163975, 705272
2096921,2096921, 163830, 701892
2096921,2096921, 163882, 701359
2096921,2096921, 163653, 701057
2096921,2096921, 163688, 701204
2096921,2096921, 163012, 701081
2096921,2096921, 162987, 699216
2096921,2096921, 162720, 698718
2096921,2096921, 162807, 698502
2096921,2096921, 163094, 698536
2096921,2096921, 162475, 698854
2096921,2096921, 162455, 697161
2096921,2096921, 162435, 696570
2096921,2096921, 162261, 696539
2096921,2096921, 162282, 696623
2096921,2096921, 161960, 696540
2096921,2096921, 161591, 695457
2096921,2096921, 161646, 695318
2096921,2096921, 161857, 694982
2096921,2096921, 161459, 695112
2096921,2096921, 161894, 694739
2096921,2096921, 161456, 694142
2096921,2096921, 161406, 694046
2096921,2096921, 161409, 693886
2096921,2096921, 161665, 693848
2096921,2096921, 161381, 693983
2096921,2096921, 161526, 693437
2096921,2096921, 161491, 692883
2096921,2096921, 161688, 692946
2096921,2096921, 161776, 692882
2096921,2096921, 161565, 692561
2096921,2096921, 161146, 692537
2096921,2096921, 161294, 692569
2096921,2096921, 161066, 692622
2096921,2096921, 161065, 692645
2096921,2096921, 161009, 692407
2096921,2096921, 161155, 692158
2096921,2096921, 161029, 692215
2096921,2096921, 160994, 692210
2096921,2096921, 161265, 692269
2096921,2096921, 161106, 692180
2096921,2096921, 161138, 692402
2096921,2096921, 161226, 692372
2096921,2096921, 161038, 692021
2096921,2096921, 161059, 692427
2096921,2096921, 161122, 692347
2096921,2096921, 161131, 692624
2096921,2096921, 161199, 692403
2096921,2096921, 161030, 692585
2096921,2096921, 160776, 692536
2096921,2096921, 161087, 692330
2096921,2096921, 161037, 692482
2096921,2096921, 161248, 692443
2096921,2096921, 161520, 692678
2096921,2096921, 160872, 692341
2096921,2096921, 161147, 692115
2096921,2096921, 161247, 692588
2096921,2096921, 161364, 692686
2096921,2096921, 161066, 692356
2096921,2096921, 161295, 692385
2096921,2096921, 161442, 692524
2096921,2096921, 161655, 692538
2096921,2096921, 161498, 692823
2096921,2096921, 161592, 692847
2096921,2096921, 161497, 693293
2096921,2096921, 161367, 693294
2096921,2096921, 161395, 693468
2096921,2096921, 161514, 693133
2096921,2096921, 161641, 693441
2096921,2096921, 162078, 693362
2096921,2096921, 161890, 693471
2096921,2096921, 161855, 693940
2096921,2096921, 161699, 694104
2096921,2096921, 161755, 694277
2096921,2096921, 161459, 694097
2096921,2096921, 161851, 693877
2096921,2096921, 161762, 694462
2096921,2096921, 161547, 694893
2096921,2096921, 161631, 694531
2096921,2096921, 161926, 694643
2096921,2096921, 161736, 694891
2096921,2096921, 162110, 695496
2096921,2096921, 162026, 695356
2096921,2096921, 162125, 695337
2096921,2096921, 161765, 695325
2096921,2096921, 161885, 695165
2096921,2096921, 162121, 695436
2096921,2096921, 161794, 695536
2096921,2096921, 161918, 695734
2096921,2096921, 162156, 695520
2096921,2096921, 162107, 695486
2096921,2096921, 162201, 696294
2096921,2096921, 162363, 696155
2096921,2096921, 162448, 696347
2096921,2096921, 162162, 696246
2096921,2096921, 162245, 696028
2096921,2096921, 162522, 696536
2096921,2096921, 162301, 696468
2096921,2096921, 162313, 696629
2096921,2096921, 162561, 696576
2096921,2096921, 162712, 696728
2096921,2096921, 162711, 696984
2096921,2096921, 162906, 697276
2096921,2096921, 162612, 697147
2096921,2096921, 162312, 696936
2096921,2096921, 162522, 696986
2096921,2096921, 162697, 697429
2096921,2096921, 162786, 697429
2096921,2096921, 162635, 697466
2096921,2096921, 162917, 697589
2096921,2096921, 162867, 697809
2096921,2096921, 162850, 698324
2096921,2096921, 162635, 698287
2096921,2096921, 162879, 698308
2096921,2096921, 163134, 698394
2096921,2096921, 163016, 698189
2096921,2096921, 162719, 698838
2096921,2096921, 162783, 698763
2096921,2096921, 162738, 699076
2096921,2096921, 162926, 699005
2096921,2096921, 162821, 699031
2096921,2096921, 162804, 699299
2096921,2096921, 163012, 699514
2096921,2096921, 163220, 699187
2096921,2096921, 162837, 699226
2096921,2096921, 163027, 699141
2096921,2096921, 163115, 699353
2096921,2096921, 162900, 699694
2096921,2096921, 163262, 699658
2096921,2096921, 163158, 699583
2096921,2096921, 163236, 699531
2096921,2096921, 163189, 699920
2096921,2096921, 163273, 699946
2096921,2096921, 162922, 699904
2096921,2096921, 163040, 699873
2096921,2096921, 163413, 699719
2096921,2096921, 163388, 699884
2096921,2096921, 163306, 699901
2096921,2096921, 163080, 699894
2096921,2096921, 163272, 699833
2096921,2096921, 163569, 699746
2096921,2096921, 163492, 700014
2096921,2096921, 163350, 699932
2096921,2096921, 163416, 699787
2096921,2096921, 163278, 700217
2096921,2096921, 163140, 699992
2096921,2096921, 163268, 699945
2096921,2096921, 163210, 700095
2096921,2096921, 163145, 699933
2096921,2096921, 163236, 700051
2096921,2096921, 163472, 699976
2096921,2096921, 163346, 699914
2096921,2096921, 163238, 699869
2096921,2096921, 163395, 700252
2096921,2096921, 163257, 699882
2096921,2096921, 163401, 700104
2096921,2096921, 163107, 699704
2096921,2096921, 163135, 699671
2096921,2096921, 162972, 699601
2096921,2096921, 163105, 699826
2096921,2096921, 163072, 699632
2096921,2096921, 162978, 699174
2096921,2096921, 162635, 699538
2096921,2096921, 163086, 699546
2096921,2096921, 163078, 699320
2096921,2096921, 162867, 699431
2096921,2096921, 162791, 699004
2096921,2096921, 163024, 698923
2096921,2096921, 162965, 698922
2096921,2096921, 163006, 699195
2096921,2096921, 162987, 699297
2096921,2096921, 163104, 698907
2096921,2096921, 163075, 699082
2096921,2096921, 163126, 699061
2096921,2096921, 163037, 698887
2096921,2096921, 163015, 698875
2096921,2096921, 162897, 698876
2096921,2096921, 162931, 698582
2096921,2096921, 162842, 698584
2096921,2096921, 162861, 698755
2096921,2096921, 162994, 698574
2096921,2096921, 162761, 698431
2096921,2096921, 163174, 698051
2096921,2096921, 162842, 698295
2096921,2096921, 162882, 698148
2096921,2096921, 162956, 698175
2096921,2096921, 163053, 698153
2096921,2096921, 162662, 698294
2096921,2096921, 162636, 698263
2096921,2096921, 162671, 698331
2096921,2096921, 162913, 698318
2096921,2096921, 162804, 698446
2096921,2096921, 162840, 698587
2096921,2096921, 162982, 698453
2096921,2096921, 162736, 698342
2096921,2096921, 162542, 698490
2096921,2096921, 162794, 698386
2096921,2096921, 162687, 698058
2096921,2096921, 162722, 698249
2096921,2096921, 162709, 698279
2096921,2096921, 162579, 698254
2096921,2096921, 162676, 698587
2096921,2096921, 163013, 698622
2096921,2096921, 162325, 698780
2096921,2096921, 162780, 698490
2096921,2096921, 162802, 698211
2096921,2096921, 163127, 698831
2096921,2096921, 163408, 698795
2096921,2096921, 162947, 698973
2096921,2096921, 162951, 698837
2096921,2096921, 163108, 698902
2096921,2096921, 163222, 699168
2096921,2096921, 163402, 699095
2096921,2096921, 163360, 699315
2096921,2096921, 163365, 699164
2096921,2096921, 163057, 699270
2096921,2096921, 163200, 699344
2096921,2096921, 163306, 699564
2096921,2096921, 163207, 699633
2096921,2096921, 163319, 699477
2096921,2096921, 163160, 699741
2096921,2096921, 163469, 699693
2096921,2096921, 163792, 699620
2096921,2096921, 163505, 699804
2096921,2096921, 163522, 699789
2096921,2096921, 163460, 699924
2096921,2096921, 163671, 700289
2096921,2096921, 163738, 700178
2096921,2096921, 163156, 700325
2096921,2096921, 163563, 700335
2096921,2096921, 163095, 700190
2096921,2096921, 163382, 700219
2096921,2096921, 163738, 700381
2096921,2096921, 163345, 700383
2096921,2096921, 163382, 700561
2096921,2096921, 163255, 700827
2096921,2096921, 163464, 701118
2096921,2096921, 163567, 700812
2096921,2096921, 163347, 700902
2096921,2096921, 163449, 700799
2096921,2096921, 163482, 700587
2096921,2096921, 163614, 700966
2096921,2096921, 163498, 701105
2096921,2096921, 163944, 701084
2096921,2096921, 163449, 701069
2096921,2096921, 163685, 700966
2096921,2096921, 163623, 701176
2096921,2096921, 163712, 701222
2096921,2096921, 163794, 701183
2096921,2096921, 164050, 701101
2096921,2096921, 163861, 701024
2096921,2096921, 164025, 701588
2096921,2096921, 164136, 701716
2096921,2096921, 163815, 701624
2096921,2096921, 163694, 701713
2096921,2096921, 163870, 701686
2096921,2096921, 163973, 701884
2096921,2096921, 163971, 701761
2096921,2096921, 163744, 701934
2096921,2096921, 164201, 701826
2096921,2096921, 163968, 701872
2096921,2096921, 163787, 701927
2096921,2096921, 164126, 702193
2096921,2096921, 164005, 701986
2096921,2096921, 163979, 702265
2096921,2096921, 164038, 702032
2096921,2096921, 163780, 702091
2096921,2096921, 163924, 702016
2096921,2096921, 163911, 702295
2096921,2096921, 163825, 702202
2096921,2096921, 164040, 702013
2096921,2096921, 164101, 702660
2096921,2096921, 163993, 702628
2096921,2096921, 164343, 702751
2096921,2096921, 163871, 702623
2096921,2096921, 163570, 702413
2096921,2096921, 163760, 703061
2096921,2096921, 164046, 703095
2096921,2096921, 164050, 703121
2096921,2096921, 164279, 702933
2096921,2096921, 164289, 702893
2096921,2096921, 164356, 703303
2096921,2096921, 164125, 703100
2096921,2096921, 164250, 702977
2096921,2096921, 163958, 702994
2096921,2096921, 164190, 702942
2096921,2096921, 164387, 703231
2096921,2096921, 164358, 702861
2096921,2096921, 164238, 703207
2096921,2096921, 164556, 703091
2096921,2096921, 164229, 703167
2096921,2096921, 164295, 703210
2096921,2096921, 164551, 703828
2096921,2096921, 164675, 703561
2096921,2096921, 164883, 703627
2096921,2096921, 164534, 703627
2096921,2096921, 164289, 703591
2096921,2096921, 164167, 703593
2096921,2096921, 164326, 703406
2096921,2096921, 164340, 703620
2096921,2096921, 164304, 703401
2096921,2096921, 164252, 703706
2096921,2096921, 164227, 703847
2096921,2096921, 164422, 703986
2096921,2096921, 164120, 703828
2096921,2096921, 164306, 703765
2096921,2096921, 164535, 703922
2096921,2096921, 164517, 704004
2096921,2096921, 164381, 704022
2096921,2096921, 164337, 704106
2096921,2096921, 164282, 703934
2096921,2096921, 164249, 703995
2096921,2096921, 164448, 704229
2096921,2096921, 164338, 704089
2096921,2096921, 164859, 704099
2096921,2096921, 164702, 703776
2096921,2096921, 164837, 704147
2096921,2096921, 164783, 704153
2096921,2096921, 164886, 704259
2096921,2096921, 164770, 704457
2096921,2096921, 165070, 704372
2096921,2096921, 165073, 704323
2096921,2096921, 164524, 704349
2096921,2096921, 164793, 704498
2096921,2096921, 164718, 704388
2096921,2096921, 164846, 704271
2096921,2096921, 164661, 704364
2096921,2096921, 164750, 704476
2096921,2096921, 164793, 704668
2096921,2096921, 164612, 704640
2096921,2096921, 164928, 704544
2096921,2096921, 164875, 704910
2096921,2096921, 164795, 704767
2096921,2096921, 164458, 705122
2096921,2096921, 164294, 704905
2096921,2096921, 164676, 704803
2096921,2096921, 164411, 704720
2096921,2096921, 164376, 704975
2096921,2096921, 164615, 704703
2096921,2096921, 164777, 704859
2096921,2096921, 164574, 704781
2096921,2096921, 164573, 704813
2096921,2096921, 164868, 704870
2096921,2096921, 164668, 705129
2096921,2096921, 164521, 705394
2096921,2096921, 164463, 705155
2096921,2096921, 164509, 704930
2096921,2096921, 164693, 705369
2096921,2096921, 164630, 705044
2096921,2096921, 164682, 705117
2096921,2096921, 164878, 705078
2096921,2096921, 164670, 705401
2096921,2096921, 164875, 705239
2096921,2096921, 164842, 705196
2096921,2096921, 164951, 705295
2096921,2096921, 164664, 705255
2096921,2096921, 164985, 705480
2096921,2096921, 164854, 705278
2096921,2096921, 165054, 705178
2096921,2096921, 164882, 705150
2096921,2096921, 164819, 705168
2096921,2096921, 164751, 705012
2096921,2096921, 164850, 705113
2096921,2096921, 164914, 705238
2096921,2096921, 164734, 705228
2096921,2096921, 164571, 705040
2096921,2096921, 164651, 705271
2096921,2096921, 164770, 705154
2096921,2096921, 164748, 705044
2096921,2096921, 164842, 705405
2096921,2096921, 164858, 705522
2096921,2096921, 165080, 705440
2096921,2096921, 164775, 705461
2096921,2096921, 164924, 705386
2096921,2096921, 164789, 705571
2096921,2096921, 164923, 705565
2096921,2096921, 164939, 705709
2096921,2096921, 164702, 705930
2096921,2096921, 164878, 705522
2096921,2096921, 164651, 705830
2096921,2096921, 165151, 705500
2096921,2096921, 164821, 705713
2096921,2096921, 165015, 705630
2096921,2096921, 164939, 705624
2096921,2096921, 164812, 705655
2096921,2096921, 164846, 705665
2096921,2096921, 165040, 705675
2096921,2096921, 165048, 705553
2096921,2096921, 164874, 705664
2096921,2096921, 165057, 705835
2096921,2096921, 165132, 705915
2096921,2096921, 165096, 706006
2096921,2096921, 165108, 705779
2096921,2096921, 165104, 705542
2096921,2096921, 165121, 705644
2096921,2096921, 164895, 705822
2096921,2096921, 165294, 705522
2096921,2096921, 164885, 705593
2096921,2096921, 164864, 705674
2096921,2096921, 165223, 706059
2096921,2096921, 165279, 705889
2096921,2096921, 165284, 705938
2096921,2096921, 165425, 706034
2096921,2096921, 165069, 705787
2096921,2096921, 164996, 705864
2096921,2096921, 165167, 705708
2096921,2096921, 165237, 705899
2096921,2096921, 165178, 705829
2096921,2096921, 165001, 705938
2096921,2096921, 165018, 705992
2096921,2096921, 165067, 705963
2096921,2096921, 164978, 706170
2096921,2096921, 165101, 706140
2096921,2096921, 165037, 706010
2096921,2096921, 165000, 706048
2096921,2096921, 165021, 705862
2096921,2096921, 164843, 705935
2096921,2096921, 164761, 706095
2096921,2096921, 164947, 706462
2096921,2096921, 165020, 706115
2096921,2096921, 164920, 706111
2096921,2096921, 165207, 706282
2096921,2096921, 165177, 706228
2096921,2096921, 165167, 706102
2096921,2096921, 165026, 706354
2096921,2096921, 165002, 705988
2096921,2096921, 164799, 705791
2096921,2096921, 164782, 705935
2096921,2096921, 164910, 706248
2096921,2096921, 165155, 705957
2096921,2096921, 164968, 705808
2096921,2096921, 164985, 705816
2096921,2096921, 165130, 706145
2096921,2096921, 164881, 706055
2096921,2096921, 164876, 706087
2096921,2096921, 165152, 706090
2096921,2096921, 165051, 706016
2096921,2096921, 165282, 706204
2096921,2096921, 165139, 705973
2096921,2096921, 165236, 705909
2096921,2096921, 165161, 705855
2096921,2096921, 164865, 706126
2096921,2096921, 165041, 706201
2096921,2096921, 164875, 705833
2096921,2096921, 164910, 705871
2096921,2096921, 164972, 706063
2096921,2096921, 165117, 706119
2096921,2096921, 165077, 706050
2096921,2096921, 165087, 706137
2096921,2096921, 165004, 706004
2096921,2096921, 164928, 706152
2096921,2096921, 165132, 705741
2096921,2096921, 165241, 706137
2096921,2096921, 165057, 705826
2096921,2096921, 164646, 705962
2096921,2096921, 164952, 706046
2096921,2096921, 165169, 706064
2096921,2096921, 165172, 706122
2096921,2096921, 165041, 706109
2096921,2096921, 165086, 705987
2096921,2096921, 165032, 705899
2096921,2096921, 165093, 705781
2096921,2096921, 164986, 706153
2096921,2096921, 164865, 706366
2096921,2096921, 165069, 706016
2096921,2096921, 165369, 705819
2096921,2096921, 164841, 706261
2096921,2096921, 164909, 705991
2096921,2096921, 164880, 706107
2096921,2096921, 165245, 706204
2096921,2096921, 164907, 706367
2096921,2096921, 164904, 705645
2096921,2096921, 164797, 705365
2096921,2096921, 164965, 705488
2096921,2096921, 164711, 705596
2096921,2096921, 164889, 705375
2096921,2096921, 164519, 704689
2096921,2096921, 164812, 704645
2096921,2096921, 164782, 704766
2096921,2096921, 164902, 704893
2096921,2096921, 164819, 705263
2096921,2096921, 164558, 704557
2096921,2096921, 164626, 704167
2096921,2096921, 164702, 703919
2096921,2096921, 164947, 703753
2096921,2096921, 164429, 703923
2096921,2096921, 164096, 703296
2096921,2096921, 164291, 703016
2096921,2096921, 164055, 702872
2096921,2096921, 164401, 702792
2096921,2096921, 163906, 702778
2096921,2096921, 164138, 702200
2096921,2096921, 164287, 702003
2096921,2096921, 163797, 701874
2096921,2096921, 164081, 701720
2096921,2096921, 163470, 701662
2096921,2096921, 163080, 699556
2096921,2096921, 163162, 699041
2096921,2096921, 162936, 698668
2096921,2096921, 163161, 698715
2096921,2096921, 162150, 698743
2096921,2096921, 162288, 696403
2096921,2096921, 162257, 695427
2096921,2096921, 162264, 695643
2096921,2096921, 161983, 695609
2096921,2096921, 161660, 695733
2096921,2096921, 161633, 693489
2096921,2096921, 161285, 692881
2096921,2096921, 161544, 692752
2096921,2096921, 161299, 692700
2096921,2096921, 161122, 692646
2096921,2096921, 160951, 691418
2096921,2096921, 160766, 690692
2096921,2096921, 160756, 690626
2096921,2096921, 161125, 690521
2096921,2096921, 160602, 690580
2096921,2096921, 160402, 689303
2096921,2096921, 160395, 689141
2096921,2096921, 160684, 689364
2096921,2096921, 160652, 689334
2096921,2096921, 160163, 689547
2096921,2096921, 160603, 688612
2096921,2096921, 160381, 688145
2096921,2096921, 160132, 688285
2096921,2096921, 160221, 688173
2096921,2096921, 159923, 687962
2096921,2096921, 159978, 687475
2096921,2096921, 159958, 687681
2096921,2096921, 159854, 687178
2096921,2096921, 160111, 687709
2096921,2096921, 159922, 687453
2096921,2096921, 160004, 687233
2096921,2096921, 159963, 686827
2096921,2096921, 159930, 687232
2096921,2096921, 159868, 687099
2096921,2096921, 159791, 687164
2096921,2096921, 159729, 686819
2096921,2096921, 159715, 686821
2096921,2096921, 159969, 686673
2096921,2096921, 160061, 686831
2096921,2096921, 159852, 687150
2096921,2096921, 160094, 687017
2096921,2096921, 159749, 687059
2096921,2096921, 159605, 687165
2096921,2096921, 159842, 686737
2096921,2096921, 159792, 687114
2096921,2096921, 159681, 687111
2096921,2096921, 159849, 687233
2096921,2096921, 159987, 687173
2096921,2096921, 160082, 687156
2096921,2096921, 160090, 687048
2096921,2096921, 159912, 687323
2096921,2096921, 159996, 687578
2096921,2096921, 159700, 687635
2096921,2096921, 159882, 687872
2096921,2096921, 160043, 687593
2096921,2096921, 159991, 687315
2096921,2096921, 159923, 687621
2096921,2096921, 159997, 687652
2096921,2096921, 159923, 687793
2096921,2096921, 160174, 687547
2096921,2096921, 159962, 688215
2096921,2096921, 160025, 687828
2096921,2096921, 160041, 687963
2096921,2096921, 160106, 688171
2096921,2096921, 160133, 688291
2096921,2096921, 160258, 688654
2096921,2096921, 160479, 688801
2096921,2096921, 160358, 688523
2096921,2096921, 160202, 688648
2096921,2096921, 160397, 688386
2096921,2096921, 160569, 688969
2096921,2096921, 160788, 689320
2096921,2096921, 160732, 689215
2096921,2096921, 160747, 689573
2096921,2096921, 160547, 689357
2096921,2096921, 160623, 689858
2096921,2096921, 160605, 690007
2096921,2096921, 160780, 690113
2096921,2096921, 160447, 689760
2096921,2096921, 160738, 690065
2096921,2096921, 161233, 690476
2096921,2096921, 160738, 690321
2096921,2096921, 160821, 690777
2096921,2096921, 160800, 690527
2096921,2096921, 160738, 690914
2096921,2096921, 160977, 691279
2096921,2096921, 160947, 691341
2096921,2096921, 161168, 691540
2096921,2096921, 161158, 691400
2096921,2096921, 160619, 691292
2096921,2096921, 161047, 691683
2096921,2096921, 161338, 691607
2096921,2096921, 161214, 691658
2096921,2096921, 160989, 691406
2096921,2096921, 161144, 691688
2096921,2096921, 161275, 691898
2096921,2096921, 161531, 692322
2096921,2096921, 161368, 691962
2096921,2096921, 161198, 692281
2096921,2096921, 161516, 692387
2096921,2096921, 161602, 692738
2096921,2096921, 161669, 692817
2096921,2096921, 161608, 693025
2096921,2096921, 161356, 693013
2096921,2096921, 161567, 692898
2096921,2096921, 161658, 693256
2096921,2096921, 161733, 693540
2096921,2096921, 161581, 693545
2096921,2096921, 161806, 693341
2096921,2096921, 161927, 693482
2096921,2096921, 161783, 694266
2096921,2096921, 161722, 693993
2096921,2096921, 161595, 694284
2096921,2096921, 161857, 694431
2096921,2096921, 161789, 694170
2096921,2096921, 161808, 694904
2096921,2096921, 161796, 695123
2096921,2096921, 162120, 695015
2096921,2096921, 162230, 694719
2096921,2096921, 162264, 694751
2096921,2096921, 162172, 695095
2096921,2096921, 162334, 695287
2096921,2096921, 161899, 695501
2096921,2096921, 161940, 695131
2096921,2096921, 162039, 695149
2096921,2096921, 162439, 695561
2096921,2096921, 162342, 695615
2096921,2096921, 162183, 695698
2096921,2096921, 161883, 695545
2096921,2096921, 162480, 695864
2096921,2096921, 162525, 696035
2096921,2096921, 162313, 696124
2096921,2096921, 162177, 696187
2096921,2096921, 162369, 696141
2096921,2096921, 162415, 696191
2096921,2096921, 162628, 696611
2096921,2096921, 162603, 696226
2096921,2096921, 162534, 696364
2096921,2096921, 162441, 696580
2096921,2096921, 162541, 696672
2096921,2096921, 162351, 696463
2096921,2096921, 162623, 696596
2096921,2096921, 162324, 696380
2096921,2096921, 162562, 696557
2096921,2096921, 162661, 696276
2096921,2096921, 162555, 696481
2096921,2096921, 162480, 696598
2096921,2096921, 162287, 696779
2096921,2096921, 162670, 696833
2096921,2096921, 162610, 696515
2096921,2096921, 162702, 696651
2096921,2096921, 162618, 696885
2096921,2096921, 162490, 696676
2096921,2096921, 162634, 696491
2096921,2096921, 162693, 696667
2096921,2096921, 162391, 696475
2096921,2096921, 162571, 696569
2096921,2096921, 162628, 696506
2096921,2096921, 162494, 696781
2096921,2096921, 162457, 696481
2096921,2096921, 162272, 696483
2096921,2096921, 162323, 696428
2096921,2096921, 162473, 696523
2096921,2096921, 162176, 696257
2096921,2096921, 162431, 696394
2096921,2096921, 162157, 696363
2096921,2096921, 162174, 696357
2096921,2096921, 162378, 696100
2096921,2096921, 162488, 696184
2096921,2096921, 162287, 696396
2096921,2096921, 162372, 696269
2096921,2096921, 162344, 696270
2096921,2096921, 162580, 696117
2096921,2096921, 162155, 696126
2096921,2096921, 162437, 695816
2096921,2096921, 162428, 695646
2096921,2096921, 162272, 695743
2096921,2096921, 162301, 695800
2096921,2096921, 162361, 696247
2096921,2096921, 162452, 696101
2096921,2096921, 162305, 696206
2096921,2096921, 162574, 695987
2096921,2096921, 162291, 696013
2096921,2096921, 162361, 695933
2096921,2096921, 162329, 695797
2096921,2096921, 162432, 696032
2096921,2096921, 162067, 695994
2096921,2096921, 162260, 695907
2096921,2096921, 162202, 695822
2096921,2096921, 162353, 695956
2096921,2096921, 162155, 695951
2096921,2096921, 162422, 695951
2096921,2096921, 162479, 696075
2096921,2096921, 162028, 696095
2096921,2096921, 162232, 696182
2096921,2096921, 162450, 696453
2096921,2096921, 162458, 696412
2096921,2096921, 162250, 696293
2096921,2096921, 162718, 696401
2096921,2096921, 162438, 696361
2096921,2096921, 162576, 696520
2096921,2096921, 162674, 696483
2096921,2096921, 162523, 696690
2096921,2096921, 162193, 696502
2096921,2096921, 162547, 696755
2096921,2096921, 162652, 696793
2096921,2096921, 162571, 697091
2096921,2096921, 162517, 697028
2096921,2096921, 162802, 697066
2096921,2096921, 162821, 697108
2096921,2096921, 162837, 697486
2096921,2096921, 162990, 697508
2096921,2096921, 162858, 697502
2096921,2096921, 162983, 697581
2096921,2096921, 162812, 697607
2096921,2096921, 163226, 697874
2096921,2096921, 163056, 697863
2096921,2096921, 162883, 697811
2096921,2096921, 162851, 697792
2096921,2096921, 163028, 697902
2096921,2096921, 163064, 698656
2096921,2096921, 163187, 698334
2096921,2096921, 162747, 698258
2096921,2096921, 162850, 698259
2096921,2096921, 162773, 698343
2096921,2096921, 163197, 698499
2096921,2096921, 163020, 699047
2096921,2096921, 163227, 699065
2096921,2096921, 163165, 699260
2096921,2096921, 162953, 699347
2096921,2096921, 163382, 699558
2096921,2096921, 163283, 699362
2096921,2096921, 163170, 699402
2096921,2096921, 163132, 699230
2096921,2096921, 163111, 699567
2096921,2096921, 163376, 699707
2096921,2096921, 163415, 699778
2096921,2096921, 163328, 699619
2096921,2096921, 163281, 699867
2096921,2096921, 163245, 699926
2096921,2096921, 163413, 700385
2096921,2096921, 163609, 700176
2096921,2096921, 163408, 700288
2096921,2096921, 163487, 700154
2096921,2096921, 163500, 700162
2096921,2096921, 163584, 700528
2096921,2096921, 163546, 700277
2096921,2096921, 163587, 700562
2096921,2096921, 163468, 700623
2096921,2096921, 163846, 700698
2096921,2096921, 163982, 701225
2096921,2096921, 164011, 701031
2096921,2096921, 163976, 701026
2096921,2096921, 163632, 700660
2096921,2096921, 163488, 700741
2096921,2096921, 163788, 701237
2096921,2096921, 163568, 701407
2096921,2096921, 163673, 701212
2096921,2096921, 163868, 701519
2096921,2096921, 163832, 701742
2096921,2096921, 163759, 701865
2096921,2096921, 164055, 701993
2096921,2096921, 163815, 702095
2096921,2096921, 163870, 701928
2096921,2096921, 163808, 701850
2096921,2096921, 163804, 702009
2096921,2096921, 163929, 702104
2096921,2096921, 163903, 702548
2096921,2096921, 164146, 702464
2096921,2096921, 163964, 702380
2096921,2096921, 164021, 703005
2096921,2096921, 164301, 702911
2096921,2096921, 164280, 702739
2096921,2096921, 163990, 702586
2096921,2096921, 164221, 702593
2096921,2096921, 164083, 702793
2096921,2096921, 164009, 703096
2096921,2096921, 164227, 703015
2096921,2096921, 164299, 702962
2096921,2096921, 164496, 703047
2096921,2096921, 164246, 703156
2096921,2096921, 164542, 703391
2096921,2096921, 164342, 703325
2096921,2096921, 164378, 703157
2096921,2096921, 164546, 703471
2096921,2096921, 164646, 703562
2096921,2096921, 164158, 703345
2096921,2096921, 164324, 703714
2096921,2096921, 164384, 703347
2096921,2096921, 164665, 703634
2096921,2096921, 164688, 703821
2096921,2096921, 164682, 703836
2096921,2096921, 164459, 703743
2096921,2096921, 164066, 703815
2096921,2096921, 164292, 704020
2096921,2096921, 164504, 704428
2096921,2096921, 164699, 704505
2096921,2096921, 164931, 704411
2096921,2096921, 164656, 704452
2096921,2096921, 164938, 704480
2096921,2096921, 164894, 704567
2096921,2096921, 164470, 704916
2096921,2096921, 164595, 704834
2096921,2096921, 164495, 704868
2096921,2096921, 164614, 704632
2096921,2096921, 164657, 705002
2096921,2096921, 165011, 704656
2096921,2096921, 164671, 705078
2096921,2096921, 164751, 705007
2096921,2096921, 165008, 705230
2096921,2096921, 164930, 705368
2096921,2096921, 165106, 705349
2096921,2096921, 164879, 705301
2096921,2096921, 164714, 705266
2096921,2096921, 164792, 705234
2096921,2096921, 164996, 705642
2096921,2096921, 164809, 705439
2096921,2096921, 164974, 705373
2096921,2096921, 164946, 705510
2096921,2096921, 164936, 705667
2096921,2096921, 165087, 705968
2096921,2096921, 164851, 705924
2096921,2096921, 165013, 705757
2096921,2096921, 165023, 706085
2096921,2096921, 165175, 705937
2096921,2096921, 165094, 705864
2096921,2096921, 165120, 706070
2096921,2096921, 164986, 706128
2096921,2096921, 165252, 706058
2096921,2096921, 165123, 706251
2096921,2096921, 164980, 706467
2096921,2096921, 165255, 706450
2096921,2096921, 165312, 706565
2096921,2096921, 165076, 706304
2096921,2096921, 165166, 706336
2096921,2096921, 164992, 706643
2096921,2096921, 164986, 706734
2096921,2096921, 165267, 706774
2096921,2096921, 164866, 706656
2096921,2096921, 165236, 706618
2096921,2096921, 165177, 706951
2096921,2096921, 165135, 706763
2096921,2096921, 165537, 706643
2096921,2096921, 165365, 706977
2096921,2096921, 165405, 706866
2096921,2096921, 165272, 707148
2096921,2096921, 165289, 707132
2096921,2096921, 165455, 707257
2096921,2096921, 165281, 707117
2096921,2096921, 165457, 707144
2096921,2096921, 165705, 707347
2096921,2096921, 165397, 707370
2096921,2096921, 165561, 707534
2096921,2096921, 165467, 707265
2096921,2096921, 165413, 707374
2096921,2096921, 165298, 707723
2096921,2096921, 165366, 707636
2096921,2096921, 165282, 707032
2096921,2096921, 165360, 707687
2096921,2096921, 165302, 707520
2096921,2096921, 165570, 707937
2096921,2096921, 165503, 708047
2096921,2096921, 165332, 708039
2096921,2096921, 165166, 707944
2096921,2096921, 165225, 707735
2096921,2096921, 165153, 707885
2096921,2096921, 165626, 708112
2096921,2096921, 165585, 708019
2096921,2096921, 165671, 708073
2096921,2096921, 165649, 708218
2096921,2096921, 165501, 708273
2096921,2096921, 165391, 708133
2096921,2096921, 165611, 707959
2096921,2096921, 165381, 708002
2096921,2096921, 165533, 708296
2096921,2096921, 165580, 708291
2096921,2096921, 165636, 708198
2096921,2096921, 165912, 708391
2096921,2096921, 165516, 708549
2096921,2096921, 165561, 708475
2096921,2096921, 165731, 708573
2096921,2096921, 165773, 708538
2096921,2096921, 165957, 708765
2096921,2096921, 165703, 708418
2096921,2096921, 165588, 708664
2096921,2096921, 165651, 708971
2096921,2096921, 165864, 708916
2096921,2096921, 165845, 708683
2096921,2096921, 165986, 708610
2096921,2096921, 165735, 708489
2096921,2096921, 165875, 708649
2096921,2096921, 165572, 708835
2096921,2096921, 165869, 708732
2096921,2096921, 165700, 709086
2096921,2096921, 166122, 709121
2096921,2096921, 165896, 709188
2096921,2096921, 165816, 709433
2096921,2096921, 165775, 709426
2096921,2096921, 165747, 709089
2096921,2096921, 165992, 709028
2096921,2096921, 166142, 709179
2096921,2096921, 165857, 709327
2096921,2096921, 165908, 709610
2096921,2096921, 165739, 709414
2096921,2096921, 166208, 709185
2096921,2096921, 165735, 709381
2096921,2096921, 165803, 709677
2096921,2096921, 165711, 709514
2096921,2096921, 165937, 709617
2096921,2096921, 165769, 709680
2096921,2096921, 166161, 709738
2096921,2096921, 166112, 709513
2096921,2096921, 166112, 709882
2096921,2096921, 165989, 709739
2096921,2096921, 165892, 709498
2096921,2096921, 166146, 709762
2096921,2096921, 165990, 710009
2096921,2096921, 166243, 709854
2096921,2096921, 165990, 709885
2096921,2096921, 165871, 709749
2096921,2096921, 165823, 710029
2096921,2096921, 165968, 710043
2096921,2096921, 165999, 710069
2096921,2096921, 165862, 710021
2096921,2096921, 165835, 709993
2096921,2096921, 166126, 710063
2096921,2096921, 165942, 709808
2096921,2096921, 166075, 710093
2096921,2096921, 166009, 710363
2096921,2096921, 166196, 710275
2096921,2096921, 166361, 710421
2096921,2096921, 166033, 710292
2096921,2096921, 166246, 710388
2096921,2096921, 165915, 710118
2096921,2096921, 166020, 710266
2096921,2096921, 165947, 710307
2096921,2096921, 166189, 710400
2096921,2096921, 166239, 710305
2096921,2096921, 166191, 710402
2096921,2096921, 166376, 710488
2096921,2096921, 166471, 710487
2096921,2096921, 166043, 710559
2096921,2096921, 165861, 710416
2096921,2096921, 165881, 710223
2096921,2096921, 166113, 710496
2096921,2096921, 165989, 710484
2096921,2096921, 166019, 710723
2096921,2096921, 166002, 710352
2096921,2096921, 166173, 710570
2096921,2096921, 166039, 710660
2096921,2096921, 166431, 710574
2096921,2096921, 166450, 710833
2096921,2096921, 166247, 710528
2096921,2096921, 166118, 710659
2096921,2096921, 166160, 710606
2096921,2096921, 166357, 710680
2096921,2096921, 165891, 710328
2096921,2096921, 165943, 710655
2096921,2096921, 166141, 710793
2096921,2096921, 166173, 710857
2096921,2096921, 166251, 710860
2096921,2096921, 166276, 710980
2096921,2096921, 166222, 711014
2096921,2096921, 166508, 710872
2096921,2096921, 166287, 710687
2096921,2096921, 166384, 710905
2096921,2096921, 166067, 710664
2096921,2096921, 166173, 710584
2096921,2096921, 166321, 710530
2096921,2096921, 166180, 710752
2096921,2096921, 165952, 710328
2096921,2096921, 165941, 710359
2096921,2096921, 166019, 710322
2096921,2096921, 166151, 710318
2096921,2096921, 165833, 710587
2096921,2096921, 166083, 710102
2096921,2096921, 166244, 709625
2096921,2096921, 166159, 710215
2096921,2096921, 166116, 709961
2096921,2096921, 165690, 710044
2096921,2096921, 165988, 709435
2096921,2096921, 166079, 709446
2096921,2096921, 165772, 709156
2096921,2096921, 165942, 709272
2096921,2096921, 165463, 708875
2096921,2096921, 165553, 708118
2096921,2096921, 165243, 708157
2096921,2096921, 165500, 708082
2096921,2096921, 165323, 707874
2096921,2096921, 165390, 708268
2096921,2096921, 165127, 707245
2096921,2096921, 165241, 706941
2096921,2096921, 165050, 706835
2096921,2096921, 164918, 706957
2096921,2096921, 164457, 706976
2096921,2096921, 164687, 704878
2096921,2096921, 164450, 704467
2096921,2096921, 164429, 704392
2096921,2096921, 164582, 704283
2096921,2096921, 163933, 704211
2096921,2096921, 163460, 701102
2096921,2096921, 163298, 700736
2096921,2096921, 163310, 700235
2096921,2096921, 163334, 700635
2096921,2096921, 163078, 700509
2096921,2096921, 162772, 698551
2096921,2096921, 162524, 698290
2096921,2096921, 162811, 697995
2096921,2096921, 162851, 697627
2096921,2096921, 162363, 697747
2096921,2096921, 162125, 696440
2096921,2096921, 162266, 695947
2096921,2096921, 162118, 695971
2096921,2096921, 162123, 696007
2096921,2096921, 161783, 695956
2096921,2096921, 161795, 695149
2096921,2096921, 161790, 694816
2096921,2096921, 161795, 695119
2096921,2096921, 161992, 694829
2096921,2096921, 161702, 694876
2096921,2096921, 161739, 694098
2096921,2096921, 161544, 693928
2096921,2096921, 161479, 693945
2096921,2096921, 161447, 693694
2096921,2096921, 161386, 693834
2096921,2096921, 160912, 693266
2096921,2096921, 161125, 692917
2096921,2096921, 161172, 693158
2096921,2096921, 161124, 693307
2096921,2096921, 161439, 693178
2096921,2096921, 161250, 692720
2096921,2096921, 161450, 692891
2096921,2096921, 161202, 692671
2096921,2096921, 161186, 692832
2096921,2096921, 161121, 692502
2096921,2096921, 160986, 692527
2096921,2096921, 161403, 692695
2096921,2096921, 161329, 692589
2096921,2096921, 161046, 692621
2096921,2096921, 161094, 692745
2096921,2096921, 161400, 692553
2096921,2096921, 161471, 692587
2096921,2096921, 161419, 692610
2096921,2096921, 161568, 692712
2096921,2096921, 161237, 692660
2096921,2096921, 161482, 692914
2096921,2096921, 161172, 692866
2096921,2096921, 161356, 692908
2096921,2096921, 161345, 692999
2096921,2096921, 161296, 693267
2096921,2096921, 161283, 693103
2096921,2096921, 161192, 693189
2096921,2096921, 161333, 693290
2096921,2096921, 161209, 693201
2096921,2096921, 160905, 693227
2096921,2096921, 161258, 693778
2096921,2096921, 161360, 693624
2096921,2096921, 161441, 693622
2096921,2096921, 161170, 693527
2096921,2096921, 161442, 693392
2096921,2096921, 161699, 694215
2096921,2096921, 161758, 694439
2096921,2096921, 161469, 694475
2096921,2096921, 161605, 694121
2096921,2096921, 161791, 694214
2096921,2096921, 162065, 694753
2096921,2096921, 162116, 694957
2096921,2096921, 161869, 694790
2096921,2096921, 161951, 694919
2096921,2096921, 162307, 694962
2096921,2096921, 162031, 695518
2096921,2096921, 162012, 695352
2096921,2096921, 161975, 695516
2096921,2096921, 162096, 695358
2096921,2096921, 161820, 694947
2096921,2096921, 162074, 695820
2096921,2096921, 162313, 695980
2096921,2096921, 161971, 696049
2096921,2096921, 162192, 696070
2096921,2096921, 162479, 696462
2096921,2096921, 162635, 696754
2096921,2096921, 162436, 696902
2096921,2096921, 162402, 696957
2096921,2096921, 162148, 696880
2096921,2096921, 162396, 696927
2096921,2096921, 162087, 697081
2096921,2096921, 162350, 697090
2096921,2096921, 162624, 697414
2096921,2096921, 162474, 697417
2096921,2096921, 162522, 697727
2096921,2096921, 162364, 697992
2096921,2096921, 162634, 698043
2096921,2096921, 162862, 698312
2096921,2096921, 162798, 697863
2096921,2096921, 162994, 698187
2096921,2096921, 162879, 698558
2096921,2096921, 162955, 698552
2096921,2096921, 162953, 698795
2096921,2096921, 162814, 698603
2096921,2096921, 162934, 698666
2096921,2096921, 163243, 699349
2096921,2096921, 163092, 699516
2096921,2096921, 163152, 699494
2096921,2096921, 163114, 699349
2096921,2096921, 162901, 699604
2096921,2096921, 163102, 699854
2096921,2096921, 163314, 699692
2096921,2096921, 163070, 700024
2096921,2096921, 163387, 700001
2096921,2096921, 163663, 700332
2096921,2096921, 163672, 700712
2096921,2096921, 163570, 700936
2096921,2096921, 163056, 700981
2096921,2096921, 163437, 700694
2096921,2096921, 163480, 700791
2096921,2096921, 163428, 701383
2096921,2096921, 163613, 701581
2096921,2096921, 163615, 701349
2096921,2096921, 163603, 701519
2096921,2096921, 163425, 701432
2096921,2096921, 163478, 701972
2096921,2096921, 163439, 702031
2096921,2096921, 163693, 701829
2096921,2096921, 163528, 702157
2096921,2096921, 163822, 702344
2096921,2096921, 163691, 702741
2096921,2096921, 163902, 702601
2096921,2096921, 163984, 702514
2096921,2096921, 163754, 702738
2096921,2096921, 163777, 702696
2096921,2096921, 164337, 702827
2096921,2096921, 163977, 703043
2096921,2096921, 164005, 702882
2096921,2096921, 164211, 702755
2096921,2096921, 164061, 702858
2096921,2096921, 164004, 703028
2096921,2096921, 163779, 703317
2096921,2096921, 164228, 703096
2096921,2096921, 164533, 703196
2096921,2096921, 164709, 703154
2096921,2096921, 164249, 703651
2096921,2096921, 164370, 703320
2096921,2096921, 164371, 703419
2096921,2096921, 164262, 703053
2096921,2096921, 164280, 703306
2096921,2096921, 164235, 703309
2096921,2096921, 164358, 703540
2096921,2096921, 164346, 703279
2096921,2096921, 164148, 703295
2096921,2096921, 164246, 703284
2096921,2096921, 164062, 703287
2096921,2096921, 164309, 703409
2096921,2096921, 164170, 703487
2096921,2096921, 163854, 703566
2096921,2096921, 164042, 703478
2096921,2096921, 164021, 703413
2096921,2096921, 163978, 703186
2096921,2096921, 163907, 703308
2096921,2096921, 164061, 703261
2096921,2096921, 164183, 703090
2096921,2096921, 164144, 703202
2096921,2096921, 164264, 703091
2096921,2096921, 164188, 703604
2096921,2096921, 163977, 703604
2096921,2096921, 163843, 703387
2096921,2096921, 164217, 703228
2096921,2096921, 163923, 702975
2096921,2096921, 164040, 703151
2096921,2096921, 163927, 702857
2096921,2096921, 163876, 703189
2096921,2096921, 164018, 702971
2096921,2096921, 164068, 702832
2096921,2096921, 164113, 702737
2096921,2096921, 164228, 703164
2096921,2096921, 164223, 702907
2096921,2096921, 164236, 702369
2096921,2096921, 164194, 702578
2096921,2096921, 164093, 702520
2096921,2096921, 164107, 702688
2096921,2096921, 164288, 702544
2096921,2096921, 163849, 702616
2096921,2096921, 164078, 702766
2096921,2096921, 163967, 702800
2096921,2096921, 164461, 702361
2096921,2096921, 163938, 702665
2096921,2096921, 164198, 702311
2096921,2096921, 164078, 702538
2096921,2096921, 163632, 702481
2096921,2096921, 163741, 702597
2096921,2096921, 164176, 702630
2096921,2096921, 164223, 702892
2096921,2096921, 163980, 702599
2096921,2096921, 163750, 702884
2096921,2096921, 163725, 702858
2096921,2096921, 163787, 702734
2096921,2096921, 163919, 702716
2096921,2096921, 163619, 702848
2096921,2096921, 164079, 702923
2096921,2096921, 163765, 703005
2096921,2096921, 164028, 703022
2096921,2096921, 163820, 703192
2096921,2096921, 164182, 703278
2096921,2096921, 164035, 703183
2096921,2096921, 164118, 703053
2096921,2096921, 163942, 703022
2096921,2096921, 164062, 703333
2096921,2096921, 163931, 703499
2096921,2096921, 164011, 703497
2096921,2096921, 164029, 703616
2096921,2096921, 164354, 703822
2096921,2096921, 164196, 704252
2096921,2096921, 164292, 704325
2096921,2096921, 164237, 704112
2096921,2096921, 164112, 704180
2096921,2096921, 164195, 703908
2096921,2096921, 164234, 704610
2096921,2096921, 164113, 704544
2096921,2096921, 164355, 704595
2096921,2096921, 164384, 704444
2096921,2096921, 164668, 704286
2096921,2096921, 164558, 704521
2096921,2096921, 164721, 704777
2096921,2096921, 164794, 704891
2096921,2096921, 164649, 704900
2096921,2096921, 164789, 704743
2096921,2096921, 164705, 705067
2096921,2096921, 164655, 705162
2096921,2096921, 165051, 705180
2096921,2096921, 164759, 704974
2096921,2096921, 164667, 705074
2096921,2096921, 164690, 705378
2096921,2096921, 164768, 705812
2096921,2096921, 164593, 705614
2096921,2096921, 164881, 705496
2096921,2096921, 164870, 705215
2096921,2096921, 164858, 705639
2096921,2096921, 164916, 705500
2096921,2096921, 164954, 705792
2096921,2096921, 164835, 705969
2096921,2096921, 164840, 705634
2096921,2096921, 165154, 706000
2096921,2096921, 165189, 706479
2096921,2096921, 164953, 706189
2096921,2096921, 164770, 706144
2096921,2096921, 164901, 706141
2096921,2096921, 164952, 706666
2096921,2096921, 165024, 706597
2096921,2096921, 164967, 706753
2096921,2096921, 164848, 706511
2096921,2096921, 164775, 706445
2096921,2096921, 165003, 706887
2096921,2096921, 165148, 706962
2096921,2096921, 165022, 707083
2096921,2096921, 165259, 706967
2096921,2096921, 165152, 706972
2096921,2096921, 165159, 707391
2096921,2096921, 165186, 707366
2096921,2096921, 165293, 707460
2096921,2096921, 165083, 707560
2096921,2096921, 165441, 707652
2096921,2096921, 165648, 707725
2096921,2096921, 165583, 707933
2096921,2096921, 165131, 707678
2096921,2096921, 165448, 707600
2096921,2096921, 165391, 707661
2096921,2096921, 165571, 707743
2096921,2096921, 165746, 707810
2096921,2096921, 165420, 708138
2096921,2096921, 165616, 708030
2096921,2096921, 165580, 708113
2096921,2096921, 165552, 707948
2096921,2096921, 165562, 708427
2096921,2096921, 165800, 708134
2096921,2096921, 165484, 708099
2096921,2096921, 165649, 708032
2096921,2096921, 165771, 708622
2096921,2096921, 165716, 708668
2096921,2096921, 165474, 708667
2096921,2096921, 165720, 708574
2096921,2096921, 165667, 708592
2096921,2096921, 165643, 708812
2096921,2096921, 165753, 708878
2096921,2096921, 165678, 708835
2096921,2096921, 165523, 708452
2096921,2096921, 165853, 708543
2096921,2096921, 165611, 708884
2096921,2096921, 165936, 709047
2096921,2096921, 165451, 709001
2096921,2096921, 165811, 709128
2096921,2096921, 165867, 709236
2096921,2096921, 165856, 709705
2096921,2096921, 165764, 709464
2096921,2096921, 165618, 709607
2096921,2096921, 165510, 709663
2096921,2096921, 166154, 709273
2096921,2096921, 165953, 709854
2096921,2096921, 165780, 709636
2096921,2096921, 165609, 709668
2096921,2096921, 165738, 709922
2096921,2096921, 165760, 710017
2096921,2096921, 165655, 710045
2096921,2096921, 165927, 710048
2096921,2096921, 165998, 710181
2096921,2096921, 166027, 709964
2096921,2096921, 165884, 710068
2096921,2096921, 165900, 710121
2096921,2096921, 166323, 710076
2096921,2096921, 165946, 710099
2096921,2096921, 166209, 710262
2096921,2096921, 166020, 710109
2096921,2096921, 166164, 710119
2096921,2096921, 166015, 710252
2096921,2096921, 166091, 710370
2096921,2096921, 166113, 710451
2096921,2096921, 166354, 710248
2096921,2096921, 166389, 710542
2096921,2096921, 166282, 710552
2096921,2096921, 166084, 710627
2096921,2096921, 166200, 710742
2096921,2096921, 166194, 710650
2096921,2096921, 166498, 710552
2096921,2096921, 166430, 711013
2096921,2096921, 166247, 710838
2096921,2096921, 166405, 710962
2096921,2096921, 166447, 710901
2096921,2096921, 166159, 710960
2096921,2096921, 166274, 711009
2096921,2096921, 166335, 711037
2096921,2096921, 166463, 711203
2096921,2096921, 166427, 711227
2096921,2096921, 166198, 711335
2096921,2096921, 166281, 711066
2096921,2096921, 166344, 711046
2096921,2096921, 166382, 711068
2096921,2096921, 166458, 711076
2096921,2096921, 166415, 711288
2096921,2096921, 166197, 711159
2096921,2096921, 166449, 711278
2096921,2096921, 166302, 711768
2096921,2096921, 166453, 711726
2096921,2096921, 166319, 711473
2096921,2096921, 166457, 711536
2096921,2096921, 165951, 711519
2096921,2096921, 166389, 711608
2096921,2096921, 166362, 711342
2096921,2096921, 166533, 711826
2096921,2096921, 166359, 711879
2096921,2096921, 166188, 711747
2096921,2096921, 166260, 711639
2096921,2096921, 166274, 711401
2096921,2096921, 166157, 711510
2096921,2096921, 166465, 711618
2096921,2096921, 166382, 712084
2096921,2096921, 166309, 712038
2096921,2096921, 166336, 712015
2096921,2096921, 166520, 712277
2096921,2096921, 166579, 712171
2096921,2096921, 166510, 711844
2096921,2096921, 166405, 712135
2096921,2096921, 166158, 711854
2096921,2096921, 166407, 712254
2096921,2096921, 166438, 712172
2096921,2096921, 166520, 712156
2096921,2096921, 166361, 712028
2096921,2096921, 166549, 712216
2096921,2096921, 166467, 712206
2096921,2096921, 166470, 712157
2096921,2096921, 166473, 711746
2096921,2096921, 166607, 712205
2096921,2096921, 166759, 711994
2096921,2096921, 166743, 712610
2096921,2096921, 166672, 712361
2096921,2096921, 166911, 712215
2096921,2096921, 166654, 712096
2096921,2096921, 166513, 712083
2096921,2096921, 166724, 712222
2096921,2096921, 166451, 712448
2096921,2096921, 166569, 712326
2096921,2096921, 166613, 712439
2096921,2096921, 166700, 712354
2096921,2096921, 166576, 712536
2096921,2096921, 166884, 712675
2096921,2096921, 166535, 712288
2096921,2096921, 166759, 712353
2096921,2096921, 166497, 712365
2096921,2096921, 166872, 712279
2096921,2096921, 166985, 712226
2096921,2096921, 166880, 712404
2096921,2096921, 166662, 712850
2096921,2096921, 166629, 712866
2096921,2096921, 166676, 712519
2096921,2096921, 166697, 712909
2096921,2096921, 166725, 712792
2096921,2096921, 166709, 713081
2096921,2096921, 166945, 712975
2096921,2096921, 166876, 712927
2096921,2096921, 166556, 712880
2096921,2096921, 166763, 712966
2096921,2096921, 166771, 713123
2096921,2096921, 166576, 712954
2096921,2096921, 166630, 712811
2096921,2096921, 166701, 712719
2096921,2096921, 166718, 712998
2096921,2096921, 166676, 712526
2096921,2096921, 166453, 712515
2096921,2096921, 166858, 712846
2096921,2096921, 166600, 713064
2096921,2096921, 166660, 712855
2096921,2096921, 166914, 712918
2096921,2096921, 166666, 713087
2096921,2096921, 166483, 712714
2096921,2096921, 166367, 712833
2096921,2096921, 166266, 712940
2096921,2096921, 166476, 712841
2096921,2096921, 166644, 713167
2096921,2096921, 166589, 712967
2096921,2096921, 166780, 713124
2096921,2096921, 166775, 713067
2096921,2096921, 166979, 712919
2096921,2096921, 166896, 713076
2096921,2096921, 166856, 712785
2096921,2096921, 166954, 712997
2096921,2096921, 166782, 713181
2096921,2096921, 166946, 713009
2096921,2096921, 166590, 712944
2096921,2096921, 166735, 713341
2096921,2096921, 166898, 713351
2096921,2096921, 166841, 713150
2096921,2096921, 166553, 713216
2096921,2096921, 166768, 712976
2096921,2096921, 166974, 712860
2096921,2096921, 166679, 712845
2096921,2096921, 166746, 712841
2096921,2096921, 166662, 712893
2096921,2096921, 166458, 713002
2096921,2096921, 166882, 712914
2096921,2096921, 166948, 712838
2096921,2096921, 166808, 712828
2096921,2096921, 166872, 713150
2096921,2096921, 166681, 712835
2096921,2096921, 166763, 712944
2096921,2096921, 166790, 712558
2096921,2096921, 166684, 712692
2096921,2096921, 166675, 713051
2096921,2096921, 166880, 712837
2096921,2096921, 166745, 712618
2096921,2096921, 166378, 712809
2096921,2096921, 166657, 712740
2096921,2096921, 166781, 712805
2096921,2096921, 166939, 712970
2096921,2096921, 166812, 712739
2096921,2096921, 166715, 712637
2096921,2096921, 166805, 712667
2096921,2096921, 166852, 712618
2096921,2096921, 166762, 712710
2096921,2096921, 166618, 712807
2096921,2096921, 166714, 712671
2096921,2096921, 166814, 713036
2096921,2096921, 166848, 712709
2096921,2096921, 166738, 712651
2096921,2096921, 166809, 712545
2096921,2096921, 166702, 712574
2096921,2096921, 166522, 712806
2096921,2096921, 166663, 712824
2096921,2096921, 166571, 712848
2096921,2096921, 166617, 712797
2096921,2096921, 166571, 712779
2096921,2096921, 166798, 712427
2096921,2096921, 166795, 712579
2096921,2096921, 166781, 712590
2096921,2096921, 166622, 711871
2096921,2096921, 166724, 712041
2096921,2096921, 166360, 711788
2096921,2096921, 166562, 711569
2096921,2096921, 166831, 711661
2096921,2096921, 166367, 711399
2096921,2096921, 166418, 711594
2096921,2096921, 166272, 711169
2096921,2096921, 166424, 711052
2096921,2096921, 165998, 711287
2096921,2096921, 166155, 710675
2096921,2096921, 166023, 710386
2096921,2096921, 165886, 710233
2096921,2096921, 165861, 710190
2096921,2096921, 165782, 710142
2096921,2096921, 165507, 709314
2096921,2096921, 165452, 709208
2096921,2096921, 165483, 709156
2096921,2096921, 165830, 709271
2096921,2096921, 165654, 709035
2096921,2096921, 165421, 708291
2096921,2096921, 165388, 708405
2096921,2096921, 165427, 708035
2096921,2096921, 165327, 707823
2096921,2096921, 164615, 707929
2096921,2096921, 164495, 705393
2096921,2096921, 164594, 704888
2096921,2096921, 164734, 704814
2096921,2096921, 164619, 704563
2096921,2096921, 163892, 705008
2096921,2096921, 163963, 702076
2096921,2096921, 163721, 701428
2096921,2096921, 163659, 701423
2096921,2096921, 163396, 701145
2096921,2096921, 162904, 701356
2096921,2096921, 162685, 699333
2096921,2096921, 162755, 698283
2096921,2096921, 162961, 698313
2096921,2096921, 163144, 698738
2096921,2096921, 162664, 698345
2096921,2096921, 162250, 696829
2096921,2096921, 162344, 696530
2096921,2096921, 162501, 696703
2096921,2096921, 162140, 696266
2096921,2096921, 161987, 696304
2096921,2096921, 161969, 695209
2096921,2096921, 162044, 694615
2096921,2096921, 162018, 694637
2096921,2096921, 162051, 694866
2096921,2096921, 161524, 694898
2096921,2096921, 161729, 694069
2096921,2096921, 161787, 693945
2096921,2096921, 161491, 693724
2096921,2096921, 161515, 694100
2096921,2096921, 161506, 693759
2096921,2096921, 161401, 693195
2096921,2096921, 161622, 693071
2096921,2096921, 161382, 692832
2096921,2096921, 161279, 693013
2096921,2096921, 161429, 692994
2096921,2096921, 161094, 692676
2096921,2096921, 161265, 692683
2096921,2096921, 161217, 692385
2096921,2096921, 161425, 692109
2096921,2096921, 160897, 692078
2096921,2096921, 160816, 692268
2096921,2096921, 161008, 692377
2096921,2096921, 161207, 692441
2096921,2096921, 161063, 692304
2096921,2096921, 161189, 692061
2096921,2096921, 161311, 692037
2096921,2096921, 161075, 692252
2096921,2096921, 161336, 692264
2096921,2096921, 160890, 692282
2096921,2096921, 161436, 692279
2096921,2096921, 161087, 692087
2096921,2096921, 161371, 692555
2096921,2096921, 161469, 692333
2096921,2096921, 161187, 692072
2096921,2096921, 161230, 692034
2096921,2096921, 161270, 692240
2096921,2096921, 161204, 692268
2096921,2096921, 161144, 692467
2096921,2096921, 161110, 692529
2096921,2096921, 161100, 692608
2096921,2096921, 161148, 692707
2096921,2096921, 161467, 692613
2096921,2096921, 161488, 692337
2096921,2096921, 161479, 692597
2096921,2096921, 161469, 692493
2096921,2096921, 161575, 693117
2096921,2096921, 161385, 693395
2096921,2096921, 161391, 693042
2096921,2096921, 161339, 692877
2096921,2096921, 161552, 692968
2096921,2096921, 161590, 693363
2096921,2096921, 161446, 693483
2096921,2096921, 161581, 693559
2096921,2096921, 161738, 693669
2096921,2096921, 161520, 693757
2096921,2096921, 161821, 694290
2096921,2096921, 161656, 694427
2096921,2096921, 161449, 694184
2096921,2096921, 161623, 693902
2096921,2096921, 161584, 694109
2096921,2096921, 161470, 694602
2096921,2096921, 161867, 694909
2096921,2096921, 161749, 694945
2096921,2096921, 161892, 694617
2096921,2096921, 161968, 694673
2096921,2096921, 162061, 695252
2096921,2096921, 162035, 695552
2096921,2096921, 162158, 695440
2096921,2096921, 161898, 694912
2096921,2096921, 161903, 694879
2096921,2096921, 162018, 695231
2096921,2096921, 162225, 695581
2096921,2096921, 161918, 695704
2096921,2096921, 162187, 695521
2096921,2096921, 162238, 696196
2096921,2096921, 162400, 695883
2096921,2096921, 162337, 696203
2096921,2096921, 162157, 696323
2096921,2096921, 162146, 696015
2096921,2096921, 162245, 696232
2096921,2096921, 162344, 696535
2096921,2096921, 162289, 696521
2096921,2096921, 162336, 696556
2096921,2096921, 162412, 696511
2096921,2096921, 162546, 696516
2096921,2096921, 162446, 697084
2096921,2096921, 162499, 697478
2096921,2096921, 162410, 697391
2096921,2096921, 162865, 697014
2096921,2096921, 162795, 697237
2096921,2096921, 162757, 697593
2096921,2096921, 162690, 697791
2096921,2096921, 162836, 697976
2096921,2096921, 162760, 697946
2096921,2096921, 163064, 697978
2096921,2096921, 162646, 698063
2096921,2096921, 163034, 698365
2096921,2096921, 162659, 698188
2096921,2096921, 162846, 698174
2096921,2096921, 162967, 698055
2096921,2096921, 163056, 698547
2096921,2096921, 162859, 699053
2096921,2096921, 163207, 699222
2096921,2096921, 162677, 699376
2096921,2096921, 163071, 699289
2096921,2096921, 163108, 699677
2096921,2096921, 163294, 699481
2096921,2096921, 163101, 699478
2096921,2096921, 163107, 699545
2096921,2096921, 163070, 699526
2096921,2096921, 162963, 699481
2096921,2096921, 163071, 699831
2096921,2096921, 163441, 700029
2096921,2096921, 163519, 699837
2096921,2096921, 163222, 699805
2096921,2096921, 163288, 699932
2096921,2096921, 163369, 700228
2096921,2096921, 163392, 700167
2096921,2096921, 163280, 699897
2096921,2096921, 163148, 700119
2096921,2096921, 163456, 700194
2096921,2096921, 163430, 700195
2096921,2096921, 163686, 700394
2096921,2096921, 163171, 700480
2096921,2096921, 163523, 700219
2096921,2096921, 163448, 700109
2096921,2096921, 163616, 700237
2096921,2096921, 163446, 700444
2096921,2096921, 163157, 700326
2096921,2096921, 163209, 699915
2096921,2096921, 163394, 700048
2096921,2096921, 163375, 699892
2096921,2096921, 163401, 700058
2096921,2096921, 163254, 699782
2096921,2096921, 163581, 700200
2096921,2096921, 163625, 700225
2096921,2096921, 163471, 699972
2096921,2096921, 163386, 699985
2096921,2096921, 163232, 700023
2096921,2096921, 163461, 699926
2096921,2096921, 163176, 699730
2096921,2096921, 163366, 699706
2096921,2096921, 163531, 699893
2096921,2096921, 163530, 699910
2096921,2096921, 163083, 700127
2096921,2096921, 163095, 699816
2096921,2096921, 163346, 699670
2096921,2096921, 163145, 699751
2096921,2096921, 163163, 699640
2096921,2096921, 162755, 699600
2096921,2096921, 163194, 699549
2096921,2096921, 163078, 699556
2096921,2096921, 163111, 699670
2096921,2096921, 163121, 699447
2096921,2096921, 163131, 699720
2096921,2096921, 163194, 699153
2096921,2096921, 163123, 699215
2096921,2096921, 163035, 699279
2096921,2096921, 163130, 699012
2096921,2096921, 162966, 699010
2096921,2096921, 163111, 698733
2096921,2096921, 162940, 698916
2096921,2096921, 163091, 698747
2096921,2096921, 163181, 699012
2096921,2096921, 162968, 698646
2096921,2096921, 162967, 698459
2096921,2096921, 163208, 698329
2096921,2096921, 163093, 698374
2096921,2096921, 163215, 698755
2096921,2096921, 162906, 698770
2096921,2096921, 162875, 698685
2096921,2096921, 162728, 698340
2096921,2096921, 163061, 698586
2096921,2096921, 162984, 698487
2096921,2096921, 163022, 698625
2096921,2096921, 162934, 698675
2096921,2096921, 163107, 698881
2096921,2096921, 162759, 698728
2096921,2096921, 162961, 698837
2096921,2096921, 162923, 698693
2096921,2096921, 162824, 698952
2096921,2096921, 162695, 698697
2096921,2096921, 163085, 698644
2096921,2096921, 162978, 698498
2096921,2096921, 162895, 698871
2096921,2096921, 162967, 698811
2096921,2096921, 162690, 698770
2096921,2096921, 162959, 698680
2096921,2096921, 162848, 698655
2096921,2096921, 163015, 698766
2096921,2096921, 162852, 699018
2096921,2096921, 162910, 699095
2096921,2096921, 163035, 698842
2096921,2096921, 163128, 699127
2096921,2096921, 163228, 698745
2096921,2096921, 163247, 699341
2096921,2096921, 163173, 699348
2096921,2096921, 163224, 699347
2096921,2096921, 163271, 699340
2096921,2096921, 163256, 698972
2096921,2096921, 163360, 699188
2096921,2096921, 163442, 699802
2096921,2096921, 163530, 699677
2096921,2096921, 163295, 699686
2096921,2096921, 163130, 699867
2096921,2096921, 163152, 700027
2096921,2096921, 163340, 700084
2096921,2096921, 163386, 699991
2096921,2096921, 163092, 700048
2096921,2096921, 163170, 700010
2096921,2096921, 163504, 700398
2096921,2096921, 163726, 700356
2096921,2096921, 163524, 700265
2096921,2096921, 163531, 700373
2096921,2096921, 163153, 700528
2096921,2096921, 163347, 700562
2096921,2096921, 163575, 700543
2096921,2096921, 163587, 700377
2096921,2096921, 163580, 700759
2096921,2096921, 163617, 700826
2096921,2096921, 163681, 700711
2096921,2096921, 163630, 700473
2096921,2096921, 163461, 700891
2096921,2096921, 164074, 700796
2096921,2096921, 163852, 700861
2096921,2096921, 163804, 701129
2096921,2096921, 163663, 701518
2096921,2096921, 163657, 701447
2096921,2096921, 163784, 701118
2096921,2096921, 163739, 701210
2096921,2096921, 163834, 701316
2096921,2096921, 163673, 701164
2096921,2096921, 163584, 701159
2096921,2096921, 163572, 701479
2096921,2096921, 163605, 701511
2096921,2096921, 164159, 701768
2096921,2096921, 163772, 701676
2096921,2096921, 163860, 701818
2096921,2096921, 163810, 701771
2096921,2096921, 163893, 701701
2096921,2096921, 163619, 702074
2096921,2096921, 163793, 701922
2096921,2096921, 163886, 702415
2096921,2096921, 163607, 702095
2096921,2096921, 163886, 701764
2096921,2096921, 164090, 702204
2096921,2096921, 163945, 702275
2096921,2096921, 164257, 702380
2096921,2096921, 163975, 702015
2096921,2096921, 164158, 702245
2096921,2096921, 163859, 702484
2096921,2096921, 163945, 702722
2096921,2096921, 164047, 702604
2096921,2096921, 163990, 702647
2096921,2096921, 164303, 702297
2096921,2096921, 163956, 702958
2096921,2096921, 164282, 702975
2096921,2096921, 164353, 702772
2096921,2096921, 164010, 702947
2096921,2096921, 164136, 702635
2096921,2096921, 164084, 703162
2096921,2096921, 164129, 702898
2096921,2096921, 164005, 702655
2096921,2096921, 164228, 702847
2096921,2096921, 164354, 703045
2096921,2096921, 164365, 703256
2096921,2096921, 164325, 703208
2096921,2096921, 164280, 703331
2096921,2096921, 164361, 703640
2096921,2096921, 164555, 703168
2096921,2096921, 164249, 703516
2096921,2096921, 164300, 703433
2096921,2096921, 164324, 703474
2096921,2096921, 164616, 703636
2096921,2096921, 164540, 703599
2096921,2096921, 164455, 703819
2096921,2096921, 164347, 703543
2096921,2096921, 164586, 703655
2096921,2096921, 164294, 703889
2096921,2096921, 164520, 703745
2096921,2096921, 164467, 703777
2096921,2096921, 164122, 703832
2096921,2096921, 164496, 703650
2096921,2096921, 164588, 703752
2096921,2096921, 164696, 704038
2096921,2096921, 164580, 704022
2096921,2096921, 164459, 703833
2096921,2096921, 164432, 703973
2096921,2096921, 164332, 704042
2096921,2096921, 164517, 704029
2096921,2096921, 164375, 704207
2096921,2096921, 164615, 704285
2096921,2096921, 164545, 704139
2096921,2096921, 164304, 704120
2096921,2096921, 164541, 703986
2096921,2096921, 164412, 704156
2096921,2096921, 164328, 704303
2096921,2096921, 164400, 704193
2096921,2096921, 164485, 704609
2096921,2096921, 164735, 704272
2096921,2096921, 164521, 704571
2096921,2096921, 164516, 704463
2096921,2096921, 164643, 704404
2096921,2096921, 164558, 704642
2096921,2096921, 164708, 704790
2096921,2096921, 164981, 704849
2096921,2096921, 164685, 704504
2096921,2096921, 164610, 704757
2096921,2096921, 164588, 704435
2096921,2096921, 164823, 704705
2096921,2096921, 164632, 704404
2096921,2096921, 164682, 704766
2096921,2096921, 164680, 705077
2096921,2096921, 164981, 704814
2096921,2096921, 164840, 704613
2096921,2096921, 164816, 705111
2096921,2096921, 164967, 704762
2096921,2096921, 164876, 704568
2096921,2096921, 164665, 704555
2096921,2096921, 164818, 704523
2096921,2096921, 164985, 704943
2096921,2096921, 164772, 705132
2096921,2096921, 164665, 705066
2096921,2096921, 164909, 704925
2096921,2096921, 164870, 705016
2096921,2096921, 165055, 704940
