2096921,2096921,165913,709362
2096921,2096921,165655,709324
2096921,2096921,166084,709047
2096921,2096921,165906,708811
2096921,2096921,165708,709081
2096921,2096921,165769,709044
2096921,2096921,165845,709329
2096921,2096921,165905,709339
2096921,2096921,166081,709384
2096921,2096921,165833,709343
2096921,2096921,166030,709162
2096921,2096921,165903,708718
2096921,2096921,166194,708791
2096921,2096921,166075,709006
2096921,2096921,165925,709004
2096921,2096921,165746,709172
2096921,2096921,165745,709141
2096921,2096921,166035,708946
2096921,2096921,165733,709147
2096921,2096921,165613,708757
2096921,2096921,165847,709134
2096921,2096921,166123,708848
2096921,2096921,165991,708822
2096921,2096921,165969,708743
2096921,2096921,165818,708906
2096921,2096921,165691,708690
2096921,2096921,165940,709025
2096921,2096921,165737,708787
2096921,2096921,166064,708974
2096921,2096921,165770,708830
2096921,2096921,166074,708858
2096921,2096921,165721,708968
2096921,2096921,165421,708642
2096921,2096921,165551,708637
2096921,2096921,165804,708499
2096921,2096921,165410,708338
2096921,2096921,165672,708609
2096921,2096921,165818,708585
2096921,2096921,165777,708692
2096921,2096921,165925,708681
2096921,2096921,165867,708369
2096921,2096921,165975,708157
2096921,2096921,165663,707980
2096921,2096921,165688,708052
2096921,2096921,165663,708012
2096921,2096921,165527,707380
2096921,2096921,164913,707435
2096921,2096921,165188,707545
2096921,2096921,165509,707426
2096921,2096921,165450,707655
2096921,2096921,165477,706955
2096921,2096921,165167,706253
2096921,2096921,165256,706446
2096921,2096921,165081,706348
2096921,2096921,165037,706467
2096921,2096921,165040,705387
2096921,2096921,164666,705216
2096921,2096921,164974,705241
2096921,2096921,165050,705217
2096921,2096921,165003,705363
2096921,2096921,164712,704057
2096921,2096921,164717,703919
2096921,2096921,164770,703941
2096921,2096921,164609,703822
2096921,2096921,164758,704004
2096921,2096921,164026,701628
2096921,2096921,163656,701048
2096921,2096921,163787,700929
2096921,2096921,163672,701023
2096921,2096921,163757,700698
2096921,2096921,162936,697997
2096921,2096921,162964,697379
2096921,2096921,162618,697410
2096921,2096921,162833,697519
2096921,2096921,162815,697284
2096921,2096921,162032,695233
2096921,2096921,161780,694815
2096921,2096921,162009,694707
2096921,2096921,161920,694800
2096921,2096921,162244,694764
2096921,2096921,161705,693240
2096921,2096921,161644,692699
2096921,2096921,161268,692519
2096921,2096921,161421,692316
2096921,2096921,161387,692573
2096921,2096921,160921,691638
2096921,2096921,160874,690930
2096921,2096921,160639,690745
2096921,2096921,160904,691011
2096921,2096921,160887,691054
2096921,2096921,160439,690082
2096921,2096921,160455,689704
2096921,2096921,160736,689844
2096921,2096921,160428,689756
2096921,2096921,160804,689615
2096921,2096921,160184,689174
2096921,2096921,160257,689073
2096921,2096921,160724,689222
2096921,2096921,160648,689123
2096921,2096921,160762,689273
2096921,2096921,160426,688787
2096921,2096921,160418,688559
2096921,2096921,160204,688719
2096921,2096921,160233,688492
2096921,2096921,160247,688338
2096921,2096921,159700,688391
2096921,2096921,160153,688245
2096921,2096921,160299,688629
2096921,2096921,160279,688393
2096921,2096921,160149,688474
2096921,2096921,160293,688125
2096921,2096921,160573,688244
2096921,2096921,160293,688276
2096921,2096921,159958,688119
2096921,2096921,160012,688259
2096921,2096921,159862,688377
2096921,2096921,160105,688198
2096921,2096921,160141,688636
2096921,2096921,160462,688476
2096921,2096921,160423,688681
2096921,2096921,160365,688521
2096921,2096921,160427,688584
2096921,2096921,160381,688662
2096921,2096921,160046,688520
2096921,2096921,160224,688868
2096921,2096921,160093,688843
2096921,2096921,160115,688790
2096921,2096921,160087,688872
2096921,2096921,160257,688538
2096921,2096921,160333,688620
2096921,2096921,160519,689480
2096921,2096921,160305,689148
2096921,2096921,160462,689251
2096921,2096921,160419,689222
2096921,2096921,160582,689214
2096921,2096921,160290,689685
2096921,2096921,160665,689413
2096921,2096921,160841,689262
2096921,2096921,160641,689485
2096921,2096921,160692,689467
2096921,2096921,160673,690295
2096921,2096921,160645,690469
2096921,2096921,160429,690317
2096921,2096921,160436,690067
2096921,2096921,160858,690060
2096921,2096921,160935,690858
2096921,2096921,160808,690794
2096921,2096921,160919,690684
2096921,2096921,161093,691101
2096921,2096921,160807,690892
2096921,2096921,160985,691339
2096921,2096921,161314,691367
2096921,2096921,161156,691336
2096921,2096921,160970,691424
2096921,2096921,161173,691355
2096921,2096921,161122,692031
2096921,2096921,161116,692059
2096921,2096921,161234,691969
2096921,2096921,161303,691806
2096921,2096921,161528,691858
2096921,2096921,161421,692333
2096921,2096921,161255,692396
2096921,2096921,161388,692407
2096921,2096921,160976,692385
2096921,2096921,161259,692225
2096921,2096921,161414,692918
2096921,2096921,161347,692935
2096921,2096921,161553,693104
2096921,2096921,161442,693269
2096921,2096921,161361,693232
2096921,2096921,161471,693652
2096921,2096921,161460,693596
2096921,2096921,161535,693649
2096921,2096921,161383,693396
2096921,2096921,161505,693449
2096921,2096921,161746,694108
2096921,2096921,161616,694094
2096921,2096921,161872,694041
2096921,2096921,161742,694161
2096921,2096921,161844,694139
2096921,2096921,161873,694445
2096921,2096921,161993,694400
2096921,2096921,161962,694637
2096921,2096921,161918,694539
2096921,2096921,161967,694608
2096921,2096921,161883,695096
2096921,2096921,161986,695171
2096921,2096921,162052,695412
2096921,2096921,162196,695786
2096921,2096921,162362,695305
2096921,2096921,162488,695704
2096921,2096921,162020,695577
2096921,2096921,162311,695604
2096921,2096921,161950,695611
2096921,2096921,162198,695396
2096921,2096921,162257,696051
2096921,2096921,162132,695946
2096921,2096921,162313,695948
2096921,2096921,162347,696156
2096921,2096921,162411,696054
2096921,2096921,162593,696512
2096921,2096921,162527,696402
2096921,2096921,162424,696321
2096921,2096921,162464,696476
2096921,2096921,162232,696749
2096921,2096921,162152,696632
2096921,2096921,162288,696777
2096921,2096921,162219,696616
2096921,2096921,162390,696556
2096921,2096921,162404,696544
2096921,2096921,162364,696923
2096921,2096921,162765,696864
2096921,2096921,162425,696661
2096921,2096921,162660,696812
2096921,2096921,162333,696732
2096921,2096921,162490,696614
2096921,2096921,162444,696595
2096921,2096921,162347,696699
2096921,2096921,162436,696469
2096921,2096921,162987,696634
2096921,2096921,162592,696419
2096921,2096921,162778,696693
2096921,2096921,162238,696738
2096921,2096921,162226,696453
2096921,2096921,162268,696847
2096921,2096921,162591,696485
2096921,2096921,162313,696591
2096921,2096921,162537,696767
2096921,2096921,162465,696578
2096921,2096921,162447,696484
2096921,2096921,162543,695943
2096921,2096921,162264,696369
2096921,2096921,162204,696275
2096921,2096921,162509,696346
2096921,2096921,162327,696189
2096921,2096921,162507,695827
2096921,2096921,162180,695942
2096921,2096921,162095,696159
2096921,2096921,162410,695877
2096921,2096921,162437,695917
2096921,2096921,162357,695796
2096921,2096921,162458,695724
2096921,2096921,162284,695759
2096921,2096921,162159,695759
2096921,2096921,162545,696124
2096921,2096921,162185,695979
2096921,2096921,162398,695529
2096921,2096921,162364,695931
2096921,2096921,162062,695803
2096921,2096921,162228,695707
2096921,2096921,162487,695732
2096921,2096921,162366,695612
2096921,2096921,162139,695748
2096921,2096921,162011,695506
2096921,2096921,162033,695402
2096921,2096921,162271,695696
2096921,2096921,162163,695572
2096921,2096921,162315,695744
2096921,2096921,162312,695592
2096921,2096921,162336,695683
2096921,2096921,162283,695736
2096921,2096921,162670,695653
2096921,2096921,162194,695519
2096921,2096921,162383,695759
2096921,2096921,162165,695481
2096921,2096921,162032,695522
2096921,2096921,162344,695838
2096921,2096921,162275,695806
2096921,2096921,162449,695780
2096921,2096921,162220,695552
2096921,2096921,162466,695866
2096921,2096921,162836,695771
2096921,2096921,162508,695855
2096921,2096921,162361,695784
2096921,2096921,162139,695587
2096921,2096921,162369,696201
2096921,2096921,162148,696227
2096921,2096921,162574,696642
2096921,2096921,162404,696347
2096921,2096921,162629,696386
2096921,2096921,162607,696702
2096921,2096921,162537,696647
2096921,2096921,162723,696858
2096921,2096921,162584,696692
2096921,2096921,162601,696776
2096921,2096921,162645,697230
2096921,2096921,162512,697556
2096921,2096921,162644,697301
2096921,2096921,162715,697521
2096921,2096921,162827,697602
2096921,2096921,162747,697550
2096921,2096921,162851,697806
2096921,2096921,162862,697817
2096921,2096921,163123,697860
2096921,2096921,162871,697653
2096921,2096921,163003,698013
2096921,2096921,162699,698295
2096921,2096921,162890,698262
2096921,2096921,162849,697917
2096921,2096921,162728,697939
2096921,2096921,162976,698360
2096921,2096921,163033,698521
2096921,2096921,163036,698212
2096921,2096921,163022,698275
2096921,2096921,163108,698568
2096921,2096921,162953,698570
2096921,2096921,163055,698612
2096921,2096921,162869,699024
2096921,2096921,163157,698726
2096921,2096921,163367,698820
2096921,2096921,163289,699088
2096921,2096921,163352,698917
2096921,2096921,163129,699150
2096921,2096921,162858,699029
2096921,2096921,162927,699335
2096921,2096921,163259,699380
2096921,2096921,163265,699507
2096921,2096921,163465,699302
2096921,2096921,163463,699376
2096921,2096921,163467,699336
2096921,2096921,163829,699477
2096921,2096921,163495,699879
2096921,2096921,163332,699880
2096921,2096921,163086,699836
2096921,2096921,163281,699661
2096921,2096921,163431,700040
2096921,2096921,163567,700152
2096921,2096921,163545,700245
2096921,2096921,163626,700571
2096921,2096921,163397,700356
2096921,2096921,163660,700555
2096921,2096921,163489,700443
2096921,2096921,163402,700575
2096921,2096921,163504,700519
2096921,2096921,163550,700288
2096921,2096921,163265,700425
2096921,2096921,163537,700737
2096921,2096921,163342,700384
2096921,2096921,163581,700614
2096921,2096921,163639,700724
2096921,2096921,163630,701213
2096921,2096921,163836,701345
2096921,2096921,163767,701158
2096921,2096921,163519,700931
2096921,2096921,163493,701152
2096921,2096921,163643,701200
2096921,2096921,163500,701447
2096921,2096921,163663,701476
2096921,2096921,163503,701559
2096921,2096921,164049,701146
2096921,2096921,163987,701624
2096921,2096921,164006,701462
2096921,2096921,163866,701729
2096921,2096921,164084,701808
2096921,2096921,163980,701850
2096921,2096921,163707,701858
2096921,2096921,164114,702192
2096921,2096921,163873,701895
2096921,2096921,164139,701773
2096921,2096921,163974,701657
2096921,2096921,163896,702064
2096921,2096921,164042,702167
2096921,2096921,163976,702312
2096921,2096921,164158,702566
2096921,2096921,163866,702563
2096921,2096921,163916,702385
2096921,2096921,164160,702488
2096921,2096921,164156,702330
2096921,2096921,164128,702613
2096921,2096921,164058,702323
2096921,2096921,164104,702748
2096921,2096921,164294,703049
2096921,2096921,164633,703174
2096921,2096921,164352,702791
2096921,2096921,163946,703061
2096921,2096921,164271,703030
2096921,2096921,164268,702966
2096921,2096921,164113,702852
2096921,2096921,164229,703221
2096921,2096921,164224,703371
2096921,2096921,164368,703396
2096921,2096921,164295,702982
2096921,2096921,164394,703303
2096921,2096921,164306,703096
2096921,2096921,164279,703745
2096921,2096921,164229,703396
2096921,2096921,164497,703517
2096921,2096921,164645,703504
2096921,2096921,164267,703582
2096921,2096921,164429,703505
2096921,2096921,164407,703799
2096921,2096921,164615,703883
2096921,2096921,164573,703613
2096921,2096921,164630,703413
2096921,2096921,164598,703354
2096921,2096921,164543,703492
2096921,2096921,164643,703671
2096921,2096921,164453,704058
2096921,2096921,164453,703914
2096921,2096921,164403,704005
2096921,2096921,164547,703730
2096921,2096921,164308,704018
2096921,2096921,164231,703727
2096921,2096921,164326,703999
2096921,2096921,164371,703842
2096921,2096921,164521,703947
2096921,2096921,164664,704119
2096921,2096921,164956,704081
2096921,2096921,164547,704141
2096921,2096921,164724,704004
2096921,2096921,164400,704205
2096921,2096921,164776,704395
2096921,2096921,164507,704280
2096921,2096921,164279,704233
2096921,2096921,164608,704085
2096921,2096921,164586,704238
2096921,2096921,164587,704325
2096921,2096921,165004,704305
2096921,2096921,164963,704589
2096921,2096921,164971,704718
2096921,2096921,164563,704742
2096921,2096921,164828,704671
2096921,2096921,164726,704712
2096921,2096921,164424,704503
2096921,2096921,164387,704586
2096921,2096921,164541,704909
2096921,2096921,164577,704554
2096921,2096921,164951,704686
2096921,2096921,164610,704510
2096921,2096921,164640,704681
2096921,2096921,164504,704796
2096921,2096921,164666,705103
2096921,2096921,164898,704792
2096921,2096921,164825,705006
2096921,2096921,164964,704584
2096921,2096921,164974,704834
2096921,2096921,164974,704758
2096921,2096921,164910,704994
2096921,2096921,164622,705013
2096921,2096921,164615,704741
2096921,2096921,164757,704687
2096921,2096921,165168,705245
2096921,2096921,164605,705125
2096921,2096921,164685,705299
2096921,2096921,164919,705085
2096921,2096921,164997,705200
2096921,2096921,165138,705246
2096921,2096921,164917,705387
2096921,2096921,165081,705107
2096921,2096921,165208,705081
2096921,2096921,164975,705236
2096921,2096921,164765,705505
2096921,2096921,164667,705207
2096921,2096921,164641,705201
2096921,2096921,164574,705473
2096921,2096921,165197,705547
2096921,2096921,164935,705781
2096921,2096921,164918,705970
2096921,2096921,165220,706163
2096921,2096921,165322,705805
2096921,2096921,165132,705691
2096921,2096921,165218,705631
2096921,2096921,164842,705496
2096921,2096921,164667,705972
2096921,2096921,164768,705469
2096921,2096921,164802,705989
2096921,2096921,164896,705866
2096921,2096921,164950,705851
2096921,2096921,165053,705665
2096921,2096921,165026,705831
2096921,2096921,164941,705589
2096921,2096921,164923,705622
2096921,2096921,165160,705530
2096921,2096921,165147,705491
2096921,2096921,165363,705607
2096921,2096921,164797,706051
2096921,2096921,165008,706090
2096921,2096921,164983,706007
2096921,2096921,165190,705768
2096921,2096921,164787,705801
2096921,2096921,165083,706281
2096921,2096921,165405,706427
2096921,2096921,165157,706419
2096921,2096921,165222,706254
2096921,2096921,164963,706136
2096921,2096921,164725,706115
2096921,2096921,164910,706314
2096921,2096921,164866,706111
2096921,2096921,165128,706173
2096921,2096921,165504,706274
2096921,2096921,165172,706047
2096921,2096921,165252,706176
2096921,2096921,165226,705850
2096921,2096921,164820,706158
2096921,2096921,165081,706245
2096921,2096921,165115,706400
2096921,2096921,165202,706161
2096921,2096921,164962,706102
2096921,2096921,165206,706331
2096921,2096921,164963,706589
2096921,2096921,164948,706254
2096921,2096921,165034,706106
2096921,2096921,165086,706413
2096921,2096921,165103,706508
2096921,2096921,165274,706283
2096921,2096921,165159,706360
2096921,2096921,165287,706070
2096921,2096921,165178,706379
2096921,2096921,165161,706441
2096921,2096921,165208,706154
2096921,2096921,165053,706462
2096921,2096921,165130,706602
2096921,2096921,164928,706563
2096921,2096921,165097,706669
2096921,2096921,165013,706498
2096921,2096921,165194,706224
2096921,2096921,165693,706379
2096921,2096921,165400,706177
2096921,2096921,165333,706515
2096921,2096921,165235,706554
2096921,2096921,165158,706726
2096921,2096921,165470,706414
2096921,2096921,165037,706609
2096921,2096921,165282,706684
2096921,2096921,165202,706456
2096921,2096921,165121,706372
2096921,2096921,165227,706415
2096921,2096921,165433,706443
2096921,2096921,165214,706716
2096921,2096921,165171,706401
2096921,2096921,165399,706530
2096921,2096921,165230,706536
2096921,2096921,164920,706421
2096921,2096921,164963,706451
2096921,2096921,164979,706325
2096921,2096921,165218,706203
2096921,2096921,165222,706624
2096921,2096921,165265,706353
2096921,2096921,165193,706605
2096921,2096921,165425,706746
2096921,2096921,165258,706461
2096921,2096921,165093,706259
2096921,2096921,165119,706422
2096921,2096921,165126,706115
2096921,2096921,164943,705978
2096921,2096921,164740,705488
2096921,2096921,165085,705519
2096921,2096921,165018,705542
2096921,2096921,165055,705625
2096921,2096921,164973,705685
2096921,2096921,164971,704725
2096921,2096921,164328,704798
2096921,2096921,164705,704957
2096921,2096921,164628,705047
2096921,2096921,164534,704908
2096921,2096921,164458,703919
2096921,2096921,164523,703509
2096921,2096921,164497,703824
2096921,2096921,164567,703960
2096921,2096921,164591,703739
2096921,2096921,164051,702836
2096921,2096921,164092,702673
2096921,2096921,163944,702478
2096921,2096921,164214,702742
2096921,2096921,164065,702637
2096921,2096921,163571,700276
2096921,2096921,163268,699867
2096921,2096921,163511,699404
2096921,2096921,163565,699518
2096921,2096921,163359,699927
2096921,2096921,162616,696827
2096921,2096921,162573,696544
2096921,2096921,162535,696329
2096921,2096921,162128,696414
2096921,2096921,162462,696357
2096921,2096921,161803,694030
2096921,2096921,161684,693850
2096921,2096921,161750,693528
2096921,2096921,161808,693602
2096921,2096921,161814,693810
2096921,2096921,161094,692481
2096921,2096921,161261,692196
2096921,2096921,160900,691835
2096921,2096921,161190,691870
2096921,2096921,160910,691923
2096921,2096921,160897,690762
2096921,2096921,160788,690421
2096921,2096921,160870,690486
2096921,2096921,160714,690356
2096921,2096921,160964,690277
2096921,2096921,160576,689624
2096921,2096921,160700,689622
2096921,2096921,160506,689454
2096921,2096921,160402,689334
2096921,2096921,160612,689437
2096921,2096921,160502,688876
2096921,2096921,160664,688806
2096921,2096921,160247,688667
2096921,2096921,160273,688963
2096921,2096921,160271,688824
2096921,2096921,160350,688472
2096921,2096921,160326,688051
2096921,2096921,160441,688250
2096921,2096921,160097,688366
2096921,2096921,160419,688302
2096921,2096921,160395,688282
2096921,2096921,160288,688164
2096921,2096921,160224,688332
2096921,2096921,160199,688455
2096921,2096921,160225,688380
2096921,2096921,160260,688339
2096921,2096921,160150,688363
2096921,2096921,160115,688228
2096921,2096921,160089,688354
2096921,2096921,160123,688158
2096921,2096921,160326,688563
2096921,2096921,160480,688329
2096921,2096921,160518,688838
2096921,2096921,160501,688873
2096921,2096921,160394,688879
2096921,2096921,160486,688597
2096921,2096921,160623,688874
2096921,2096921,160149,688842
2096921,2096921,160294,688927
2096921,2096921,160168,688835
2096921,2096921,160128,689120
2096921,2096921,160265,689619
2096921,2096921,160373,689504
2096921,2096921,160162,689530
2096921,2096921,160781,689169
2096921,2096921,160706,689670
2096921,2096921,160675,689954
2096921,2096921,160583,689841
2096921,2096921,160350,689798
2096921,2096921,160517,689851
2096921,2096921,160731,690421
2096921,2096921,161029,690329
2096921,2096921,160650,690570
2096921,2096921,160648,690525
2096921,2096921,160739,690344
2096921,2096921,161014,691110
2096921,2096921,160793,691110
2096921,2096921,161040,691039
2096921,2096921,160985,691395
2096921,2096921,160919,691227
2096921,2096921,161041,691633
2096921,2096921,161266,691857
2096921,2096921,161111,691869
2096921,2096921,161351,691893
2096921,2096921,161360,692142
2096921,2096921,161599,692346
2096921,2096921,161480,692648
2096921,2096921,161299,692913
2096921,2096921,161377,692789
2096921,2096921,161469,692780
2096921,2096921,161701,693224
2096921,2096921,161714,693223
2096921,2096921,161591,693212
2096921,2096921,161744,693500
2096921,2096921,161573,693359
2096921,2096921,161777,693558
2096921,2096921,161801,693928
2096921,2096921,161944,694057
2096921,2096921,161486,693866
2096921,2096921,161553,694010
2096921,2096921,161865,694409
2096921,2096921,161872,694622
2096921,2096921,162076,694623
2096921,2096921,162004,694609
2096921,2096921,161690,694526
2096921,2096921,162088,695493
2096921,2096921,162326,695619
2096921,2096921,162078,695473
2096921,2096921,162252,695501
2096921,2096921,161912,695657
2096921,2096921,162389,695865
2096921,2096921,162238,695880
2096921,2096921,162339,696155
2096921,2096921,162217,695909
2096921,2096921,162337,696023
2096921,2096921,162301,696556
2096921,2096921,162200,696784
2096921,2096921,162360,696905
2096921,2096921,162557,696808
2096921,2096921,162521,696734
2096921,2096921,162866,697182
2096921,2096921,162662,697519
2096921,2096921,162780,697729
2096921,2096921,162209,697560
2096921,2096921,162591,697756
2096921,2096921,162720,698285
2096921,2096921,162678,698258
2096921,2096921,162972,697770
2096921,2096921,162737,697896
2096921,2096921,162823,698052
2096921,2096921,162837,698505
2096921,2096921,162875,698472
2096921,2096921,163336,698580
2096921,2096921,162901,698595
2096921,2096921,163068,698644
2096921,2096921,163341,699070
2096921,2096921,163315,698901
2096921,2096921,162944,698926
2096921,2096921,162920,698811
2096921,2096921,163160,698796
2096921,2096921,163202,699251
2096921,2096921,163265,699436
2096921,2096921,163301,699521
2096921,2096921,163033,699317
2096921,2096921,163062,699264
2096921,2096921,163292,699731
2096921,2096921,163039,699689
2096921,2096921,163331,699659
2096921,2096921,162948,699811
2096921,2096921,163185,699730
2096921,2096921,163220,699300
2096921,2096921,163176,699625
2096921,2096921,163164,699905
2096921,2096921,163294,699600
2096921,2096921,163067,699713
2096921,2096921,163219,700047
2096921,2096921,163286,699718
2096921,2096921,163417,699601
2096921,2096921,163445,699849
2096921,2096921,163245,699826
2096921,2096921,163341,699547
2096921,2096921,163229,699568
2096921,2096921,163435,699571
2096921,2096921,163129,699497
2096921,2096921,163476,699329
2096921,2096921,163232,699684
2096921,2096921,163446,699640
2096921,2096921,163275,699755
2096921,2096921,163383,699730
2096921,2096921,163313,699501
2096921,2096921,163393,699691
2096921,2096921,163286,699670
2096921,2096921,163307,699559
2096921,2096921,163280,699614
2096921,2096921,163435,699713
2096921,2096921,163414,699402
2096921,2096921,163461,699374
2096921,2096921,163343,699712
2096921,2096921,163027,699238
2096921,2096921,163328,699198
2096921,2096921,163296,699078
2096921,2096921,163123,699200
2096921,2096921,163092,698984
2096921,2096921,163029,699301
2096921,2096921,162961,699248
2096921,2096921,163210,699139
2096921,2096921,163264,699537
2096921,2096921,162946,699466
2096921,2096921,163240,699416
2096921,2096921,163202,699675
2096921,2096921,163243,699415
2096921,2096921,163453,699402
2096921,2096921,163563,699414
2096921,2096921,163215,699337
2096921,2096921,163114,699418
2096921,2096921,163117,699518
2096921,2096921,163177,699760
2096921,2096921,163232,699720
2096921,2096921,163029,699762
2096921,2096921,162941,699762
2096921,2096921,163195,699789
2096921,2096921,163169,699790
2096921,2096921,163211,699822
2096921,2096921,163088,699491
2096921,2096921,163250,700131
2096921,2096921,163465,700328
2096921,2096921,163248,700395
2096921,2096921,163290,700168
2096921,2096921,163085,700113
2096921,2096921,163299,700069
2096921,2096921,163435,700464
2096921,2096921,163462,700435
2096921,2096921,163456,700771
2096921,2096921,163588,700440
2096921,2096921,163477,700555
2096921,2096921,163630,701020
2096921,2096921,163665,701261
2096921,2096921,163725,701079
2096921,2096921,163482,701152
2096921,2096921,163603,701266
2096921,2096921,163707,701563
2096921,2096921,163789,701466
2096921,2096921,163912,701681
2096921,2096921,164031,701622
2096921,2096921,163991,701702
2096921,2096921,164133,701977
2096921,2096921,164011,702171
2096921,2096921,163797,702158
2096921,2096921,163988,702145
2096921,2096921,163934,702285
2096921,2096921,163775,702451
2096921,2096921,164046,702384
2096921,2096921,163928,702998
2096921,2096921,164079,702740
2096921,2096921,164032,702443
2096921,2096921,164129,703036
2096921,2096921,164046,703223
2096921,2096921,164005,703259
2096921,2096921,163980,703373
2096921,2096921,164188,703226
2096921,2096921,164175,703439
2096921,2096921,164238,703482
2096921,2096921,164569,703530
2096921,2096921,164403,703653
2096921,2096921,164358,703717
2096921,2096921,164418,703704
2096921,2096921,164502,703956
2096921,2096921,164277,703689
2096921,2096921,164299,703972
2096921,2096921,164512,704116
2096921,2096921,164261,704358
2096921,2096921,164487,704585
2096921,2096921,164384,704651
2096921,2096921,164625,704664
2096921,2096921,164596,704476
2096921,2096921,164776,704719
2096921,2096921,164518,704849
2096921,2096921,164514,704893
2096921,2096921,164699,704989
2096921,2096921,164863,704866
2096921,2096921,164748,705139
2096921,2096921,164629,705230
2096921,2096921,164440,705312
2096921,2096921,164711,705143
2096921,2096921,164601,705169
2096921,2096921,164879,705358
2096921,2096921,165067,705414
2096921,2096921,164581,705848
2096921,2096921,164699,705616
2096921,2096921,164736,705750
2096921,2096921,164587,706138
2096921,2096921,165059,705930
2096921,2096921,164887,706219
2096921,2096921,164986,706473
2096921,2096921,164849,706263
2096921,2096921,165274,706518
2096921,2096921,165336,706275
2096921,2096921,164798,706518
2096921,2096921,165077,706490
2096921,2096921,165470,706637
2096921,2096921,165191,706792
2096921,2096921,165020,706857
2096921,2096921,165284,707032
2096921,2096921,165093,706790
2096921,2096921,165401,706959
2096921,2096921,165501,707134
2096921,2096921,165359,707091
2096921,2096921,165608,707213
2096921,2096921,165543,707144
2096921,2096921,165341,707211
2096921,2096921,165473,707607
2096921,2096921,165130,707776
2096921,2096921,165678,707659
2096921,2096921,165558,707722
2096921,2096921,165366,707799
2096921,2096921,165718,707941
2096921,2096921,165860,707784
2096921,2096921,165409,707859
2096921,2096921,165541,707839
2096921,2096921,165524,707799
2096921,2096921,165493,708226
2096921,2096921,165604,708179
2096921,2096921,165502,708299
2096921,2096921,165491,708716
2096921,2096921,165734,708309
2096921,2096921,165892,708443
2096921,2096921,165720,708114
2096921,2096921,165787,708316
2096921,2096921,165766,708381
2096921,2096921,165533,708418
2096921,2096921,165614,708547
2096921,2096921,165756,708620
2096921,2096921,165619,709091
2096921,2096921,165809,709108
2096921,2096921,165670,708875
2096921,2096921,165964,709076
2096921,2096921,165813,709168
2096921,2096921,165669,709086
2096921,2096921,165848,709170
2096921,2096921,165719,709104
2096921,2096921,165864,709405
2096921,2096921,165902,709450
2096921,2096921,165912,709634
2096921,2096921,165783,709597
2096921,2096921,165845,709541
2096921,2096921,165926,709666
2096921,2096921,166284,709772
2096921,2096921,166032,709777
2096921,2096921,165968,709676
2096921,2096921,165802,709744
2096921,2096921,165803,709898
2096921,2096921,166015,710263
2096921,2096921,165807,710206
2096921,2096921,165879,710134
2096921,2096921,165995,709954
2096921,2096921,165986,710101
2096921,2096921,165973,710231
2096921,2096921,166101,709984
2096921,2096921,166281,709860
2096921,2096921,166194,710019
2096921,2096921,166367,710365
2096921,2096921,166330,710516
2096921,2096921,166367,710581
2096921,2096921,166127,710595
2096921,2096921,166472,710415
2096921,2096921,166298,710613
2096921,2096921,166211,710433
2096921,2096921,166205,710808
2096921,2096921,166106,710561
2096921,2096921,166196,710894
2096921,2096921,166230,710894
2096921,2096921,166128,710945
2096921,2096921,166030,710966
2096921,2096921,166059,711354
2096921,2096921,166280,710953
2096921,2096921,166161,711299
2096921,2096921,166152,711165
2096921,2096921,166227,711208
2096921,2096921,166416,711141
2096921,2096921,166365,710813
2096921,2096921,166532,711191
2096921,2096921,166645,711184
2096921,2096921,166509,711383
2096921,2096921,166421,711282
2096921,2096921,166414,711348
2096921,2096921,166215,711407
2096921,2096921,166339,711290
2096921,2096921,166148,711395
2096921,2096921,166301,711175
2096921,2096921,166338,711165
2096921,2096921,166910,711257
2096921,2096921,166402,711214
2096921,2096921,166370,711790
2096921,2096921,166537,711735
2096921,2096921,166538,711944
2096921,2096921,166656,712005
2096921,2096921,166553,712010
2096921,2096921,166638,711651
2096921,2096921,166381,711947
2096921,2096921,166220,711776
2096921,2096921,166378,711756
2096921,2096921,166533,711564
2096921,2096921,166568,711751
2096921,2096921,166866,711916
2096921,2096921,166585,711884
2096921,2096921,166329,712070
2096921,2096921,166452,712209
2096921,2096921,166420,712220
2096921,2096921,166333,712111
2096921,2096921,166490,711855
2096921,2096921,166833,712056
2096921,2096921,166390,712132
2096921,2096921,166650,712141
2096921,2096921,167009,712094
2096921,2096921,166729,712316
2096921,2096921,166756,712450
2096921,2096921,166362,712491
2096921,2096921,166659,712223
2096921,2096921,166559,712279
2096921,2096921,166621,712231
2096921,2096921,166641,712442
2096921,2096921,166461,712450
2096921,2096921,166493,712322
2096921,2096921,166786,712542
2096921,2096921,166551,712377
2096921,2096921,166569,712795
2096921,2096921,166593,712807
2096921,2096921,166644,712524
2096921,2096921,166622,712744
2096921,2096921,166694,712770
2096921,2096921,166751,712765
2096921,2096921,166765,713123
2096921,2096921,166932,713071
2096921,2096921,166953,712722
2096921,2096921,167044,712641
2096921,2096921,166855,712952
2096921,2096921,166626,712554
2096921,2096921,166490,712772
2096921,2096921,166778,713141
2096921,2096921,166625,712957
2096921,2096921,166615,713015
2096921,2096921,166928,712977
2096921,2096921,166986,712850
2096921,2096921,167458,712968
2096921,2096921,167015,712881
2096921,2096921,166881,713089
2096921,2096921,167019,713046
2096921,2096921,167086,713072
2096921,2096921,166761,712916
2096921,2096921,167133,713039
2096921,2096921,166777,713223
2096921,2096921,166720,713125
2096921,2096921,166601,712922
2096921,2096921,166656,713141
2096921,2096921,166730,712954
2096921,2096921,166866,713246
2096921,2096921,167153,713063
2096921,2096921,166961,713028
2096921,2096921,166732,712824
2096921,2096921,166940,712941
2096921,2096921,167001,712881
2096921,2096921,166895,713150
2096921,2096921,166843,713242
2096921,2096921,166633,713072
2096921,2096921,166551,713241
2096921,2096921,166987,713380
2096921,2096921,166899,713462
2096921,2096921,166861,713572
2096921,2096921,166829,713158
2096921,2096921,166691,712992
2096921,2096921,166746,712982
2096921,2096921,166877,712987
2096921,2096921,166849,713102
2096921,2096921,166798,713278
2096921,2096921,166842,713210
2096921,2096921,166547,713376
2096921,2096921,166749,713192
2096921,2096921,166806,713042
2096921,2096921,166821,713122
2096921,2096921,166929,713116
2096921,2096921,166838,712922
2096921,2096921,166811,713384
2096921,2096921,166961,713076
2096921,2096921,167015,713187
2096921,2096921,167089,713200
2096921,2096921,167150,713244
2096921,2096921,167042,713226
2096921,2096921,166658,713403
2096921,2096921,166894,713141
2096921,2096921,166760,713490
2096921,2096921,166453,713181
2096921,2096921,166705,713286
2096921,2096921,167199,713337
2096921,2096921,167129,713202
2096921,2096921,167108,713258
2096921,2096921,166902,712599
2096921,2096921,166966,712710
2096921,2096921,166474,712765
2096921,2096921,166620,712489
2096921,2096921,166522,712714
2096921,2096921,166263,712114
2096921,2096921,166603,712245
2096921,2096921,166626,712352
2096921,2096921,166632,712270
2096921,2096921,166498,712052
2096921,2096921,166185,711285
2096921,2096921,166363,711201
2096921,2096921,166480,711314
2096921,2096921,166441,711381
2096921,2096921,166076,711212
2096921,2096921,166038,710341
2096921,2096921,165915,710249
2096921,2096921,165901,710105
2096921,2096921,166032,710107
2096921,2096921,166253,710199
2096921,2096921,165756,709076
2096921,2096921,165828,708856
2096921,2096921,165657,708870
2096921,2096921,165796,708702
2096921,2096921,165399,708916
2096921,2096921,165174,706558
2096921,2096921,164756,706148
2096921,2096921,164961,705833
2096921,2096921,165090,705853
2096921,2096921,165299,706034
2096921,2096921,164049,703142
2096921,2096921,163983,702521
2096921,2096921,163706,702578
2096921,2096921,163923,702364
2096921,2096921,164088,702418
2096921,2096921,163484,700205
2096921,2096921,163506,700062
2096921,2096921,163512,699927
2096921,2096921,163428,699850
2096921,2096921,163442,699656
2096921,2096921,163001,698151
2096921,2096921,162592,697634
2096921,2096921,162626,697619
2096921,2096921,162515,697770
2096921,2096921,162342,697997
2096921,2096921,162012,696768
2096921,2096921,162351,696293
2096921,2096921,162379,696291
2096921,2096921,162366,696259
2096921,2096921,162455,696314
2096921,2096921,162136,695298
2096921,2096921,161986,694997
2096921,2096921,161881,694992
2096921,2096921,161536,695134
2096921,2096921,161707,695151
2096921,2096921,161540,694405
2096921,2096921,161492,694131
2096921,2096921,161539,694483
2096921,2096921,161712,694278
2096921,2096921,161823,694601
2096921,2096921,161637,694236
2096921,2096921,161386,694023
2096921,2096921,161306,693825
2096921,2096921,161846,693931
2096921,2096921,161831,694234
2096921,2096921,161321,693793
2096921,2096921,161770,693587
2096921,2096921,161619,693962
2096921,2096921,161380,693762
2096921,2096921,161602,693737
2096921,2096921,161551,693881
2096921,2096921,161318,693869
2096921,2096921,161186,693957
2096921,2096921,161320,693732
2096921,2096921,161545,693693
2096921,2096921,161624,694057
2096921,2096921,161600,694018
2096921,2096921,161786,694100
2096921,2096921,161912,694170
2096921,2096921,161914,694049
2096921,2096921,161605,693994
2096921,2096921,161344,694462
2096921,2096921,161670,694353
2096921,2096921,161941,694392
2096921,2096921,161618,694112
2096921,2096921,161732,694322
2096921,2096921,161798,694271
2096921,2096921,161527,694233
2096921,2096921,161710,694594
2096921,2096921,161488,694217
2096921,2096921,161830,694916
2096921,2096921,161611,694999
2096921,2096921,161631,695139
2096921,2096921,161977,695117
2096921,2096921,161899,695038
2096921,2096921,162078,695406
2096921,2096921,162233,695701
2096921,2096921,162089,695593
2096921,2096921,161978,695584
2096921,2096921,162022,695852
2096921,2096921,162083,696249
2096921,2096921,162120,696283
2096921,2096921,161995,695974
2096921,2096921,162067,696401
2096921,2096921,162077,696461
2096921,2096921,162465,696586
2096921,2096921,162479,697018
2096921,2096921,162370,696954
2096921,2096921,162558,697050
2096921,2096921,162491,696926
2096921,2096921,162432,697250
2096921,2096921,162425,697369
2096921,2096921,162403,697677
2096921,2096921,162412,697572
2096921,2096921,162633,697575
2096921,2096921,162507,698007
2096921,2096921,162888,698166
2096921,2096921,162844,698143
2096921,2096921,163092,698031
2096921,2096921,162869,698003
2096921,2096921,162984,698648
2096921,2096921,162910,698847
2096921,2096921,162594,698483
2096921,2096921,162566,698712
2096921,2096921,162906,698649
2096921,2096921,163176,699295
2096921,2096921,163171,699240
2096921,2096921,163442,699397
2096921,2096921,163085,699226
2096921,2096921,162851,698959
2096921,2096921,163036,699841
2096921,2096921,163215,700002
2096921,2096921,163019,699944
2096921,2096921,163063,699990
2096921,2096921,163249,699871
2096921,2096921,163034,700247
2096921,2096921,163453,700490
2096921,2096921,163388,700355
2096921,2096921,163358,700339
2096921,2096921,163585,700201
2096921,2096921,163794,701022
2096921,2096921,163854,700877
2096921,2096921,163453,701018
2096921,2096921,163296,701168
2096921,2096921,163379,701360
2096921,2096921,163256,701545
2096921,2096921,163435,701655
2096921,2096921,163570,701803
2096921,2096921,163738,701855
2096921,2096921,163755,701512
2096921,2096921,164001,702181
2096921,2096921,163704,701970
2096921,2096921,163829,702059
2096921,2096921,163834,702253
2096921,2096921,163432,702216
2096921,2096921,163885,702746
2096921,2096921,164122,702637
2096921,2096921,164166,702612
2096921,2096921,164264,702525
2096921,2096921,164370,702610
2096921,2096921,164150,702794
2096921,2096921,163862,702808
2096921,2096921,164233,703202
2096921,2096921,164218,703078
2096921,2096921,163898,703273
2096921,2096921,163720,703409
2096921,2096921,163863,703495
2096921,2096921,164008,703305
2096921,2096921,164186,703555
2096921,2096921,164188,703480
2096921,2096921,164360,703647
2096921,2096921,164314,703511
2096921,2096921,164134,703596
2096921,2096921,163923,703120
2096921,2096921,163928,703380
2096921,2096921,163803,703384
2096921,2096921,164064,703480
2096921,2096921,164165,703672
2096921,2096921,164326,703535
2096921,2096921,164307,703578
2096921,2096921,164316,703535
2096921,2096921,164025,703433
2096921,2096921,163922,703714
2096921,2096921,164151,703549
2096921,2096921,164059,703541
2096921,2096921,164049,703391
2096921,2096921,164475,703561
2096921,2096921,164541,703590
2096921,2096921,164139,703255
2096921,2096921,164283,703289
2096921,2096921,164057,703316
2096921,2096921,164321,703346
2096921,2096921,163872,703140
2096921,2096921,164065,703237
2096921,2096921,163948,703170
2096921,2096921,163866,702964
2096921,2096921,164002,702665
2096921,2096921,164076,702914
2096921,2096921,163914,703063
2096921,2096921,164109,702847
2096921,2096921,163894,702538
2096921,2096921,164038,702830
2096921,2096921,163897,702793
2096921,2096921,163924,702552
2096921,2096921,164035,702613
2096921,2096921,163922,702644
2096921,2096921,163624,702559
2096921,2096921,163732,702315
2096921,2096921,163784,702577
2096921,2096921,164284,702490
2096921,2096921,164149,702463
2096921,2096921,163940,702403
2096921,2096921,163959,702591
2096921,2096921,163761,702404
2096921,2096921,163657,702180
2096921,2096921,163605,702157
2096921,2096921,164083,702023
2096921,2096921,163982,701897
2096921,2096921,163879,702049
2096921,2096921,163916,702106
2096921,2096921,163784,702334
2096921,2096921,163853,702216
2096921,2096921,163896,702501
2096921,2096921,163842,702371
2096921,2096921,163859,702386
2096921,2096921,163705,702587
2096921,2096921,164010,702572
2096921,2096921,164026,702499
2096921,2096921,164105,702558
2096921,2096921,163921,702569
2096921,2096921,164049,702585
2096921,2096921,163865,702692
2096921,2096921,164155,702542
2096921,2096921,163826,702831
2096921,2096921,163676,702678
2096921,2096921,164204,703029
2096921,2096921,163980,703085
2096921,2096921,164433,703020
2096921,2096921,163933,702953
2096921,2096921,163994,703026
2096921,2096921,164283,703241
2096921,2096921,164267,703194
2096921,2096921,164142,703078
2096921,2096921,164129,703301
2096921,2096921,163891,703101
2096921,2096921,164095,703632
2096921,2096921,164127,703922
2096921,2096921,164064,703809
2096921,2096921,164627,703763
2096921,2096921,164619,704084
2096921,2096921,164434,704129
2096921,2096921,164394,704246
2096921,2096921,164266,703959
2096921,2096921,164371,704169
2096921,2096921,164448,703941
2096921,2096921,164748,704549
2096921,2096921,164595,704699
2096921,2096921,164533,704497
2096921,2096921,164627,704467
2096921,2096921,164645,704672
2096921,2096921,164671,704276
2096921,2096921,164551,704724
2096921,2096921,164223,704588
2096921,2096921,164623,704794
2096921,2096921,164575,704757
2096921,2096921,164569,705067
2096921,2096921,164594,705127
2096921,2096921,164467,704980
2096921,2096921,164398,705262
2096921,2096921,164716,705354
2096921,2096921,164872,705439
2096921,2096921,164950,705418
2096921,2096921,164799,705664
2096921,2096921,164326,705746
2096921,2096921,164783,705548
2096921,2096921,164742,705595
2096921,2096921,165071,705735
2096921,2096921,165019,705924
2096921,2096921,165143,705924
2096921,2096921,164800,705974
2096921,2096921,164889,705807
2096921,2096921,164927,706152
2096921,2096921,164985,705918
2096921,2096921,164824,706000
2096921,2096921,164899,705899
2096921,2096921,164763,706300
2096921,2096921,164964,706246
2096921,2096921,164906,706339
2096921,2096921,165073,706379
2096921,2096921,165279,706415
2096921,2096921,165156,706569
2096921,2096921,165064,706638
2096921,2096921,165227,706587
2096921,2096921,165242,706654
2096921,2096921,165099,706503
2096921,2096921,165217,706715
2096921,2096921,165312,706806
2096921,2096921,165269,706717
2096921,2096921,165426,706757
2096921,2096921,165361,706784
2096921,2096921,165319,706965
2096921,2096921,165034,706839
2096921,2096921,164880,706833
2096921,2096921,165162,706773
2096921,2096921,165132,706987
2096921,2096921,165037,707283
2096921,2096921,165236,707388
2096921,2096921,164963,707628
2096921,2096921,165183,707329
2096921,2096921,165397,707314
2096921,2096921,165412,707429
2096921,2096921,165079,707389
2096921,2096921,165358,707409
2096921,2096921,165425,707505
2096921,2096921,165510,707680
2096921,2096921,165425,707878
2096921,2096921,165469,707954
2096921,2096921,165190,707982
2096921,2096921,165299,707625
2096921,2096921,165458,707868
2096921,2096921,165478,707818
2096921,2096921,165574,707792
2096921,2096921,165466,707865
2096921,2096921,165733,707849
2096921,2096921,165341,707808
2096921,2096921,165348,708002
2096921,2096921,165592,708117
2096921,2096921,165682,708044
2096921,2096921,165781,708225
2096921,2096921,165688,708022
2096921,2096921,165604,708224
2096921,2096921,165645,708147
2096921,2096921,165678,707985
2096921,2096921,165529,708258
2096921,2096921,165706,708193
2096921,2096921,165715,708398
2096921,2096921,165726,708483
2096921,2096921,165622,708666
2096921,2096921,165517,708635
2096921,2096921,165773,708588
2096921,2096921,165484,708637
2096921,2096921,165697,708677
2096921,2096921,165632,708743
2096921,2096921,165480,708798
2096921,2096921,165661,708428
2096921,2096921,165866,708559
2096921,2096921,165482,708625
2096921,2096921,165781,708753
2096921,2096921,165655,708757
2096921,2096921,165996,708322
2096921,2096921,165790,708978
2096921,2096921,165768,708643
2096921,2096921,165551,708880
2096921,2096921,165828,708880
2096921,2096921,165825,708987
2096921,2096921,165526,709086
2096921,2096921,165545,708944
2096921,2096921,165756,709012
2096921,2096921,165766,709002
2096921,2096921,165922,708839
2096921,2096921,165842,709373
2096921,2096921,165910,709064
2096921,2096921,165959,708746
2096921,2096921,165835,708870
2096921,2096921,165800,709137
2096921,2096921,165740,709147
2096921,2096921,165903,709212
2096921,2096921,166019,709342
2096921,2096921,165796,709005
2096921,2096921,165731,709132
2096921,2096921,166030,709473
2096921,2096921,165988,709146
2096921,2096921,165998,709144
2096921,2096921,165989,708788
2096921,2096921,165907,709034
2096921,2096921,166128,709318
2096921,2096921,166171,709239
2096921,2096921,166156,709290
2096921,2096921,166098,709506
2096921,2096921,165840,709448
2096921,2096921,165844,709190
2096921,2096921,165777,709241
2096921,2096921,165945,709357
2096921,2096921,166274,709396
2096921,2096921,166215,709268
2096921,2096921,166105,709356
2096921,2096921,166084,709108
2096921,2096921,166162,709294
2096921,2096921,165844,709216
2096921,2096921,166077,709376
2096921,2096921,165796,709513
2096921,2096921,165638,709497
2096921,2096921,165428,709600
2096921,2096921,165905,709234
2096921,2096921,165790,709556
2096921,2096921,166107,709336
2096921,2096921,166225,709472
2096921,2096921,166151,709671
2096921,2096921,165944,709607
2096921,2096921,166031,709660
2096921,2096921,166125,709384
2096921,2096921,165960,709361
2096921,2096921,165751,709411
2096921,2096921,165627,709445
2096921,2096921,165737,709333
2096921,2096921,166015,709495
2096921,2096921,165886,709498
2096921,2096921,166184,709300
2096921,2096921,165911,709148
2096921,2096921,165899,709357
2096921,2096921,165981,709431
2096921,2096921,165873,709455
2096921,2096921,166218,709412
2096921,2096921,165865,709391
2096921,2096921,165669,709441
2096921,2096921,166050,709419
2096921,2096921,166083,709394
2096921,2096921,166280,709420
2096921,2096921,166209,709782
2096921,2096921,166143,709619
2096921,2096921,166019,709680
2096921,2096921,166075,709685
2096921,2096921,165434,709527
2096921,2096921,165667,709402
2096921,2096921,165889,709479
2096921,2096921,165972,709582
2096921,2096921,165953,709641
2096921,2096921,166181,709750
2096921,2096921,166003,709528
2096921,2096921,166063,709709
2096921,2096921,166107,709576
2096921,2096921,166079,709649
2096921,2096921,165756,709500
2096921,2096921,165637,709893
2096921,2096921,166098,709788
2096921,2096921,165807,709946
2096921,2096921,165849,709825
2096921,2096921,166096,709279
2096921,2096921,166056,709654
2096921,2096921,166026,709671
2096921,2096921,166094,709854
2096921,2096921,165979,709588
2096921,2096921,165950,709649
2096921,2096921,165894,709691
2096921,2096921,165915,709762
2096921,2096921,165677,709596
2096921,2096921,165862,709578
2096921,2096921,166010,709788
2096921,2096921,166092,709553
2096921,2096921,165993,709627
2096921,2096921,165832,709731
2096921,2096921,165747,709409
2096921,2096921,165747,709616
2096921,2096921,165822,709496
2096921,2096921,165913,709418
2096921,2096921,165951,709452
2096921,2096921,165861,709467
2096921,2096921,166048,709586
2096921,2096921,166231,709668
2096921,2096921,166372,709456
2096921,2096921,165920,709705
2096921,2096921,165669,709323
2096921,2096921,166065,709480
2096921,2096921,166110,709292
2096921,2096921,166368,709511
2096921,2096921,166010,709340
2096921,2096921,165922,709397
2096921,2096921,166203,709433
2096921,2096921,166189,709249
2096921,2096921,165888,709250
2096921,2096921,165862,709257
2096921,2096921,165953,709328
2096921,2096921,166013,709203
2096921,2096921,166001,709143
2096921,2096921,165864,709119
2096921,2096921,165920,708957
2096921,2096921,166196,709279
2096921,2096921,166060,709226
2096921,2096921,165932,709343
2096921,2096921,165899,709322
2096921,2096921,166061,709105
2096921,2096921,166012,709100
2096921,2096921,165885,709022
2096921,2096921,165644,709200
2096921,2096921,165731,709181
2096921,2096921,165865,708927
2096921,2096921,165867,708953
2096921,2096921,165756,709045
2096921,2096921,165978,708957
2096921,2096921,166010,708900
2096921,2096921,165860,709070
2096921,2096921,165818,708841
2096921,2096921,165341,709119
2096921,2096921,165467,708743
2096921,2096921,165811,708918
2096921,2096921,165625,708890
2096921,2096921,165832,708670
2096921,2096921,165684,708358
2096921,2096921,166150,708847
2096921,2096921,166162,708589
2096921,2096921,165531,708330
2096921,2096921,165691,708054
2096921,2096921,165602,707916
2096921,2096921,165494,707673
2096921,2096921,165567,708144
2096921,2096921,165398,707764
2096921,2096921,165448,707776
2096921,2096921,165244,707626
2096921,2096921,165596,707637
2096921,2096921,165713,707483
2096921,2096921,165267,706655
2096921,2096921,164899,706476
2096921,2096921,165030,706725
2096921,2096921,165051,706542
2096921,2096921,165040,706660
2096921,2096921,164934,705276
2096921,2096921,164722,705439
2096921,2096921,164729,705376
2096921,2096921,164455,705273
2096921,2096921,164722,705407
2096921,2096921,164432,704282
2096921,2096921,164472,703931
2096921,2096921,164385,703900
2096921,2096921,164349,703693
2096921,2096921,164444,703780
2096921,2096921,164136,701502
2096921,2096921,163927,701118
2096921,2096921,163614,701134
2096921,2096921,163361,700932
2096921,2096921,163682,700814
2096921,2096921,162834,698377
2096921,2096921,162258,697574
2096921,2096921,162431,697390
2096921,2096921,162481,697424
2096921,2096921,162687,697515
2096921,2096921,162015,695428
2096921,2096921,162154,694908
2096921,2096921,162334,694631
2096921,2096921,162240,694678
2096921,2096921,162056,694563
2096921,2096921,161202,693080
2096921,2096921,161214,692772
2096921,2096921,161112,692869
2096921,2096921,161158,692440
2096921,2096921,161346,692700
2096921,2096921,161113,691230
2096921,2096921,160984,691069
2096921,2096921,160910,690987
2096921,2096921,161032,691139
2096921,2096921,161373,691044
2096921,2096921,160596,690618
2096921,2096921,160825,690113
2096921,2096921,160759,689917
2096921,2096921,160571,689902
2096921,2096921,160740,689831
2096921,2096921,160446,689314
2096921,2096921,160328,689075
2096921,2096921,160489,689049
2096921,2096921,160362,688998
2096921,2096921,160586,689000
2096921,2096921,160268,689047
2096921,2096921,160291,688637
2096921,2096921,160272,688651
2096921,2096921,160427,688604
2096921,2096921,160303,688538
2096921,2096921,160391,688383
2096921,2096921,160210,688397
2096921,2096921,160322,688491
2096921,2096921,160142,688520
2096921,2096921,160421,688555
2096921,2096921,160176,688516
2096921,2096921,160003,688593
2096921,2096921,160248,688521
2096921,2096921,160199,688184
2096921,2096921,160354,688234
2096921,2096921,160389,688413
2096921,2096921,160047,688221
2096921,2096921,160339,688478
2096921,2096921,160428,688381
2096921,2096921,160308,688548
2096921,2096921,160298,688469
2096921,2096921,160248,688527
2096921,2096921,160055,688485
2096921,2096921,159892,689011
2096921,2096921,160384,688921
2096921,2096921,160423,688788
2096921,2096921,160421,688558
2096921,2096921,160183,688605
2096921,2096921,160457,688905
2096921,2096921,160262,688991
2096921,2096921,160354,689045
2096921,2096921,160391,689454
2096921,2096921,160319,689185
2096921,2096921,160299,689283
2096921,2096921,160170,689263
2096921,2096921,160407,689779
2096921,2096921,160723,689622
2096921,2096921,160596,689769
2096921,2096921,160478,689574
2096921,2096921,160637,689738
2096921,2096921,160783,690200
2096921,2096921,160458,690263
2096921,2096921,160800,690210
2096921,2096921,160477,690446
2096921,2096921,160569,690124
2096921,2096921,160840,690670
2096921,2096921,161010,690685
2096921,2096921,160845,690977
2096921,2096921,161112,690656
2096921,2096921,160695,690845
2096921,2096921,161021,691247
2096921,2096921,160969,691550
2096921,2096921,161023,691147
2096921,2096921,161118,691648
2096921,2096921,161266,691241
2096921,2096921,161309,691819
2096921,2096921,161289,691769
2096921,2096921,161234,691734
2096921,2096921,161070,692063
2096921,2096921,160822,692174
2096921,2096921,161203,692640
2096921,2096921,161116,692290
2096921,2096921,161450,692319
2096921,2096921,161361,692532
2096921,2096921,161374,692387
2096921,2096921,161337,692633
2096921,2096921,161676,692706
2096921,2096921,161696,692915
2096921,2096921,161426,693017
2096921,2096921,161423,693148
2096921,2096921,161673,693675
2096921,2096921,161303,693610
2096921,2096921,161477,693903
2096921,2096921,161783,693592
2096921,2096921,161644,693465
2096921,2096921,162020,693988
2096921,2096921,161971,694165
2096921,2096921,161747,694025
2096921,2096921,161958,694351
2096921,2096921,161964,694105
2096921,2096921,162162,694629
2096921,2096921,161729,694911
2096921,2096921,162018,694743
2096921,2096921,161878,694747
2096921,2096921,161713,694677
2096921,2096921,161964,695045
2096921,2096921,162107,695103
2096921,2096921,162044,695256
2096921,2096921,162333,695375
2096921,2096921,162243,695610
2096921,2096921,162045,695911
2096921,2096921,162194,696031
2096921,2096921,162355,695805
2096921,2096921,162339,695844
2096921,2096921,162407,695632
2096921,2096921,162478,696155
2096921,2096921,162923,696206
2096921,2096921,162495,696162
2096921,2096921,162599,696036
2096921,2096921,162453,696049
2096921,2096921,162720,696773
2096921,2096921,162426,696593
2096921,2096921,162131,696652
2096921,2096921,162336,696619
2096921,2096921,162515,696562
2096921,2096921,162975,696279
2096921,2096921,162514,696667
2096921,2096921,162722,696811
2096921,2096921,162664,696854
2096921,2096921,162403,696841
2096921,2096921,162499,696875
2096921,2096921,162677,696928
2096921,2096921,162410,697043
2096921,2096921,162676,696952
2096921,2096921,162577,697013
2096921,2096921,162757,696499
2096921,2096921,162654,696926
2096921,2096921,162510,696737
2096921,2096921,162720,696784
2096921,2096921,162675,696722
2096921,2096921,162610,696982
2096921,2096921,162358,696659
2096921,2096921,162455,696766
2096921,2096921,162678,696596
2096921,2096921,162816,696499
2096921,2096921,162780,696427
2096921,2096921,162697,696711
2096921,2096921,162410,696838
2096921,2096921,162679,696613
2096921,2096921,162686,696612
2096921,2096921,162090,696557
2096921,2096921,162253,696562
2096921,2096921,162478,696508
2096921,2096921,162439,696385
2096921,2096921,162481,696443
2096921,2096921,162283,696405
2096921,2096921,162337,696258
2096921,2096921,162405,696356
2096921,2096921,162529,696432
2096921,2096921,162472,696089
2096921,2096921,162261,696512
2096921,2096921,162412,695796
2096921,2096921,162326,696103
2096921,2096921,162074,695922
2096921,2096921,162152,695715
2096921,2096921,162091,695899
2096921,2096921,162122,695605
2096921,2096921,162498,695787
2096921,2096921,162367,695770
2096921,2096921,162547,695967
2096921,2096921,162114,695938
2096921,2096921,162230,695870
2096921,2096921,162295,695695
2096921,2096921,162270,695596
2096921,2096921,162162,695728
2096921,2096921,162274,695515
2096921,2096921,162214,695480
2096921,2096921,162362,695627
2096921,2096921,162040,695673
2096921,2096921,162328,695836
2096921,2096921,162170,696027
2096921,2096921,162278,695815
2096921,2096921,161965,695724
2096921,2096921,162251,695716
2096921,2096921,162122,695731
2096921,2096921,162326,695560
2096921,2096921,162254,695649
2096921,2096921,162576,695665
2096921,2096921,162442,695794
2096921,2096921,162460,695865
2096921,2096921,162203,695909
2096921,2096921,162324,696128
2096921,2096921,162353,696297
2096921,2096921,162363,696023
2096921,2096921,162072,696243
2096921,2096921,162191,696476
2096921,2096921,162243,696453
2096921,2096921,162636,696351
2096921,2096921,162600,696613
2096921,2096921,162347,696277
2096921,2096921,162576,696612
2096921,2096921,162579,697013
2096921,2096921,162453,696903
2096921,2096921,162439,696946
2096921,2096921,162648,696989
2096921,2096921,162640,697183
2096921,2096921,162685,697175
2096921,2096921,162528,697203
2096921,2096921,162598,697140
2096921,2096921,162646,696980
2096921,2096921,162743,697430
2096921,2096921,162607,697370
2096921,2096921,162754,697523
2096921,2096921,162921,697530
2096921,2096921,162720,697441
2096921,2096921,163006,698142
2096921,2096921,163053,697981
2096921,2096921,163293,698257
2096921,2096921,163161,697808
2096921,2096921,162925,697953
2096921,2096921,162989,698352
2096921,2096921,163002,698343
2096921,2096921,163060,698701
2096921,2096921,162800,698688
2096921,2096921,162971,698726
2096921,2096921,163395,698863
2096921,2096921,163288,698540
2096921,2096921,163119,698665
2096921,2096921,163315,698690
2096921,2096921,163220,699013
2096921,2096921,163297,699008
2096921,2096921,163273,699259
2096921,2096921,162947,699014
2096921,2096921,162955,698908
2096921,2096921,162858,698880
2096921,2096921,162974,699584
2096921,2096921,162974,699426
2096921,2096921,163444,699790
2096921,2096921,163579,699368
2096921,2096921,163278,699583
2096921,2096921,163221,699828
2096921,2096921,163317,699908
2096921,2096921,163377,699848
2096921,2096921,163380,699916
2096921,2096921,163271,699773
2096921,2096921,163300,700072
2096921,2096921,163308,700177
2096921,2096921,163494,699866
2096921,2096921,163399,699813
2096921,2096921,163400,700044
2096921,2096921,163436,700635
2096921,2096921,163561,700420
2096921,2096921,163749,700547
2096921,2096921,163442,700148
2096921,2096921,163363,700457
2096921,2096921,163678,700952
2096921,2096921,163842,700750
2096921,2096921,163411,700531
2096921,2096921,163808,700658
2096921,2096921,163795,700774
2096921,2096921,164108,701227
2096921,2096921,164006,701247
2096921,2096921,163887,701170
2096921,2096921,163657,701031
2096921,2096921,163877,701093
2096921,2096921,163757,701321
2096921,2096921,163535,701396
2096921,2096921,163773,701676
2096921,2096921,163659,701532
2096921,2096921,163664,701636
2096921,2096921,163607,701732
2096921,2096921,164066,701709
2096921,2096921,163904,701605
2096921,2096921,163786,701782
2096921,2096921,163957,701817
2096921,2096921,163682,702200
2096921,2096921,163794,702226
2096921,2096921,163947,702150
2096921,2096921,163925,702378
2096921,2096921,163979,702200
2096921,2096921,164108,702411
2096921,2096921,163944,702303
2096921,2096921,163974,702313
2096921,2096921,164213,702252
2096921,2096921,163908,702161
2096921,2096921,163954,702374
2096921,2096921,164126,702660
2096921,2096921,164058,702498
2096921,2096921,164091,702646
2096921,2096921,164126,702492
2096921,2096921,164049,702426
2096921,2096921,164180,702567
2096921,2096921,164029,702669
2096921,2096921,164316,702692
2096921,2096921,163920,702832
2096921,2096921,164212,702873
2096921,2096921,164178,702964
2096921,2096921,164440,702847
2096921,2096921,164169,702836
2096921,2096921,164568,702861
2096921,2096921,164527,703022
2096921,2096921,164319,702999
2096921,2096921,164308,703082
2096921,2096921,164297,702989
2096921,2096921,163914,703310
2096921,2096921,164211,703481
2096921,2096921,164580,703578
2096921,2096921,164711,703561
2096921,2096921,164562,703551
2096921,2096921,164382,703748
2096921,2096921,164372,703664
2096921,2096921,164346,703423
2096921,2096921,164440,703536
2096921,2096921,164230,703375
2096921,2096921,164043,703642
2096921,2096921,164527,703547
2096921,2096921,164603,703499
2096921,2096921,164762,703894
2096921,2096921,164834,704102
2096921,2096921,164591,704067
2096921,2096921,164695,704197
2096921,2096921,164772,703885
2096921,2096921,164778,704012
2096921,2096921,164736,703641
2096921,2096921,164527,704276
2096921,2096921,164463,704372
2096921,2096921,164295,704413
2096921,2096921,164751,704308
2096921,2096921,164421,704245
2096921,2096921,164305,704128
2096921,2096921,164620,704367
2096921,2096921,164647,704514
2096921,2096921,164767,704360
2096921,2096921,164749,704187
2096921,2096921,164701,704337
2096921,2096921,164851,704331
2096921,2096921,164538,704856
2096921,2096921,164770,704786
2096921,2096921,164808,704471
2096921,2096921,164960,704655
2096921,2096921,164744,704625
2096921,2096921,165106,704691
2096921,2096921,164562,704792
2096921,2096921,164671,704644
2096921,2096921,164469,704644
2096921,2096921,164678,704670
2096921,2096921,164734,704793
2096921,2096921,164995,704804
2096921,2096921,164638,704800
2096921,2096921,164751,704732
2096921,2096921,164874,704797
2096921,2096921,164835,704759
2096921,2096921,164765,704803
2096921,2096921,164738,704981
2096921,2096921,164809,704851
2096921,2096921,164955,704853
2096921,2096921,164706,704905
2096921,2096921,164752,705288
2096921,2096921,164428,705282
2096921,2096921,165014,705274
2096921,2096921,164753,705366
2096921,2096921,164802,705113
2096921,2096921,164989,705151
2096921,2096921,165077,705303
2096921,2096921,164911,705094
2096921,2096921,164920,705017
2096921,2096921,165093,705148
2096921,2096921,165048,705198
2096921,2096921,164598,705369
2096921,2096921,164824,705442
2096921,2096921,164851,705375
2096921,2096921,164880,705458
2096921,2096921,164926,705269
2096921,2096921,164459,705313
2096921,2096921,164690,705310
2096921,2096921,165165,705420
2096921,2096921,165038,705527
2096921,2096921,164820,705663
2096921,2096921,164874,705661
2096921,2096921,165081,705472
2096921,2096921,165001,705622
2096921,2096921,165137,705798
2096921,2096921,164868,705442
2096921,2096921,165211,705795
2096921,2096921,165264,705405
2096921,2096921,165252,705494
2096921,2096921,165073,705812
2096921,2096921,165278,705946
2096921,2096921,164931,705847
2096921,2096921,165107,705900
2096921,2096921,165059,706184
2096921,2096921,164868,705938
2096921,2096921,165082,705655
2096921,2096921,165116,705785
2096921,2096921,164855,706119
2096921,2096921,165032,706206
2096921,2096921,165158,705835
2096921,2096921,165142,705897
2096921,2096921,165149,706030
2096921,2096921,165273,706109
2096921,2096921,164947,706380
2096921,2096921,164994,706381
2096921,2096921,165106,705985
2096921,2096921,164974,706187
2096921,2096921,164944,706137
2096921,2096921,164748,706395
2096921,2096921,165035,706208
2096921,2096921,165111,706365
2096921,2096921,165174,705935
2096921,2096921,165009,706230
2096921,2096921,165276,706374
2096921,2096921,165170,706171
2096921,2096921,164988,705854
2096921,2096921,164934,705983
2096921,2096921,164973,706327
2096921,2096921,165222,706153
2096921,2096921,165399,706138
2096921,2096921,165088,706603
2096921,2096921,165055,706422
2096921,2096921,165001,706064
2096921,2096921,165297,706104
2096921,2096921,164992,705941
2096921,2096921,165179,706070
2096921,2096921,165296,705919
2096921,2096921,165208,706102
2096921,2096921,165045,706270
2096921,2096921,165141,706226
2096921,2096921,164875,706275
2096921,2096921,164843,706279
2096921,2096921,165275,706400
2096921,2096921,165221,706384
2096921,2096921,165389,706595
2096921,2096921,165277,706203
2096921,2096921,165258,705887
2096921,2096921,165282,706237
2096921,2096921,165068,706542
2096921,2096921,165559,706446
2096921,2096921,165153,706223
2096921,2096921,165287,706179
2096921,2096921,165311,706434
2096921,2096921,165426,705869
2096921,2096921,165414,706224
2096921,2096921,165262,706370
2096921,2096921,165250,706289
2096921,2096921,165040,706176
2096921,2096921,165222,706334
2096921,2096921,165234,706421
2096921,2096921,165032,706756
2096921,2096921,165442,706542
2096921,2096921,165176,706576
2096921,2096921,165367,706752
2096921,2096921,165094,706258
2096921,2096921,165187,706205
2096921,2096921,165411,706412
2096921,2096921,165442,706372
2096921,2096921,165085,706219
2096921,2096921,165084,706533
2096921,2096921,165018,706584
2096921,2096921,164967,706430
2096921,2096921,165093,706566
2096921,2096921,165460,705753
2096921,2096921,165169,705694
2096921,2096921,165188,705832
2096921,2096921,165167,705734
2096921,2096921,165064,705702
2096921,2096921,164934,705300
2096921,2096921,164616,705529
2096921,2096921,164875,705269
2096921,2096921,165256,705329
2096921,2096921,164828,705383
2096921,2096921,164726,704951
2096921,2096921,164957,704811
2096921,2096921,164565,704734
2096921,2096921,164738,704456
2096921,2096921,164975,704665
2096921,2096921,164460,703407
2096921,2096921,164414,703597
2096921,2096921,164412,703460
2096921,2096921,164631,703527
2096921,2096921,164431,703482
2096921,2096921,164013,702766
2096921,2096921,163759,702405
2096921,2096921,164061,702284
2096921,2096921,164201,702079
2096921,2096921,164097,702213
2096921,2096921,163615,700104
2096921,2096921,163506,699803
2096921,2096921,163357,699341
2096921,2096921,163227,699601
2096921,2096921,163129,699589
2096921,2096921,162528,696739
2096921,2096921,162454,696273
2096921,2096921,162091,695892
2096921,2096921,162207,696074
2096921,2096921,162238,695928
2096921,2096921,161752,694198
2096921,2096921,161506,694062
2096921,2096921,161650,693942
2096921,2096921,161585,694087
2096921,2096921,161830,693785
2096921,2096921,161232,692237
2096921,2096921,161208,691701
2096921,2096921,161177,691595
2096921,2096921,161024,691497
2096921,2096921,161030,691386
2096921,2096921,160728,690598
2096921,2096921,160723,690375
2096921,2096921,160814,690150
2096921,2096921,160696,690256
2096921,2096921,160802,690120
2096921,2096921,160530,689405
2096921,2096921,160782,689114
2096921,2096921,160353,689073
2096921,2096921,160444,689067
2096921,2096921,160387,689465
2096921,2096921,160236,688906
2096921,2096921,160046,688603
2096921,2096921,160255,688722
2096921,2096921,160364,688660
2096921,2096921,160398,688507
2096921,2096921,160274,688035
2096921,2096921,160288,688079
2096921,2096921,159972,688172
2096921,2096921,160254,688081
2096921,2096921,160545,687919
2096921,2096921,160203,688158
2096921,2096921,160325,688143
2096921,2096921,160192,687998
2096921,2096921,160384,688208
2096921,2096921,160143,688268
2096921,2096921,160161,688315
2096921,2096921,160207,688312
2096921,2096921,160060,688186
2096921,2096921,159944,688216
2096921,2096921,160123,688047
2096921,2096921,160381,688536
2096921,2096921,160584,688628
2096921,2096921,160367,688600
2096921,2096921,160333,688724
2096921,2096921,160241,688451
2096921,2096921,160401,688540
2096921,2096921,160288,688686
2096921,2096921,160497,688638
2096921,2096921,160214,688896
2096921,2096921,160192,688927
2096921,2096921,160545,689030
2096921,2096921,160728,689146
2096921,2096921,160585,689234
2096921,2096921,160538,689208
2096921,2096921,160597,688879
2096921,2096921,160494,689418
2096921,2096921,160649,689564
2096921,2096921,160686,689589
2096921,2096921,160498,689933
2096921,2096921,160314,689638
2096921,2096921,160469,690510
2096921,2096921,160844,690123
2096921,2096921,160829,690204
2096921,2096921,160556,690190
2096921,2096921,160760,690013
2096921,2096921,160971,690584
2096921,2096921,160903,691086
2096921,2096921,161070,690971
2096921,2096921,161064,691025
2096921,2096921,160799,690918
2096921,2096921,161026,691065
2096921,2096921,161008,691676
2096921,2096921,161272,691803
2096921,2096921,161190,691692
2096921,2096921,161264,691817
2096921,2096921,161230,692158
2096921,2096921,161400,692520
2096921,2096921,161513,692528
2096921,2096921,161240,692455
2096921,2096921,161353,692653
2096921,2096921,161551,693052
2096921,2096921,161531,693243
2096921,2096921,161214,693173
2096921,2096921,161488,692811
2096921,2096921,161505,693206
2096921,2096921,161674,693815
2096921,2096921,161532,693825
2096921,2096921,161709,693759
2096921,2096921,161570,693959
2096921,2096921,161851,693934
2096921,2096921,161872,694440
2096921,2096921,161851,694582
2096921,2096921,161741,694691
2096921,2096921,161837,694620
2096921,2096921,161994,694291
2096921,2096921,162038,695014
2096921,2096921,162000,695170
2096921,2096921,161983,695471
2096921,2096921,161828,695353
2096921,2096921,162265,695256
2096921,2096921,162326,695494
2096921,2096921,162312,695604
2096921,2096921,162249,695682
2096921,2096921,162414,695774
2096921,2096921,162190,695727
2096921,2096921,162581,696383
2096921,2096921,162415,696380
2096921,2096921,162256,696455
2096921,2096921,162333,696494
2096921,2096921,162618,696394
2096921,2096921,162560,697118
2096921,2096921,162736,696792
2096921,2096921,162786,697029
2096921,2096921,162609,697180
2096921,2096921,162725,697313
2096921,2096921,162934,697594
2096921,2096921,163090,697990
2096921,2096921,162937,697988
2096921,2096921,162831,697911
2096921,2096921,162696,697839
2096921,2096921,162874,698210
2096921,2096921,162801,698468
2096921,2096921,162643,698607
2096921,2096921,163196,698509
2096921,2096921,163005,698463
2096921,2096921,162865,698671
2096921,2096921,162794,698729
2096921,2096921,162947,698807
2096921,2096921,163134,698791
2096921,2096921,163162,698883
2096921,2096921,163141,698996
2096921,2096921,163121,699077
2096921,2096921,163087,699095
2096921,2096921,163212,699082
2096921,2096921,163602,699411
2096921,2096921,163358,699607
2096921,2096921,163399,699805
2096921,2096921,163090,699639
2096921,2096921,163418,699562
2096921,2096921,163232,699754
2096921,2096921,163291,699437
2096921,2096921,163421,699824
2096921,2096921,163652,699623
2096921,2096921,163329,699696
2096921,2096921,163553,699777
2096921,2096921,163540,699644
2096921,2096921,163411,699320
2096921,2096921,163385,699335
2096921,2096921,163160,699332
2096921,2096921,162923,699682
2096921,2096921,163242,699574
2096921,2096921,163261,699599
2096921,2096921,163322,699583
2096921,2096921,163273,699573
2096921,2096921,163237,699345
2096921,2096921,163071,699375
2096921,2096921,163301,699506
2096921,2096921,163276,699549
2096921,2096921,163285,699408
2096921,2096921,163404,699436
2096921,2096921,162951,699450
2096921,2096921,163194,699565
2096921,2096921,163396,699193
2096921,2096921,163119,699581
2096921,2096921,163177,699437
2096921,2096921,163271,699338
2096921,2096921,162966,699045
2096921,2096921,162876,699050
2096921,2096921,163140,698992
2096921,2096921,163208,699241
2096921,2096921,162953,699059
2096921,2096921,163156,698980
2096921,2096921,163131,699166
2096921,2096921,163038,698816
2096921,2096921,163148,698855
2096921,2096921,163293,699178
2096921,2096921,163120,699172
2096921,2096921,163102,698956
2096921,2096921,163089,698996
2096921,2096921,162996,698858
2096921,2096921,163229,699043
2096921,2096921,162984,698999
2096921,2096921,163036,699453
2096921,2096921,163353,699248
2096921,2096921,163284,699208
2096921,2096921,163173,699420
2096921,2096921,163528,699480
2096921,2096921,163168,699362
2096921,2096921,163332,699506
2096921,2096921,163208,699418
2096921,2096921,163446,699340
2096921,2096921,163352,699622
2096921,2096921,163266,699523
2096921,2096921,163038,699575
2096921,2096921,163108,699557
2096921,2096921,163463,699691
2096921,2096921,163487,699689
2096921,2096921,163329,699754
2096921,2096921,163219,699849
2096921,2096921,163392,699731
2096921,2096921,163595,700343
2096921,2096921,163356,700360
2096921,2096921,163383,700868
2096921,2096921,163319,700310
2096921,2096921,163548,700779
2096921,2096921,163586,700660
2096921,2096921,163579,700848
2096921,2096921,163563,701085
2096921,2096921,163887,700913
2096921,2096921,163644,700834
2096921,2096921,163809,701193
2096921,2096921,163627,701316
2096921,2096921,163548,701706
2096921,2096921,163516,701435
2096921,2096921,163493,701701
2096921,2096921,163731,702007
2096921,2096921,163919,702201
2096921,2096921,163907,701731
2096921,2096921,164045,701851
2096921,2096921,163956,701926
2096921,2096921,163903,702260
2096921,2096921,163885,702319
2096921,2096921,164078,702339
2096921,2096921,163827,702402
2096921,2096921,163892,702613
2096921,2096921,164097,702592
2096921,2096921,164007,702930
2096921,2096921,164137,702706
2096921,2096921,164101,702703
2096921,2096921,164065,702614
2096921,2096921,164060,703024
2096921,2096921,164122,703117
2096921,2096921,164177,703412
2096921,2096921,164049,702802
2096921,2096921,164172,703233
2096921,2096921,164291,703609
2096921,2096921,164230,703670
2096921,2096921,164100,703346
2096921,2096921,163926,703440
2096921,2096921,164019,703659
2096921,2096921,164479,704013
2096921,2096921,164682,704371
2096921,2096921,164541,704217
2096921,2096921,164545,704278
2096921,2096921,164451,704583
2096921,2096921,164422,704764
2096921,2096921,164331,704767
2096921,2096921,164611,704851
2096921,2096921,164506,704660
2096921,2096921,164603,704605
2096921,2096921,164767,704829
2096921,2096921,164832,704760
2096921,2096921,164781,704871
2096921,2096921,164876,704783
2096921,2096921,164712,705324
2096921,2096921,164657,705551
2096921,2096921,164739,705744
2096921,2096921,164930,705433
2096921,2096921,164865,705422
2096921,2096921,164697,705335
2096921,2096921,164814,705820
2096921,2096921,164946,705714
2096921,2096921,165140,705862
2096921,2096921,165199,705598
2096921,2096921,164954,705741
2096921,2096921,164932,706035
2096921,2096921,164819,706455
2096921,2096921,165063,706627
2096921,2096921,165117,706279
2096921,2096921,165224,705927
2096921,2096921,164964,706378
2096921,2096921,165075,706553
2096921,2096921,165014,706489
2096921,2096921,165236,706555
2096921,2096921,165131,706757
2096921,2096921,165059,706934
2096921,2096921,165058,707027
2096921,2096921,165085,706997
2096921,2096921,165187,706773
2096921,2096921,164887,706849
2096921,2096921,165040,707295
2096921,2096921,165399,707396
2096921,2096921,165533,707415
2096921,2096921,165541,707322
2096921,2096921,165190,707457
2096921,2096921,165082,707964
2096921,2096921,165308,708091
2096921,2096921,165372,707866
2096921,2096921,165461,707745
2096921,2096921,165592,707910
2096921,2096921,165682,708086
2096921,2096921,165716,708270
2096921,2096921,165415,708159
2096921,2096921,165509,708303
2096921,2096921,165496,708312
2096921,2096921,165606,708518
2096921,2096921,165572,708561
2096921,2096921,165706,708529
2096921,2096921,165730,708470
2096921,2096921,165787,708373
2096921,2096921,165636,708531
2096921,2096921,166083,708507
2096921,2096921,165793,708688
2096921,2096921,165870,708398
2096921,2096921,165732,708582
2096921,2096921,165723,709021
2096921,2096921,165725,708955
2096921,2096921,165736,709269
2096921,2096921,165783,708876
2096921,2096921,165535,709060
2096921,2096921,165733,709179
2096921,2096921,165792,709405
2096921,2096921,165942,709424
2096921,2096921,166183,708984
2096921,2096921,166084,709058
2096921,2096921,165804,709639
2096921,2096921,166009,709609
2096921,2096921,165855,709675
2096921,2096921,165678,709688
2096921,2096921,166033,709630
2096921,2096921,165919,709891
2096921,2096921,166015,709675
2096921,2096921,165799,709890
2096921,2096921,166092,710178
2096921,2096921,165936,710182
2096921,2096921,166072,710278
2096921,2096921,166009,709950
2096921,2096921,165979,710322
2096921,2096921,165796,710046
2096921,2096921,166030,710320
2096921,2096921,166157,710440
2096921,2096921,166177,710503
2096921,2096921,166037,710194
2096921,2096921,166165,710359
2096921,2096921,166038,710096
2096921,2096921,166043,710748
2096921,2096921,166078,710816
2096921,2096921,165903,710630
2096921,2096921,165926,710677
2096921,2096921,166066,710559
2096921,2096921,166013,710620
2096921,2096921,166306,710896
2096921,2096921,166458,711001
2096921,2096921,166527,710684
2096921,2096921,166296,710581
2096921,2096921,166351,711002
2096921,2096921,166148,710938
2096921,2096921,166103,710956
2096921,2096921,165903,711056
2096921,2096921,166305,711096
2096921,2096921,166403,711267
2096921,2096921,166506,711124
2096921,2096921,166714,710893
2096921,2096921,166447,710977
2096921,2096921,166433,711089
2096921,2096921,166485,711239
2096921,2096921,166280,711225
2096921,2096921,166349,711258
2096921,2096921,166323,711363
2096921,2096921,166397,711468
2096921,2096921,166433,711235
2096921,2096921,166420,711361
2096921,2096921,166548,711514
2096921,2096921,166530,711457
2096921,2096921,166487,711429
2096921,2096921,166361,711722
2096921,2096921,166418,711731
2096921,2096921,166610,711645
2096921,2096921,166598,711601
2096921,2096921,166386,711866
2096921,2096921,166420,711889
2096921,2096921,166175,711745
2096921,2096921,166326,711836
2096921,2096921,166662,711839
2096921,2096921,166482,711651
2096921,2096921,166316,711606
2096921,2096921,166309,711777
2096921,2096921,166281,711608
2096921,2096921,166175,712164
2096921,2096921,166609,711890
2096921,2096921,166479,712288
2096921,2096921,166616,712021
2096921,2096921,166662,711981
2096921,2096921,166730,712186
2096921,2096921,166752,712161
2096921,2096921,166484,712176
2096921,2096921,166592,712215
2096921,2096921,166645,711936
2096921,2096921,166764,712272
2096921,2096921,166412,712147
2096921,2096921,166953,712374
2096921,2096921,166880,712540
2096921,2096921,166979,712728
2096921,2096921,166940,712628
2096921,2096921,166998,712242
2096921,2096921,166508,712586
2096921,2096921,166534,712488
2096921,2096921,166831,712219
2096921,2096921,166706,712398
2096921,2096921,166707,712491
2096921,2096921,166565,712864
2096921,2096921,166440,712762
2096921,2096921,166704,712681
2096921,2096921,166837,712749
2096921,2096921,166649,712803
2096921,2096921,166562,712800
2096921,2096921,166697,713045
2096921,2096921,166598,712693
2096921,2096921,166687,712797
2096921,2096921,166998,713101
2096921,2096921,167065,713069
2096921,2096921,166710,712946
2096921,2096921,166940,713198
2096921,2096921,166848,713215
2096921,2096921,166961,713277
2096921,2096921,166867,713301
2096921,2096921,166852,713210
2096921,2096921,166954,712855
2096921,2096921,166947,713224
2096921,2096921,166730,712968
2096921,2096921,166975,712864
2096921,2096921,166914,713108
2096921,2096921,167187,713130
2096921,2096921,166860,713153
2096921,2096921,167102,713415
2096921,2096921,166892,713202
2096921,2096921,166914,712900
2096921,2096921,166914,713025
2096921,2096921,166766,713176
2096921,2096921,166619,713034
2096921,2096921,166818,713066
2096921,2096921,166984,713129
2096921,2096921,166908,712823
2096921,2096921,166869,712998
2096921,2096921,167140,713172
2096921,2096921,166756,713266
2096921,2096921,166641,713272
2096921,2096921,166892,712898
2096921,2096921,166623,713056
2096921,2096921,166905,713008
2096921,2096921,166843,713325
2096921,2096921,167089,713145
2096921,2096921,166841,713063
2096921,2096921,166947,712980
2096921,2096921,167004,713172
2096921,2096921,167216,713037
2096921,2096921,166792,713346
2096921,2096921,166593,713230
2096921,2096921,166578,713230
2096921,2096921,166969,713213
2096921,2096921,166769,712897
2096921,2096921,166844,713144
2096921,2096921,166687,713004
2096921,2096921,166485,713167
2096921,2096921,166613,713369
2096921,2096921,166926,713230
2096921,2096921,166893,712916
2096921,2096921,166826,713045
2096921,2096921,166897,713292
2096921,2096921,166773,713246
2096921,2096921,166826,713233
2096921,2096921,167059,713224
2096921,2096921,166596,713159
2096921,2096921,167071,713278
2096921,2096921,166838,713218
2096921,2096921,166899,712788
2096921,2096921,166609,712569
2096921,2096921,166645,712623
2096921,2096921,166612,712344
2096921,2096921,166975,712388
2096921,2096921,166577,712253
2096921,2096921,166710,712101
2096921,2096921,166637,712354
2096921,2096921,166906,712333
2096921,2096921,166413,712054
2096921,2096921,166338,711678
2096921,2096921,166133,711354
2096921,2096921,166164,711133
2096921,2096921,166384,711171
2096921,2096921,166148,711159
2096921,2096921,166289,710235
2096921,2096921,166019,709978
2096921,2096921,166166,709942
2096921,2096921,165973,710115
2096921,2096921,165984,710080
2096921,2096921,165691,709137
2096921,2096921,165689,708444
2096921,2096921,165416,708767
2096921,2096921,165743,708480
2096921,2096921,165730,708657
2096921,2096921,165183,706394
2096921,2096921,165073,706052
2096921,2096921,165042,705841
2096921,2096921,165024,706107
2096921,2096921,164814,705972
2096921,2096921,164365,703168
2096921,2096921,164005,702553
2096921,2096921,163906,702056
2096921,2096921,164067,702253
2096921,2096921,163988,702108
2096921,2096921,163291,700256
2096921,2096921,163379,699822
2096921,2096921,163240,699722
2096921,2096921,163258,699731
2096921,2096921,163413,699777
2096921,2096921,162974,698359
2096921,2096921,162746,697541
2096921,2096921,162705,697202
2096921,2096921,162798,697231
2096921,2096921,162715,697477
2096921,2096921,162585,696323
2096921,2096921,162281,696229
2096921,2096921,162306,695847
2096921,2096921,161998,696216
2096921,2096921,162213,695986
2096921,2096921,162093,695792
2096921,2096921,161696,694982
2096921,2096921,161904,695064
2096921,2096921,161941,695031
2096921,2096921,161998,695201
2096921,2096921,161509,694940
2096921,2096921,161394,694501
2096921,2096921,161871,694310
2096921,2096921,161642,694426
2096921,2096921,161792,694454
2096921,2096921,161536,694073
2096921,2096921,161628,693924
2096921,2096921,161532,693769
2096921,2096921,161583,693834
2096921,2096921,161405,693770
2096921,2096921,161703,693903
2096921,2096921,161599,694134
2096921,2096921,161858,694036
2096921,2096921,161744,693797
2096921,2096921,161848,693995
2096921,2096921,161591,693814
2096921,2096921,161475,693655
2096921,2096921,161706,693561
2096921,2096921,161464,693658
2096921,2096921,161466,693823
2096921,2096921,161516,694157
2096921,2096921,161702,694174
2096921,2096921,161924,694383
2096921,2096921,161648,694434
2096921,2096921,161813,694125
2096921,2096921,161550,694288
2096921,2096921,161537,694114
2096921,2096921,161471,694051
2096921,2096921,161598,694162
2096921,2096921,161221,694258
2096921,2096921,161838,694276
2096921,2096921,161395,694369
2096921,2096921,161750,694455
2096921,2096921,161638,694605
2096921,2096921,161910,694524
2096921,2096921,161850,694850
2096921,2096921,162052,694772
2096921,2096921,162064,694963
2096921,2096921,162032,694984
2096921,2096921,161848,695150
2096921,2096921,161894,695719
2096921,2096921,162021,695825
2096921,2096921,162500,695684
2096921,2096921,162197,695811
2096921,2096921,162119,695458
2096921,2096921,162367,695965
2096921,2096921,162459,696163
2096921,2096921,162326,696043
2096921,2096921,161976,696329
2096921,2096921,161902,696124
2096921,2096921,162114,696819
2096921,2096921,162275,696675
2096921,2096921,162441,696878
2096921,2096921,162439,696639
2096921,2096921,162337,696859
2096921,2096921,162405,697135
2096921,2096921,162430,697351
2096921,2096921,162552,697461
2096921,2096921,162767,697419
2096921,2096921,162381,697413
2096921,2096921,162474,698154
2096921,2096921,162547,698109
2096921,2096921,162438,698064
2096921,2096921,162676,697996
2096921,2096921,162683,698239
2096921,2096921,163019,698572
2096921,2096921,163033,698521
2096921,2096921,162951,698339
2096921,2096921,163057,698615
2096921,2096921,162831,698483
2096921,2096921,162740,699253
2096921,2096921,162886,699199
2096921,2096921,163010,699222
2096921,2096921,162944,699198
2096921,2096921,162976,699547
2096921,2096921,163191,700045
2096921,2096921,163146,700093
2096921,2096921,163153,699875
2096921,2096921,163197,700008
2096921,2096921,163246,699992
2096921,2096921,163346,700640
2096921,2096921,163517,700525
2096921,2096921,163418,700899
2096921,2096921,163302,700584
2096921,2096921,163159,700719
2096921,2096921,163661,701314
2096921,2096921,163601,701125
2096921,2096921,163711,700971
2096921,2096921,163693,700833
2096921,2096921,163417,700957
2096921,2096921,163944,701600
2096921,2096921,163966,701835
2096921,2096921,163625,701800
2096921,2096921,163774,701690
2096921,2096921,163504,702040
2096921,2096921,163922,702469
2096921,2096921,163894,702363
2096921,2096921,164016,702178
2096921,2096921,163970,702452
2096921,2096921,164077,702192
2096921,2096921,164064,702450
2096921,2096921,164184,702760
2096921,2096921,164228,702695
2096921,2096921,163699,702441
2096921,2096921,163803,702996
2096921,2096921,163889,703116
2096921,2096921,163849,703276
2096921,2096921,164194,703075
2096921,2096921,164093,703200
2096921,2096921,164066,703083
2096921,2096921,164085,703260
2096921,2096921,164239,703180
2096921,2096921,164170,703266
2096921,2096921,164218,703399
2096921,2096921,163933,703341
2096921,2096921,164143,703381
2096921,2096921,164195,703376
2096921,2096921,164203,703533
2096921,2096921,164253,703611
2096921,2096921,164488,703531
2096921,2096921,164388,703636
2096921,2096921,164581,703361
2096921,2096921,164449,703610
2096921,2096921,164266,703416
2096921,2096921,164227,703627
2096921,2096921,164186,703604
2096921,2096921,164136,703619
2096921,2096921,164243,703386
2096921,2096921,164111,703439
2096921,2096921,164255,703258
2096921,2096921,164099,703130
2096921,2096921,164294,703351
2096921,2096921,164012,703415
2096921,2096921,164352,703508
2096921,2096921,164203,702992
2096921,2096921,164024,703266
2096921,2096921,164175,703007
2096921,2096921,164027,703467
2096921,2096921,163977,703040
2096921,2096921,164190,703156
2096921,2096921,164061,702722
2096921,2096921,164078,703043
2096921,2096921,163980,702657
2096921,2096921,164103,702740
2096921,2096921,164212,702952
2096921,2096921,163877,702714
2096921,2096921,163865,702651
2096921,2096921,164125,702619
2096921,2096921,164194,702446
2096921,2096921,164309,702341
2096921,2096921,164135,702468
2096921,2096921,164055,702653
2096921,2096921,164021,702404
2096921,2096921,164118,702478
2096921,2096921,163946,702468
2096921,2096921,163984,702648
2096921,2096921,163940,702142
2096921,2096921,163864,702406
2096921,2096921,163597,702184
2096921,2096921,163868,702725
2096921,2096921,164056,702077
2096921,2096921,164023,702636
2096921,2096921,164270,702252
2096921,2096921,163859,702318
2096921,2096921,164028,702398
2096921,2096921,164039,702367
2096921,2096921,163920,702441
2096921,2096921,164211,702334
2096921,2096921,164156,702434
2096921,2096921,163780,702363
2096921,2096921,164005,702536
2096921,2096921,164127,702678
2096921,2096921,163960,702627
2096921,2096921,164086,702753
2096921,2096921,164012,702653
2096921,2096921,164061,702664
2096921,2096921,164011,702669
2096921,2096921,163636,702449
2096921,2096921,163845,702448
2096921,2096921,164031,702531
2096921,2096921,164025,703173
2096921,2096921,164056,702969
2096921,2096921,164104,703158
2096921,2096921,164152,702971
2096921,2096921,164235,703152
2096921,2096921,164178,703660
2096921,2096921,164241,703752
2096921,2096921,164219,703586
2096921,2096921,164213,703608
2096921,2096921,163860,703737
2096921,2096921,164395,703913
2096921,2096921,164369,704002
2096921,2096921,164526,703629
2096921,2096921,164384,703516
2096921,2096921,164622,703813
2096921,2096921,164581,704128
2096921,2096921,164425,704141
2096921,2096921,164337,704590
2096921,2096921,164516,704245
2096921,2096921,164346,704110
2096921,2096921,164683,704453
2096921,2096921,164462,704835
2096921,2096921,164726,704516
2096921,2096921,164895,705094
2096921,2096921,164537,704954
2096921,2096921,164672,704708
2096921,2096921,164521,704877
2096921,2096921,164628,704896
2096921,2096921,164503,705013
2096921,2096921,164371,705230
2096921,2096921,164425,705163
2096921,2096921,164673,705211
2096921,2096921,165137,705111
2096921,2096921,164603,704849
2096921,2096921,164763,705096
2096921,2096921,164962,705145
2096921,2096921,165020,705508
2096921,2096921,164768,705375
2096921,2096921,164901,705406
2096921,2096921,164944,705561
2096921,2096921,165135,705782
2096921,2096921,165016,705795
2096921,2096921,164655,705896
2096921,2096921,164813,705798
2096921,2096921,164838,706137
2096921,2096921,164643,705790
2096921,2096921,164739,706213
2096921,2096921,164914,705880
2096921,2096921,164733,706138
2096921,2096921,164986,705928
2096921,2096921,165046,706299
2096921,2096921,165022,706468
2096921,2096921,165211,706578
2096921,2096921,165087,706607
2096921,2096921,165120,706581
2096921,2096921,165115,706555
2096921,2096921,165137,706711
2096921,2096921,165173,706360
2096921,2096921,165011,706551
2096921,2096921,165050,706503
2096921,2096921,165251,706902
2096921,2096921,165097,706990
2096921,2096921,165189,707146
2096921,2096921,165178,707298
2096921,2096921,164997,707199
2096921,2096921,164982,707327
2096921,2096921,165018,707208
2096921,2096921,165162,707008
2096921,2096921,165167,707362
2096921,2096921,165085,707006
2096921,2096921,165167,707501
2096921,2096921,165428,707349
2096921,2096921,165550,707467
2096921,2096921,165519,707318
2096921,2096921,165234,707860
2096921,2096921,165417,707715
2096921,2096921,165577,707895
2096921,2096921,165303,707626
2096921,2096921,165446,707703
2096921,2096921,165381,707449
2096921,2096921,165258,708055
2096921,2096921,165553,707848
2096921,2096921,165444,707779
2096921,2096921,165331,707993
2096921,2096921,165431,707818
2096921,2096921,165591,707966
2096921,2096921,165212,708068
2096921,2096921,165478,707858
2096921,2096921,165421,707953
2096921,2096921,165389,707923
2096921,2096921,165214,708219
2096921,2096921,165523,708181
2096921,2096921,165609,708358
2096921,2096921,165804,708238
2096921,2096921,165647,708232
2096921,2096921,165826,708410
2096921,2096921,165592,708415
2096921,2096921,165248,708450
2096921,2096921,165477,708546
2096921,2096921,165750,708107
2096921,2096921,165791,708192
2096921,2096921,165754,708558
2096921,2096921,165663,708652
2096921,2096921,165804,708686
2096921,2096921,165756,708618
2096921,2096921,165807,708921
2096921,2096921,165777,708782
2096921,2096921,165735,708701
2096921,2096921,165886,708529
2096921,2096921,165597,708541
2096921,2096921,165548,708723
2096921,2096921,165776,708779
2096921,2096921,165645,708889
2096921,2096921,165865,709011
2096921,2096921,165872,709000
2096921,2096921,166149,709196
2096921,2096921,165870,708862
2096921,2096921,165978,708640
2096921,2096921,165634,709206
2096921,2096921,165720,708888
2096921,2096921,165638,709299
2096921,2096921,165858,709547
2096921,2096921,166117,709080
2096921,2096921,165752,709222
2096921,2096921,165872,709367
2096921,2096921,166095,709188
2096921,2096921,165882,708990
2096921,2096921,166065,709357
2096921,2096921,165611,709340
2096921,2096921,165657,709299
2096921,2096921,165867,709277
2096921,2096921,165811,709386
2096921,2096921,165754,709202
2096921,2096921,165634,709444
2096921,2096921,166010,709402
2096921,2096921,166021,709617
2096921,2096921,165703,709264
2096921,2096921,165626,709569
2096921,2096921,166006,709399
2096921,2096921,165949,709211
2096921,2096921,165847,709450
2096921,2096921,165990,709813
2096921,2096921,165724,709590
2096921,2096921,165685,709576
2096921,2096921,165706,709519
2096921,2096921,166043,709494
2096921,2096921,166069,709392
2096921,2096921,165657,709323
2096921,2096921,165842,709424
2096921,2096921,165955,709823
2096921,2096921,166151,709706
2096921,2096921,166023,709708
2096921,2096921,166094,709495
2096921,2096921,166293,709692
2096921,2096921,166183,709768
2096921,2096921,165930,709644
2096921,2096921,165844,709443
2096921,2096921,165944,709644
2096921,2096921,165809,709650
2096921,2096921,165586,709866
2096921,2096921,165676,709710
2096921,2096921,165835,709606
2096921,2096921,165562,709415
2096921,2096921,165993,709585
2096921,2096921,165994,709758
2096921,2096921,166233,709630
2096921,2096921,166044,709682
2096921,2096921,165847,710025
2096921,2096921,165930,709818
2096921,2096921,165804,710042
2096921,2096921,165871,709988
2096921,2096921,165786,709941
2096921,2096921,165987,709991
2096921,2096921,165816,709847
2096921,2096921,166150,710171
2096921,2096921,166025,710229
2096921,2096921,166191,709766
2096921,2096921,166081,709529
2096921,2096921,165865,709751
2096921,2096921,166014,709771
2096921,2096921,166084,709492
2096921,2096921,166109,709592
2096921,2096921,166062,709911
2096921,2096921,165793,710109
2096921,2096921,166110,709777
2096921,2096921,165864,709844
2096921,2096921,166004,709811
2096921,2096921,166013,709592
2096921,2096921,166026,709794
2096921,2096921,166080,710028
2096921,2096921,166156,709924
2096921,2096921,166040,709891
2096921,2096921,166105,709989
2096921,2096921,165858,709906
2096921,2096921,166211,710160
2096921,2096921,166225,710183
2096921,2096921,165960,709947
2096921,2096921,166138,709883
2096921,2096921,166257,709740
2096921,2096921,166035,709775
2096921,2096921,166127,709953
2096921,2096921,166298,710066
2096921,2096921,166351,709891
2096921,2096921,166225,709811
2096921,2096921,166001,709941
2096921,2096921,165873,709902
2096921,2096921,166088,709800
2096921,2096921,166064,709740
2096921,2096921,165920,709735
2096921,2096921,165856,709770
2096921,2096921,165929,709998
2096921,2096921,165763,710282
2096921,2096921,166010,710290
2096921,2096921,166203,709802
2096921,2096921,166249,710064
2096921,2096921,166197,709800
2096921,2096921,166098,709908
2096921,2096921,165946,709814
2096921,2096921,166175,709690
2096921,2096921,165844,709900
2096921,2096921,166110,710039
2096921,2096921,166053,709894
2096921,2096921,166121,710000
2096921,2096921,165876,709937
2096921,2096921,166126,709942
2096921,2096921,165962,709685
2096921,2096921,165992,709656
2096921,2096921,166035,709441
2096921,2096921,166059,709468
2096921,2096921,165862,709464
2096921,2096921,166016,709592
2096921,2096921,165995,709636
2096921,2096921,166030,709739
2096921,2096921,166162,709427
2096921,2096921,166254,709740
2096921,2096921,165853,709495
2096921,2096921,165630,709402
2096921,2096921,165870,709483
2096921,2096921,166005,709784
2096921,2096921,166006,709377
2096921,2096921,165811,709432
2096921,2096921,165615,709234
2096921,2096921,165988,709173
2096921,2096921,165715,709279
2096921,2096921,165611,709575
2096921,2096921,165903,709342
2096921,2096921,165737,709364
2096921,2096921,165562,709140
2096921,2096921,165637,709279
2096921,2096921,165930,709026
2096921,2096921,165981,709229
2096921,2096921,166209,709191
2096921,2096921,166076,709158
2096921,2096921,165855,709318
2096921,2096921,166062,709430
2096921,2096921,165878,709069
2096921,2096921,165848,709264
2096921,2096921,165689,709003
2096921,2096921,165629,709243
2096921,2096921,165833,709529
2096921,2096921,165825,709097
2096921,2096921,166009,709156
2096921,2096921,165872,709227
2096921,2096921,166001,709144
2096921,2096921,166105,709061
2096921,2096921,165892,708395
2096921,2096921,165535,708275
2096921,2096921,165527,708191
2096921,2096921,165596,708388
2096921,2096921,165517,708559
2096921,2096921,165562,707983
2096921,2096921,165356,707859
2096921,2096921,165514,707578
2096921,2096921,165520,707892
2096921,2096921,165860,707521
2096921,2096921,165360,706671
2096921,2096921,165210,706716
2096921,2096921,165290,706473
2096921,2096921,165459,706483
2096921,2096921,165413,706645
2096921,2096921,165052,705824
2096921,2096921,165030,705784
2096921,2096921,164673,705478
2096921,2096921,164790,705656
2096921,2096921,164793,705507
2096921,2096921,164393,704359
2096921,2096921,164636,703947
2096921,2096921,164645,703811
2096921,2096921,164817,704077
2096921,2096921,164693,704007
2096921,2096921,163890,701776
2096921,2096921,163686,701423
2096921,2096921,163367,701211
2096921,2096921,163394,700808
2096921,2096921,163518,700992
2096921,2096921,162903,698027
2096921,2096921,162618,697500
2096921,2096921,162727,697402
2096921,2096921,162539,697221
2096921,2096921,162436,697476
2096921,2096921,161837,695606
2096921,2096921,161982,695629
2096921,2096921,162293,695279
2096921,2096921,162115,695236
2096921,2096921,161981,695158
2096921,2096921,161401,693567
2096921,2096921,161471,693003
2096921,2096921,161200,692815
2096921,2096921,161276,692881
2096921,2096921,161486,692888
2096921,2096921,161064,691927
2096921,2096921,160833,691640
2096921,2096921,160893,691374
2096921,2096921,161236,691466
2096921,2096921,161001,691397
2096921,2096921,160808,690622
2096921,2096921,160819,690063
2096921,2096921,160826,690291
2096921,2096921,160567,690151
2096921,2096921,160723,690258
2096921,2096921,160406,689357
2096921,2096921,160480,689314
2096921,2096921,160415,689052
2096921,2096921,160507,689567
2096921,2096921,160484,689539
2096921,2096921,160412,689091
2096921,2096921,160272,688992
2096921,2096921,160254,689181
2096921,2096921,160304,688672
2096921,2096921,160517,688663
2096921,2096921,160360,688526
2096921,2096921,160500,688567
2096921,2096921,160125,688439
2096921,2096921,160048,688611
2096921,2096921,160160,688507
2096921,2096921,160149,688475
2096921,2096921,160218,688525
2096921,2096921,160385,688474
2096921,2096921,160290,688388
2096921,2096921,159980,688516
2096921,2096921,160219,688669
2096921,2096921,160243,688479
2096921,2096921,160311,688744
2096921,2096921,160274,688994
2096921,2096921,160464,688960
2096921,2096921,160271,688818
2096921,2096921,160434,689076
2096921,2096921,160075,688843
2096921,2096921,160016,688979
2096921,2096921,160330,688794
2096921,2096921,160264,689149
2096921,2096921,160152,689003
2096921,2096921,160463,689015
2096921,2096921,160350,688783
2096921,2096921,160458,689059
2096921,2096921,160456,689441
2096921,2096921,160631,689607
2096921,2096921,160239,689151
2096921,2096921,160464,689466
2096921,2096921,160680,689412
2096921,2096921,160880,689984
2096921,2096921,160719,689873
2096921,2096921,161015,690092
2096921,2096921,160935,689961
2096921,2096921,160717,690169
2096921,2096921,160663,690422
2096921,2096921,160613,689987
2096921,2096921,160685,690478
2096921,2096921,160942,690302
2096921,2096921,160838,690328
2096921,2096921,161201,690707
2096921,2096921,161009,690949
2096921,2096921,160969,691288
2096921,2096921,160977,690977
2096921,2096921,161127,691087
2096921,2096921,161138,691430
2096921,2096921,161340,691649
2096921,2096921,161108,691672
2096921,2096921,161317,691650
2096921,2096921,161293,691540
2096921,2096921,161636,692269
2096921,2096921,161241,692085
2096921,2096921,161160,692279
2096921,2096921,161201,692052
2096921,2096921,161242,692070
2096921,2096921,161421,692376
2096921,2096921,160982,692786
2096921,2096921,161138,692511
2096921,2096921,161182,692875
2096921,2096921,161052,692637
2096921,2096921,161621,693056
2096921,2096921,161318,693074
2096921,2096921,161351,692978
2096921,2096921,161740,692960
2096921,2096921,161237,693125
2096921,2096921,161543,693696
2096921,2096921,161534,693831
2096921,2096921,161374,693859
2096921,2096921,161630,694146
2096921,2096921,161705,693614
2096921,2096921,162117,694110
2096921,2096921,161829,694245
2096921,2096921,162090,694411
2096921,2096921,161962,694320
2096921,2096921,161950,694248
2096921,2096921,161825,694908
2096921,2096921,162016,694566
2096921,2096921,162122,694849
2096921,2096921,162174,694566
2096921,2096921,162121,694986
2096921,2096921,162105,695549
2096921,2096921,162316,695641
2096921,2096921,162090,695624
2096921,2096921,162208,695211
2096921,2096921,162333,695539
2096921,2096921,162183,695783
2096921,2096921,162344,696066
2096921,2096921,162391,696086
2096921,2096921,162431,695576
2096921,2096921,162287,695912
2096921,2096921,162430,696436
2096921,2096921,162177,696322
2096921,2096921,162462,696514
2096921,2096921,162613,696258
2096921,2096921,162409,696437
2096921,2096921,162614,696564
2096921,2096921,162444,696710
2096921,2096921,162448,696731
2096921,2096921,162412,696836
2096921,2096921,162535,696877
2096921,2096921,162602,696851
2096921,2096921,162755,697055
2096921,2096921,162412,696773
2096921,2096921,162668,696505
2096921,2096921,162449,696999
2096921,2096921,162415,696845
2096921,2096921,162719,696912
2096921,2096921,162509,696893
2096921,2096921,162265,697041
2096921,2096921,162539,696885
2096921,2096921,162635,696954
2096921,2096921,162801,697021
2096921,2096921,162856,697177
2096921,2096921,162895,697018
2096921,2096921,162466,697291
2096921,2096921,162599,696855
2096921,2096921,162456,697081
2096921,2096921,162754,697004
2096921,2096921,162508,696803
2096921,2096921,162664,696826
2096921,2096921,162372,696556
2096921,2096921,162639,696492
2096921,2096921,162383,696931
2096921,2096921,162755,696753
2096921,2096921,162684,696633
2096921,2096921,162579,696235
2096921,2096921,162517,696409
2096921,2096921,162610,696177
2096921,2096921,162354,696277
2096921,2096921,162393,696389
2096921,2096921,162487,696187
2096921,2096921,162459,696123
2096921,2096921,162066,695984
2096921,2096921,162317,696317
2096921,2096921,162593,696598
2096921,2096921,162698,695964
2096921,2096921,162333,696025
2096921,2096921,162539,695965
2096921,2096921,162542,695903
2096921,2096921,162194,695845
2096921,2096921,162295,696000
2096921,2096921,162217,695791
2096921,2096921,162118,695962
2096921,2096921,162249,696288
2096921,2096921,162312,695774
2096921,2096921,162349,695877
2096921,2096921,162240,695699
2096921,2096921,162623,695658
2096921,2096921,162496,695693
2096921,2096921,162362,695713
2096921,2096921,162201,695542
2096921,2096921,162300,695676
2096921,2096921,162224,695809
2096921,2096921,162245,695619
2096921,2096921,162497,695675
2096921,2096921,162396,696024
2096921,2096921,162233,695849
2096921,2096921,162347,695617
2096921,2096921,162053,695731
2096921,2096921,162123,695760
2096921,2096921,162218,695901
2096921,2096921,162222,695885
2096921,2096921,162287,696014
2096921,2096921,162329,695976
2096921,2096921,162325,695901
2096921,2096921,162383,696074
2096921,2096921,162133,695938
2096921,2096921,162184,696143
2096921,2096921,162152,695803
2096921,2096921,162227,695706
2096921,2096921,162391,696211
2096921,2096921,162526,696272
2096921,2096921,162296,696202
2096921,2096921,162465,696260
2096921,2096921,162518,696232
2096921,2096921,162486,696947
2096921,2096921,162359,697047
2096921,2096921,162556,696756
2096921,2096921,162836,696732
2096921,2096921,162698,697040
2096921,2096921,162904,697146
2096921,2096921,162712,697345
2096921,2096921,162497,697049
2096921,2096921,162711,697335
2096921,2096921,162713,697225
2096921,2096921,162649,697730
2096921,2096921,162608,698013
2096921,2096921,162544,697857
2096921,2096921,162781,697797
2096921,2096921,162542,697799
2096921,2096921,163039,697740
2096921,2096921,162974,698138
2096921,2096921,162994,698020
2096921,2096921,163030,698131
2096921,2096921,162984,698001
2096921,2096921,162722,698241
2096921,2096921,162820,698598
2096921,2096921,162727,698375
2096921,2096921,163207,698535
2096921,2096921,162990,698509
2096921,2096921,162902,698750
2096921,2096921,163033,698769
2096921,2096921,163185,698801
2096921,2096921,163170,698932
2096921,2096921,163249,698842
2096921,2096921,163230,699119
2096921,2096921,163280,698848
2096921,2096921,163067,698839
2096921,2096921,163023,699047
2096921,2096921,163006,699153
2096921,2096921,163327,699563
2096921,2096921,163314,699554
2096921,2096921,163371,699576
2096921,2096921,163447,699400
2096921,2096921,163461,699514
2096921,2096921,163202,699735
2096921,2096921,163227,700004
2096921,2096921,163472,699938
2096921,2096921,163384,699810
2096921,2096921,163563,699960
2096921,2096921,163514,699918
2096921,2096921,163395,700142
2096921,2096921,163204,700208
2096921,2096921,163702,700324
2096921,2096921,163596,700430
2096921,2096921,163381,700566
2096921,2096921,163437,700453
2096921,2096921,163586,700387
2096921,2096921,163488,700426
2096921,2096921,163581,700495
2096921,2096921,163489,701113
2096921,2096921,163555,700876
2096921,2096921,163516,700918
2096921,2096921,163554,700652
2096921,2096921,163876,700743
2096921,2096921,163936,701066
2096921,2096921,163881,701208
2096921,2096921,163881,701104
2096921,2096921,163582,701469
2096921,2096921,163920,701210
2096921,2096921,163909,701211
2096921,2096921,163848,701303
2096921,2096921,163536,701255
2096921,2096921,163832,701218
2096921,2096921,163936,701395
2096921,2096921,164114,701746
2096921,2096921,163966,701761
2096921,2096921,164062,701493
2096921,2096921,164099,701494
2096921,2096921,164129,701515
2096921,2096921,164002,701746
2096921,2096921,164136,701885
2096921,2096921,164017,702327
2096921,2096921,163939,702131
2096921,2096921,163912,702253
2096921,2096921,164189,702199
2096921,2096921,163826,702188
2096921,2096921,164065,702010
2096921,2096921,164077,702791
2096921,2096921,164271,702422
2096921,2096921,164041,702477
2096921,2096921,164192,702630
2096921,2096921,164159,702877
2096921,2096921,164145,702800
2096921,2096921,164236,702898
2096921,2096921,164326,702966
2096921,2096921,164335,703028
2096921,2096921,164486,703026
2096921,2096921,164078,702873
2096921,2096921,164439,702968
2096921,2096921,164471,702887
2096921,2096921,164409,703004
2096921,2096921,164296,703275
2096921,2096921,164588,703139
2096921,2096921,164144,702970
2096921,2096921,164381,703388
2096921,2096921,164300,703359
2096921,2096921,164449,703124
2096921,2096921,164714,703199
2096921,2096921,164774,703228
2096921,2096921,164765,703284
2096921,2096921,164667,703324
2096921,2096921,164726,703725
2096921,2096921,164645,703454
2096921,2096921,164629,703716
2096921,2096921,164681,703932
2096921,2096921,164744,703797
2096921,2096921,164640,703449
2096921,2096921,164412,703630
2096921,2096921,164455,703628
2096921,2096921,164352,704184
2096921,2096921,164730,703954
2096921,2096921,164948,703951
2096921,2096921,164694,703813
2096921,2096921,164661,703987
2096921,2096921,164557,704123
2096921,2096921,164666,704013
2096921,2096921,164419,703836
2096921,2096921,164640,703952
2096921,2096921,164750,704178
2096921,2096921,164745,704362
2096921,2096921,164722,704378
2096921,2096921,164661,704507
2096921,2096921,164779,704273
2096921,2096921,164551,704500
2096921,2096921,165037,704517
2096921,2096921,164765,704301
2096921,2096921,164468,704450
2096921,2096921,164630,704443
2096921,2096921,164769,704485
2096921,2096921,164759,704468
2096921,2096921,165264,704401
2096921,2096921,164835,704652
2096921,2096921,164596,704821
2096921,2096921,164642,704620
2096921,2096921,164924,704676
2096921,2096921,164775,704659
2096921,2096921,164550,704766
2096921,2096921,164598,704756
2096921,2096921,164548,704820
2096921,2096921,164876,704699
2096921,2096921,164828,704812
2096921,2096921,164850,704729
2096921,2096921,164966,704740
2096921,2096921,164794,704686
2096921,2096921,164733,704724
2096921,2096921,164513,704828
2096921,2096921,164648,705002
2096921,2096921,164507,705041
2096921,2096921,164895,705056
2096921,2096921,164828,705262
2096921,2096921,164817,704999
2096921,2096921,164768,705065
2096921,2096921,164847,705343
2096921,2096921,164625,705007
2096921,2096921,164684,705011
2096921,2096921,164714,705245
2096921,2096921,164814,705249
2096921,2096921,165051,705269
2096921,2096921,164881,705657
2096921,2096921,164966,705591
2096921,2096921,165011,705433
2096921,2096921,165000,705494
2096921,2096921,164714,705280
2096921,2096921,165055,705384
2096921,2096921,164867,705329
2096921,2096921,164901,705451
2096921,2096921,164986,705443
2096921,2096921,164598,705151
2096921,2096921,164528,705592
2096921,2096921,164874,705491
2096921,2096921,164940,705329
2096921,2096921,165045,705690
2096921,2096921,164928,705313
2096921,2096921,165160,705637
2096921,2096921,164772,705244
2096921,2096921,164915,705700
2096921,2096921,165152,705507
2096921,2096921,165052,705616
2096921,2096921,164859,705406
2096921,2096921,164945,705417
2096921,2096921,165186,705849
2096921,2096921,164905,705612
2096921,2096921,164963,705557
2096921,2096921,164837,705984
2096921,2096921,164974,706131
2096921,2096921,164827,705928
2096921,2096921,165091,705961
2096921,2096921,165400,705946
2096921,2096921,165229,705740
2096921,2096921,165217,705982
2096921,2096921,164840,705852
2096921,2096921,165074,705932
2096921,2096921,164894,706385
2096921,2096921,165060,706083
2096921,2096921,164637,706068
2096921,2096921,164837,706222
2096921,2096921,165048,706213
2096921,2096921,164710,705679
2096921,2096921,164997,706069
2096921,2096921,165230,705965
2096921,2096921,165253,705836
2096921,2096921,165018,706230
2096921,2096921,165118,706259
2096921,2096921,165369,706227
2096921,2096921,164962,706235
2096921,2096921,164961,706551
2096921,2096921,165067,706165
2096921,2096921,164941,706304
2096921,2096921,165125,706272
2096921,2096921,165035,706240
2096921,2096921,164938,706238
2096921,2096921,165547,706073
2096921,2096921,165340,706233
2096921,2096921,165132,706053
2096921,2096921,165183,706152
2096921,2096921,165226,706037
2096921,2096921,165218,705920
2096921,2096921,165185,705805
2096921,2096921,165191,705985
2096921,2096921,165075,706424
2096921,2096921,165178,706290
2096921,2096921,165211,706391
2096921,2096921,165018,706463
2096921,2096921,165103,706463
2096921,2096921,164912,706186
2096921,2096921,164721,706280
2096921,2096921,165467,706320
2096921,2096921,165425,706433
2096921,2096921,165362,706156
2096921,2096921,165161,706423
2096921,2096921,165171,706477
2096921,2096921,164858,706361
2096921,2096921,165049,706525
2096921,2096921,165201,706306
2096921,2096921,165019,706322
2096921,2096921,165132,706208
2096921,2096921,165186,706035
2096921,2096921,165029,706141
2096921,2096921,164947,706141
2096921,2096921,165284,706251
2096921,2096921,165410,706259
2096921,2096921,165504,706617
2096921,2096921,165337,706155
2096921,2096921,165234,706393
2096921,2096921,165002,706353
2096921,2096921,164996,706544
2096921,2096921,164846,706605
2096921,2096921,165162,706901
2096921,2096921,165482,706202
2096921,2096921,165264,706511
2096921,2096921,165414,706619
2096921,2096921,165097,706521
2096921,2096921,165364,706308
2096921,2096921,165287,706493
2096921,2096921,165063,706241
2096921,2096921,164975,706057
2096921,2096921,165123,705804
2096921,2096921,165169,705864
2096921,2096921,164980,706039
2096921,2096921,165098,705297
2096921,2096921,165144,705383
2096921,2096921,164732,705462
2096921,2096921,164964,705426
2096921,2096921,165075,705368
2096921,2096921,164965,704664
2096921,2096921,164535,704547
2096921,2096921,164808,704347
2096921,2096921,164639,704587
2096921,2096921,164665,704416
2096921,2096921,164427,703854
2096921,2096921,164539,703510
2096921,2096921,164374,703477
2096921,2096921,164589,703461
2096921,2096921,164530,703507
2096921,2096921,164031,702536
2096921,2096921,163950,702305
2096921,2096921,164096,702147
2096921,2096921,163879,702237
2096921,2096921,163928,701979
2096921,2096921,163200,700000
2096921,2096921,163288,699451
2096921,2096921,163064,699256
2096921,2096921,163225,699371
2096921,2096921,163345,699666
2096921,2096921,162478,697184
2096921,2096921,162591,696368
2096921,2096921,162571,696338
2096921,2096921,162096,696141
2096921,2096921,162338,696102
2096921,2096921,161455,694015
2096921,2096921,161723,693822
2096921,2096921,161498,693642
2096921,2096921,161485,693536
2096921,2096921,161730,693290
2096921,2096921,161326,692115
2096921,2096921,161041,691537
2096921,2096921,160691,691440
2096921,2096921,161162,691435
2096921,2096921,161165,691732
2096921,2096921,161004,690482
2096921,2096921,160803,690360
2096921,2096921,160802,689998
2096921,2096921,160545,690337
2096921,2096921,160661,690113
2096921,2096921,160262,688990
2096921,2096921,160384,689142
2096921,2096921,160742,689069
2096921,2096921,160592,689011
2096921,2096921,160692,689079
2096921,2096921,160379,688593
2096921,2096921,160109,688785
2096921,2096921,160192,688308
2096921,2096921,160144,688681
2096921,2096921,160295,688616
2096921,2096921,160077,688150
2096921,2096921,160109,687806
2096921,2096921,160241,687928
2096921,2096921,160166,687857
2096921,2096921,160298,688120
2096921,2096921,160038,688064
2096921,2096921,160057,688028
2096921,2096921,160220,687886
2096921,2096921,160006,687787
2096921,2096921,159893,687772
2096921,2096921,159948,687833
2096921,2096921,160159,687730
2096921,2096921,160041,687854
2096921,2096921,160349,688049
2096921,2096921,160030,688372
2096921,2096921,160035,688412
2096921,2096921,160385,688445
2096921,2096921,160005,688087
2096921,2096921,160262,688517
2096921,2096921,160385,688493
2096921,2096921,160402,688468
2096921,2096921,160320,688892
2096921,2096921,160365,688691
2096921,2096921,160286,688656
2096921,2096921,160233,688492
2096921,2096921,160356,688961
2096921,2096921,160353,689034
2096921,2096921,160667,689073
2096921,2096921,160225,688927
2096921,2096921,160399,688839
2096921,2096921,160497,689252
2096921,2096921,160260,689704
2096921,2096921,160445,689502
2096921,2096921,160598,689310
2096921,2096921,160558,689607
2096921,2096921,160870,690081
2096921,2096921,160879,690209
2096921,2096921,160714,690300
2096921,2096921,160890,690219
2096921,2096921,160836,690202
2096921,2096921,160734,690732
2096921,2096921,160842,690751
2096921,2096921,160793,690494
2096921,2096921,161082,690902
2096921,2096921,160996,690718
2096921,2096921,161251,691202
2096921,2096921,161180,691587
2096921,2096921,160910,691367
2096921,2096921,160870,691613
2096921,2096921,161193,691567
2096921,2096921,160961,692257
2096921,2096921,161312,692336
2096921,2096921,161287,692043
2096921,2096921,161261,692098
2096921,2096921,161238,692181
2096921,2096921,161599,692646
2096921,2096921,161418,692828
2096921,2096921,161697,692858
2096921,2096921,161494,692854
2096921,2096921,161668,693144
2096921,2096921,161740,693577
2096921,2096921,161396,693654
2096921,2096921,161604,693754
2096921,2096921,161579,693641
2096921,2096921,161493,693387
2096921,2096921,161518,694103
2096921,2096921,162046,694215
2096921,2096921,161938,694031
2096921,2096921,161756,694162
2096921,2096921,161636,694245
2096921,2096921,161772,694759
2096921,2096921,162093,694957
2096921,2096921,162124,694680
2096921,2096921,162103,694808
2096921,2096921,161925,694652
2096921,2096921,162247,695488
2096921,2096921,162064,695827
2096921,2096921,162232,695809
2096921,2096921,162259,695723
2096921,2096921,162188,695699
2096921,2096921,162333,696416
2096921,2096921,162441,696528
2096921,2096921,162174,696287
2096921,2096921,162115,696418
2096921,2096921,162184,696480
2096921,2096921,162443,697092
2096921,2096921,162441,697269
2096921,2096921,162509,697078
2096921,2096921,162360,697078
2096921,2096921,162622,696875
2096921,2096921,162751,697375
2096921,2096921,162596,697703
2096921,2096921,162907,697503
2096921,2096921,162743,697528
2096921,2096921,162636,697626
2096921,2096921,162749,698313
2096921,2096921,163040,697973
2096921,2096921,162865,698267
2096921,2096921,162705,698379
2096921,2096921,162659,698272
2096921,2096921,162929,698285
2096921,2096921,162938,698394
2096921,2096921,162835,698634
2096921,2096921,162901,698787
2096921,2096921,163042,698788
2096921,2096921,163057,698897
2096921,2096921,163275,698973
2096921,2096921,163063,698805
2096921,2096921,163245,699150
2096921,2096921,163234,699013
2096921,2096921,163163,699038
2096921,2096921,163043,699089
2096921,2096921,163246,699330
2096921,2096921,163038,699125
2096921,2096921,162977,699167
2096921,2096921,163069,699500
2096921,2096921,163191,699582
2096921,2096921,163143,699392
2096921,2096921,163261,699294
2096921,2096921,163192,699430
2096921,2096921,163489,699517
2096921,2096921,163255,699538
2096921,2096921,163222,699261
2096921,2096921,163412,699374
2096921,2096921,163414,699196
2096921,2096921,163125,699458
2096921,2096921,163578,699795
2096921,2096921,163098,699428
2096921,2096921,163054,699231
2096921,2096921,163007,699306
2096921,2096921,163353,699269
2096921,2096921,163173,699471
2096921,2096921,163247,699119
2096921,2096921,163627,699185
2096921,2096921,163070,699185
2096921,2096921,163289,699058
2096921,2096921,162958,699281
2096921,2096921,162932,699374
2096921,2096921,163204,699210
2096921,2096921,162712,699562
2096921,2096921,162832,699060
2096921,2096921,163234,698956
2096921,2096921,163325,699279
2096921,2096921,163327,698999
2096921,2096921,162903,699050
2096921,2096921,163062,699024
2096921,2096921,163177,699294
2096921,2096921,163305,698946
2096921,2096921,163102,699002
2096921,2096921,163061,698822
2096921,2096921,162798,699277
2096921,2096921,162948,699079
2096921,2096921,163264,699111
2096921,2096921,163025,698988
2096921,2096921,162941,698963
2096921,2096921,163193,698593
2096921,2096921,163356,699120
2096921,2096921,163142,699011
2096921,2096921,162929,698979
2096921,2096921,163017,698824
2096921,2096921,163019,699228
2096921,2096921,162964,699542
2096921,2096921,163163,699162
2096921,2096921,163132,699024
2096921,2096921,162999,699260
2096921,2096921,163085,699667
2096921,2096921,163330,699457
2096921,2096921,163191,699449
2096921,2096921,163435,699204
2096921,2096921,163341,699416
2096921,2096921,163365,699693
2096921,2096921,163007,699765
2096921,2096921,163069,699857
2096921,2096921,163043,699656
2096921,2096921,163249,699535
2096921,2096921,163233,700110
2096921,2096921,163545,700309
2096921,2096921,163425,700211
2096921,2096921,163492,700085
2096921,2096921,163175,700227
2096921,2096921,163469,700802
2096921,2096921,163493,701128
2096921,2096921,163408,700869
2096921,2096921,163647,700753
2096921,2096921,163536,700891
2096921,2096921,163688,701348
2096921,2096921,163541,701411
2096921,2096921,163822,701261
2096921,2096921,163861,701327
2096921,2096921,164028,701222
2096921,2096921,163703,701708
2096921,2096921,163826,701650
2096921,2096921,163827,701788
2096921,2096921,163726,701442
2096921,2096921,163740,701734
2096921,2096921,163753,702370
2096921,2096921,163757,702364
2096921,2096921,163817,702364
2096921,2096921,163711,702510
2096921,2096921,164068,702543
2096921,2096921,164056,702730
2096921,2096921,164217,702812
2096921,2096921,164230,702687
2096921,2096921,164254,702443
2096921,2096921,163897,702796
2096921,2096921,164348,703321
2096921,2096921,164122,703162
2096921,2096921,164557,703368
2096921,2096921,164338,703453
2096921,2096921,164172,703283
2096921,2096921,164241,703655
2096921,2096921,164301,703440
2096921,2096921,164336,703679
2096921,2096921,164477,703634
2096921,2096921,164536,703607
2096921,2096921,164653,703982
2096921,2096921,164372,704059
2096921,2096921,164239,704199
2096921,2096921,164616,704005
2096921,2096921,164563,703945
2096921,2096921,164440,704640
2096921,2096921,164502,704426
2096921,2096921,164680,704619
2096921,2096921,164695,704786
2096921,2096921,164683,704749
2096921,2096921,164597,704858
2096921,2096921,164620,704735
2096921,2096921,164746,704842
2096921,2096921,164519,705086
2096921,2096921,164749,704960
2096921,2096921,164885,704948
2096921,2096921,164742,705217
2096921,2096921,164401,705282
2096921,2096921,164338,705375
2096921,2096921,164673,705142
2096921,2096921,164877,705649
2096921,2096921,164923,705792
2096921,2096921,164984,705905
2096921,2096921,165380,705932
2096921,2096921,165184,705990
2096921,2096921,165350,706376
2096921,2096921,165107,706226
2096921,2096921,165011,706066
2096921,2096921,165224,706043
2096921,2096921,164961,706467
2096921,2096921,165114,706592
2096921,2096921,165242,706492
2096921,2096921,165346,706888
2096921,2096921,165405,706714
2096921,2096921,165435,706849
2096921,2096921,165197,706737
2096921,2096921,165106,707135
2096921,2096921,165206,706883
2096921,2096921,164867,707011
2096921,2096921,165379,706823
2096921,2096921,165377,707306
2096921,2096921,165366,707319
2096921,2096921,165301,707235
2096921,2096921,165312,707166
2096921,2096921,165487,707384
2096921,2096921,165298,707498
2096921,2096921,165237,707771
2096921,2096921,165243,707643
2096921,2096921,165335,707773
2096921,2096921,165196,707858
2096921,2096921,165222,708025
2096921,2096921,165304,708033
2096921,2096921,165496,708136
2096921,2096921,165533,708166
2096921,2096921,165197,708237
2096921,2096921,165498,708387
2096921,2096921,165591,708301
2096921,2096921,165565,708139
2096921,2096921,165671,708029
2096921,2096921,165468,708047
2096921,2096921,165687,708509
2096921,2096921,165753,708318
2096921,2096921,165652,708810
2096921,2096921,165533,708754
2096921,2096921,165802,708666
2096921,2096921,165891,708882
2096921,2096921,165577,709211
2096921,2096921,166023,708783
2096921,2096921,165706,708933
2096921,2096921,166025,708615
2096921,2096921,165861,709221
2096921,2096921,165742,709299
2096921,2096921,165818,709187
2096921,2096921,165937,709307
2096921,2096921,165664,709595
2096921,2096921,165731,709527
2096921,2096921,165776,709243
2096921,2096921,166193,709541
2096921,2096921,165668,709418
2096921,2096921,165869,709527
2096921,2096921,166065,709500
2096921,2096921,166343,709741
2096921,2096921,166128,709797
2096921,2096921,165960,709745
2096921,2096921,165978,709681
2096921,2096921,166041,710119
2096921,2096921,165830,710177
2096921,2096921,165687,710112
2096921,2096921,165720,710332
2096921,2096921,166101,710186
2096921,2096921,166111,710302
2096921,2096921,166475,710468
2096921,2096921,166326,710329
2096921,2096921,166483,710178
2096921,2096921,166173,710255
2096921,2096921,166053,710170
2096921,2096921,166063,710223
2096921,2096921,166130,710392
2096921,2096921,166061,710494
2096921,2096921,165939,710628
2096921,2096921,165927,710681
2096921,2096921,166282,710811
2096921,2096921,166266,710952
2096921,2096921,166267,710555
2096921,2096921,166360,710623
2096921,2096921,166447,711073
2096921,2096921,166464,711054
2096921,2096921,166412,710965
2096921,2096921,165734,710648
2096921,2096921,166429,711074
2096921,2096921,166660,711050
2096921,2096921,166224,711043
2096921,2096921,166386,711008
2096921,2096921,166451,711174
2096921,2096921,166536,711355
2096921,2096921,166327,711231
2096921,2096921,166629,711120
2096921,2096921,166603,711014
2096921,2096921,166658,711056
2096921,2096921,166639,711160
2096921,2096921,166595,711371
2096921,2096921,166374,711447
2096921,2096921,166218,711314
2096921,2096921,166366,711472
2096921,2096921,166335,711420
2096921,2096921,166483,711577
2096921,2096921,166218,711339
2096921,2096921,166721,711481
2096921,2096921,166628,711301
2096921,2096921,166574,711376
2096921,2096921,166532,711546
2096921,2096921,166284,711751
2096921,2096921,166397,711788
2096921,2096921,166343,711973
2096921,2096921,166215,711614
2096921,2096921,166274,712064
2096921,2096921,166160,712303
2096921,2096921,166718,712155
2096921,2096921,166723,712234
2096921,2096921,166637,711875
2096921,2096921,166681,712189
2096921,2096921,166333,712454
2096921,2096921,166782,712240
2096921,2096921,166606,712173
2096921,2096921,166651,712225
2096921,2096921,166534,712189
2096921,2096921,166401,712239
2096921,2096921,166371,712370
2096921,2096921,166411,712124
2096921,2096921,166508,712452
2096921,2096921,166461,712444
2096921,2096921,166565,712579
2096921,2096921,166645,712419
2096921,2096921,166776,712193
2096921,2096921,166786,712399
2096921,2096921,166985,712318
2096921,2096921,166745,712579
2096921,2096921,166548,712379
2096921,2096921,166726,712573
2096921,2096921,166449,712489
2096921,2096921,166668,712805
2096921,2096921,166824,712945
2096921,2096921,166946,712844
2096921,2096921,166796,712999
2096921,2096921,166671,712669
2096921,2096921,166413,712814
2096921,2096921,166795,712632
2096921,2096921,166630,712690
2096921,2096921,166964,712602
2096921,2096921,166656,712685
2096921,2096921,166742,712658
2096921,2096921,166847,712540
2096921,2096921,166899,712814
2096921,2096921,167018,713086
2096921,2096921,166923,712686
2096921,2096921,166749,712917
2096921,2096921,166937,712879
2096921,2096921,166788,713258
2096921,2096921,166882,713188
2096921,2096921,166763,713120
2096921,2096921,166952,712894
2096921,2096921,167227,712805
2096921,2096921,167141,712987
2096921,2096921,166956,713015
2096921,2096921,167032,712895
