2096921,2096921,160046,666889,0
2096921,2096921,159913,666994,0
2096921,2096921,159990,667019,0
2096921,2096921,159917,667116,0
2096921,2096921,159805,667009,0
2096921,2096921,159716,667293,0
2096921,2096921,159851,667606,0
2096921,2096921,160019,667717,0
2096921,2096921,160091,667372,0
2096921,2096921,160041,667550,0
2096921,2096921,160108,667699,0
2096921,2096921,159817,668260,0
2096921,2096921,159933,668043,0
2096921,2096921,160220,668007,0
2096921,2096921,160195,668003,0
2096921,2096921,160196,668323,0
2096921,2096921,160305,668471,0
2096921,2096921,160451,668481,0
2096921,2096921,160124,668475,0
2096921,2096921,159968,668311,0
2096921,2096921,160291,668657,0
2096921,2096921,160434,668872,0
2096921,2096921,160341,668843,0
2096921,2096921,160455,668955,0
2096921,2096921,160159,668892,0
2096921,2096921,160525,668837,0
2096921,2096921,160455,669388,0
2096921,2096921,160419,669143,0
2096921,2096921,160740,669448,0
2096921,2096921,160535,669348,0
2096921,2096921,160750,669282,0
2096921,2096921,160521,669833,0
2096921,2096921,160295,669905,0
2096921,2096921,160330,670046,0
2096921,2096921,160792,669734,0
2096921,2096921,160703,669990,0
2096921,2096921,160783,670414,0
2096921,2096921,160624,670383,0
2096921,2096921,160517,670391,0
2096921,2096921,160637,670070,0
2096921,2096921,160610,670294,0
2096921,2096921,160692,670468,0
2096921,2096921,160872,670631,0
2096921,2096921,160824,670843,0
2096921,2096921,161028,670519,0
2096921,2096921,160929,670501,0
2096921,2096921,161025,670684,0
2096921,2096921,160856,671249,0
2096921,2096921,160939,671316,0
2096921,2096921,160729,671303,0
2096921,2096921,161043,671073,0
2096921,2096921,161175,671551,0
2096921,2096921,160820,671509,0
2096921,2096921,161083,671518,0
2096921,2096921,161308,671491,0
2096921,2096921,161418,671581,0
2096921,2096921,161515,671944,0
2096921,2096921,161497,671964,0
2096921,2096921,161215,671832,0
2096921,2096921,161241,671860,0
2096921,2096921,161287,671796,0
2096921,2096921,161178,672165,0
2096921,2096921,161177,672267,0
2096921,2096921,161247,672217,0
2096921,2096921,161310,671905,0
2096921,2096921,161147,672008,0
2096921,2096921,161074,672358,0
2096921,2096921,161308,672374,0
2096921,2096921,161606,672686,0
2096921,2096921,161577,672326,0
2096921,2096921,161703,672614,0
2096921,2096921,161453,672780,0
2096921,2096921,161578,672669,0
2096921,2096921,161647,672874,0
2096921,2096921,161663,672856,0
2096921,2096921,161456,673072,0
2096921,2096921,161787,673209,0
2096921,2096921,161805,673329,0
2096921,2096921,161500,673191,0
2096921,2096921,161491,673323,0
2096921,2096921,161716,673371,0
2096921,2096921,161721,673635,0
2096921,2096921,161713,673738,0
2096921,2096921,161573,673641,0
2096921,2096921,161856,673738,0
2096921,2096921,161779,673485,0
2096921,2096921,161670,673930,0
2096921,2096921,161761,674034,0
2096921,2096921,161832,673727,0
2096921,2096921,161801,673974,0
2096921,2096921,161808,674040,0
2096921,2096921,162018,674067,0
2096921,2096921,162114,674330,0
2096921,2096921,162023,674276,0
2096921,2096921,161878,674204,0
2096921,2096921,161815,674003,0
2096921,2096921,162256,674161,0
2096921,2096921,161688,674320,0
2096921,2096921,162190,674202,0
2096921,2096921,161801,674300,0
2096921,2096921,162269,674404,0
2096921,2096921,162321,674523,0
2096921,2096921,161982,674697,0
2096921,2096921,162318,674825,0
2096921,2096921,162250,675014,0
2096921,2096921,162430,674652,0
2096921,2096921,162166,674973,0
2096921,2096921,162447,675098,0
2096921,2096921,162454,675137,0
2096921,2096921,162114,674943,0
2096921,2096921,162520,674760,0
2096921,2096921,162364,675083,0
2096921,2096921,162067,675238,0
2096921,2096921,162157,675285,0
2096921,2096921,162242,675449,0
2096921,2096921,162150,675202,0
2096921,2096921,162259,675301,0
2096921,2096921,162398,675380,0
2096921,2096921,162202,675225,0
2096921,2096921,162374,674962,0
2096921,2096921,162524,675109,0
2096921,2096921,162627,675550,0
2096921,2096921,162440,675560,0
2096921,2096921,162305,675770,0
2096921,2096921,162376,675378,0
2096921,2096921,162459,675428,0
2096921,2096921,162249,675360,0
2096921,2096921,162175,675526,0
2096921,2096921,162353,675583,0
2096921,2096921,162363,675919,0
2096921,2096921,162524,675652,0
2096921,2096921,162370,676113,0
2096921,2096921,162326,675940,0
2096921,2096921,162447,676128,0
2096921,2096921,162635,675910,0
2096921,2096921,162645,675922,0
2096921,2096921,162596,675972,0
2096921,2096921,162637,676125,0
2096921,2096921,162619,676057,0
2096921,2096921,162498,676031,0
2096921,2096921,162469,676148,0
2096921,2096921,162794,676326,0
2096921,2096921,162572,676171,0
2096921,2096921,162651,676173,0
2096921,2096921,162600,676149,0
2096921,2096921,162436,676460,0
2096921,2096921,162589,676317,0
2096921,2096921,162582,676267,0
2096921,2096921,162803,676218,0
2096921,2096921,162619,676021,0
2096921,2096921,162510,676291,0
2096921,2096921,162759,676454,0
2096921,2096921,162298,676378,0
2096921,2096921,162968,676480,0
2096921,2096921,162634,676467,0
2096921,2096921,162661,676486,0
2096921,2096921,162691,676659,0
2096921,2096921,162818,676673,0
2096921,2096921,162652,676877,0
2096921,2096921,162608,676712,0
2096921,2096921,162694,676746,0
2096921,2096921,162801,676713,0
2096921,2096921,162753,676710,0
2096921,2096921,163158,676568,0
2096921,2096921,162837,676724,0
2096921,2096921,162786,676718,0
2096921,2096921,162677,676950,0
2096921,2096921,162837,677017,0
2096921,2096921,162767,677095,0
2096921,2096921,162634,676863,0
2096921,2096921,162705,676946,0
2096921,2096921,163094,677068,0
2096921,2096921,162701,677135,0
2096921,2096921,162701,676951,0
2096921,2096921,162575,677079,0
2096921,2096921,162684,677104,0
2096921,2096921,162767,677144,0
2096921,2096921,162757,677275,0
2096921,2096921,162982,677197,0
2096921,2096921,162946,677324,0
2096921,2096921,163022,677357,0
2096921,2096921,163043,677656,0
2096921,2096921,162708,677469,0
2096921,2096921,163249,677324,0
2096921,2096921,162984,677455,0
2096921,2096921,162988,677546,0
2096921,2096921,162906,677616,0
2096921,2096921,162806,677505,0
2096921,2096921,162795,677564,0
2096921,2096921,162461,677522,0
2096921,2096921,162695,677615,0
2096921,2096921,163112,677808,0
2096921,2096921,163091,677605,0
2096921,2096921,163056,677548,0
2096921,2096921,163162,677566,0
2096921,2096921,163227,677403,0
2096921,2096921,162917,677223,0
2096921,2096921,162987,677590,0
2096921,2096921,163012,677472,0
2096921,2096921,163243,677623,0
2096921,2096921,163236,677432,0
2096921,2096921,163032,677749,0
2096921,2096921,162932,677723,0
2096921,2096921,163109,677617,0
2096921,2096921,162836,677768,0
2096921,2096921,163089,677508,0
2096921,2096921,163038,677514,0
2096921,2096921,162969,677698,0
2096921,2096921,162786,677941,0
2096921,2096921,163179,677935,0
2096921,2096921,163060,677950,0
2096921,2096921,163092,677879,0
2096921,2096921,163081,677777,0
2096921,2096921,163265,677904,0
2096921,2096921,162925,677633,0
2096921,2096921,162847,677672,0
2096921,2096921,163104,677796,0
2096921,2096921,162774,677497,0
2096921,2096921,163249,677778,0
2096921,2096921,163131,677728,0
2096921,2096921,163237,677895,0
2096921,2096921,163072,677815,0
2096921,2096921,163153,677951,0
2096921,2096921,163303,677919,0
2096921,2096921,163089,677828,0
2096921,2096921,163160,677773,0
2096921,2096921,163237,677873,0
2096921,2096921,163186,677408,0
2096921,2096921,163059,677914,0
2096921,2096921,163175,677913,0
2096921,2096921,163366,678039,0
2096921,2096921,163204,677838,0
2096921,2096921,163103,678092,0
2096921,2096921,162921,677845,0
2096921,2096921,163022,677987,0
2096921,2096921,163088,678063,0
2096921,2096921,162950,677890,0
2096921,2096921,162862,677675,0
2096921,2096921,163068,678056,0
2096921,2096921,163137,677871,0
2096921,2096921,163051,677854,0
2096921,2096921,162903,677641,0
2096921,2096921,162969,677717,0
2096921,2096921,162733,677539,0
2096921,2096921,163156,677592,0
2096921,2096921,163212,677814,0
2096921,2096921,163183,677779,0
2096921,2096921,163159,678019,0
2096921,2096921,163032,677829,0
2096921,2096921,163006,678054,0
2096921,2096921,162967,677971,0
2096921,2096921,163194,678133,0
2096921,2096921,163165,677921,0
2096921,2096921,163057,677864,0
2096921,2096921,163273,678071,0
2096921,2096921,163011,677958,0
2096921,2096921,163061,677302,0
2096921,2096921,162644,677059,0
2096921,2096921,162544,677035,0
2096921,2096921,162886,677041,0
2096921,2096921,162504,677283,0
2096921,2096921,162623,676528,0
2096921,2096921,162368,676596,0
2096921,2096921,162450,676636,0
2096921,2096921,162559,676678,0
2096921,2096921,162192,676391,0
2096921,2096921,162260,675524,0
2096921,2096921,162559,675079,0
2096921,2096921,162634,675157,0
2096921,2096921,162413,675455,0
2096921,2096921,161673,675241,0
2096921,2096921,161859,674025,0
2096921,2096921,162114,673987,0
2096921,2096921,161906,673810,0
2096921,2096921,161835,674113,0
2096921,2096921,161584,673791,0
2096921,2096921,161297,672808,0
2096921,2096921,161377,672467,0
2096921,2096921,161335,672626,0
2096921,2096921,161332,672478,0
2096921,2096921,160732,672369,0
2096921,2096921,160904,669700,0
2096921,2096921,160507,669197,0
2096921,2096921,160287,669220,0
2096921,2096921,160475,669197,0
2096921,2096921,159534,669177,0
2096921,2096921,159274,665502,0
2096921,2096921,159095,664705,0
2096921,2096921,159113,664780,0
2096921,2096921,158877,665012,0
2096921,2096921,158542,664879,0
2096921,2096921,158248,662323,0
2096921,2096921,158351,661878,0
2096921,2096921,158252,661757,0
2096921,2096921,158150,661739,0
2096921,2096921,157585,661915,0
2096921,2096921,157341,659746,0
2096921,2096921,157363,659514,0
2096921,2096921,157361,659154,0
2096921,2096921,157166,659357,0
2096921,2096921,157154,659690,0
2096921,2096921,157049,657802,0
2096921,2096921,157077,657549,0
2096921,2096921,156879,657505,0
2096921,2096921,156662,657266,0
2096921,2096921,156719,657410,0
2096921,2096921,156605,656790,0
2096921,2096921,156495,656485,0
2096921,2096921,157073,656352,0
2096921,2096921,156688,656206,0
2096921,2096921,156499,656433,0
2096921,2096921,156225,655639,0
2096921,2096921,156449,655232,0
2096921,2096921,156305,655182,0
2096921,2096921,156289,655172,0
2096921,2096921,155890,655323,0
2096921,2096921,156177,654797,0
2096921,2096921,156102,654836,0
2096921,2096921,156253,654696,0
2096921,2096921,156205,654914,0
2096921,2096921,156058,654730,0
2096921,2096921,155968,654543,0
2096921,2096921,156355,654525,0
2096921,2096921,156174,654460,0
2096921,2096921,156416,654506,0
2096921,2096921,155986,654844,0
2096921,2096921,156184,654741,0
2096921,2096921,155828,654428,0
2096921,2096921,156060,654510,0
2096921,2096921,156148,654571,0
2096921,2096921,155951,654950,0
2096921,2096921,156130,655169,0
2096921,2096921,156218,655047,0
2096921,2096921,156151,654894,0
2096921,2096921,156258,654991,0
2096921,2096921,156271,654995,0
2096921,2096921,156271,654782,0
2096921,2096921,156277,655067,0
2096921,2096921,156266,655306,0
2096921,2096921,156374,655457,0
2096921,2096921,156406,655180,0
2096921,2096921,156382,655582,0
2096921,2096921,156197,655313,0
2096921,2096921,156255,655388,0
2096921,2096921,156385,655427,0
2096921,2096921,156559,655173,0
2096921,2096921,156643,656009,0
2096921,2096921,156540,655947,0
2096921,2096921,156555,656024,0
2096921,2096921,156510,656118,0
2096921,2096921,156783,656311,0
2096921,2096921,156755,656639,0
2096921,2096921,156779,656978,0
2096921,2096921,156418,657028,0
2096921,2096921,156663,656899,0
2096921,2096921,156622,656830,0
2096921,2096921,156705,657474,0
2096921,2096921,157098,657650,0
2096921,2096921,156859,657602,0
2096921,2096921,156882,657750,0
2096921,2096921,157116,657641,0
2096921,2096921,157154,658090,0
2096921,2096921,157143,658263,0
2096921,2096921,157252,658301,0
2096921,2096921,157353,658348,0
2096921,2096921,157317,658538,0
2096921,2096921,157244,658625,0
2096921,2096921,157558,659292,0
2096921,2096921,157242,659022,0
2096921,2096921,157384,658949,0
2096921,2096921,157652,658853,0
2096921,2096921,157685,659661,0
2096921,2096921,157727,659617,0
2096921,2096921,157634,660003,0
2096921,2096921,157388,659769,0
2096921,2096921,157557,659912,0
2096921,2096921,157641,660380,0
2096921,2096921,157779,660548,0
2096921,2096921,157791,660337,0
2096921,2096921,157808,660781,0
2096921,2096921,157998,660358,0
2096921,2096921,157907,660986,0
2096921,2096921,158005,660876,0
2096921,2096921,157992,661123,0
2096921,2096921,158429,661151,0
2096921,2096921,158302,661288,0
2096921,2096921,158622,661635,0
2096921,2096921,158307,661944,0
2096921,2096921,158308,661687,0
2096921,2096921,158206,661476,0
2096921,2096921,158252,661837,0
2096921,2096921,158263,662686,0
2096921,2096921,158609,662696,0
2096921,2096921,158327,662782,0
2096921,2096921,158608,662337,0
2096921,2096921,158375,662564,0
2096921,2096921,158724,663311,0
2096921,2096921,158652,663324,0
2096921,2096921,158859,663433,0
2096921,2096921,158591,663454,0
2096921,2096921,158978,663598,0
2096921,2096921,159136,664045,0
2096921,2096921,158763,663978,0
2096921,2096921,158855,663984,0
2096921,2096921,158812,663942,0
2096921,2096921,159069,664322,0
2096921,2096921,159080,664734,0
2096921,2096921,159131,664603,0
2096921,2096921,159161,664418,0
2096921,2096921,159258,664707,0
2096921,2096921,159233,664773,0
2096921,2096921,159344,665293,0
2096921,2096921,159370,665263,0
2096921,2096921,159333,665252,0
2096921,2096921,159442,665403,0
2096921,2096921,159148,665577,0
2096921,2096921,159514,665679,0
2096921,2096921,159466,665747,0
2096921,2096921,159643,665587,0
2096921,2096921,159495,665865,0
2096921,2096921,159837,665803,0
2096921,2096921,159814,666372,0
2096921,2096921,159712,666095,0
2096921,2096921,159740,665903,0
2096921,2096921,159441,666107,0
2096921,2096921,159581,665902,0
2096921,2096921,159873,666189,0
2096921,2096921,159589,666373,0
2096921,2096921,159647,666128,0
2096921,2096921,159719,666019,0
2096921,2096921,159619,666114,0
2096921,2096921,159407,666057,0
2096921,2096921,159376,666198,0
2096921,2096921,159659,666233,0
2096921,2096921,159610,666075,0
2096921,2096921,159916,666344,0
2096921,2096921,159593,666350,0
2096921,2096921,159680,666325,0
2096921,2096921,159479,666262,0
2096921,2096921,159836,666273,0
2096921,2096921,159555,666079,0
2096921,2096921,159549,666060,0
2096921,2096921,159758,666189,0
2096921,2096921,159473,665988,0
2096921,2096921,159343,665817,0
2096921,2096921,159643,666225,0
2096921,2096921,159543,666008,0
2096921,2096921,159503,666138,0
2096921,2096921,159385,665889,0
2096921,2096921,159452,665970,0
2096921,2096921,159219,665674,0
2096921,2096921,159300,665651,0
2096921,2096921,159386,665739,0
2096921,2096921,159641,665676,0
2096921,2096921,159666,665556,0
2096921,2096921,159534,665759,0
2096921,2096921,159132,665362,0
2096921,2096921,159478,665164,0
2096921,2096921,159358,665071,0
2096921,2096921,159481,665418,0
2096921,2096921,159217,665445,0
2096921,2096921,159217,665409,0
2096921,2096921,158899,665401,0
2096921,2096921,159183,665001,0
2096921,2096921,159086,664844,0
2096921,2096921,159263,664908,0
2096921,2096921,159132,665038,0
2096921,2096921,159517,665029,0
2096921,2096921,159378,664971,0
2096921,2096921,159196,665055,0
2096921,2096921,159266,664987,0
2096921,2096921,159382,665234,0
2096921,2096921,159266,665372,0
2096921,2096921,159405,665400,0
2096921,2096921,159543,665489,0
2096921,2096921,159173,665050,0
2096921,2096921,159114,665139,0
2096921,2096921,159583,665176,0
2096921,2096921,159239,665215,0
2096921,2096921,159702,664936,0
2096921,2096921,159122,665150,0
2096921,2096921,159443,665512,0
2096921,2096921,159288,665260,0
2096921,2096921,159357,665092,0
2096921,2096921,159335,665268,0
2096921,2096921,159304,665336,0
2096921,2096921,159423,665557,0
2096921,2096921,159230,665795,0
2096921,2096921,159282,665718,0
2096921,2096921,159406,665969,0
2096921,2096921,159577,665629,0
2096921,2096921,159561,666473,0
2096921,2096921,159571,666390,0
2096921,2096921,159476,666363,0
2096921,2096921,159750,666592,0
2096921,2096921,159771,665960,0
2096921,2096921,159535,666501,0
2096921,2096921,159576,666582,0
2096921,2096921,159594,666928,0
2096921,2096921,159939,666739,0
2096921,2096921,159766,666962,0
2096921,2096921,160090,667309,0
2096921,2096921,159980,667301,0
2096921,2096921,160008,667200,0
2096921,2096921,159990,667554,0
2096921,2096921,160254,667399,0
2096921,2096921,159887,667768,0
2096921,2096921,160162,667811,0
2096921,2096921,160114,667562,0
2096921,2096921,160060,668123,0
2096921,2096921,160085,668108,0
2096921,2096921,160182,668264,0
2096921,2096921,160125,668432,0
2096921,2096921,160159,668188,0
2096921,2096921,160323,668620,0
2096921,2096921,160299,668480,0
2096921,2096921,160271,668246,0
2096921,2096921,160456,668618,0
2096921,2096921,160176,668509,0
2096921,2096921,160090,668589,0
2096921,2096921,160266,668514,0
2096921,2096921,160611,668961,0
2096921,2096921,160142,669154,0
2096921,2096921,160268,669114,0
2096921,2096921,160384,668935,0
2096921,2096921,160428,669013,0
2096921,2096921,160541,669569,0
2096921,2096921,160836,669348,0
2096921,2096921,160593,669372,0
2096921,2096921,160862,669600,0
2096921,2096921,160627,669572,0
2096921,2096921,160781,669661,0
2096921,2096921,160694,669907,0
2096921,2096921,160811,669654,0
2096921,2096921,160812,670079,0
2096921,2096921,160885,669913,0
2096921,2096921,160786,670173,0
2096921,2096921,160829,670099,0
2096921,2096921,160549,670080,0
2096921,2096921,160643,670338,0
2096921,2096921,161066,670498,0
2096921,2096921,161038,670825,0
2096921,2096921,160994,670624,0
2096921,2096921,160792,670444,0
2096921,2096921,160925,670441,0
2096921,2096921,161075,670607,0
2096921,2096921,161173,670877,0
2096921,2096921,161318,670621,0
2096921,2096921,161159,671021,0
2096921,2096921,160946,670939,0
2096921,2096921,161237,671247,0
2096921,2096921,161160,671469,0
2096921,2096921,161092,671841,0
2096921,2096921,161211,671418,0
2096921,2096921,161150,671457,0
2096921,2096921,161095,671590,0
2096921,2096921,161409,671844,0
2096921,2096921,161262,671990,0
2096921,2096921,161575,671678,0
2096921,2096921,161408,671617,0
2096921,2096921,161286,671898,0
2096921,2096921,161514,672051,0
2096921,2096921,161336,672390,0
2096921,2096921,161365,672254,0
2096921,2096921,161178,672163,0
2096921,2096921,161311,672127,0
2096921,2096921,161536,672486,0
2096921,2096921,161673,672554,0
2096921,2096921,161242,672574,0
2096921,2096921,161175,672550,0
2096921,2096921,161682,672519,0
2096921,2096921,161940,672758,0
2096921,2096921,161634,672726,0
2096921,2096921,161758,672992,0
2096921,2096921,161812,673149,0
2096921,2096921,161827,673237,0
2096921,2096921,161847,673168,0
2096921,2096921,161770,673320,0
2096921,2096921,161557,673347,0
2096921,2096921,161911,673248,0
2096921,2096921,162014,673514,0
2096921,2096921,161815,673778,0
2096921,2096921,161964,673358,0
2096921,2096921,161739,673633,0
2096921,2096921,161925,673462,0
2096921,2096921,161945,673436,0
2096921,2096921,162084,673946,0
2096921,2096921,161766,673738,0
2096921,2096921,161748,673796,0
2096921,2096921,161906,673759,0
2096921,2096921,162052,673746,0
2096921,2096921,161988,674031,0
2096921,2096921,162193,674056,0
2096921,2096921,162147,674046,0
2096921,2096921,162002,674061,0
2096921,2096921,162085,674089,0
2096921,2096921,161967,674409,0
2096921,2096921,162337,674862,0
2096921,2096921,161857,674893,0
2096921,2096921,162321,674773,0
2096921,2096921,162220,674508,0
2096921,2096921,161941,674673,0
2096921,2096921,161879,674901,0
2096921,2096921,162035,674751,0
2096921,2096921,162214,674844,0
2096921,2096921,162256,674666,0
2096921,2096921,162266,674989,0
2096921,2096921,162165,675581,0
2096921,2096921,162046,675269,0
2096921,2096921,162061,675190,0
2096921,2096921,162197,675011,0
2096921,2096921,162346,675314,0
2096921,2096921,162253,675425,0
2096921,2096921,162347,675317,0
2096921,2096921,162506,675290,0
2096921,2096921,162253,675194,0
2096921,2096921,162312,675514,0
2096921,2096921,162268,675270,0
2096921,2096921,162569,675615,0
2096921,2096921,162270,675221,0
2096921,2096921,162498,675661,0
2096921,2096921,162142,675975,0
2096921,2096921,162561,675689,0
2096921,2096921,162549,675705,0
2096921,2096921,162305,675602,0
2096921,2096921,162396,675456,0
2096921,2096921,162599,676080,0
2096921,2096921,162596,675889,0
2096921,2096921,162354,676052,0
2096921,2096921,162505,676048,0
2096921,2096921,162503,676158,0
2096921,2096921,162440,675968,0
2096921,2096921,162347,675638,0
2096921,2096921,162321,675915,0
2096921,2096921,162688,676045,0
2096921,2096921,162796,676302,0
2096921,2096921,162720,675830,0
2096921,2096921,162425,676229,0
2096921,2096921,162548,675756,0
2096921,2096921,162400,675966,0
2096921,2096921,162732,675928,0
2096921,2096921,162955,676481,0
2096921,2096921,162825,676518,0
2096921,2096921,162404,676269,0
2096921,2096921,162643,676351,0
2096921,2096921,162421,676216,0
2096921,2096921,162742,676474,0
2096921,2096921,162624,676611,0
2096921,2096921,162630,676382,0
2096921,2096921,162802,676471,0
2096921,2096921,162651,676457,0
2096921,2096921,162658,676575,0
2096921,2096921,162645,676637,0
2096921,2096921,162744,676710,0
2096921,2096921,162827,676592,0
2096921,2096921,162717,676666,0
2096921,2096921,162663,676747,0
2096921,2096921,162616,676706,0
2096921,2096921,162529,676793,0
2096921,2096921,162709,677026,0
2096921,2096921,162687,676462,0
2096921,2096921,162935,676931,0
2096921,2096921,162744,676773,0
2096921,2096921,162711,676670,0
2096921,2096921,162744,676583,0
2096921,2096921,162886,676704,0
2096921,2096921,162857,676869,0
2096921,2096921,162567,676707,0
2096921,2096921,162589,676944,0
2096921,2096921,162889,677049,0
2096921,2096921,162828,676963,0
2096921,2096921,162718,677127,0
2096921,2096921,162469,677082,0
2096921,2096921,162841,677480,0
2096921,2096921,162890,677066,0
2096921,2096921,163007,677231,0
2096921,2096921,163053,677187,0
2096921,2096921,162607,677326,0
2096921,2096921,162951,677285,0
2096921,2096921,162432,677609,0
2096921,2096921,163114,677416,0
2096921,2096921,162691,677470,0
2096921,2096921,162760,677603,0
2096921,2096921,162950,677587,0
2096921,2096921,162876,677197,0
2096921,2096921,162729,677430,0
2096921,2096921,162733,677746,0
2096921,2096921,162985,677805,0
2096921,2096921,162942,677309,0
2096921,2096921,163075,677750,0
2096921,2096921,163098,677766,0
2096921,2096921,163156,678013,0
2096921,2096921,163073,677641,0
2096921,2096921,162765,677963,0
2096921,2096921,163266,677716,0
2096921,2096921,162988,677613,0
2096921,2096921,163010,677511,0
2096921,2096921,162936,677416,0
2096921,2096921,162866,677505,0
2096921,2096921,162774,677774,0
2096921,2096921,162923,677747,0
2096921,2096921,162918,677762,0
2096921,2096921,162756,677971,0
2096921,2096921,162814,677780,0
2096921,2096921,162726,677762,0
2096921,2096921,162897,678083,0
2096921,2096921,162883,678031,0
2096921,2096921,162909,677944,0
2096921,2096921,162941,677559,0
2096921,2096921,162871,677745,0
2096921,2096921,162883,677748,0
2096921,2096921,163125,677554,0
2096921,2096921,162927,677786,0
2096921,2096921,163366,677565,0
2096921,2096921,163061,677722,0
2096921,2096921,162983,677987,0
2096921,2096921,163085,677793,0
2096921,2096921,163033,677740,0
2096921,2096921,162917,677502,0
2096921,2096921,162867,677701,0
2096921,2096921,162972,677668,0
2096921,2096921,163028,677935,0
2096921,2096921,163046,678118,0
2096921,2096921,162768,677819,0
2096921,2096921,163176,677974,0
2096921,2096921,162924,677692,0
2096921,2096921,162760,677541,0
2096921,2096921,162952,677572,0
2096921,2096921,162746,678024,0
2096921,2096921,162795,677957,0
2096921,2096921,162864,677834,0
2096921,2096921,162817,678026,0
2096921,2096921,162791,677794,0
2096921,2096921,162974,677868,0
2096921,2096921,162727,677574,0
2096921,2096921,162996,677263,0
2096921,2096921,163025,677423,0
2096921,2096921,163158,677586,0
2096921,2096921,163033,677749,0
2096921,2096921,163132,677705,0
2096921,2096921,162929,677813,0
2096921,2096921,163343,677916,0
2096921,2096921,163155,677877,0
2096921,2096921,163173,677855,0
2096921,2096921,163139,677736,0
2096921,2096921,163004,677593,0
2096921,2096921,162884,677682,0
2096921,2096921,163199,677833,0
2096921,2096921,162975,677575,0
2096921,2096921,163284,677900,0
2096921,2096921,163333,677867,0
2096921,2096921,163054,677706,0
2096921,2096921,162839,677706,0
2096921,2096921,163040,678021,0
2096921,2096921,163050,677692,0
2096921,2096921,162887,677884,0
2096921,2096921,162902,677023,0
2096921,2096921,162736,677287,0
2096921,2096921,162708,677017,0
2096921,2096921,162801,677072,0
2096921,2096921,162731,677213,0
2096921,2096921,162422,676542,0
2096921,2096921,162904,676660,0
2096921,2096921,162657,676553,0
2096921,2096921,162867,676369,0
2096921,2096921,162363,676519,0
2096921,2096921,162507,675901,0
2096921,2096921,162353,675436,0
2096921,2096921,162332,675273,0
2096921,2096921,162360,675194,0
2096921,2096921,161868,675105,0
2096921,2096921,161794,674375,0
2096921,2096921,161625,674176,0
2096921,2096921,161413,673934,0
2096921,2096921,161779,674086,0
2096921,2096921,161316,673872,0
2096921,2096921,161570,672953,0
2096921,2096921,161572,672732,0
2096921,2096921,161268,672684,0
2096921,2096921,161533,672611,0
2096921,2096921,160396,672623,0
2096921,2096921,160264,669783,0
2096921,2096921,160530,669111,0
2096921,2096921,160457,669209,0
2096921,2096921,160564,669003,0
2096921,2096921,159486,669072,0
2096921,2096921,159326,665878,0
2096921,2096921,159077,665230,0
2096921,2096921,158992,664737,0
2096921,2096921,159219,664672,0
2096921,2096921,158501,664988,0
2096921,2096921,158444,662458,0
2096921,2096921,158021,662140,0
2096921,2096921,158148,661783,0
2096921,2096921,158325,661757,0
2096921,2096921,157524,661559,0
2096921,2096921,157780,659962,0
2096921,2096921,157425,659097,0
2096921,2096921,157478,659394,0
2096921,2096921,157556,659113,0
2096921,2096921,157234,659207,0
2096921,2096921,157192,657719,0
2096921,2096921,157051,657763,0
2096921,2096921,157071,657640,0
2096921,2096921,157052,657675,0
2096921,2096921,156730,657516,0
2096921,2096921,156668,656371,0
2096921,2096921,156798,656534,0
2096921,2096921,156743,656265,0
2096921,2096921,156834,656281,0
2096921,2096921,156770,656396,0
2096921,2096921,156456,655632,0
2096921,2096921,156432,655382,0
2096921,2096921,156295,655456,0
2096921,2096921,156339,655359,0
2096921,2096921,156539,655148,0
2096921,2096921,156261,654933,0
2096921,2096921,156176,654632,0
2096921,2096921,156396,654598,0
2096921,2096921,156296,654678,0
2096921,2096921,155945,654661,0
2096921,2096921,156329,654645,0
2096921,2096921,156192,654427,0
2096921,2096921,156134,654548,0
2096921,2096921,156045,654522,0
2096921,2096921,155741,654455,0
2096921,2096921,156475,654374,0
2096921,2096921,156340,654719,0
2096921,2096921,156422,654693,0
2096921,2096921,155993,654800,0
2096921,2096921,156433,654700,0
2096921,2096921,156283,654827,0
2096921,2096921,156214,654593,0
2096921,2096921,156306,654637,0
2096921,2096921,156467,654869,0
2096921,2096921,156313,654720,0
2096921,2096921,156036,655104,0
2096921,2096921,156146,655125,0
2096921,2096921,156402,655279,0
2096921,2096921,156009,655289,0
2096921,2096921,156474,655102,0
2096921,2096921,156236,655573,0
2096921,2096921,156643,655786,0
2096921,2096921,156316,655675,0
2096921,2096921,156709,655562,0
2096921,2096921,156330,655223,0
2096921,2096921,156367,656132,0
2096921,2096921,156519,656009,0
2096921,2096921,156685,656309,0
2096921,2096921,156343,656201,0
2096921,2096921,156808,655840,0
2096921,2096921,156738,656894,0
2096921,2096921,156645,656838,0
2096921,2096921,156798,656701,0
2096921,2096921,156805,656586,0
2096921,2096921,156772,656883,0
2096921,2096921,157250,657214,0
2096921,2096921,157097,657380,0
2096921,2096921,157037,657600,0
2096921,2096921,156795,657398,0
2096921,2096921,157233,657810,0
2096921,2096921,157002,658428,0
2096921,2096921,157021,658408,0
2096921,2096921,157062,657954,0
2096921,2096921,157303,658100,0
2096921,2096921,157333,658316,0
2096921,2096921,157533,658707,0
2096921,2096921,157221,658802,0
2096921,2096921,157203,658955,0
2096921,2096921,157141,659148,0
2096921,2096921,157642,658984,0
2096921,2096921,157584,659656,0
2096921,2096921,157533,659776,0
2096921,2096921,157496,659684,0
2096921,2096921,157415,659637,0
2096921,2096921,157428,659657,0
2096921,2096921,157630,660109,0
2096921,2096921,157682,660700,0
2096921,2096921,157873,660441,0
2096921,2096921,157755,660520,0
2096921,2096921,158455,660330,0
2096921,2096921,157882,661288,0
2096921,2096921,157971,661202,0
2096921,2096921,157922,660987,0
2096921,2096921,158275,661117,0
2096921,2096921,158502,661164,0
2096921,2096921,158688,662013,0
2096921,2096921,158123,661975,0
2096921,2096921,158277,661886,0
2096921,2096921,158234,661850,0
2096921,2096921,158651,661813,0
2096921,2096921,158392,662406,0
2096921,2096921,158596,662680,0
2096921,2096921,158604,662783,0
2096921,2096921,158727,662566,0
2096921,2096921,158792,662755,0
2096921,2096921,158443,663275,0
2096921,2096921,158574,663353,0
2096921,2096921,158558,663300,0
2096921,2096921,158699,663507,0
2096921,2096921,159293,663396,0
2096921,2096921,159080,663869,0
2096921,2096921,159074,663904,0
2096921,2096921,158968,664166,0
2096921,2096921,158938,664230,0
2096921,2096921,159211,664017,0
2096921,2096921,159190,664952,0
2096921,2096921,159098,664746,0
2096921,2096921,159091,664645,0
2096921,2096921,159202,664800,0
2096921,2096921,159409,664986,0
2096921,2096921,159151,665116,0
2096921,2096921,159416,665084,0
2096921,2096921,159532,665418,0
2096921,2096921,159655,665486,0
2096921,2096921,159423,665294,0
2096921,2096921,159349,665515,0
2096921,2096921,159302,665835,0
2096921,2096921,159562,665548,0
2096921,2096921,159623,666082,0
2096921,2096921,159649,665719,0
2096921,2096921,159733,665935,0
2096921,2096921,159524,665851,0
2096921,2096921,159358,666020,0
2096921,2096921,159512,665766,0
2096921,2096921,159659,665930,0
2096921,2096921,159661,666192,0
2096921,2096921,159587,666217,0
2096921,2096921,159562,666154,0
2096921,2096921,159460,666059,0
2096921,2096921,159580,665994,0
2096921,2096921,159589,666116,0
2096921,2096921,159532,666284,0
2096921,2096921,159573,666399,0
2096921,2096921,159566,666021,0
2096921,2096921,159600,666146,0
2096921,2096921,159456,665986,0
2096921,2096921,159707,666047,0
2096921,2096921,159446,666030,0
2096921,2096921,159544,666481,0
2096921,2096921,159400,666169,0
2096921,2096921,159551,666222,0
2096921,2096921,159739,666333,0
2096921,2096921,159640,666061,0
2096921,2096921,159602,666152,0
2096921,2096921,159380,665905,0
2096921,2096921,159805,665680,0
2096921,2096921,159468,665928,0
2096921,2096921,159470,665981,0
2096921,2096921,159407,665681,0
2096921,2096921,159317,665685,0
2096921,2096921,159406,665970,0
2096921,2096921,159496,665501,0
2096921,2096921,159623,665554,0
2096921,2096921,159456,665731,0
2096921,2096921,159462,665650,0
2096921,2096921,159469,665377,0
2096921,2096921,159100,665186,0
2096921,2096921,159320,665140,0
2096921,2096921,159273,665393,0
2096921,2096921,159121,665321,0
2096921,2096921,159342,665002,0
2096921,2096921,159080,665142,0
2096921,2096921,159282,665092,0
2096921,2096921,159228,665142,0
2096921,2096921,159472,664909,0
2096921,2096921,159102,664799,0
2096921,2096921,159514,665024,0
2096921,2096921,159090,664997,0
2096921,2096921,159162,665067,0
2096921,2096921,159257,665271,0
2096921,2096921,159372,665055,0
2096921,2096921,159174,664999,0
2096921,2096921,159487,665130,0
2096921,2096921,159507,665069,0
2096921,2096921,159266,665131,0
2096921,2096921,159247,665158,0
2096921,2096921,159367,665125,0
2096921,2096921,159225,665341,0
2096921,2096921,159296,665210,0
2096921,2096921,159134,665289,0
2096921,2096921,159276,665594,0
2096921,2096921,159403,665609,0
2096921,2096921,159151,665803,0
2096921,2096921,159336,665279,0
2096921,2096921,159336,665152,0
2096921,2096921,159322,665311,0
2096921,2096921,159380,665804,0
2096921,2096921,159332,665650,0
2096921,2096921,159451,665722,0
2096921,2096921,159523,665481,0
2096921,2096921,159680,666082,0
2096921,2096921,159530,666439,0
2096921,2096921,159530,666133,0
2096921,2096921,159560,666277,0
2096921,2096921,159978,665963,0
2096921,2096921,159351,666637,0
2096921,2096921,159876,666513,0
2096921,2096921,159878,666637,0
2096921,2096921,159658,667090,0
2096921,2096921,159732,666668,0
2096921,2096921,159773,667241,0
2096921,2096921,159797,667326,0
2096921,2096921,160097,667256,0
2096921,2096921,159864,666983,0
2096921,2096921,159988,666962,0
2096921,2096921,160087,667487,0
2096921,2096921,160257,667949,0
2096921,2096921,160112,667829,0
2096921,2096921,160072,667517,0
2096921,2096921,159946,667917,0
2096921,2096921,160201,667930,0
2096921,2096921,160223,668050,0
2096921,2096921,160274,668103,0
2096921,2096921,160183,668293,0
2096921,2096921,160424,668238,0
2096921,2096921,160142,668799,0
2096921,2096921,160362,668591,0
2096921,2096921,160148,668511,0
2096921,2096921,160241,668615,0
2096921,2096921,160351,668728,0
2096921,2096921,160508,668568,0
2096921,2096921,160508,669199,0
2096921,2096921,160220,668778,0
2096921,2096921,160380,668914,0
2096921,2096921,160351,668861,0
2096921,2096921,160385,669511,0
2096921,2096921,160266,669575,0
2096921,2096921,160614,669279,0
2096921,2096921,160519,669583,0
2096921,2096921,160637,669750,0
2096921,2096921,160721,669878,0
2096921,2096921,160871,670202,0
2096921,2096921,160718,670115,0
2096921,2096921,160743,670108,0
2096921,2096921,160723,669937,0
2096921,2096921,161075,670422,0
2096921,2096921,160807,670273,0
2096921,2096921,160891,670246,0
2096921,2096921,160650,670372,0
2096921,2096921,160954,670419,0
2096921,2096921,160927,670641,0
2096921,2096921,161032,670787,0
2096921,2096921,160927,670991,0
2096921,2096921,161029,670632,0
2096921,2096921,160794,670631,0
2096921,2096921,160942,671248,0
2096921,2096921,160848,671136,0
2096921,2096921,160934,671283,0
2096921,2096921,161227,671202,0
2096921,2096921,161252,671136,0
2096921,2096921,161249,671278,0
2096921,2096921,161039,671521,0
2096921,2096921,160926,671411,0
2096921,2096921,161253,671633,0
2096921,2096921,161545,671582,0
2096921,2096921,161346,671812,0
2096921,2096921,161078,671748,0
2096921,2096921,161080,671742,0
2096921,2096921,160953,671689,0
2096921,2096921,161514,671948,0
2096921,2096921,161421,672368,0
2096921,2096921,161430,672239,0
2096921,2096921,161385,672196,0
2096921,2096921,161344,672015,0
2096921,2096921,161392,671957,0
2096921,2096921,161553,672436,0
2096921,2096921,161501,672788,0
2096921,2096921,161485,672682,0
2096921,2096921,161726,672812,0
2096921,2096921,161721,672825,0
2096921,2096921,161713,672981,0
2096921,2096921,161596,673004,0
2096921,2096921,161414,673117,0
2096921,2096921,161227,672708,0
2096921,2096921,161418,672450,0
2096921,2096921,161483,673060,0
2096921,2096921,161629,673109,0
2096921,2096921,161805,673339,0
2096921,2096921,161735,673230,0
2096921,2096921,161780,673461,0
2096921,2096921,161650,673603,0
2096921,2096921,161719,673561,0
2096921,2096921,161834,673664,0
2096921,2096921,161746,673681,0
2096921,2096921,161935,673847,0
2096921,2096921,161439,673942,0
2096921,2096921,161514,673766,0
2096921,2096921,161752,673563,0
2096921,2096921,162123,673749,0
2096921,2096921,161982,673681,0
2096921,2096921,161966,674141,0
2096921,2096921,162065,674218,0
2096921,2096921,162039,673964,0
2096921,2096921,161816,674253,0
2096921,2096921,162125,674319,0
2096921,2096921,162209,674313,0
2096921,2096921,162077,674539,0
2096921,2096921,161877,674435,0
2096921,2096921,162066,674203,0
2096921,2096921,162146,674376,0
2096921,2096921,162522,674731,0
2096921,2096921,162459,674850,0
2096921,2096921,161948,674721,0
2096921,2096921,162107,674741,0
2096921,2096921,162215,674947,0
2096921,2096921,162217,674960,0
2096921,2096921,162087,674656,0
2096921,2096921,162231,674815,0
2096921,2096921,162006,675052,0
2096921,2096921,162397,675205,0
2096921,2096921,162289,675238,0
2096921,2096921,162384,675171,0
2096921,2096921,162335,675087,0
2096921,2096921,162189,675214,0
2096921,2096921,162404,674990,0
2096921,2096921,162683,675367,0
2096921,2096921,162234,675321,0
2096921,2096921,162504,675668,0
2096921,2096921,162148,675663,0
2096921,2096921,162477,675838,0
2096921,2096921,162389,675683,0
2096921,2096921,162635,675924,0
2096921,2096921,162330,675443,0
2096921,2096921,162757,675615,0
2096921,2096921,162622,675501,0
2096921,2096921,162301,675528,0
2096921,2096921,162482,675738,0
2096921,2096921,162447,675663,0
2096921,2096921,162611,675948,0
2096921,2096921,162938,676041,0
2096921,2096921,162592,675877,0
2096921,2096921,162480,676036,0
2096921,2096921,162510,676079,0
2096921,2096921,162676,675954,0
2096921,2096921,162336,676087,0
2096921,2096921,162769,676051,0
2096921,2096921,162574,676397,0
2096921,2096921,162687,676367,0
2096921,2096921,162539,676177,0
2096921,2096921,162862,676162,0
2096921,2096921,162658,676163,0
2096921,2096921,162540,676324,0
2096921,2096921,162537,676071,0
2096921,2096921,162713,676461,0
2096921,2096921,162603,676365,0
2096921,2096921,162729,676273,0
2096921,2096921,162662,676478,0
2096921,2096921,162645,676573,0
2096921,2096921,162465,676554,0
2096921,2096921,162716,676125,0
2096921,2096921,162560,676733,0
2096921,2096921,162608,676668,0
2096921,2096921,162605,676932,0
2096921,2096921,162605,676824,0
2096921,2096921,162545,676417,0
2096921,2096921,162790,676607,0
2096921,2096921,162755,676519,0
2096921,2096921,162804,676503,0
2096921,2096921,162854,676524,0
2096921,2096921,162817,676931,0
2096921,2096921,162682,676966,0
2096921,2096921,162567,676871,0
2096921,2096921,162473,677041,0
2096921,2096921,162670,676749,0
2096921,2096921,162935,676904,0
2096921,2096921,162498,676798,0
2096921,2096921,162545,676735,0
2096921,2096921,162490,677275,0
2096921,2096921,162674,676908,0
2096921,2096921,162745,676926,0
2096921,2096921,162967,677189,0
2096921,2096921,163009,676981,0
2096921,2096921,162952,677010,0
2096921,2096921,162865,677010,0
2096921,2096921,162619,676957,0
2096921,2096921,163063,677219,0
2096921,2096921,163118,677196,0
2096921,2096921,162931,677239,0
2096921,2096921,163105,677266,0
2096921,2096921,162626,677147,0
2096921,2096921,162971,677287,0
2096921,2096921,162876,677403,0
2096921,2096921,162994,677218,0
2096921,2096921,163004,677463,0
2096921,2096921,162815,677456,0
2096921,2096921,162952,677327,0
2096921,2096921,162950,677725,0
2096921,2096921,162812,677405,0
2096921,2096921,162863,677535,0
2096921,2096921,162996,677392,0
2096921,2096921,163018,677608,0
2096921,2096921,162933,677747,0
2096921,2096921,162839,677698,0
2096921,2096921,162782,677815,0
2096921,2096921,162700,677846,0
2096921,2096921,163117,677471,0
2096921,2096921,163097,677211,0
2096921,2096921,162938,677522,0
2096921,2096921,163306,677674,0
2096921,2096921,162914,677761,0
2096921,2096921,163122,678091,0
2096921,2096921,162885,677947,0
2096921,2096921,163300,677992,0
2096921,2096921,162947,677741,0
2096921,2096921,162907,677754,0
2096921,2096921,162934,677878,0
2096921,2096921,163006,677970,0
2096921,2096921,162947,678150,0
2096921,2096921,162950,677929,0
2096921,2096921,163056,678024,0
2096921,2096921,162959,678181,0
2096921,2096921,163344,678026,0
2096921,2096921,163030,677907,0
2096921,2096921,163092,677686,0
2096921,2096921,162888,677753,0
2096921,2096921,162743,677595,0
2096921,2096921,163294,677784,0
2096921,2096921,162963,677868,0
2096921,2096921,163290,677606,0
2096921,2096921,163143,677758,0
2096921,2096921,163213,677658,0
2096921,2096921,163108,677861,0
2096921,2096921,163137,678092,0
2096921,2096921,163054,677884,0
2096921,2096921,163075,678012,0
2096921,2096921,162867,678358,0
2096921,2096921,163002,678137,0
2096921,2096921,162915,677889,0
2096921,2096921,162901,678000,0
2096921,2096921,162868,677885,0
2096921,2096921,163276,677740,0
2096921,2096921,163090,677886,0
2096921,2096921,163103,677778,0
2096921,2096921,163303,677735,0
2096921,2096921,162988,677878,0
2096921,2096921,163022,677580,0
2096921,2096921,162848,677873,0
2096921,2096921,162702,678084,0
2096921,2096921,163172,677811,0
2096921,2096921,162969,677706,0
2096921,2096921,163137,677944,0
2096921,2096921,162635,677706,0
2096921,2096921,163249,677973,0
2096921,2096921,163034,677718,0
2096921,2096921,162936,677735,0
2096921,2096921,162960,677916,0
2096921,2096921,163273,677937,0
2096921,2096921,163093,677726,0
2096921,2096921,163070,677731,0
2096921,2096921,163030,677717,0
2096921,2096921,163021,677816,0
2096921,2096921,163072,678006,0
2096921,2096921,163052,677698,0
2096921,2096921,163005,677626,0
2096921,2096921,162925,677724,0
2096921,2096921,162755,677224,0
2096921,2096921,162922,677059,0
2096921,2096921,162794,677176,0
2096921,2096921,162986,677219,0
2096921,2096921,162631,676927,0
2096921,2096921,162568,676502,0
2096921,2096921,162697,676588,0
2096921,2096921,162631,676511,0
2096921,2096921,162680,676596,0
2096921,2096921,162353,676756,0
2096921,2096921,162083,675584,0
2096921,2096921,162216,675378,0
2096921,2096921,162021,675410,0
2096921,2096921,162151,675632,0
2096921,2096921,162003,675590,0
2096921,2096921,161999,674448,0
2096921,2096921,161854,674181,0
2096921,2096921,162083,674209,0
2096921,2096921,161706,674170,0
2096921,2096921,161389,673766,0
2096921,2096921,161418,672817,0
2096921,2096921,161574,672446,0
2096921,2096921,161275,672486,0
2096921,2096921,161491,672144,0
2096921,2096921,160536,672350,0
2096921,2096921,160455,669965,0
2096921,2096921,160450,669160,0
2096921,2096921,160385,669284,0
2096921,2096921,160306,669223,0
2096921,2096921,159492,669142,0
2096921,2096921,159263,665957,0
2096921,2096921,159083,665019,0
2096921,2096921,159101,664780,0
2096921,2096921,159214,664814,0
2096921,2096921,158489,664803,0
2096921,2096921,158275,662800,0
2096921,2096921,158251,662065,0
2096921,2096921,158176,661578,0
2096921,2096921,158159,661740,0
2096921,2096921,157505,661831,0
2096921,2096921,157271,659684,0
2096921,2096921,157513,659399,0
2096921,2096921,157516,659525,0
2096921,2096921,157402,658928,0
2096921,2096921,156967,659402,0
2096921,2096921,157172,657933,0
2096921,2096921,156867,657496,0
2096921,2096921,156916,657210,0
2096921,2096921,157048,657530,0
2096921,2096921,156554,657513,0
2096921,2096921,156650,656285,0
2096921,2096921,156312,656332,0
2096921,2096921,156506,656537,0
2096921,2096921,156553,656642,0
2096921,2096921,156168,656153,0
2096921,2096921,156442,655689,0
2096921,2096921,156386,655520,0
2096921,2096921,156585,655262,0
2096921,2096921,156650,655444,0
2096921,2096921,156500,655434,0
2096921,2096921,156253,655141,0
2096921,2096921,156167,654893,0
2096921,2096921,156193,654929,0
2096921,2096921,156305,654797,0
2096921,2096921,156196,654756,0
2096921,2096921,156023,654661,0
2096921,2096921,156288,654606,0
2096921,2096921,156165,654698,0
2096921,2096921,156149,654270,0
2096921,2096921,156180,654746,0
2096921,2096921,156051,654935,0
2096921,2096921,156467,654774,0
2096921,2096921,156112,654916,0
2096921,2096921,156144,654485,0
2096921,2096921,156379,654742,0
2096921,2096921,156228,654992,0
2096921,2096921,156075,655118,0
2096921,2096921,156420,654973,0
2096921,2096921,156333,654951,0
2096921,2096921,156360,654916,0
2096921,2096921,156368,655395,0
2096921,2096921,156554,655032,0
2096921,2096921,156339,655049,0
2096921,2096921,156278,654992,0
2096921,2096921,156566,655275,0
2096921,2096921,156508,655211,0
2096921,2096921,156366,655394,0
2096921,2096921,156430,655432,0
2096921,2096921,156202,655391,0
2096921,2096921,156096,655293,0
2096921,2096921,156363,655753,0
2096921,2096921,156791,655885,0
2096921,2096921,156771,656043,0
2096921,2096921,156613,656330,0
2096921,2096921,156775,656263,0
2096921,2096921,156819,656776,0
2096921,2096921,156972,657100,0
2096921,2096921,157016,656646,0
2096921,2096921,156736,656578,0
2096921,2096921,156983,656772,0
2096921,2096921,156946,657218,0
2096921,2096921,156926,657453,0
2096921,2096921,156783,657339,0
2096921,2096921,156688,657290,0
2096921,2096921,157270,657302,0
2096921,2096921,157185,658143,0
2096921,2096921,157302,658369,0
2096921,2096921,157075,658568,0
2096921,2096921,156987,658517,0
2096921,2096921,157338,658003,0
2096921,2096921,157626,658736,0
2096921,2096921,157249,658721,0
2096921,2096921,157499,658878,0
2096921,2096921,157522,658994,0
2096921,2096921,157970,659011,0
2096921,2096921,157594,659585,0
2096921,2096921,157506,659912,0
2096921,2096921,157464,659697,0
2096921,2096921,157469,659674,0
2096921,2096921,157702,659856,0
2096921,2096921,158055,659957,0
2096921,2096921,158010,660090,0
2096921,2096921,157649,660531,0
2096921,2096921,157762,660479,0
2096921,2096921,157964,660045,0
2096921,2096921,157822,660908,0
2096921,2096921,158068,661251,0
2096921,2096921,157950,661312,0
2096921,2096921,158207,660988,0
2096921,2096921,158502,661016,0
2096921,2096921,158453,661663,0
2096921,2096921,158391,661932,0
2096921,2096921,158156,662147,0
2096921,2096921,158225,661970,0
2096921,2096921,158597,661855,0
2096921,2096921,158546,662525,0
2096921,2096921,158380,662760,0
2096921,2096921,158585,662677,0
2096921,2096921,158595,662662,0
2096921,2096921,158481,662430,0
2096921,2096921,158744,663200,0
2096921,2096921,158688,663253,0
2096921,2096921,158852,663205,0
2096921,2096921,158787,663673,0
2096921,2096921,158840,663480,0
2096921,2096921,159019,664191,0
2096921,2096921,158945,664126,0
2096921,2096921,158935,664101,0
2096921,2096921,159113,663520,0
2096921,2096921,159085,664045,0
2096921,2096921,159223,664521,0
2096921,2096921,159242,664672,0
2096921,2096921,159368,664801,0
2096921,2096921,159191,664734,0
2096921,2096921,159620,664648,0
2096921,2096921,159290,665246,0
2096921,2096921,159536,665444,0
2096921,2096921,159364,665332,0
2096921,2096921,159445,665622,0
2096921,2096921,159562,665509,0
2096921,2096921,159531,665832,0
2096921,2096921,159450,665854,0
2096921,2096921,159483,665810,0
2096921,2096921,159305,665716,0
2096921,2096921,159544,665798,0
2096921,2096921,159546,666278,0
2096921,2096921,159963,666194,0
2096921,2096921,159607,665870,0
2096921,2096921,159682,665916,0
2096921,2096921,159773,666087,0
2096921,2096921,159633,666182,0
2096921,2096921,159504,666231,0
2096921,2096921,159436,666568,0
2096921,2096921,159711,666368,0
2096921,2096921,159626,666215,0
2096921,2096921,159264,666345,0
2096921,2096921,159747,666057,0
2096921,2096921,159541,666190,0
2096921,2096921,159528,666351,0
2096921,2096921,159366,666337,0
2096921,2096921,159540,666070,0
2096921,2096921,159753,666130,0
2096921,2096921,159489,666218,0
2096921,2096921,159490,666267,0
2096921,2096921,159531,665883,0
2096921,2096921,159632,665988,0
2096921,2096921,159588,665943,0
2096921,2096921,159735,666405,0
2096921,2096921,159534,666251,0
2096921,2096921,159571,666181,0
2096921,2096921,159541,665798,0
2096921,2096921,159223,665959,0
2096921,2096921,159434,665985,0
2096921,2096921,159538,666261,0
2096921,2096921,159424,665854,0
2096921,2096921,159637,665516,0
2096921,2096921,159310,665757,0
2096921,2096921,158913,665506,0
2096921,2096921,159350,665663,0
2096921,2096921,159305,665865,0
2096921,2096921,159016,665475,0
2096921,2096921,159306,665415,0
2096921,2096921,159179,665455,0
2096921,2096921,159346,665672,0
2096921,2096921,159541,665535,0
2096921,2096921,159169,665089,0
2096921,2096921,159373,665064,0
2096921,2096921,159627,665169,0
2096921,2096921,159282,665348,0
2096921,2096921,158996,665266,0
2096921,2096921,159143,665164,0
2096921,2096921,159045,665212,0
2096921,2096921,159002,665179,0
2096921,2096921,159317,665228,0
2096921,2096921,159344,664903,0
2096921,2096921,159126,664985,0
2096921,2096921,159168,664962,0
2096921,2096921,159320,665006,0
2096921,2096921,159054,665088,0
2096921,2096921,158754,665028,0
2096921,2096921,159060,665025,0
2096921,2096921,159390,665220,0
2096921,2096921,159189,665171,0
2096921,2096921,159478,665156,0
2096921,2096921,159479,665017,0
2096921,2096921,159394,665096,0
2096921,2096921,159299,665474,0
2096921,2096921,159171,665215,0
2096921,2096921,159305,665204,0
2096921,2096921,159016,665244,0
2096921,2096921,159540,665421,0
2096921,2096921,159830,665479,0
2096921,2096921,159266,665500,0
2096921,2096921,159454,665662,0
2096921,2096921,159815,665344,0
2096921,2096921,159698,665921,0
2096921,2096921,159629,666018,0
2096921,2096921,159838,666253,0
2096921,2096921,159609,665848,0
2096921,2096921,159841,665868,0
2096921,2096921,159526,666539,0
2096921,2096921,159871,666651,0
2096921,2096921,159534,666637,0
2096921,2096921,159706,666822,0
2096921,2096921,159905,666889,0
2096921,2096921,160030,667133,0
2096921,2096921,159896,667096,0
2096921,2096921,159938,667048,0
2096921,2096921,159638,667148,0
2096921,2096921,159888,667390,0
2096921,2096921,160085,667384,0
2096921,2096921,159938,667169,0
2096921,2096921,160204,667571,0
2096921,2096921,159910,667771,0
2096921,2096921,160140,667926,0
2096921,2096921,160169,668099,0
2096921,2096921,160160,668066,0
2096921,2096921,160003,668215,0
2096921,2096921,160059,668051,0
2096921,2096921,160295,668027,0
2096921,2096921,160392,668376,0
2096921,2096921,160225,668355,0
2096921,2096921,160174,668506,0
2096921,2096921,160262,668565,0
2096921,2096921,160256,668566,0
2096921,2096921,160280,668990,0
2096921,2096921,160240,668783,0
2096921,2096921,160340,668912,0
2096921,2096921,160276,669174,0
2096921,2096921,160628,668802,0
2096921,2096921,160349,669243,0
2096921,2096921,160496,669378,0
2096921,2096921,160622,669528,0
2096921,2096921,160701,669799,0
2096921,2096921,160680,669328,0
2096921,2096921,161132,669932,0
2096921,2096921,160687,669884,0
2096921,2096921,160516,669839,0
2096921,2096921,160359,669934,0
2096921,2096921,160670,669819,0
2096921,2096921,160833,670061,0
2096921,2096921,160736,670305,0
2096921,2096921,160839,670072,0
2096921,2096921,160815,670385,0
2096921,2096921,160941,670616,0
2096921,2096921,160789,670563,0
2096921,2096921,160733,670946,0
2096921,2096921,160935,670631,0
2096921,2096921,160762,670383,0
2096921,2096921,160772,670661,0
2096921,2096921,161067,671063,0
2096921,2096921,161112,671108,0
2096921,2096921,160938,670695,0
2096921,2096921,161084,671052,0
2096921,2096921,160687,671149,0
2096921,2096921,161102,671389,0
2096921,2096921,160918,671768,0
2096921,2096921,161453,671343,0
2096921,2096921,161247,671449,0
2096921,2096921,161249,671570,0
2096921,2096921,161504,671674,0
2096921,2096921,161414,671795,0
2096921,2096921,161396,671966,0
2096921,2096921,161469,672009,0
2096921,2096921,161368,671775,0
2096921,2096921,161197,672006,0
2096921,2096921,161577,672720,0
2096921,2096921,161363,672276,0
2096921,2096921,161294,672660,0
2096921,2096921,161547,672166,0
2096921,2096921,161409,672214,0
2096921,2096921,161505,672703,0
2096921,2096921,161421,672581,0
2096921,2096921,161543,672608,0
2096921,2096921,161583,672758,0
2096921,2096921,161579,673263,0
2096921,2096921,161948,672842,0
2096921,2096921,161690,672787,0
2096921,2096921,161710,672717,0
2096921,2096921,161506,672840,0
2096921,2096921,161419,673209,0
2096921,2096921,161623,673352,0
2096921,2096921,161793,673459,0
2096921,2096921,161636,673282,0
2096921,2096921,161701,673228,0
2096921,2096921,161689,673562,0
2096921,2096921,161719,673499,0
2096921,2096921,161542,673426,0
2096921,2096921,161770,673837,0
2096921,2096921,162036,673526,0
2096921,2096921,161818,674213,0
2096921,2096921,162013,674003,0
2096921,2096921,161977,673842,0
2096921,2096921,161945,673667,0
2096921,2096921,161984,673944,0
2096921,2096921,162169,674090,0
2096921,2096921,161979,674379,0
2096921,2096921,161749,674069,0
2096921,2096921,161732,674229,0
2096921,2096921,161940,674057,0
2096921,2096921,162022,674378,0
2096921,2096921,161828,674474,0
2096921,2096921,162148,674498,0
2096921,2096921,162019,674602,0
2096921,2096921,162103,674724,0
2096921,2096921,162132,674559,0
2096921,2096921,162184,674747,0
2096921,2096921,162093,674519,0
2096921,2096921,162436,674675,0
2096921,2096921,162208,674770,0
2096921,2096921,162412,674897,0
2096921,2096921,162266,674809,0
2096921,2096921,161742,675228,0
2096921,2096921,161857,674958,0
2096921,2096921,162116,675344,0
2096921,2096921,162463,675065,0
2096921,2096921,162252,675583,0
2096921,2096921,162073,675273,0
2096921,2096921,162385,675509,0
2096921,2096921,162272,675202,0
2096921,2096921,162353,675336,0
2096921,2096921,162483,675069,0
2096921,2096921,162547,675267,0
2096921,2096921,162422,675338,0
2096921,2096921,162363,675620,0
2096921,2096921,162342,675625,0
2096921,2096921,162421,675820,0
2096921,2096921,162392,675369,0
2096921,2096921,162169,675527,0
2096921,2096921,162407,675557,0
2096921,2096921,162446,675650,0
2096921,2096921,162394,675855,0
2096921,2096921,162347,675968,0
2096921,2096921,162303,675755,0
2096921,2096921,162543,676080,0
2096921,2096921,162593,675889,0
2096921,2096921,162418,676206,0
2096921,2096921,162624,676120,0
2096921,2096921,162760,675736,0
2096921,2096921,162384,675967,0
2096921,2096921,162432,676181,0
2096921,2096921,162456,676262,0
2096921,2096921,162517,676093,0
2096921,2096921,162619,676048,0
2096921,2096921,162550,676238,0
2096921,2096921,162574,676616,0
2096921,2096921,162563,676539,0
2096921,2096921,162625,676056,0
2096921,2096921,162533,676108,0
2096921,2096921,162736,676367,0
2096921,2096921,163092,676508,0
2096921,2096921,162556,676413,0
2096921,2096921,162642,676242,0
2096921,2096921,162737,676539,0
2096921,2096921,162641,676285,0
2096921,2096921,162643,676623,0
2096921,2096921,162884,676708,0
2096921,2096921,162963,676788,0
2096921,2096921,162661,676654,0
2096921,2096921,162692,676607,0
2096921,2096921,162574,676864,0
2096921,2096921,162578,676796,0
2096921,2096921,162747,676870,0
2096921,2096921,162599,676678,0
2096921,2096921,162597,676514,0
2096921,2096921,162678,676833,0
2096921,2096921,162800,676863,0
2096921,2096921,162690,676815,0
2096921,2096921,162948,676764,0
2096921,2096921,162649,676949,0
2096921,2096921,162867,676872,0
2096921,2096921,162794,677264,0
2096921,2096921,162972,677288,0
2096921,2096921,162787,677287,0
2096921,2096921,162732,677122,0
2096921,2096921,162769,677167,0
2096921,2096921,162915,677096,0
2096921,2096921,162766,676923,0
2096921,2096921,163037,676977,0
2096921,2096921,162810,676831,0
2096921,2096921,162732,677349,0
2096921,2096921,162748,677010,0
2096921,2096921,162600,676964,0
2096921,2096921,162977,677353,0
2096921,2096921,163064,677334,0
2096921,2096921,163089,677501,0
2096921,2096921,162949,677675,0
2096921,2096921,162912,677362,0
2096921,2096921,163149,677400,0
2096921,2096921,163128,677343,0
2096921,2096921,162951,677220,0
2096921,2096921,163036,677383,0
2096921,2096921,163140,677548,0
2096921,2096921,162865,677265,0
2096921,2096921,163100,677429,0
2096921,2096921,163166,677627,0
2096921,2096921,163032,677491,0
2096921,2096921,162951,677701,0
2096921,2096921,162800,677851,0
2096921,2096921,162764,677631,0
2096921,2096921,163142,677842,0
2096921,2096921,162990,677832,0
2096921,2096921,162955,677477,0
2096921,2096921,163062,677469,0
2096921,2096921,163331,677642,0
2096921,2096921,163204,677563,0
2096921,2096921,163107,677555,0
2096921,2096921,162759,677921,0
2096921,2096921,162836,677838,0
2096921,2096921,163012,677905,0
2096921,2096921,162883,677723,0
2096921,2096921,162882,678065,0
2096921,2096921,162889,677766,0
2096921,2096921,163213,677766,0
2096921,2096921,163049,678094,0
2096921,2096921,162963,677652,0
2096921,2096921,162791,677976,0
2096921,2096921,162813,677736,0
2096921,2096921,162919,677678,0
2096921,2096921,162947,677884,0
2096921,2096921,163066,677588,0
2096921,2096921,163335,678020,0
2096921,2096921,163039,677723,0
2096921,2096921,162897,677845,0
2096921,2096921,162933,677969,0
2096921,2096921,162896,677900,0
2096921,2096921,162752,677927,0
2096921,2096921,162869,677781,0
2096921,2096921,162893,677862,0
2096921,2096921,162817,677924,0
2096921,2096921,162902,678047,0
2096921,2096921,163032,678205,0
2096921,2096921,163247,677665,0
2096921,2096921,163093,677714,0
2096921,2096921,162988,677730,0
2096921,2096921,163151,677886,0
2096921,2096921,162880,677761,0
2096921,2096921,162978,677743,0
2096921,2096921,162907,677726,0
2096921,2096921,162995,677851,0
2096921,2096921,163190,677883,0
2096921,2096921,163039,677872,0
2096921,2096921,162883,677784,0
2096921,2096921,163043,677888,0
2096921,2096921,163147,677803,0
2096921,2096921,162914,678291,0
2096921,2096921,163025,677818,0
2096921,2096921,163348,677763,0
2096921,2096921,163173,677913,0
2096921,2096921,163134,677827,0
2096921,2096921,163087,677973,0
2096921,2096921,163073,678124,0
2096921,2096921,163142,677807,0
2096921,2096921,162738,677936,0
2096921,2096921,162802,677793,0
2096921,2096921,163062,677775,0
2096921,2096921,162950,677725,0
2096921,2096921,163115,677463,0
2096921,2096921,163126,677849,0
2096921,2096921,162656,677783,0
2096921,2096921,162705,677181,0
2096921,2096921,162897,677480,0
2096921,2096921,163216,677083,0
2096921,2096921,163081,677181,0
2096921,2096921,162763,677023,0
2096921,2096921,162895,676616,0
2096921,2096921,162797,676515,0
2096921,2096921,162593,676319,0
2096921,2096921,162811,676516,0
2096921,2096921,162351,676539,0
2096921,2096921,162141,675557,0
2096921,2096921,162370,675313,0
2096921,2096921,162526,675392,0
2096921,2096921,162264,675586,0
2096921,2096921,161965,675191,0
2096921,2096921,161778,674239,0
2096921,2096921,161998,673798,0
2096921,2096921,161917,673992,0
2096921,2096921,161688,673992,0
2096921,2096921,161777,673897,0
2096921,2096921,161533,672813,0
2096921,2096921,161431,672605,0
2096921,2096921,161388,672599,0
2096921,2096921,161326,672290,0
2096921,2096921,160662,672384,0
2096921,2096921,160592,669602,0
2096921,2096921,160387,669264,0
2096921,2096921,159999,669144,0
2096921,2096921,160210,669500,0
2096921,2096921,159437,668952,0
2096921,2096921,159329,665734,0
2096921,2096921,159191,665137,0
2096921,2096921,159205,664789,0
2096921,2096921,158980,664645,0
2096921,2096921,158485,664686,0
2096921,2096921,158540,662352,0
2096921,2096921,158483,661754,0
2096921,2096921,158204,661582,0
2096921,2096921,158147,661603,0
2096921,2096921,157817,661569,0
2096921,2096921,157379,659513,0
2096921,2096921,157561,659406,0
2096921,2096921,157624,659185,0
2096921,2096921,157393,659049,0
2096921,2096921,156921,659232,0
2096921,2096921,156753,657661,0
2096921,2096921,156787,657625,0
2096921,2096921,157172,657521,0
2096921,2096921,157002,657639,0
2096921,2096921,156561,657481,0
2096921,2096921,156667,656425,0
2096921,2096921,156729,656196,0
2096921,2096921,156566,655912,0
2096921,2096921,156795,656327,0
2096921,2096921,156448,656493,0
2096921,2096921,156476,655698,0
2096921,2096921,156108,655455,0
2096921,2096921,156140,655538,0
2096921,2096921,156193,655444,0
2096921,2096921,156056,655370,0
2096921,2096921,156136,654812,0
2096921,2096921,156173,654735,0
2096921,2096921,156136,654725,0
2096921,2096921,156200,654715,0
2096921,2096921,156030,654737,0
2096921,2096921,156348,654660,0
2096921,2096921,156033,654589,0
2096921,2096921,156289,654556,0
2096921,2096921,156202,654600,0
2096921,2096921,156227,654671,0
2096921,2096921,155996,654512,0
2096921,2096921,156076,654463,0
2096921,2096921,156150,654400,0
2096921,2096921,156028,654452,0
2096921,2096921,155859,654680,0
2096921,2096921,156317,654814,0
2096921,2096921,156486,655091,0
2096921,2096921,156349,654689,0
2096921,2096921,156423,654918,0
2096921,2096921,156307,654817,0
2096921,2096921,156231,655334,0
2096921,2096921,156194,655232,0
2096921,2096921,156270,655066,0
2096921,2096921,156250,655317,0
2096921,2096921,156481,655166,0
2096921,2096921,156372,655270,0
2096921,2096921,156385,655601,0
2096921,2096921,156199,655359,0
2096921,2096921,156345,655261,0
2096921,2096921,156691,655463,0
2096921,2096921,156686,655943,0
2096921,2096921,156467,656280,0
2096921,2096921,156652,656414,0
2096921,2096921,156258,656220,0
2096921,2096921,156495,656152,0
2096921,2096921,156638,656740,0
2096921,2096921,156673,656583,0
2096921,2096921,156924,656892,0
2096921,2096921,156744,657052,0
2096921,2096921,157053,656793,0
2096921,2096921,157019,657220,0
2096921,2096921,157092,657184,0
2096921,2096921,156944,657686,0
2096921,2096921,156751,657710,0
2096921,2096921,157345,657821,0
2096921,2096921,157258,658213,0
2096921,2096921,157390,658301,0
2096921,2096921,157051,657971,0
2096921,2096921,157342,657998,0
2096921,2096921,157325,658081,0
2096921,2096921,157521,658835,0
2096921,2096921,157233,659098,0
2096921,2096921,157392,658881,0
2096921,2096921,157336,659014,0
2096921,2096921,157734,659047,0
2096921,2096921,157680,659475,0
2096921,2096921,157421,659760,0
2096921,2096921,157500,659384,0
2096921,2096921,157732,659550,0
2096921,2096921,157865,659761,0
2096921,2096921,157864,660257,0
2096921,2096921,157682,660241,0
2096921,2096921,157738,660441,0
2096921,2096921,157802,660075,0
2096921,2096921,157898,660152,0
2096921,2096921,158443,660868,0
2096921,2096921,158086,661154,0
2096921,2096921,158179,661048,0
2096921,2096921,158197,661103,0
2096921,2096921,158226,660904,0
2096921,2096921,158197,661840,0
2096921,2096921,158242,661965,0
2096921,2096921,158382,661762,0
2096921,2096921,158392,661658,0
2096921,2096921,158575,661755,0
2096921,2096921,158601,662400,0
2096921,2096921,158411,662447,0
2096921,2096921,158574,662498,0
2096921,2096921,158484,662496,0
2096921,2096921,158759,662421,0
2096921,2096921,158738,663347,0
2096921,2096921,158843,663347,0
2096921,2096921,158679,663289,0
2096921,2096921,158597,663326,0
2096921,2096921,158998,663398,0
2096921,2096921,158821,664077,0
2096921,2096921,158966,664417,0
2096921,2096921,159174,664508,0
2096921,2096921,159329,664162,0
2096921,2096921,159333,664100,0
2096921,2096921,158999,664295,0
2096921,2096921,159179,664798,0
2096921,2096921,159251,664931,0
2096921,2096921,159322,664897,0
2096921,2096921,159219,664783,0
2096921,2096921,159237,665148,0
2096921,2096921,159270,665303,0
2096921,2096921,159010,665098,0
2096921,2096921,159062,665055,0
2096921,2096921,159291,665428,0
2096921,2096921,159335,665625,0
2096921,2096921,159541,665695,0
2096921,2096921,159067,665838,0
2096921,2096921,159086,665835,0
2096921,2096921,159414,665661,0
2096921,2096921,159412,665938,0
2096921,2096921,159408,665956,0
2096921,2096921,159425,666261,0
2096921,2096921,159439,666284,0
2096921,2096921,159616,665916,0
2096921,2096921,159644,666162,0
2096921,2096921,159435,666253,0
2096921,2096921,159443,666008,0
2096921,2096921,159370,666051,0
2096921,2096921,159416,666230,0
2096921,2096921,159492,666467,0
2096921,2096921,159359,666123,0
2096921,2096921,159622,666251,0
2096921,2096921,159498,666206,0
2096921,2096921,159389,666319,0
2096921,2096921,159676,666378,0
2096921,2096921,159505,666212,0
2096921,2096921,159511,666252,0
2096921,2096921,159800,666282,0
2096921,2096921,159951,666285,0
2096921,2096921,159734,666219,0
2096921,2096921,159625,665901,0
2096921,2096921,159595,665729,0
2096921,2096921,159713,665826,0
2096921,2096921,159632,666171,0
2096921,2096921,159606,665848,0
2096921,2096921,159620,665664,0
2096921,2096921,159592,665747,0
2096921,2096921,159439,665715,0
2096921,2096921,159389,665871,0
2096921,2096921,159505,665822,0
2096921,2096921,159556,665622,0
2096921,2096921,159183,665472,0
2096921,2096921,159534,665513,0
2096921,2096921,159595,665967,0
2096921,2096921,159309,665420,0
2096921,2096921,158939,665632,0
2096921,2096921,159323,665469,0
2096921,2096921,159298,665389,0
2096921,2096921,159329,665686,0
2096921,2096921,159199,665189,0
2096921,2096921,159520,665281,0
2096921,2096921,159297,664968,0
2096921,2096921,159334,665179,0
2096921,2096921,159304,664781,0
2096921,2096921,159397,664949,0
2096921,2096921,159426,664966,0
2096921,2096921,159341,664863,0
2096921,2096921,159421,665243,0
2096921,2096921,159239,664757,0
2096921,2096921,159190,665091,0
2096921,2096921,159147,665102,0
2096921,2096921,159434,665032,0
2096921,2096921,159308,665212,0
2096921,2096921,159081,664787,0
2096921,2096921,159211,664986,0
2096921,2096921,159321,665245,0
2096921,2096921,159403,664947,0
2096921,2096921,159361,665021,0
2096921,2096921,159380,665333,0
2096921,2096921,159213,665556,0
2096921,2096921,159213,665598,0
2096921,2096921,159306,665540,0
2096921,2096921,159529,665297,0
2096921,2096921,159270,665506,0
2096921,2096921,159510,665468,0
2096921,2096921,159303,665603,0
2096921,2096921,159354,665389,0
2096921,2096921,159375,665505,0
2096921,2096921,159220,665567,0
2096921,2096921,159689,666177,0
2096921,2096921,159491,666249,0
2096921,2096921,159574,665883,0
2096921,2096921,159653,666046,0
2096921,2096921,159820,666290,0
2096921,2096921,159602,666671,0
2096921,2096921,159796,666757,0
2096921,2096921,159634,666480,0
2096921,2096921,159936,666663,0
2096921,2096921,159807,666717,0
2096921,2096921,159982,667231,0
2096921,2096921,159561,667271,0
2096921,2096921,159865,667013,0
2096921,2096921,159858,666990,0
2096921,2096921,159880,667230,0
2096921,2096921,160311,667724,0
2096921,2096921,160123,667707,0
2096921,2096921,160285,667897,0
2096921,2096921,160145,667885,0
2096921,2096921,160296,667599,0
2096921,2096921,160393,668071,0
2096921,2096921,160309,667976,0
2096921,2096921,160572,668072,0
2096921,2096921,160367,668264,0
2096921,2096921,160324,668480,0
2096921,2096921,160170,668564,0
2096921,2096921,160342,668395,0
2096921,2096921,160067,668485,0
2096921,2096921,160134,668633,0
2096921,2096921,160380,668453,0
2096921,2096921,160450,668844,0
2096921,2096921,160469,668845,0
2096921,2096921,160696,669239,0
2096921,2096921,160652,669026,0
2096921,2096921,160763,668809,0
2096921,2096921,160643,669125,0
2096921,2096921,160717,669323,0
2096921,2096921,160334,669368,0
2096921,2096921,160716,669359,0
2096921,2096921,160705,669827,0
2096921,2096921,160725,669976,0
2096921,2096921,160446,670127,0
2096921,2096921,160486,669695,0
2096921,2096921,160516,669646,0
2096921,2096921,160613,669713,0
2096921,2096921,160936,670065,0
2096921,2096921,161112,670610,0
2096921,2096921,160752,670493,0
2096921,2096921,160613,670427,0
2096921,2096921,161010,670201,0
2096921,2096921,160836,670651,0
2096921,2096921,160489,670702,0
2096921,2096921,160814,670376,0
2096921,2096921,160799,670567,0
2096921,2096921,160776,670714,0
2096921,2096921,161039,670959,0
2096921,2096921,161189,670905,0
2096921,2096921,161129,670904,0
2096921,2096921,161099,671190,0
2096921,2096921,161476,671139,0
2096921,2096921,161561,671569,0
2096921,2096921,161320,671406,0
2096921,2096921,160976,671365,0
2096921,2096921,161100,671559,0
2096921,2096921,161344,671296,0
2096921,2096921,161182,671781,0
2096921,2096921,161284,671946,0
2096921,2096921,161210,671883,0
2096921,2096921,161280,671808,0
2096921,2096921,161223,672041,0
2096921,2096921,161426,672135,0
2096921,2096921,161325,672096,0
2096921,2096921,161309,672289,0
2096921,2096921,160835,672288,0
2096921,2096921,161565,672292,0
2096921,2096921,161328,672696,0
2096921,2096921,161676,672649,0
2096921,2096921,161480,672599,0
2096921,2096921,161601,672535,0
2096921,2096921,161447,673016,0
2096921,2096921,161646,672960,0
2096921,2096921,161638,673129,0
2096921,2096921,161620,673078,0
2096921,2096921,161680,673058,0
2096921,2096921,162054,672895,0
2096921,2096921,161834,673130,0
2096921,2096921,161704,673242,0
2096921,2096921,161876,673248,0
2096921,2096921,161972,673446,0
2096921,2096921,161920,673330,0
2096921,2096921,161883,673511,0
2096921,2096921,161801,673784,0
2096921,2096921,161748,673709,0
2096921,2096921,162067,673401,0
2096921,2096921,162053,673299,0
2096921,2096921,161808,673951,0
2096921,2096921,162113,673929,0
2096921,2096921,161872,673887,0
2096921,2096921,161821,673905,0
2096921,2096921,161626,673857,0
2096921,2096921,161839,674080,0
2096921,2096921,161936,674075,0
2096921,2096921,162106,674176,0
2096921,2096921,161944,674023,0
2096921,2096921,162083,674066,0
2096921,2096921,162002,674302,0
2096921,2096921,162032,674210,0
2096921,2096921,161889,674270,0
2096921,2096921,162036,674339,0
2096921,2096921,161980,674461,0
2096921,2096921,162166,674663,0
2096921,2096921,161987,674868,0
2096921,2096921,162082,674600,0
2096921,2096921,162100,674532,0
2096921,2096921,162294,674776,0
2096921,2096921,162228,675107,0
2096921,2096921,162282,674767,0
2096921,2096921,162136,675082,0
2096921,2096921,162311,674862,0
2096921,2096921,162436,675193,0
2096921,2096921,162480,675153,0
2096921,2096921,162151,674934,0
2096921,2096921,162248,675071,0
2096921,2096921,162155,675402,0
2096921,2096921,162091,675420,0
2096921,2096921,162423,675525,0
2096921,2096921,162356,675443,0
2096921,2096921,162137,675489,0
2096921,2096921,162379,675431,0
2096921,2096921,162457,675223,0
2096921,2096921,162476,675351,0
2096921,2096921,162549,675782,0
2096921,2096921,162421,675609,0
2096921,2096921,162543,675833,0
2096921,2096921,162737,676024,0
2096921,2096921,162428,675886,0
2096921,2096921,162357,675507,0
2096921,2096921,162452,675858,0
2096921,2096921,162475,675558,0
2096921,2096921,162363,675525,0
2096921,2096921,162449,675949,0
2096921,2096921,162698,676150,0
2096921,2096921,162722,676057,0
2096921,2096921,162338,676314,0
2096921,2096921,162450,675922,0
2096921,2096921,162504,676174,0
2096921,2096921,162413,676028,0
2096921,2096921,162389,676150,0
2096921,2096921,162554,676437,0
2096921,2096921,162814,676296,0
2096921,2096921,162384,676321,0
2096921,2096921,162647,676265,0
2096921,2096921,162712,676285,0
2096921,2096921,162715,676299,0
2096921,2096921,162643,676262,0
2096921,2096921,162544,676415,0
2096921,2096921,162737,676210,0
2096921,2096921,162770,676260,0
2096921,2096921,162666,676284,0
2096921,2096921,162955,676631,0
2096921,2096921,162448,676696,0
2096921,2096921,162688,676543,0
2096921,2096921,162750,676423,0
2096921,2096921,162588,676721,0
2096921,2096921,162834,676529,0
2096921,2096921,162904,676701,0
2096921,2096921,163119,676740,0
2096921,2096921,163024,676645,0
2096921,2096921,162863,676681,0
2096921,2096921,162692,676742,0
2096921,2096921,162861,676571,0
2096921,2096921,162679,676832,0
2096921,2096921,162842,677221,0
2096921,2096921,162730,676901,0
2096921,2096921,162445,676810,0
2096921,2096921,162803,676807,0
2096921,2096921,162842,677092,0
2096921,2096921,162803,676682,0
2096921,2096921,162956,676930,0
2096921,2096921,162850,676916,0
2096921,2096921,162850,676989,0
2096921,2096921,162772,677146,0
2096921,2096921,162875,676845,0
2096921,2096921,162799,676925,0
2096921,2096921,162698,676827,0
2096921,2096921,162927,676883,0
2096921,2096921,162517,677067,0
2096921,2096921,162912,677365,0
2096921,2096921,162770,677252,0
2096921,2096921,162695,677216,0
2096921,2096921,162819,677349,0
2096921,2096921,162830,677561,0
2096921,2096921,162788,677472,0
2096921,2096921,162902,677378,0
2096921,2096921,162854,677270,0
2096921,2096921,162981,677454,0
2096921,2096921,163000,677603,0
2096921,2096921,163161,677538,0
2096921,2096921,163140,677792,0
2096921,2096921,162972,677582,0
2096921,2096921,162756,677706,0
2096921,2096921,162910,677719,0
2096921,2096921,163008,677343,0
2096921,2096921,162998,677706,0
2096921,2096921,163043,677714,0
2096921,2096921,163192,677334,0
2096921,2096921,163104,677648,0
2096921,2096921,162842,677607,0
2096921,2096921,162918,677511,0
2096921,2096921,163141,677519,0
2096921,2096921,163090,677610,0
2096921,2096921,163068,678003,0
2096921,2096921,163056,677961,0
2096921,2096921,163349,677799,0
2096921,2096921,162782,677907,0
2096921,2096921,163064,677549,0
2096921,2096921,162769,677961,0
2096921,2096921,162905,677701,0
2096921,2096921,163295,677899,0
2096921,2096921,163269,678017,0
2096921,2096921,163233,677773,0
2096921,2096921,163493,678231,0
2096921,2096921,163130,677851,0
2096921,2096921,163070,678032,0
2096921,2096921,162870,677937,0
2096921,2096921,162952,677791,0
2096921,2096921,162903,677920,0
2096921,2096921,162959,677518,0
2096921,2096921,163245,677923,0
2096921,2096921,163159,677784,0
2096921,2096921,162823,678077,0
2096921,2096921,162896,677866,0
2096921,2096921,163007,677923,0
2096921,2096921,162981,677877,0
2096921,2096921,163046,677808,0
2096921,2096921,163008,677663,0
2096921,2096921,163043,678005,0
2096921,2096921,163085,677697,0
2096921,2096921,162811,677870,0
2096921,2096921,163140,677558,0
2096921,2096921,163118,677698,0
2096921,2096921,163089,677650,0
2096921,2096921,163033,677970,0
2096921,2096921,163211,678178,0
2096921,2096921,162984,677923,0
2096921,2096921,162960,677592,0
2096921,2096921,162957,677608,0
2096921,2096921,162998,677705,0
2096921,2096921,162970,677608,0
2096921,2096921,162985,677933,0
2096921,2096921,163055,678191,0
2096921,2096921,163119,677932,0
2096921,2096921,162915,677870,0
2096921,2096921,163057,677948,0
2096921,2096921,162897,677781,0
2096921,2096921,163073,677500,0
2096921,2096921,163032,677841,0
2096921,2096921,162917,678024,0
2096921,2096921,162896,677978,0
2096921,2096921,163238,678103,0
2096921,2096921,163011,678179,0
2096921,2096921,162829,677780,0
2096921,2096921,162900,677900,0
2096921,2096921,163396,677667,0
2096921,2096921,162708,677611,0
2096921,2096921,162779,677127,0
2096921,2096921,163010,677113,0
2096921,2096921,162730,676951,0
2096921,2096921,162585,676905,0
2096921,2096921,162515,677000,0
2096921,2096921,162728,676658,0
2096921,2096921,162642,676571,0
2096921,2096921,162676,676690,0
2096921,2096921,162598,676576,0
2096921,2096921,162341,676583,0
2096921,2096921,162021,675519,0
2096921,2096921,162273,675308,0
2096921,2096921,161963,675218,0
2096921,2096921,162431,675273,0
2096921,2096921,162335,675263,0
2096921,2096921,161773,674128,0
2096921,2096921,161983,673886,0
2096921,2096921,161912,674112,0
2096921,2096921,162030,673955,0
2096921,2096921,161583,674009,0
2096921,2096921,161262,672700,0
2096921,2096921,161466,672416,0
2096921,2096921,161230,672663,0
2096921,2096921,161306,672485,0
2096921,2096921,160580,672639,0
2096921,2096921,160260,669806,0
2096921,2096921,160341,669094,0
2096921,2096921,160475,668800,0
2096921,2096921,160760,669065,0
2096921,2096921,159708,669155,0
2096921,2096921,159185,665256,0
2096921,2096921,158727,665024,0
2096921,2096921,159034,664546,0
2096921,2096921,158878,664669,0
2096921,2096921,158506,664718,0
2096921,2096921,158416,662425,0
2096921,2096921,158305,661772,0
2096921,2096921,158267,661693,0
2096921,2096921,158209,661540,0
2096921,2096921,157629,661490,0
2096921,2096921,157256,659793,0
2096921,2096921,157608,659380,0
2096921,2096921,157672,659470,0
2096921,2096921,157670,659263,0
2096921,2096921,157015,659318,0
2096921,2096921,157007,658008,0
2096921,2096921,156776,657475,0
2096921,2096921,156944,657470,0
2096921,2096921,156960,657289,0
2096921,2096921,156857,657478,0
2096921,2096921,156758,656450,0
2096921,2096921,156580,656457,0
2096921,2096921,156782,656605,0
2096921,2096921,156764,656374,0
2096921,2096921,156600,656248,0
2096921,2096921,156401,655647,0
2096921,2096921,156500,655135,0
2096921,2096921,156549,655460,0
2096921,2096921,156536,655715,0
2096921,2096921,156320,655331,0
2096921,2096921,156084,654932,0
2096921,2096921,156356,654825,0
2096921,2096921,156205,654880,0
2096921,2096921,156124,654515,0
2096921,2096921,156057,654900,0
2096921,2096921,156244,654505,0
2096921,2096921,155905,654605,0
2096921,2096921,156005,654591,0
2096921,2096921,156014,654506,0
2096921,2096921,156380,654661,0
2096921,2096921,156268,654715,0
2096921,2096921,156237,654620,0
2096921,2096921,156109,654629,0
2096921,2096921,156162,654603,0
2096921,2096921,156083,654554,0
2096921,2096921,156253,654980,0
2096921,2096921,156455,654931,0
2096921,2096921,156424,654778,0
2096921,2096921,156255,655089,0
2096921,2096921,156533,654797,0
2096921,2096921,156270,655073,0
2096921,2096921,156512,655134,0
2096921,2096921,156489,655237,0
2096921,2096921,156485,655110,0
2096921,2096921,156539,655242,0
2096921,2096921,156312,655453,0
2096921,2096921,156193,655201,0
2096921,2096921,156642,655220,0
2096921,2096921,156299,655487,0
2096921,2096921,156475,655576,0
2096921,2096921,156553,655987,0
2096921,2096921,156627,656419,0
2096921,2096921,156705,656445,0
2096921,2096921,156577,656250,0
2096921,2096921,156692,656385,0
2096921,2096921,156785,656551,0
2096921,2096921,156669,656781,0
2096921,2096921,157050,656648,0
2096921,2096921,156789,656947,0
2096921,2096921,156760,657154,0
2096921,2096921,156762,657339,0
2096921,2096921,156827,657302,0
2096921,2096921,156715,657654,0
2096921,2096921,156777,657641,0
2096921,2096921,157503,657452,0
2096921,2096921,157261,658105,0
2096921,2096921,157381,658311,0
2096921,2096921,157283,658169,0
2096921,2096921,157164,658472,0
2096921,2096921,157242,658210,0
2096921,2096921,157155,658930,0
2096921,2096921,157385,659102,0
2096921,2096921,157320,659133,0
2096921,2096921,157624,659170,0
2096921,2096921,157612,658956,0
2096921,2096921,157681,659561,0
2096921,2096921,157701,659421,0
2096921,2096921,157513,659514,0
2096921,2096921,157657,659842,0
2096921,2096921,157768,659550,0
2096921,2096921,157743,660220,0
2096921,2096921,157898,660201,0
2096921,2096921,157658,660370,0
2096921,2096921,157784,660224,0
2096921,2096921,157595,660706,0
2096921,2096921,158190,661015,0
2096921,2096921,158180,661215,0
2096921,2096921,157919,661059,0
2096921,2096921,157961,661113,0
2096921,2096921,158156,660736,0
2096921,2096921,158069,661519,0
2096921,2096921,158282,661623,0
2096921,2096921,158334,661846,0
2096921,2096921,158273,662005,0
2096921,2096921,158489,662134,0
2096921,2096921,158186,662337,0
2096921,2096921,158569,662615,0
2096921,2096921,158241,662636,0
2096921,2096921,158145,662844,0
2096921,2096921,158433,662613,0
2096921,2096921,158670,663288,0
2096921,2096921,158835,663231,0
2096921,2096921,159005,663360,0
2096921,2096921,158842,663259,0
2096921,2096921,158960,663285,0
2096921,2096921,159183,663834,0
2096921,2096921,158929,663834,0
2096921,2096921,158917,663863,0
2096921,2096921,158699,664174,0
2096921,2096921,159049,664103,0
2096921,2096921,159369,664356,0
2096921,2096921,159074,664737,0
2096921,2096921,158899,664729,0
2096921,2096921,158911,664662,0
2096921,2096921,159358,664847,0
2096921,2096921,159595,665189,0
2096921,2096921,159248,665181,0
2096921,2096921,159267,665389,0
2096921,2096921,159349,665091,0
2096921,2096921,159423,665224,0
2096921,2096921,159307,665474,0
2096921,2096921,159303,665338,0
2096921,2096921,159360,665662,0
2096921,2096921,159800,665780,0
2096921,2096921,159539,665505,0
2096921,2096921,159442,665758,0
2096921,2096921,159691,665605,0
2096921,2096921,159588,665858,0
2096921,2096921,159574,665891,0
2096921,2096921,159737,665916,0
2096921,2096921,159602,666055,0
2096921,2096921,159557,666359,0
2096921,2096921,159528,665887,0
2096921,2096921,159617,666337,0
2096921,2096921,159568,666377,0
2096921,2096921,159520,666380,0
2096921,2096921,159476,666327,0
2096921,2096921,159553,666249,0
2096921,2096921,159675,666228,0
2096921,2096921,159425,666180,0
2096921,2096921,159561,666140,0
2096921,2096921,159678,666125,0
2096921,2096921,159377,665843,0
2096921,2096921,159451,665945,0
2096921,2096921,159388,666163,0
2096921,2096921,159617,665967,0
2096921,2096921,159653,666324,0
2096921,2096921,159319,666041,0
2096921,2096921,159529,666018,0
2096921,2096921,159411,665792,0
2096921,2096921,159513,665689,0
2096921,2096921,159573,665930,0
2096921,2096921,159574,665539,0
2096921,2096921,159630,665785,0
2096921,2096921,159594,665717,0
2096921,2096921,159532,665548,0
2096921,2096921,159437,665687,0
2096921,2096921,159456,665493,0
2096921,2096921,159719,665514,0
2096921,2096921,159399,665797,0
2096921,2096921,159230,665434,0
2096921,2096921,159483,665369,0
2096921,2096921,159147,665018,0
2096921,2096921,158959,665038,0
2096921,2096921,159187,665230,0
2096921,2096921,158874,664937,0
2096921,2096921,159298,664627,0
2096921,2096921,159468,665339,0
2096921,2096921,159354,665199,0
2096921,2096921,159051,665110,0
2096921,2096921,158914,665356,0
2096921,2096921,159033,664812,0
2096921,2096921,159086,664548,0
2096921,2096921,159149,664803,0
2096921,2096921,159283,665098,0
2096921,2096921,159128,664757,0
2096921,2096921,159246,664523,0
2096921,2096921,159170,664548,0
2096921,2096921,159310,664767,0
2096921,2096921,159367,664852,0
2096921,2096921,159217,664663,0
2096921,2096921,159435,665198,0
2096921,2096921,159425,665135,0
2096921,2096921,159151,665253,0
2096921,2096921,159068,665216,0
2096921,2096921,159351,665400,0
2096921,2096921,159234,665473,0
2096921,2096921,159419,665488,0
2096921,2096921,159283,665211,0
2096921,2096921,159278,665354,0
2096921,2096921,159435,665369,0
2096921,2096921,159312,665431,0
2096921,2096921,159257,665190,0
2096921,2096921,159244,665817,0
2096921,2096921,159384,665213,0
2096921,2096921,159606,665903,0
2096921,2096921,159332,666077,0
2096921,2096921,159266,666355,0
2096921,2096921,159386,666065,0
2096921,2096921,159563,665936,0
2096921,2096921,159546,666549,0
2096921,2096921,159462,666473,0
2096921,2096921,159436,666459,0
2096921,2096921,159728,666768,0
2096921,2096921,159742,666776,0
2096921,2096921,159662,667185,0
2096921,2096921,159572,667122,0
2096921,2096921,159725,667325,0
2096921,2096921,159920,666872,0
2096921,2096921,159870,667119,0
2096921,2096921,159825,667455,0
2096921,2096921,160078,667709,0
2096921,2096921,160097,667690,0
2096921,2096921,159828,667597,0
2096921,2096921,159909,667527,0
2096921,2096921,160210,667918,0
2096921,2096921,160200,667946,0
2096921,2096921,160044,668385,0
2096921,2096921,160083,668222,0
2096921,2096921,160459,668161,0
2096921,2096921,160362,668256,0
2096921,2096921,160237,668529,0
2096921,2096921,160007,668766,0
2096921,2096921,160235,668486,0
2096921,2096921,160223,668376,0
2096921,2096921,160260,668949,0
2096921,2096921,160163,669117,0
2096921,2096921,160197,669100,0
2096921,2096921,160359,668783,0
2096921,2096921,160399,668879,0
2096921,2096921,160507,668970,0
2096921,2096921,160738,669432,0
2096921,2096921,160666,669191,0
2096921,2096921,160849,669366,0
2096921,2096921,160673,669291,0
2096921,2096921,160549,669988,0
2096921,2096921,160498,669664,0
2096921,2096921,160395,669741,0
2096921,2096921,160828,669487,0
2096921,2096921,160632,669796,0
2096921,2096921,160985,669999,0
2096921,2096921,160607,670142,0
2096921,2096921,160852,670070,0
2096921,2096921,160789,670250,0
2096921,2096921,160923,670105,0
2096921,2096921,160586,670672,0
2096921,2096921,160555,670644,0
2096921,2096921,160765,670900,0
2096921,2096921,160794,670694,0
2096921,2096921,160977,670806,0
2096921,2096921,160706,670860,0
2096921,2096921,160964,670841,0
2096921,2096921,160974,670946,0
2096921,2096921,161124,670983,0
2096921,2096921,160740,670802,0
2096921,2096921,161055,671141,0
2096921,2096921,161023,671379,0
2096921,2096921,161140,671258,0
2096921,2096921,161202,671505,0
2096921,2096921,161092,671389,0
2096921,2096921,160832,671499,0
2096921,2096921,161134,671819,0
2096921,2096921,161253,671740,0
2096921,2096921,161115,671541,0
2096921,2096921,161198,671569,0
2096921,2096921,161326,671983,0
2096921,2096921,161440,672033,0
2096921,2096921,161543,672137,0
2096921,2096921,161442,672268,0
2096921,2096921,161653,671950,0
2096921,2096921,161426,672442,0
2096921,2096921,161528,672450,0
2096921,2096921,161437,672794,0
2096921,2096921,161315,672784,0
2096921,2096921,161322,672291,0
2096921,2096921,161555,672566,0
2096921,2096921,161445,672744,0
2096921,2096921,161610,672707,0
2096921,2096921,161516,673065,0
2096921,2096921,161648,673007,0
2096921,2096921,161827,673384,0
2096921,2096921,161385,672802,0
2096921,2096921,161673,673278,0
2096921,2096921,161807,673070,0
2096921,2096921,161805,673067,0
2096921,2096921,161792,673679,0
2096921,2096921,161742,673587,0
2096921,2096921,161931,673561,0
2096921,2096921,161696,673389,0
2096921,2096921,161988,673535,0
2096921,2096921,161879,673481,0
2096921,2096921,161821,673769,0
2096921,2096921,161761,673595,0
2096921,2096921,162005,674025,0
2096921,2096921,161835,673902,0
2096921,2096921,161878,674065,0
2096921,2096921,162053,674455,0
2096921,2096921,161940,674090,0
2096921,2096921,161784,674057,0
2096921,2096921,162022,674040,0
2096921,2096921,161944,674239,0
2096921,2096921,162158,674335,0
2096921,2096921,161761,674179,0
2096921,2096921,161881,674410,0
2096921,2096921,161863,674412,0
2096921,2096921,162209,674562,0
2096921,2096921,161923,674676,0
2096921,2096921,162155,674548,0
2096921,2096921,162201,674655,0
2096921,2096921,162011,674597,0
2096921,2096921,161955,674806,0
2096921,2096921,162098,675005,0
2096921,2096921,162202,675039,0
2096921,2096921,162260,675058,0
2096921,2096921,162510,674990,0
2096921,2096921,162176,675227,0
2096921,2096921,162114,675167,0
2096921,2096921,162230,675152,0
2096921,2096921,162242,675189,0
2096921,2096921,162223,674831,0
2096921,2096921,162355,675443,0
2096921,2096921,162374,675468,0
2096921,2096921,162347,675535,0
2096921,2096921,162450,675352,0
2096921,2096921,162630,675467,0
2096921,2096921,162244,675341,0
2096921,2096921,162273,675399,0
2096921,2096921,162242,675527,0
2096921,2096921,162258,675662,0
2096921,2096921,162250,675524,0
2096921,2096921,162271,675893,0
2096921,2096921,162309,675643,0
2096921,2096921,162401,675581,0
2096921,2096921,162530,675758,0
2096921,2096921,162739,675728,0
2096921,2096921,162397,675774,0
2096921,2096921,162581,676166,0
2096921,2096921,162453,675988,0
2096921,2096921,162253,675682,0
2096921,2096921,162180,675762,0
2096921,2096921,162340,676033,0
2096921,2096921,162217,676023,0
2096921,2096921,162232,676021,0
2096921,2096921,162649,676204,0
2096921,2096921,162642,676102,0
2096921,2096921,162696,676222,0
2096921,2096921,162426,676235,0
2096921,2096921,162471,676320,0
2096921,2096921,162462,676313,0
2096921,2096921,162814,676215,0
2096921,2096921,162585,676545,0
2096921,2096921,162641,676102,0
2096921,2096921,162522,676260,0
2096921,2096921,162488,676247,0
2096921,2096921,162588,675928,0
2096921,2096921,162597,676282,0
2096921,2096921,162798,676695,0
2096921,2096921,162922,676244,0
2096921,2096921,162578,676522,0
2096921,2096921,162776,676545,0
2096921,2096921,162795,676499,0
2096921,2096921,162607,676462,0
2096921,2096921,162657,676671,0
2096921,2096921,162798,676496,0
2096921,2096921,162927,676546,0
2096921,2096921,163030,676716,0
2096921,2096921,162760,676840,0
2096921,2096921,162863,676875,0
2096921,2096921,162931,676501,0
2096921,2096921,162730,676762,0
2096921,2096921,162759,676666,0
2096921,2096921,162632,676930,0
2096921,2096921,162727,677196,0
2096921,2096921,162828,677075,0
2096921,2096921,162592,677263,0
2096921,2096921,162528,677032,0
2096921,2096921,162748,676992,0
2096921,2096921,162750,677153,0
2096921,2096921,162838,676931,0
2096921,2096921,162900,677016,0
2096921,2096921,162801,677194,0
2096921,2096921,162785,677227,0
2096921,2096921,162630,677366,0
2096921,2096921,162799,677292,0
2096921,2096921,162953,677459,0
2096921,2096921,162952,677454,0
2096921,2096921,162918,677514,0
2096921,2096921,163163,677589,0
2096921,2096921,162996,677665,0
2096921,2096921,162787,677647,0
2096921,2096921,162930,677493,0
2096921,2096921,162602,677540,0
2096921,2096921,162737,677352,0
2096921,2096921,162988,677659,0
2096921,2096921,163060,677511,0
2096921,2096921,163361,677551,0
2096921,2096921,163044,677290,0
2096921,2096921,163095,677606,0
2096921,2096921,162931,677592,0
2096921,2096921,162943,677481,0
2096921,2096921,162881,677436,0
2096921,2096921,162817,677883,0
2096921,2096921,163130,677788,0
2096921,2096921,163064,677430,0
2096921,2096921,163039,677439,0
2096921,2096921,163001,677779,0
2096921,2096921,163174,677543,0
2096921,2096921,163391,677543,0
2096921,2096921,163053,677788,0
2096921,2096921,162880,677638,0
2096921,2096921,162881,677469,0
2096921,2096921,163231,677794,0
2096921,2096921,163237,677793,0
2096921,2096921,162700,677511,0
2096921,2096921,162993,677895,0
2096921,2096921,162914,677753,0
2096921,2096921,163221,677839,0
2096921,2096921,163159,677911,0
2096921,2096921,163290,677752,0
2096921,2096921,162968,678083,0
2096921,2096921,163080,677807,0
2096921,2096921,162841,677903,0
2096921,2096921,163324,677962,0
2096921,2096921,163017,677724,0
2096921,2096921,162971,677861,0
2096921,2096921,163259,678009,0
2096921,2096921,162883,677969,0
2096921,2096921,163185,677931,0
2096921,2096921,162720,677819,0
2096921,2096921,162805,678054,0
2096921,2096921,163160,677460,0
2096921,2096921,163203,677623,0
2096921,2096921,163383,677680,0
2096921,2096921,162923,677828,0
2096921,2096921,163162,678007,0
2096921,2096921,163117,678043,0
2096921,2096921,163249,677865,0
2096921,2096921,163146,677623,0
2096921,2096921,163171,677671,0
2096921,2096921,163124,677339,0
2096921,2096921,163299,677808,0
2096921,2096921,163203,677576,0
2096921,2096921,162865,677796,0
2096921,2096921,162725,678235,0
2096921,2096921,162952,677942,0
2096921,2096921,162907,677922,0
2096921,2096921,163138,678008,0
2096921,2096921,163087,678160,0
2096921,2096921,163312,678039,0
2096921,2096921,163078,677763,0
2096921,2096921,162888,677500,0
2096921,2096921,162906,677484,0
2096921,2096921,163257,677818,0
2096921,2096921,163027,677819,0
2096921,2096921,163058,677711,0
2096921,2096921,163000,677689,0
2096921,2096921,163203,677703,0
2096921,2096921,162876,677662,0
2096921,2096921,163056,677679,0
2096921,2096921,163125,677939,0
2096921,2096921,162629,677276,0
2096921,2096921,162804,677227,0
2096921,2096921,163034,677088,0
2096921,2096921,162776,677336,0
2096921,2096921,162769,677007,0
2096921,2096921,162405,676572,0
2096921,2096921,162933,676648,0
2096921,2096921,162903,676684,0
2096921,2096921,162699,676590,0
2096921,2096921,162552,676361,0
2096921,2096921,162307,675717,0
2096921,2096921,162139,675549,0
2096921,2096921,162158,675299,0
2096921,2096921,162362,675437,0
2096921,2096921,161892,675285,0
2096921,2096921,161857,674323,0
2096921,2096921,161988,674043,0
2096921,2096921,161713,674055,0
2096921,2096921,161979,673989,0
2096921,2096921,161583,674261,0
2096921,2096921,161503,673094,0
2096921,2096921,161338,672632,0
2096921,2096921,161177,672350,0
2096921,2096921,161549,672463,0
2096921,2096921,160799,672444,0
2096921,2096921,160585,669880,0
2096921,2096921,160461,669089,0
2096921,2096921,160191,668920,0
2096921,2096921,160254,668957,0
2096921,2096921,159478,669126,0
2096921,2096921,159034,665666,0
2096921,2096921,159031,664772,0
2096921,2096921,158977,664484,0
2096921,2096921,158918,664557,0
2096921,2096921,158040,664443,0
2096921,2096921,158378,662395,0
2096921,2096921,158154,661761,0
2096921,2096921,158303,661390,0
2096921,2096921,158206,661527,0
2096921,2096921,157744,661704,0
2096921,2096921,157516,659706,0
2096921,2096921,157433,659118,0
2096921,2096921,157548,659168,0
2096921,2096921,157603,659212,0
2096921,2096921,156946,659323,0
2096921,2096921,156727,657964,0
2096921,2096921,156814,657696,0
2096921,2096921,156901,657357,0
2096921,2096921,156814,657411,0
2096921,2096921,156778,657315,0
2096921,2096921,156461,656485,0
2096921,2096921,156715,656334,0
2096921,2096921,156653,656288,0
2096921,2096921,156422,656185,0
2096921,2096921,156389,656360,0
2096921,2096921,156030,655671,0
2096921,2096921,156408,655346,0
2096921,2096921,156779,655398,0
2096921,2096921,156239,655602,0
2096921,2096921,156043,655456,0
2096921,2096921,156101,654822,0
2096921,2096921,156355,654767,0
2096921,2096921,156136,654782,0
2096921,2096921,156386,654760,0
2096921,2096921,156208,654828,0
2096921,2096921,156289,654669,0
2096921,2096921,156168,654332,0
2096921,2096921,155913,654304,0
2096921,2096921,155921,654555,0
2096921,2096921,156113,654270,0
2096921,2096921,156326,654396,0
2096921,2096921,156508,654374,0
2096921,2096921,156163,654595,0
2096921,2096921,156084,654200,0
2096921,2096921,156261,654445,0
2096921,2096921,156146,654812,0
2096921,2096921,155875,654761,0
2096921,2096921,156337,655060,0
2096921,2096921,156614,654856,0
2096921,2096921,156101,655049,0
2096921,2096921,156111,654957,0
2096921,2096921,156277,655003,0
2096921,2096921,156317,655020,0
2096921,2096921,156157,654953,0
2096921,2096921,156038,655190,0
2096921,2096921,156465,655048,0
2096921,2096921,156148,655307,0
2096921,2096921,156405,655532,0
2096921,2096921,156354,655570,0
2096921,2096921,156620,655408,0
2096921,2096921,156646,656199,0
2096921,2096921,156520,656031,0
2096921,2096921,156443,656173,0
2096921,2096921,156493,656042,0
2096921,2096921,156539,656245,0
2096921,2096921,156532,656707,0
2096921,2096921,156815,656779,0
2096921,2096921,156726,656762,0
2096921,2096921,156651,656668,0
2096921,2096921,157004,656611,0
2096921,2096921,156894,657390,0
2096921,2096921,157132,657634,0
2096921,2096921,157018,657634,0
2096921,2096921,157073,657603,0
2096921,2096921,157131,657562,0
2096921,2096921,157224,658007,0
2096921,2096921,157133,658515,0
2096921,2096921,157233,658217,0
2096921,2096921,157186,658301,0
2096921,2096921,157402,658163,0
2096921,2096921,157412,658769,0
2096921,2096921,157751,658681,0
2096921,2096921,157476,658780,0
2096921,2096921,157300,659177,0
2096921,2096921,157611,658925,0
2096921,2096921,157480,659459,0
2096921,2096921,157542,659593,0
2096921,2096921,157589,659697,0
2096921,2096921,157566,659767,0
2096921,2096921,157934,659757,0
2096921,2096921,157814,660308,0
2096921,2096921,157790,660545,0
2096921,2096921,157780,660177,0
2096921,2096921,157944,660338,0
2096921,2096921,158045,660444,0
2096921,2096921,158092,660908,0
2096921,2096921,158335,661151,0
2096921,2096921,158237,661272,0
2096921,2096921,158292,661005,0
2096921,2096921,158138,661224,0
2096921,2096921,158094,661480,0
2096921,2096921,157986,661622,0
2096921,2096921,158392,661704,0
2096921,2096921,158431,662043,0
2096921,2096921,158637,661909,0
2096921,2096921,158766,662815,0
2096921,2096921,158686,662721,0
2096921,2096921,158554,662772,0
2096921,2096921,158602,662660,0
2096921,2096921,158906,662423,0
2096921,2096921,158704,663465,0
2096921,2096921,158742,663222,0
2096921,2096921,158874,663509,0
2096921,2096921,158640,663319,0
2096921,2096921,158814,663131,0
2096921,2096921,158797,663585,0
2096921,2096921,158653,663966,0
2096921,2096921,158662,663791,0
2096921,2096921,159037,664017,0
2096921,2096921,159127,664041,0
2096921,2096921,159124,664574,0
2096921,2096921,159005,664356,0
2096921,2096921,159049,664377,0
2096921,2096921,158891,664691,0
2096921,2096921,159391,664654,0
2096921,2096921,159296,664996,0
2096921,2096921,159042,665155,0
2096921,2096921,159292,665269,0
2096921,2096921,159301,665393,0
2096921,2096921,159542,665045,0
2096921,2096921,159152,665461,0
2096921,2096921,159598,665809,0
2096921,2096921,159579,665915,0
2096921,2096921,159385,665876,0
2096921,2096921,159314,665756,0
2096921,2096921,159681,665876,0
2096921,2096921,159468,666080,0
2096921,2096921,159397,665878,0
2096921,2096921,159387,665928,0
2096921,2096921,159399,665795,0
2096921,2096921,159463,666252,0
2096921,2096921,159492,665932,0
2096921,2096921,159603,666184,0
2096921,2096921,159502,665936,0
2096921,2096921,159491,666422,0
2096921,2096921,159890,666068,0
2096921,2096921,159631,666152,0
2096921,2096921,159640,666239,0
2096921,2096921,159705,666411,0
2096921,2096921,159594,666226,0
2096921,2096921,159628,666435,0
2096921,2096921,159678,666262,0
2096921,2096921,159596,666382,0
2096921,2096921,159434,665941,0
2096921,2096921,159408,666469,0
2096921,2096921,159683,666076,0
2096921,2096921,159649,666189,0
2096921,2096921,159664,666102,0
2096921,2096921,159542,666133,0
2096921,2096921,159457,666012,0
2096921,2096921,159589,665673,0
2096921,2096921,159446,665802,0
2096921,2096921,159329,665819,0
2096921,2096921,159186,665885,0
2096921,2096921,159315,665935,0
2096921,2096921,159494,665653,0
2096921,2096921,159486,665630,0
2096921,2096921,159376,665530,0
2096921,2096921,159032,665528,0
2096921,2096921,159068,665688,0
2096921,2096921,159249,665505,0
2096921,2096921,159461,665147,0
2096921,2096921,159317,665252,0
2096921,2096921,159502,665350,0
2096921,2096921,159435,665465,0
2096921,2096921,159078,665302,0
2096921,2096921,159329,665261,0
2096921,2096921,159372,665367,0
2096921,2096921,159371,665343,0
2096921,2096921,159217,665378,0
2096921,2096921,159290,665171,0
2096921,2096921,159152,664974,0
2096921,2096921,159045,665154,0
2096921,2096921,159092,665071,0
2096921,2096921,159309,664882,0
2096921,2096921,159325,664943,0
2096921,2096921,159466,665091,0
2096921,2096921,159603,664914,0
2096921,2096921,159487,664798,0
2096921,2096921,159083,664963,0
2096921,2096921,159338,664782,0
2096921,2096921,159513,665000,0
2096921,2096921,159406,665101,0
2096921,2096921,159461,665219,0
2096921,2096921,159510,664888,0
2096921,2096921,159576,665277,0
2096921,2096921,159504,665280,0
2096921,2096921,159736,665342,0
2096921,2096921,159463,664953,0
2096921,2096921,159417,665198,0
2096921,2096921,159457,665418,0
2096921,2096921,159300,665728,0
2096921,2096921,159536,665405,0
2096921,2096921,159425,665332,0
2096921,2096921,159650,665543,0
2096921,2096921,159735,666054,0
2096921,2096921,159594,666481,0
2096921,2096921,159569,665827,0
2096921,2096921,159769,666013,0
2096921,2096921,159839,666198,0
2096921,2096921,159842,666612,0
2096921,2096921,159232,666694,0
2096921,2096921,159582,666946,0
2096921,2096921,159701,666781,0
2096921,2096921,159909,666654,0
2096921,2096921,159761,667396,0
2096921,2096921,160129,667179,0
2096921,2096921,160027,666979,0
2096921,2096921,159870,667049,0
2096921,2096921,159950,666991,0
2096921,2096921,159623,667609,0
2096921,2096921,160022,667769,0
2096921,2096921,160101,668024,0
2096921,2096921,160046,667838,0
2096921,2096921,160152,667678,0
2096921,2096921,160136,668053,0
2096921,2096921,160156,667913,0
2096921,2096921,160091,668010,0
2096921,2096921,160233,668292,0
2096921,2096921,160222,668295,0
2096921,2096921,160349,668623,0
2096921,2096921,160380,668806,0
2096921,2096921,160303,668672,0
2096921,2096921,160271,668488,0
2096921,2096921,160585,668692,0
2096921,2096921,160100,668911,0
2096921,2096921,160269,669061,0
2096921,2096921,160430,669067,0
2096921,2096921,160330,669067,0
2096921,2096921,160286,669108,0
2096921,2096921,160498,669150,0
2096921,2096921,160585,669178,0
2096921,2096921,160411,669234,0
2096921,2096921,160751,669383,0
2096921,2096921,160489,669578,0
2096921,2096921,160718,669680,0
2096921,2096921,160425,669977,0
2096921,2096921,160634,669790,0
2096921,2096921,160624,669902,0
2096921,2096921,160588,669989,0
2096921,2096921,160791,670574,0
2096921,2096921,160824,670499,0
2096921,2096921,160785,670290,0
2096921,2096921,160874,670448,0
2096921,2096921,160548,670061,0
2096921,2096921,160874,670446,0
2096921,2096921,160975,670682,0
2096921,2096921,160917,670686,0
2096921,2096921,160801,670587,0
2096921,2096921,160974,670911,0
2096921,2096921,160905,670905,0
2096921,2096921,160904,670905,0
2096921,2096921,160852,670663,0
2096921,2096921,160892,670881,0
2096921,2096921,161082,670744,0
2096921,2096921,161524,671539,0
2096921,2096921,161355,671286,0
2096921,2096921,160999,671762,0
2096921,2096921,161138,671612,0
2096921,2096921,161368,671608,0
2096921,2096921,161193,671811,0
2096921,2096921,160886,671672,0
2096921,2096921,161072,671682,0
2096921,2096921,161301,671864,0
2096921,2096921,161576,672015,0
2096921,2096921,161424,672181,0
2096921,2096921,161203,672324,0
2096921,2096921,161136,672099,0
2096921,2096921,161223,672274,0
2096921,2096921,161419,671938,0
2096921,2096921,161501,672216,0
2096921,2096921,161643,672685,0
2096921,2096921,161604,672535,0
2096921,2096921,161349,672445,0
2096921,2096921,161492,672400,0
2096921,2096921,161773,672895,0
2096921,2096921,161451,672939,0
2096921,2096921,161388,673071,0
2096921,2096921,161606,673118,0
2096921,2096921,161400,672798,0
2096921,2096921,161545,673122,0
2096921,2096921,161688,673158,0
2096921,2096921,161326,672949,0
2096921,2096921,161690,673219,0
2096921,2096921,161742,673317,0
2096921,2096921,161851,673552,0
2096921,2096921,161584,673559,0
2096921,2096921,161726,673410,0
2096921,2096921,161629,673290,0
2096921,2096921,161957,673555,0
2096921,2096921,161721,673679,0
2096921,2096921,162086,674062,0
2096921,2096921,161767,673810,0
2096921,2096921,161960,673966,0
2096921,2096921,162082,673958,0
2096921,2096921,161893,674228,0
2096921,2096921,161907,674195,0
2096921,2096921,162006,674142,0
2096921,2096921,161932,674135,0
2096921,2096921,161885,674219,0
2096921,2096921,162023,674485,0
2096921,2096921,162132,674405,0
2096921,2096921,162205,674288,0
2096921,2096921,162056,674141,0
2096921,2096921,162060,674344,0
2096921,2096921,162248,674736,0
2096921,2096921,162283,674534,0
2096921,2096921,162285,674695,0
2096921,2096921,162078,674390,0
2096921,2096921,162005,674566,0
2096921,2096921,162137,674860,0
2096921,2096921,162269,675002,0
2096921,2096921,162122,675067,0
2096921,2096921,162305,674816,0
2096921,2096921,162408,674885,0
2096921,2096921,162269,675398,0
2096921,2096921,162371,675197,0
2096921,2096921,162211,674606,0
2096921,2096921,162145,675078,0
2096921,2096921,162218,675085,0
2096921,2096921,162449,675411,0
2096921,2096921,162430,675413,0
2096921,2096921,162469,675471,0
2096921,2096921,162359,675352,0
2096921,2096921,162363,675144,0
2096921,2096921,162509,675640,0
2096921,2096921,162312,675493,0
2096921,2096921,162387,675566,0
2096921,2096921,162238,675536,0
2096921,2096921,162744,675408,0
2096921,2096921,162347,675629,0
2096921,2096921,162279,675612,0
2096921,2096921,162135,675710,0
2096921,2096921,162455,675474,0
2096921,2096921,162471,675874,0
2096921,2096921,162633,675833,0
2096921,2096921,162522,675799,0
2096921,2096921,162821,676065,0
2096921,2096921,162580,675670,0
2096921,2096921,162490,675987,0
2096921,2096921,162450,676294,0
2096921,2096921,162592,676063,0
2096921,2096921,162292,676283,0
2096921,2096921,162520,676175,0
2096921,2096921,162548,676128,0
2096921,2096921,162708,676410,0
2096921,2096921,162475,676386,0
2096921,2096921,162398,676299,0
2096921,2096921,162500,676359,0
2096921,2096921,162727,676360,0
2096921,2096921,162583,676283,0
2096921,2096921,162593,676382,0
2096921,2096921,162673,676416,0
2096921,2096921,162831,676757,0
2096921,2096921,162827,676467,0
2096921,2096921,162886,676444,0
2096921,2096921,162857,676647,0
2096921,2096921,162995,676519,0
2096921,2096921,162887,676790,0
2096921,2096921,162633,676687,0
2096921,2096921,162571,676570,0
2096921,2096921,162780,676935,0
2096921,2096921,163053,676609,0
2096921,2096921,162970,676835,0
2096921,2096921,162773,676759,0
2096921,2096921,162862,676899,0
2096921,2096921,162943,676754,0
2096921,2096921,163050,676927,0
2096921,2096921,162756,676793,0
2096921,2096921,162586,676297,0
2096921,2096921,162840,676991,0
2096921,2096921,162670,676937,0
2096921,2096921,162864,676642,0
2096921,2096921,162848,677091,0
2096921,2096921,163019,677012,0
2096921,2096921,162685,677108,0
2096921,2096921,163169,677474,0
2096921,2096921,163111,677413,0
2096921,2096921,163125,677147,0
2096921,2096921,162883,677003,0
2096921,2096921,162716,677091,0
2096921,2096921,163038,677261,0
2096921,2096921,162917,677109,0
2096921,2096921,162876,677330,0
2096921,2096921,163112,677413,0
2096921,2096921,163225,677420,0
2096921,2096921,163130,677321,0
2096921,2096921,162814,677215,0
2096921,2096921,162762,677389,0
2096921,2096921,162897,677266,0
2096921,2096921,162849,677353,0
2096921,2096921,162865,677348,0
2096921,2096921,163152,677528,0
2096921,2096921,162943,677349,0
2096921,2096921,162791,677706,0
2096921,2096921,162941,677421,0
2096921,2096921,162958,677426,0
2096921,2096921,162855,677608,0
2096921,2096921,163161,677679,0
2096921,2096921,163179,677512,0
2096921,2096921,163197,677671,0
2096921,2096921,163226,677546,0
2096921,2096921,163076,677719,0
2096921,2096921,163015,677580,0
2096921,2096921,163105,677893,0
2096921,2096921,163157,678101,0
2096921,2096921,163028,677925,0
2096921,2096921,162900,677685,0
2096921,2096921,162987,677929,0
2096921,2096921,162567,677761,0
2096921,2096921,162848,677801,0
2096921,2096921,162830,677700,0
2096921,2096921,162969,678006,0
2096921,2096921,162825,677981,0
2096921,2096921,162889,677894,0
2096921,2096921,163215,677985,0
2096921,2096921,163093,677957,0
2096921,2096921,163324,677900,0
2096921,2096921,163097,677881,0
2096921,2096921,163059,677591,0
2096921,2096921,163301,677788,0
2096921,2096921,162936,677650,0
2096921,2096921,163122,677725,0
2096921,2096921,162777,677948,0
2096921,2096921,163175,678000,0
2096921,2096921,163489,678063,0
2096921,2096921,163080,677815,0
2096921,2096921,163199,677852,0
2096921,2096921,163255,677832,0
2096921,2096921,163125,677907,0
2096921,2096921,163159,677882,0
2096921,2096921,163010,677817,0
2096921,2096921,163174,678040,0
2096921,2096921,163271,677596,0
2096921,2096921,163165,677992,0
2096921,2096921,162933,677618,0
2096921,2096921,163078,677637,0
2096921,2096921,162786,677591,0
2096921,2096921,163314,677853,0
2096921,2096921,163330,677736,0
2096921,2096921,163060,677901,0
2096921,2096921,162878,677792,0
2096921,2096921,163129,677836,0
2096921,2096921,163051,677950,0
2096921,2096921,163233,677942,0
2096921,2096921,163012,677741,0
2096921,2096921,162987,677744,0
2096921,2096921,162971,677599,0
2096921,2096921,162994,677907,0
2096921,2096921,162871,677690,0
2096921,2096921,163122,677798,0
2096921,2096921,162751,677980,0
2096921,2096921,163280,677991,0
2096921,2096921,163018,678023,0
2096921,2096921,163523,677902,0
2096921,2096921,163183,677991,0
2096921,2096921,163153,677655,0
2096921,2096921,163142,677792,0
2096921,2096921,163070,677844,0
2096921,2096921,162850,677787,0
2096921,2096921,162934,677125,0
2096921,2096921,162849,677061,0
2096921,2096921,163013,676966,0
2096921,2096921,162730,677150,0
2096921,2096921,162782,677258,0
2096921,2096921,162583,676853,0
2096921,2096921,162552,676568,0
2096921,2096921,162531,676432,0
2096921,2096921,162426,676520,0
2096921,2096921,162478,676703,0
2096921,2096921,162539,675589,0
2096921,2096921,162452,675276,0
2096921,2096921,162320,675040,0
2096921,2096921,162186,675081,0
2096921,2096921,162149,674948,0
2096921,2096921,161740,673875,0
2096921,2096921,161931,673835,0
2096921,2096921,162009,673753,0
2096921,2096921,161867,674195,0
2096921,2096921,161349,674123,0
2096921,2096921,161197,672748,0
2096921,2096921,161442,672728,0
2096921,2096921,161414,672594,0
2096921,2096921,161351,672439,0
2096921,2096921,160682,672717,0
2096921,2096921,160535,669726,0
2096921,2096921,160330,669174,0
2096921,2096921,160161,669205,0
2096921,2096921,160197,669106,0
2096921,2096921,159211,669082,0
2096921,2096921,159337,665885,0
2096921,2096921,158940,664606,0
2096921,2096921,159144,664598,0
2096921,2096921,159046,664875,0
2096921,2096921,158358,664772,0
2096921,2096921,158216,662476,0
2096921,2096921,158199,661582,0
2096921,2096921,158255,661658,0
2096921,2096921,158247,661611,0
2096921,2096921,157614,661730,0
2096921,2096921,157600,659804,0
2096921,2096921,157424,659386,0
2096921,2096921,157413,658933,0
2096921,2096921,157655,659076,0
2096921,2096921,156911,659317,0
2096921,2096921,156732,657944,0
2096921,2096921,157216,657679,0
2096921,2096921,157220,657636,0
2096921,2096921,156743,657592,0
2096921,2096921,156394,657609,0
2096921,2096921,156463,656321,0
2096921,2096921,156516,656351,0
2096921,2096921,156380,656554,0
2096921,2096921,156579,656349,0
2096921,2096921,156619,656395,0
2096921,2096921,156413,655451,0
2096921,2096921,156266,655316,0
2096921,2096921,156350,655052,0
2096921,2096921,156363,655435,0
2096921,2096921,156043,655502,0
2096921,2096921,156215,654918,0
2096921,2096921,156050,654939,0
2096921,2096921,156169,654864,0
2096921,2096921,155963,654640,0
2096921,2096921,155861,654573,0
2096921,2096921,155878,654672,0
2096921,2096921,156139,654666,0
2096921,2096921,156213,654734,0
2096921,2096921,155975,654701,0
2096921,2096921,155890,654722,0
2096921,2096921,156383,654796,0
2096921,2096921,156017,654747,0
2096921,2096921,155911,654831,0
2096921,2096921,156091,654773,0
2096921,2096921,156047,654702,0
2096921,2096921,156002,654958,0
2096921,2096921,156249,654674,0
2096921,2096921,156284,654939,0
2096921,2096921,156387,654987,0
2096921,2096921,156196,654867,0
2096921,2096921,156450,655246,0
2096921,2096921,156264,655074,0
2096921,2096921,156379,655300,0
2096921,2096921,156128,655449,0
2096921,2096921,156382,655227,0
2096921,2096921,156238,655507,0
2096921,2096921,156335,655426,0
2096921,2096921,156601,655566,0
2096921,2096921,156370,655350,0
2096921,2096921,156670,655514,0
2096921,2096921,156504,655752,0
2096921,2096921,156538,656046,0
2096921,2096921,156391,655978,0
2096921,2096921,156546,656202,0
2096921,2096921,156792,656265,0
2096921,2096921,156694,656708,0
2096921,2096921,156714,656669,0
2096921,2096921,156824,656412,0
2096921,2096921,156724,656588,0
2096921,2096921,156971,656774,0
2096921,2096921,156966,657312,0
2096921,2096921,156957,657426,0
2096921,2096921,156870,657600,0
2096921,2096921,156982,657544,0
2096921,2096921,157029,657614,0
2096921,2096921,157392,658318,0
2096921,2096921,157266,658225,0
2096921,2096921,157591,658370,0
2096921,2096921,157396,658259,0
2096921,2096921,157395,658436,0
2096921,2096921,157249,659138,0
2096921,2096921,157440,659207,0
2096921,2096921,157532,658937,0
2096921,2096921,157615,659162,0
2096921,2096921,157438,659034,0
2096921,2096921,157603,659287,0
2096921,2096921,157713,659503,0
2096921,2096921,157994,659466,0
2096921,2096921,157846,659780,0
2096921,2096921,157742,659674,0
2096921,2096921,157646,660279,0
2096921,2096921,157791,660648,0
2096921,2096921,157691,660465,0
2096921,2096921,157739,660254,0
2096921,2096921,158001,660228,0
2096921,2096921,158020,660913,0
2096921,2096921,158060,661008,0
2096921,2096921,158075,660835,0
2096921,2096921,157915,661152,0
2096921,2096921,158380,661286,0
2096921,2096921,158181,661703,0
2096921,2096921,158123,661715,0
2096921,2096921,158075,662005,0
2096921,2096921,158206,662077,0
2096921,2096921,158396,661874,0
2096921,2096921,158421,662457,0
2096921,2096921,158515,662676,0
2096921,2096921,158503,662690,0
2096921,2096921,158574,662899,0
2096921,2096921,158684,662642,0
2096921,2096921,158567,663311,0
2096921,2096921,158814,663304,0
2096921,2096921,158844,663427,0
2096921,2096921,158974,663199,0
2096921,2096921,158856,663355,0
2096921,2096921,159206,663839,0
2096921,2096921,159201,663941,0
2096921,2096921,159134,664179,0
2096921,2096921,158830,664231,0
2096921,2096921,159034,664185,0
2096921,2096921,158779,664590,0
2096921,2096921,159093,664597,0
2096921,2096921,159096,664831,0
2096921,2096921,159030,664676,0
2096921,2096921,159312,665000,0
2096921,2096921,159397,665386,0
2096921,2096921,159186,665243,0
2096921,2096921,159308,665319,0
2096921,2096921,159322,665392,0
2096921,2096921,159403,665225,0
2096921,2096921,159349,665639,0
2096921,2096921,159656,666065,0
2096921,2096921,159369,665426,0
2096921,2096921,159245,665477,0
2096921,2096921,159172,665625,0
2096921,2096921,159030,666035,0
2096921,2096921,159312,666146,0
2096921,2096921,159380,666020,0
2096921,2096921,159562,665892,0
2096921,2096921,159416,665996,0
2096921,2096921,159477,666226,0
2096921,2096921,159576,666183,0
2096921,2096921,159617,665909,0
2096921,2096921,159356,666233,0
2096921,2096921,159437,666310,0
2096921,2096921,159700,666365,0
2096921,2096921,159469,666398,0
2096921,2096921,159375,666208,0
2096921,2096921,159586,666356,0
2096921,2096921,159357,666052,0
2096921,2096921,159393,666225,0
2096921,2096921,159672,666196,0
2096921,2096921,159574,666200,0
2096921,2096921,159519,666037,0
2096921,2096921,159459,666355,0
2096921,2096921,159776,666133,0
2096921,2096921,159608,666195,0
2096921,2096921,159627,665979,0
2096921,2096921,159469,666030,0
2096921,2096921,159462,666063,0
2096921,2096921,159344,665781,0
2096921,2096921,159437,665741,0
2096921,2096921,159480,666039,0
2096921,2096921,159576,665775,0
2096921,2096921,159496,665702,0
2096921,2096921,159636,665404,0
2096921,2096921,159582,665437,0
2096921,2096921,159509,665834,0
2096921,2096921,159619,665805,0
2096921,2096921,159138,665751,0
2096921,2096921,159100,665329,0
2096921,2096921,159173,665274,0
2096921,2096921,159197,665337,0
2096921,2096921,159581,665269,0
2096921,2096921,159223,665225,0
2096921,2096921,159234,664855,0
2096921,2096921,159343,665160,0
2096921,2096921,159307,665362,0
2096921,2096921,159003,665207,0
2096921,2096921,159258,664964,0
2096921,2096921,159183,664878,0
2096921,2096921,159182,665305,0
2096921,2096921,159321,665097,0
2096921,2096921,159127,664984,0
2096921,2096921,159579,664963,0
2096921,2096921,159484,665018,0
2096921,2096921,159347,665179,0
2096921,2096921,159279,665036,0
2096921,2096921,159180,665174,0
2096921,2096921,159082,664875,0
2096921,2096921,159370,665288,0
2096921,2096921,159401,665534,0
2096921,2096921,159363,665289,0
2096921,2096921,159392,665435,0
2096921,2096921,159468,665221,0
2096921,2096921,159538,665160,0
2096921,2096921,159365,665472,0
2096921,2096921,159425,665462,0
2096921,2096921,159424,665494,0
2096921,2096921,159512,665079,0
2096921,2096921,159112,665473,0
2096921,2096921,159225,665491,0
2096921,2096921,159610,665481,0
2096921,2096921,159285,665475,0
2096921,2096921,159578,665654,0
2096921,2096921,159791,666021,0
2096921,2096921,159392,666154,0
2096921,2096921,159529,666148,0
2096921,2096921,159553,666135,0
2096921,2096921,159693,666190,0
2096921,2096921,159675,666429,0
2096921,2096921,159508,666571,0
2096921,2096921,159932,666635,0
2096921,2096921,159820,666702,0
2096921,2096921,159853,666719,0
2096921,2096921,159837,667051,0
2096921,2096921,160014,666945,0
2096921,2096921,159780,667135,0
2096921,2096921,160012,667258,0
2096921,2096921,159974,667008,0
2096921,2096921,159974,667530,0
2096921,2096921,160099,667801,0
2096921,2096921,160015,667614,0
2096921,2096921,160202,667553,0
2096921,2096921,160385,667593,0
2096921,2096921,160127,667901,0
2096921,2096921,160648,667963,0
2096921,2096921,160219,668129,0
2096921,2096921,160200,668153,0
2096921,2096921,160084,667936,0
2096921,2096921,160262,668590,0
2096921,2096921,160240,668413,0
2096921,2096921,160332,668540,0
2096921,2096921,160485,668602,0
2096921,2096921,160391,668271,0
2096921,2096921,160389,668750,0
2096921,2096921,160627,668704,0
2096921,2096921,159990,668785,0
2096921,2096921,160123,669195,0
2096921,2096921,160738,668844,0
2096921,2096921,160809,669385,0
2096921,2096921,160671,669357,0
2096921,2096921,160701,669622,0
2096921,2096921,160468,669656,0
2096921,2096921,160494,669361,0
2096921,2096921,160655,669858,0
2096921,2096921,161053,669972,0
2096921,2096921,160863,669806,0
2096921,2096921,161021,669563,0
2096921,2096921,161091,669924,0
2096921,2096921,160870,669968,0
2096921,2096921,160732,670188,0
2096921,2096921,160846,670331,0
2096921,2096921,161023,670156,0
2096921,2096921,161280,670062,0
2096921,2096921,161013,670783,0
2096921,2096921,161060,670776,0
2096921,2096921,160858,670871,0
2096921,2096921,160986,670861,0
2096921,2096921,160924,670662,0
2096921,2096921,160991,670692,0
2096921,2096921,160840,671231,0
2096921,2096921,161277,671017,0
2096921,2096921,160872,671286,0
2096921,2096921,161158,671121,0
2096921,2096921,161200,671004,0
2096921,2096921,161199,671448,0
2096921,2096921,161138,671449,0
2096921,2096921,161293,671278,0
2096921,2096921,161436,671560,0
2096921,2096921,161469,671862,0
2096921,2096921,161048,671690,0
2096921,2096921,161294,671839,0
2096921,2096921,161196,671913,0
2096921,2096921,161235,671850,0
2096921,2096921,161240,672218,0
2096921,2096921,161557,672177,0
2096921,2096921,161321,672444,0
2096921,2096921,161623,672147,0
2096921,2096921,161436,672286,0
2096921,2096921,161517,672591,0
2096921,2096921,161537,672460,0
2096921,2096921,161465,672434,0
2096921,2096921,161532,672396,0
2096921,2096921,161764,672897,0
2096921,2096921,161638,673128,0
2096921,2096921,161684,672938,0
2096921,2096921,161628,672985,0
2096921,2096921,161600,672975,0
2096921,2096921,161889,672847,0
2096921,2096921,161549,673205,0
2096921,2096921,161653,673437,0
2096921,2096921,161674,673337,0
2096921,2096921,161806,673303,0
2096921,2096921,161942,673333,0
2096921,2096921,161827,673372,0
2096921,2096921,161774,673619,0
2096921,2096921,161600,673752,0
2096921,2096921,161635,673697,0
2096921,2096921,161567,673668,0
2096921,2096921,161777,673693,0
2096921,2096921,162016,673816,0
2096921,2096921,161743,673585,0
2096921,2096921,162108,673923,0
2096921,2096921,161981,673890,0
2096921,2096921,162062,674028,0
2096921,2096921,161724,673969,0
2096921,2096921,161930,673807,0
2096921,2096921,161992,673936,0
2096921,2096921,161801,674219,0
2096921,2096921,162019,674312,0
2096921,2096921,162238,674421,0
2096921,2096921,161940,674335,0
2096921,2096921,161989,674392,0
2096921,2096921,162082,674347,0
2096921,2096921,162206,674767,0
2096921,2096921,162293,674510,0
2096921,2096921,162400,674712,0
2096921,2096921,162134,674807,0
2096921,2096921,161893,674759,0
2096921,2096921,162048,675030,0
2096921,2096921,162078,675168,0
2096921,2096921,161943,675134,0
2096921,2096921,162048,675437,0
2096921,2096921,162026,675135,0
2096921,2096921,162234,675436,0
2096921,2096921,162393,675328,0
2096921,2096921,162394,675803,0
2096921,2096921,162304,675209,0
2096921,2096921,162136,675403,0
2096921,2096921,162357,675387,0
2096921,2096921,162352,675288,0
2096921,2096921,162388,675330,0
2096921,2096921,162455,675273,0
2096921,2096921,162525,675455,0
2096921,2096921,162493,675453,0
2096921,2096921,162560,675517,0
2096921,2096921,162346,675590,0
2096921,2096921,162236,675389,0
2096921,2096921,162457,675362,0
2096921,2096921,162795,675621,0
2096921,2096921,162632,676063,0
2096921,2096921,162354,675607,0
2096921,2096921,162522,675539,0
2096921,2096921,162421,675791,0
2096921,2096921,162447,675803,0
2096921,2096921,162799,675983,0
2096921,2096921,162704,675761,0
2096921,2096921,162784,676011,0
2096921,2096921,162373,676178,0
2096921,2096921,162481,676308,0
2096921,2096921,162513,675866,0
2096921,2096921,162474,675794,0
2096921,2096921,162659,676097,0
2096921,2096921,162714,676001,0
2096921,2096921,162734,676226,0
2096921,2096921,162548,676560,0
2096921,2096921,162460,676445,0
2096921,2096921,162478,676159,0
2096921,2096921,162528,676406,0
2096921,2096921,162253,676278,0
2096921,2096921,162899,676127,0
2096921,2096921,162684,676410,0
2096921,2096921,162790,676471,0
2096921,2096921,162709,676772,0
2096921,2096921,162690,676628,0
2096921,2096921,162472,676466,0
2096921,2096921,162659,676825,0
2096921,2096921,162711,676637,0
2096921,2096921,163089,676744,0
2096921,2096921,162763,676791,0
2096921,2096921,163092,676599,0
2096921,2096921,162829,676989,0
2096921,2096921,162947,676602,0
2096921,2096921,162723,676436,0
2096921,2096921,162430,676679,0
2096921,2096921,162785,676780,0
2096921,2096921,162885,676720,0
2096921,2096921,162863,676974,0
2096921,2096921,162874,676562,0
2096921,2096921,162546,676676,0
2096921,2096921,162931,676696,0
2096921,2096921,162876,676638,0
2096921,2096921,162743,676927,0
2096921,2096921,162902,677060,0
2096921,2096921,162637,677399,0
2096921,2096921,162851,677266,0
2096921,2096921,162889,676978,0
2096921,2096921,162816,677108,0
2096921,2096921,163051,677466,0
2096921,2096921,162739,677330,0
2096921,2096921,162815,677426,0
2096921,2096921,162785,677425,0
2096921,2096921,162839,677318,0
2096921,2096921,163007,677334,0
2096921,2096921,162920,677367,0
2096921,2096921,162713,677223,0
2096921,2096921,162797,677479,0
2096921,2096921,162702,677587,0
2096921,2096921,163209,677664,0
2096921,2096921,163176,677387,0
2096921,2096921,162991,677438,0
2096921,2096921,163046,677628,0
2096921,2096921,162854,677643,0
2096921,2096921,162773,677679,0
2096921,2096921,163147,677258,0
2096921,2096921,162978,677469,0
2096921,2096921,162961,677628,0
2096921,2096921,162905,677576,0
2096921,2096921,163212,677876,0
2096921,2096921,163025,677657,0
2096921,2096921,162920,677777,0
2096921,2096921,162916,677293,0
2096921,2096921,162985,677502,0
2096921,2096921,162896,677986,0
2096921,2096921,162995,677753,0
2096921,2096921,163071,677987,0
2096921,2096921,162947,677598,0
2096921,2096921,162992,677881,0
2096921,2096921,163074,677828,0
2096921,2096921,163143,677888,0
2096921,2096921,163185,677651,0
2096921,2096921,162782,677863,0
2096921,2096921,163045,677591,0
2096921,2096921,163015,677843,0
2096921,2096921,163369,677795,0
2096921,2096921,163189,678135,0
2096921,2096921,162998,678035,0
2096921,2096921,163001,677849,0
2096921,2096921,162955,677532,0
2096921,2096921,162953,677691,0
2096921,2096921,163016,677830,0
2096921,2096921,163106,678139,0
2096921,2096921,163297,678027,0
2096921,2096921,163145,678145,0
2096921,2096921,162918,677763,0
2096921,2096921,163003,677992,0
2096921,2096921,163051,677671,0
2096921,2096921,163285,677696,0
2096921,2096921,162956,677822,0
2096921,2096921,163139,677927,0
2096921,2096921,163190,677945,0
2096921,2096921,163003,678106,0
2096921,2096921,163334,677822,0
2096921,2096921,163192,678162,0
2096921,2096921,163149,677654,0
2096921,2096921,163147,677846,0
2096921,2096921,162851,677620,0
2096921,2096921,162890,678052,0
2096921,2096921,163107,677983,0
2096921,2096921,162716,677854,0
2096921,2096921,162993,677791,0
2096921,2096921,162705,677949,0
2096921,2096921,163203,677722,0
2096921,2096921,163118,677659,0
2096921,2096921,163030,677724,0
2096921,2096921,163288,678042,0
2096921,2096921,163168,678005,0
2096921,2096921,163131,677951,0
2096921,2096921,163177,677834,0
2096921,2096921,162791,677844,0
2096921,2096921,163106,677916,0
2096921,2096921,163086,677745,0
2096921,2096921,163154,677512,0
