2096921,2096921,313362,255538
2096921,2096921,313491,255805
2096921,2096921,313720,255359
2096921,2096921,313524,255289
2096921,2096921,313608,255480
2096921,2096921,313929,255517
2096921,2096921,313579,255439
2096921,2096921,313517,255453
2096921,2096921,313817,255372
2096921,2096921,313889,255348
2096921,2096921,313920,255378
2096921,2096921,313896,255431
2096921,2096921,313674,255632
2096921,2096921,313780,255594
2096921,2096921,313817,255914
2096921,2096921,313682,255577
2096921,2096921,313758,255654
2096921,2096921,313903,255641
2096921,2096921,313923,255573
2096921,2096921,313888,255610
2096921,2096921,313928,255709
2096921,2096921,313783,255649
2096921,2096921,313814,255721
2096921,2096921,313818,255704
2096921,2096921,314057,255416
2096921,2096921,313848,255483
2096921,2096921,313867,255504
2096921,2096921,314071,255644
2096921,2096921,313875,255673
2096921,2096921,313937,255698
2096921,2096921,314021,255659
2096921,2096921,314113,255989
2096921,2096921,313951,255676
2096921,2096921,313957,255766
2096921,2096921,313957,255734
2096921,2096921,314148,255812
2096921,2096921,314080,255701
2096921,2096921,314075,255596
2096921,2096921,314053,255887
2096921,2096921,314093,255835
2096921,2096921,314212,255686
2096921,2096921,314180,255756
2096921,2096921,313997,255688
2096921,2096921,314342,255739
2096921,2096921,314074,255928
2096921,2096921,314117,255774
2096921,2096921,314335,255963
2096921,2096921,314382,255753
2096921,2096921,314167,255893
2096921,2096921,314086,256025
2096921,2096921,314060,255947
2096921,2096921,314249,255937
2096921,2096921,314090,256114
2096921,2096921,314390,255945
2096921,2096921,314287,255761
2096921,2096921,313940,255859
2096921,2096921,314247,255893
2096921,2096921,314312,255796
2096921,2096921,314450,255722
2096921,2096921,314011,255688
2096921,2096921,313942,255559
2096921,2096921,313779,255503
2096921,2096921,313781,255536
2096921,2096921,313872,255437
2096921,2096921,313650,255188
2096921,2096921,313380,255217
2096921,2096921,313528,255239
2096921,2096921,313687,255360
2096921,2096921,313490,255246
2096921,2096921,312746,254947
2096921,2096921,312792,254845
2096921,2096921,312454,254952
2096921,2096921,312275,254709
2096921,2096921,312599,254777
2096921,2096921,311990,253964
2096921,2096921,311914,254030
2096921,2096921,311760,254007
2096921,2096921,311802,253856
2096921,2096921,311949,253999
2096921,2096921,310897,253649
2096921,2096921,310736,253132
2096921,2096921,310636,253071
2096921,2096921,310831,253216
2096921,2096921,310926,253149
2096921,2096921,308789,251402
2096921,2096921,308524,251426
2096921,2096921,308270,251338
2096921,2096921,308626,251200
2096921,2096921,308603,251474
2096921,2096921,306279,249361
2096921,2096921,305691,249103
2096921,2096921,305326,248813
2096921,2096921,305413,248744
2096921,2096921,305527,248849
2096921,2096921,304042,247385
2096921,2096921,303269,247134
2096921,2096921,303451,246889
2096921,2096921,303093,246798
2096921,2096921,303246,246924
2096921,2096921,302204,246128
2096921,2096921,301814,245998
2096921,2096921,301636,245895
2096921,2096921,301403,245788
2096921,2096921,301553,245636
2096921,2096921,300721,244849
2096921,2096921,300451,244765
2096921,2096921,300305,244881
2096921,2096921,300395,244809
2096921,2096921,300386,244868
2096921,2096921,299748,244302
2096921,2096921,299629,244480
2096921,2096921,299603,244106
2096921,2096921,299734,244082
2096921,2096921,299968,243986
2096921,2096921,299233,243739
2096921,2096921,298988,243616
2096921,2096921,299153,243728
2096921,2096921,298930,243580
2096921,2096921,299242,243627
2096921,2096921,299018,243502
2096921,2096921,298875,243478
2096921,2096921,298528,243330
2096921,2096921,298679,243250
2096921,2096921,298974,243368
2096921,2096921,298659,243285
2096921,2096921,298421,243302
2096921,2096921,298624,243226
2096921,2096921,298768,243319
2096921,2096921,298579,243077
2096921,2096921,298542,243362
2096921,2096921,298685,243191
2096921,2096921,298689,243499
2096921,2096921,298686,243267
2096921,2096921,298565,243443
2096921,2096921,298793,243329
2096921,2096921,298665,243646
2096921,2096921,298996,243671
2096921,2096921,298832,243724
2096921,2096921,298764,243507
2096921,2096921,299039,243612
2096921,2096921,298962,243772
2096921,2096921,299146,243731
2096921,2096921,299073,243558
2096921,2096921,299112,243590
2096921,2096921,299211,243563
2096921,2096921,299192,243559
2096921,2096921,299285,243739
2096921,2096921,299430,243802
2096921,2096921,299133,243752
2096921,2096921,299279,243976
2096921,2096921,299532,244190
2096921,2096921,299708,244187
2096921,2096921,299709,244372
2096921,2096921,299704,244038
2096921,2096921,299977,244346
2096921,2096921,300258,244395
2096921,2096921,300208,244424
2096921,2096921,300472,244742
2096921,2096921,300242,244603
2096921,2096921,300629,245028
2096921,2096921,300940,244871
2096921,2096921,300931,245022
2096921,2096921,300943,245164
2096921,2096921,300748,244992
2096921,2096921,301153,245638
2096921,2096921,301332,245297
2096921,2096921,301212,245317
2096921,2096921,301334,245415
2096921,2096921,301405,245488
2096921,2096921,301668,245871
2096921,2096921,301702,245828
2096921,2096921,301774,245908
2096921,2096921,301721,246140
2096921,2096921,301633,245976
2096921,2096921,302183,246306
2096921,2096921,302252,246109
2096921,2096921,302358,246383
2096921,2096921,302216,246258
2096921,2096921,302259,246079
2096921,2096921,302632,246274
2096921,2096921,302701,246349
2096921,2096921,302480,246708
2096921,2096921,302698,246728
2096921,2096921,302906,246636
2096921,2096921,303255,247194
2096921,2096921,303146,247049
2096921,2096921,303239,247096
2096921,2096921,303345,247065
2096921,2096921,303142,247122
2096921,2096921,303743,247497
2096921,2096921,303891,247587
2096921,2096921,304014,247589
2096921,2096921,303831,247561
2096921,2096921,303820,247451
2096921,2096921,303986,247964
2096921,2096921,304334,247957
2096921,2096921,304210,248017
2096921,2096921,304287,247896
2096921,2096921,304532,247893
2096921,2096921,304839,248131
2096921,2096921,304794,248257
2096921,2096921,304929,248307
2096921,2096921,304911,248567
2096921,2096921,304914,248317
2096921,2096921,305599,248851
2096921,2096921,305237,248648
2096921,2096921,305539,248746
2096921,2096921,305089,248704
2096921,2096921,305211,248675
2096921,2096921,305679,249020
2096921,2096921,305853,248915
2096921,2096921,305649,249165
2096921,2096921,305835,249154
2096921,2096921,305569,248905
2096921,2096921,306036,249122
2096921,2096921,306165,249332
2096921,2096921,306048,249450
2096921,2096921,306163,249268
2096921,2096921,306146,249502
2096921,2096921,306429,249570
2096921,2096921,306347,249671
2096921,2096921,306244,249608
2096921,2096921,306428,249472
2096921,2096921,306433,249499
2096921,2096921,306471,249633
2096921,2096921,306584,249829
2096921,2096921,306600,249502
2096921,2096921,306664,249551
2096921,2096921,306527,249478
2096921,2096921,306785,250037
2096921,2096921,306929,250058
2096921,2096921,306857,249990
2096921,2096921,306852,249790
2096921,2096921,306866,249827
2096921,2096921,306873,250013
2096921,2096921,306914,249846
2096921,2096921,306767,249777
2096921,2096921,306804,249968
2096921,2096921,306928,249931
2096921,2096921,307009,249844
2096921,2096921,306859,250119
2096921,2096921,307051,249932
2096921,2096921,307159,249773
2096921,2096921,306979,249843
2096921,2096921,306778,249780
2096921,2096921,306666,249900
2096921,2096921,306900,249638
2096921,2096921,306921,250075
2096921,2096921,306741,250009
2096921,2096921,306598,249808
2096921,2096921,306472,249726
2096921,2096921,306590,249764
2096921,2096921,306619,249728
2096921,2096921,306222,249848
2096921,2096921,306452,249644
2096921,2096921,306302,249653
2096921,2096921,306347,249705
2096921,2096921,306409,249690
2096921,2096921,306303,249577
2096921,2096921,306323,249484
2096921,2096921,306470,249464
2096921,2096921,306177,249621
2096921,2096921,306074,249335
2096921,2096921,306028,249467
2096921,2096921,305996,249270
2096921,2096921,306123,248808
2096921,2096921,305856,248999
2096921,2096921,306054,249234
2096921,2096921,306312,249249
2096921,2096921,306115,249142
2096921,2096921,305975,249260
2096921,2096921,305915,249303
2096921,2096921,306082,249301
2096921,2096921,305846,249270
2096921,2096921,306137,249241
2096921,2096921,306110,249253
2096921,2096921,306023,249279
2096921,2096921,306071,249328
2096921,2096921,306061,249353
2096921,2096921,306225,249532
2096921,2096921,306162,249445
2096921,2096921,306070,249307
2096921,2096921,306132,249439
2096921,2096921,305883,249263
2096921,2096921,306165,249412
2096921,2096921,306037,249571
2096921,2096921,306055,249411
2096921,2096921,306030,249365
2096921,2096921,306028,249524
2096921,2096921,306354,249603
2096921,2096921,306435,249685
2096921,2096921,306180,249493
2096921,2096921,306096,249442
2096921,2096921,306378,249463
2096921,2096921,306472,249578
2096921,2096921,306904,249833
2096921,2096921,307011,249756
2096921,2096921,306983,249644
2096921,2096921,306814,249577
2096921,2096921,307143,250077
2096921,2096921,307188,250262
2096921,2096921,307135,250075
2096921,2096921,307269,249843
2096921,2096921,307332,250131
2096921,2096921,307331,250432
2096921,2096921,307446,250623
2096921,2096921,307452,250519
2096921,2096921,307487,250491
2096921,2096921,307426,250617
2096921,2096921,307808,250620
2096921,2096921,307694,250767
2096921,2096921,307605,250795
2096921,2096921,307818,250759
2096921,2096921,308007,250674
2096921,2096921,308038,250890
2096921,2096921,308243,250951
2096921,2096921,308259,250926
2096921,2096921,308157,251027
2096921,2096921,308262,251053
2096921,2096921,308297,251063
2096921,2096921,308150,251037
2096921,2096921,308315,251323
2096921,2096921,308513,251068
2096921,2096921,308411,251236
2096921,2096921,308769,251611
2096921,2096921,308647,251566
2096921,2096921,308888,251379
2096921,2096921,308780,251405
2096921,2096921,308715,251632
2096921,2096921,309013,251729
2096921,2096921,308867,251711
2096921,2096921,308730,251575
2096921,2096921,308910,251587
2096921,2096921,308927,251685
2096921,2096921,309357,251898
2096921,2096921,309164,251843
2096921,2096921,309298,251954
2096921,2096921,309447,251772
2096921,2096921,309459,251873
2096921,2096921,309560,252094
2096921,2096921,309578,252043
2096921,2096921,309540,252434
2096921,2096921,309718,252311
2096921,2096921,309750,252067
2096921,2096921,309728,252231
2096921,2096921,309761,252147
2096921,2096921,309847,252238
2096921,2096921,309827,252295
2096921,2096921,309726,252397
2096921,2096921,309782,252465
2096921,2096921,310020,252858
2096921,2096921,310101,252550
2096921,2096921,310038,252593
2096921,2096921,310076,252325
2096921,2096921,310407,252595
2096921,2096921,310091,252685
2096921,2096921,310499,252800
2096921,2096921,310369,253013
2096921,2096921,310254,253011
2096921,2096921,310590,253119
2096921,2096921,310578,252648
2096921,2096921,310450,252881
2096921,2096921,310527,253023
2096921,2096921,310557,252925
2096921,2096921,310753,252900
2096921,2096921,311021,253057
2096921,2096921,310833,253062
2096921,2096921,310742,253353
2096921,2096921,310923,253128
2096921,2096921,311158,253481
2096921,2096921,310992,253454
2096921,2096921,311041,253430
2096921,2096921,311169,253546
2096921,2096921,310884,253546
2096921,2096921,311254,253484
2096921,2096921,311587,253577
2096921,2096921,311293,253704
2096921,2096921,311385,253582
2096921,2096921,311221,253502
2096921,2096921,311302,253438
2096921,2096921,311446,253476
2096921,2096921,311463,253775
2096921,2096921,311523,253713
2096921,2096921,311239,253673
2096921,2096921,311507,253740
2096921,2096921,311573,253559
2096921,2096921,311923,253749
2096921,2096921,311472,253895
2096921,2096921,311500,253908
2096921,2096921,311999,253833
2096921,2096921,312347,254085
2096921,2096921,311784,254032
2096921,2096921,311804,254111
2096921,2096921,311910,253890
2096921,2096921,311855,254074
2096921,2096921,311894,254058
2096921,2096921,312041,254277
2096921,2096921,312110,254369
2096921,2096921,311911,254109
2096921,2096921,312041,254158
2096921,2096921,312034,254269
2096921,2096921,312169,254454
2096921,2096921,312151,254250
2096921,2096921,312364,254276
2096921,2096921,312092,254327
2096921,2096921,312299,254285
2096921,2096921,312229,254370
2096921,2096921,312164,254411
2096921,2096921,312335,254269
2096921,2096921,312171,254328
2096921,2096921,312468,254380
2096921,2096921,312474,254337
2096921,2096921,312415,254390
2096921,2096921,312492,254357
2096921,2096921,312898,254783
2096921,2096921,312843,254784
2096921,2096921,312780,254619
2096921,2096921,312604,254695
2096921,2096921,312516,254910
2096921,2096921,312699,254781
2096921,2096921,312676,254628
2096921,2096921,312668,254693
2096921,2096921,312671,254736
2096921,2096921,312471,254697
2096921,2096921,312794,254805
2096921,2096921,312597,254720
2096921,2096921,312734,254661
2096921,2096921,312699,254569
2096921,2096921,312699,254853
2096921,2096921,312981,254747
2096921,2096921,312992,254652
2096921,2096921,312766,254618
2096921,2096921,312854,254741
2096921,2096921,313029,254572
2096921,2096921,312800,254791
2096921,2096921,313009,255142
2096921,2096921,312967,254898
2096921,2096921,312946,254945
2096921,2096921,312863,254667
2096921,2096921,312801,254745
2096921,2096921,312912,254710
2096921,2096921,313109,254823
2096921,2096921,313137,254764
2096921,2096921,312935,255027
2096921,2096921,312895,254982
2096921,2096921,313055,254940
2096921,2096921,313205,254753
2096921,2096921,313048,254835
2096921,2096921,313071,254815
2096921,2096921,313282,255081
2096921,2096921,313083,255030
2096921,2096921,313323,255133
2096921,2096921,313157,255062
2096921,2096921,312928,255052
2096921,2096921,313122,254904
2096921,2096921,312998,255102
2096921,2096921,313243,255223
2096921,2096921,313098,254923
2096921,2096921,313007,254918
2096921,2096921,312909,255034
2096921,2096921,313071,255141
2096921,2096921,313230,255247
2096921,2096921,313188,255209
2096921,2096921,313104,254859
2096921,2096921,313354,254704
2096921,2096921,313320,254903
2096921,2096921,313139,255214
2096921,2096921,313231,254920
2096921,2096921,313364,255115
2096921,2096921,313259,255189
2096921,2096921,313421,255130
2096921,2096921,313350,255088
2096921,2096921,313336,254973
2096921,2096921,313021,255308
2096921,2096921,313136,255111
2096921,2096921,313262,255315
2096921,2096921,313287,255217
2096921,2096921,313411,255359
2096921,2096921,313218,255289
2096921,2096921,313160,255477
2096921,2096921,313171,255125
2096921,2096921,313208,255296
2096921,2096921,313294,255129
2096921,2096921,313496,255200
2096921,2096921,313342,255109
2096921,2096921,313418,255062
2096921,2096921,313374,255256
2096921,2096921,313258,255319
2096921,2096921,313134,255118
2096921,2096921,313348,255275
2096921,2096921,313223,255272
2096921,2096921,313329,255260
2096921,2096921,313291,254925
2096921,2096921,313623,255033
2096921,2096921,313407,255341
2096921,2096921,313382,255030
2096921,2096921,313508,255332
2096921,2096921,313443,255318
2096921,2096921,313648,255393
2096921,2096921,313468,255250
2096921,2096921,313421,255369
2096921,2096921,313365,255208
2096921,2096921,313417,255161
2096921,2096921,313262,255211
2096921,2096921,313350,255099
2096921,2096921,313137,254936
2096921,2096921,313389,255161
2096921,2096921,313442,255089
2096921,2096921,313381,255123
2096921,2096921,313472,255019
2096921,2096921,313460,255442
2096921,2096921,313511,255375
2096921,2096921,313374,255402
2096921,2096921,313114,254958
2096921,2096921,313121,255078
2096921,2096921,313307,255204
2096921,2096921,313155,255265
2096921,2096921,313104,255298
2096921,2096921,313425,255097
2096921,2096921,313067,255279
2096921,2096921,313126,255130
2096921,2096921,312756,255133
2096921,2096921,313013,255262
2096921,2096921,313537,255280
2096921,2096921,313250,255089
2096921,2096921,313088,254978
2096921,2096921,313149,255065
2096921,2096921,313035,255154
2096921,2096921,312806,254879
2096921,2096921,313015,255006
2096921,2096921,313209,254992
2096921,2096921,313124,255002
2096921,2096921,313013,254871
2096921,2096921,313086,254804
2096921,2096921,313024,254789
2096921,2096921,313138,254920
2096921,2096921,312998,254868
2096921,2096921,313227,254877
2096921,2096921,313050,254863
2096921,2096921,313056,254778
2096921,2096921,312997,254803
2096921,2096921,313018,254695
2096921,2096921,313167,254841
2096921,2096921,312886,254864
2096921,2096921,312964,254590
2096921,2096921,312848,254815
2096921,2096921,312849,254774
2096921,2096921,313100,254768
2096921,2096921,312928,254932
2096921,2096921,312649,254974
2096921,2096921,312683,254756
2096921,2096921,312683,254525
2096921,2096921,312600,254645
2096921,2096921,312685,254816
2096921,2096921,312625,255103
2096921,2096921,313021,254855
2096921,2096921,312820,254761
2096921,2096921,312852,254594
2096921,2096921,312903,254791
2096921,2096921,312625,254275
2096921,2096921,312212,254367
2096921,2096921,312360,254329
2096921,2096921,311940,254208
2096921,2096921,312060,254146
2096921,2096921,311755,253750
2096921,2096921,311780,253635
2096921,2096921,311564,253775
2096921,2096921,311654,253890
2096921,2096921,311663,253970
2096921,2096921,310903,253095
2096921,2096921,310912,253246
2096921,2096921,310688,253219
2096921,2096921,310901,253230
2096921,2096921,310964,253007
2096921,2096921,310183,252446
2096921,2096921,310176,252301
2096921,2096921,309971,252286
2096921,2096921,309798,252255
2096921,2096921,309730,252300
2096921,2096921,308890,251715
2096921,2096921,308956,251190
2096921,2096921,308856,251127
2096921,2096921,308513,251297
2096921,2096921,308499,251245
2096921,2096921,306775,249751
2096921,2096921,306422,249526
2096921,2096921,306181,249319
2096921,2096921,306241,249436
2096921,2096921,306341,249307
2096921,2096921,303914,247528
2096921,2096921,303164,247228
2096921,2096921,303282,247085
2096921,2096921,303087,247044
2096921,2096921,303019,247090
2096921,2096921,301516,245537
2096921,2096921,301007,245146
2096921,2096921,300680,244954
2096921,2096921,300993,245037
2096921,2096921,300953,245073
2096921,2096921,299609,244064
2096921,2096921,299197,243673
2096921,2096921,299092,243723
2096921,2096921,298995,243693
2096921,2096921,299146,243621
2096921,2096921,298165,243011
2096921,2096921,297801,242673
2096921,2096921,298030,242768
2096921,2096921,298010,242671
2096921,2096921,297970,242668
2096921,2096921,297190,242158
2096921,2096921,296966,241946
2096921,2096921,296884,242026
2096921,2096921,297016,242019
2096921,2096921,297053,241930
2096921,2096921,296535,241441
2096921,2096921,296346,241613
2096921,2096921,296182,241457
2096921,2096921,296278,241421
2096921,2096921,296315,241442
2096921,2096921,295946,241113
2096921,2096921,296096,240879
2096921,2096921,295782,240916
2096921,2096921,295935,240996
2096921,2096921,295635,241117
2096921,2096921,295516,240912
2096921,2096921,295479,240812
2096921,2096921,295491,241024
2096921,2096921,295650,240974
2096921,2096921,295449,240773
2096921,2096921,295405,240730
2096921,2096921,295556,240727
2096921,2096921,295678,241038
2096921,2096921,295611,240717
2096921,2096921,295614,240732
2096921,2096921,295488,240945
2096921,2096921,295742,240803
2096921,2096921,295594,240895
2096921,2096921,295810,240872
2096921,2096921,295848,240680
2096921,2096921,295689,240900
2096921,2096921,295530,241090
2096921,2096921,295926,240932
2096921,2096921,295736,240842
2096921,2096921,295585,240920
2096921,2096921,295634,241059
2096921,2096921,295736,240820
2096921,2096921,295957,241314
2096921,2096921,295492,241002
2096921,2096921,295818,241328
2096921,2096921,296356,241246
2096921,2096921,296520,241408
2096921,2096921,296127,241270
2096921,2096921,296210,241396
2096921,2096921,296300,241553
2096921,2096921,296554,241628
2096921,2096921,296551,241629
2096921,2096921,296765,241747
2096921,2096921,296742,241745
2096921,2096921,296658,241480
2096921,2096921,297263,241805
2096921,2096921,297281,241738
2096921,2096921,297016,242217
2096921,2096921,297276,242183
2096921,2096921,296980,242018
2096921,2096921,297372,242259
2096921,2096921,297675,242670
2096921,2096921,297515,242311
2096921,2096921,297632,242297
2096921,2096921,297367,242511
2096921,2096921,297955,242776
2096921,2096921,298010,242721
2096921,2096921,298061,242785
2096921,2096921,298056,242851
2096921,2096921,298004,242655
2096921,2096921,298032,243142
2096921,2096921,298381,243252
2096921,2096921,298482,243132
2096921,2096921,298495,243085
2096921,2096921,298523,242839
2096921,2096921,298775,243399
2096921,2096921,298739,243548
2096921,2096921,298750,243507
2096921,2096921,298789,243375
2096921,2096921,298637,243396
2096921,2096921,299083,243478
2096921,2096921,299194,243517
2096921,2096921,299269,243729
2096921,2096921,299317,243610
2096921,2096921,299330,243751
2096921,2096921,299745,244087
2096921,2096921,299802,244115
2096921,2096921,299664,244025
2096921,2096921,299631,244140
2096921,2096921,299709,243953
2096921,2096921,300182,244413
2096921,2096921,300073,244620
2096921,2096921,299960,244468
2096921,2096921,299975,244394
2096921,2096921,300294,244471
2096921,2096921,300648,244970
2096921,2096921,300481,244804
2096921,2096921,300339,245138
2096921,2096921,300496,245034
2096921,2096921,300363,244822
2096921,2096921,300772,245224
2096921,2096921,301202,245078
2096921,2096921,300928,245180
2096921,2096921,301129,245107
2096921,2096921,301194,245429
2096921,2096921,301315,245453
2096921,2096921,301420,245595
2096921,2096921,301431,245411
2096921,2096921,301389,245451
2096921,2096921,301594,245657
2096921,2096921,301620,245879
2096921,2096921,301714,245812
2096921,2096921,301606,245649
2096921,2096921,301487,245825
2096921,2096921,301465,245606
2096921,2096921,301856,245526
2096921,2096921,301811,245814
2096921,2096921,301760,245804
2096921,2096921,301811,246033
2096921,2096921,301826,246010
2096921,2096921,301803,246189
2096921,2096921,302009,245822
2096921,2096921,301977,246084
2096921,2096921,302025,246067
2096921,2096921,302071,246325
2096921,2096921,301857,246281
2096921,2096921,302040,246053
2096921,2096921,301920,245855
2096921,2096921,302190,245957
2096921,2096921,302051,245916
2096921,2096921,302178,245894
2096921,2096921,301991,245913
2096921,2096921,301912,245980
2096921,2096921,302038,245974
2096921,2096921,302047,245999
2096921,2096921,301874,246277
2096921,2096921,301896,246046
2096921,2096921,301927,245854
2096921,2096921,302002,245783
2096921,2096921,301770,245808
2096921,2096921,301852,246026
2096921,2096921,302013,245772
2096921,2096921,301608,245914
2096921,2096921,301455,246117
2096921,2096921,301539,245849
2096921,2096921,301669,245441
2096921,2096921,301328,245597
2096921,2096921,301378,245614
2096921,2096921,301355,245665
2096921,2096921,301402,245568
2096921,2096921,301287,245502
2096921,2096921,301513,245395
2096921,2096921,301126,245520
2096921,2096921,301282,245177
2096921,2096921,301552,245552
2096921,2096921,301320,245278
2096921,2096921,301512,245475
2096921,2096921,301307,245318
2096921,2096921,301188,245254
2096921,2096921,301037,245363
2096921,2096921,300817,245026
2096921,2096921,300778,245048
2096921,2096921,300820,244816
2096921,2096921,300823,244803
2096921,2096921,301028,244973
2096921,2096921,300770,245130
2096921,2096921,300903,244848
2096921,2096921,300734,245082
2096921,2096921,300803,245145
2096921,2096921,300773,245112
2096921,2096921,300801,244963
2096921,2096921,300626,244812
2096921,2096921,300648,244866
2096921,2096921,300627,244841
2096921,2096921,300771,244866
2096921,2096921,300788,244782
2096921,2096921,300672,245005
2096921,2096921,300551,244776
2096921,2096921,300733,244848
2096921,2096921,300870,244973
2096921,2096921,300798,245069
2096921,2096921,300534,244821
2096921,2096921,300591,245176
2096921,2096921,300758,244903
2096921,2096921,300647,245069
2096921,2096921,301013,245100
2096921,2096921,300837,245176
2096921,2096921,300473,245108
2096921,2096921,300873,245064
2096921,2096921,301106,245114
2096921,2096921,301264,245435
2096921,2096921,301113,245284
2096921,2096921,301044,245549
2096921,2096921,301060,245240
2096921,2096921,301124,245552
2096921,2096921,301276,245481
2096921,2096921,301385,245222
2096921,2096921,301304,245497
2096921,2096921,301461,245676
2096921,2096921,301552,245610
2096921,2096921,301841,245666
2096921,2096921,301894,245913
2096921,2096921,302037,245731
2096921,2096921,301778,246055
2096921,2096921,301987,245977
2096921,2096921,302162,246196
2096921,2096921,302206,246331
2096921,2096921,302078,246119
2096921,2096921,301961,246020
2096921,2096921,302220,246027
2096921,2096921,302478,246434
2096921,2096921,302332,246375
2096921,2096921,302487,246357
2096921,2096921,302369,246419
2096921,2096921,302582,246406
2096921,2096921,302809,246453
2096921,2096921,302695,246545
2096921,2096921,302562,246502
2096921,2096921,302628,246324
2096921,2096921,302542,246610
2096921,2096921,302881,246643
2096921,2096921,302981,246759
2096921,2096921,302920,246556
2096921,2096921,302866,246587
2096921,2096921,302959,246720
2096921,2096921,303007,246736
2096921,2096921,303074,246940
2096921,2096921,302987,246895
2096921,2096921,302894,247186
2096921,2096921,302874,247078
2096921,2096921,303227,247059
2096921,2096921,303228,246887
2096921,2096921,303470,247005
2096921,2096921,303672,247041
2096921,2096921,303620,247102
2096921,2096921,303794,247126
2096921,2096921,303867,247488
2096921,2096921,303853,247190
2096921,2096921,303777,247074
2096921,2096921,303464,247199
2096921,2096921,303791,247248
2096921,2096921,303597,247539
2096921,2096921,303739,247635
2096921,2096921,303929,247503
2096921,2096921,304203,247250
2096921,2096921,304109,247740
2096921,2096921,304146,247379
2096921,2096921,304224,247671
2096921,2096921,304426,247684
2096921,2096921,304108,247792
2096921,2096921,304565,247818
2096921,2096921,304454,248140
2096921,2096921,304469,247890
2096921,2096921,304488,247767
2096921,2096921,304315,247772
2096921,2096921,304590,247965
2096921,2096921,304594,248066
2096921,2096921,304848,247945
2096921,2096921,304560,248050
2096921,2096921,304723,248007
2096921,2096921,304703,248201
2096921,2096921,304704,248246
2096921,2096921,304859,248218
2096921,2096921,304797,248346
2096921,2096921,304817,248257
2096921,2096921,304881,248425
2096921,2096921,305159,248796
2096921,2096921,305164,248549
2096921,2096921,305095,248503
2096921,2096921,305174,248408
2096921,2096921,305403,248638
2096921,2096921,305064,248620
2096921,2096921,305211,248635
2096921,2096921,305396,248725
2096921,2096921,305672,248746
2096921,2096921,305407,248653
2096921,2096921,305556,248748
2096921,2096921,305590,248820
2096921,2096921,305626,248648
2096921,2096921,305542,248691
2096921,2096921,305380,248652
2096921,2096921,305618,248697
2096921,2096921,305225,249024
2096921,2096921,305699,248958
2096921,2096921,305700,248840
2096921,2096921,305927,249221
2096921,2096921,305967,248893
2096921,2096921,306107,249212
2096921,2096921,305952,249084
2096921,2096921,305773,248996
2096921,2096921,305843,249072
2096921,2096921,305917,249039
2096921,2096921,306017,248926
2096921,2096921,306233,248995
2096921,2096921,305794,249204
2096921,2096921,306125,249231
2096921,2096921,306153,249556
2096921,2096921,306177,249618
2096921,2096921,306271,249361
2096921,2096921,306006,249273
2096921,2096921,306485,249378
2096921,2096921,306264,249338
2096921,2096921,306240,249402
2096921,2096921,306381,249514
2096921,2096921,306086,249410
2096921,2096921,306433,249750
2096921,2096921,306620,249681
2096921,2096921,306716,249607
2096921,2096921,306403,249714
2096921,2096921,306614,249498
2096921,2096921,306415,249710
2096921,2096921,306852,249639
2096921,2096921,306450,249701
2096921,2096921,306783,249899
2096921,2096921,306815,249788
2096921,2096921,306508,249713
2096921,2096921,306755,249989
2096921,2096921,306859,250128
2096921,2096921,306762,250086
2096921,2096921,306901,249839
2096921,2096921,306789,249970
2096921,2096921,306893,249952
2096921,2096921,307146,250182
2096921,2096921,307037,250042
2096921,2096921,306948,250041
2096921,2096921,306955,250204
2096921,2096921,307118,250043
2096921,2096921,306910,250115
2096921,2096921,306821,250197
2096921,2096921,306921,249878
2096921,2096921,307207,249840
2096921,2096921,307119,250198
2096921,2096921,307293,250168
2096921,2096921,307101,250297
2096921,2096921,307164,250347
2096921,2096921,307297,250445
2096921,2096921,307208,250227
2096921,2096921,307376,250272
2096921,2096921,307231,250382
2096921,2096921,307276,250273
2096921,2096921,307439,250487
2096921,2096921,307479,250040
2096921,2096921,307290,250239
2096921,2096921,307457,250198
2096921,2096921,307442,250542
2096921,2096921,307570,250235
2096921,2096921,307624,250628
2096921,2096921,307544,250432
2096921,2096921,307467,250454
2096921,2096921,307318,250530
2096921,2096921,307513,250431
2096921,2096921,307353,250338
2096921,2096921,307707,250335
2096921,2096921,307519,250567
2096921,2096921,307649,250480
2096921,2096921,307632,250707
2096921,2096921,307802,250577
2096921,2096921,307873,250580
2096921,2096921,307787,250250
2096921,2096921,307629,250364
2096921,2096921,307735,250619
2096921,2096921,307731,250628
2096921,2096921,307854,250598
2096921,2096921,307708,250447
2096921,2096921,307795,250573
2096921,2096921,308027,250683
2096921,2096921,307996,250844
2096921,2096921,307752,250480
2096921,2096921,307887,250772
2096921,2096921,307967,250553
2096921,2096921,307971,250736
2096921,2096921,307801,250832
2096921,2096921,307809,251117
2096921,2096921,307947,250723
2096921,2096921,308032,251275
2096921,2096921,307930,251144
2096921,2096921,308001,250968
2096921,2096921,308124,251028
2096921,2096921,308226,250835
2096921,2096921,308046,250929
2096921,2096921,308110,250812
2096921,2096921,308308,250994
2096921,2096921,308251,250910
2096921,2096921,308272,250865
2096921,2096921,308179,250840
2096921,2096921,308354,251031
2096921,2096921,308199,251096
2096921,2096921,308238,251177
2096921,2096921,308333,251051
2096921,2096921,308302,251139
2096921,2096921,308480,250929
2096921,2096921,308379,250863
2096921,2096921,308372,250953
2096921,2096921,308209,251203
2096921,2096921,308115,251097
2096921,2096921,308405,251174
2096921,2096921,308344,250978
2096921,2096921,308266,251035
2096921,2096921,308521,250977
2096921,2096921,308436,251118
2096921,2096921,308496,250873
2096921,2096921,308235,251166
2096921,2096921,308600,251066
2096921,2096921,308491,251007
2096921,2096921,308460,251390
2096921,2096921,308527,251161
2096921,2096921,308801,251157
2096921,2096921,308383,251147
2096921,2096921,308493,251105
2096921,2096921,308424,251302
2096921,2096921,308259,251131
2096921,2096921,308385,251225
2096921,2096921,308538,251160
2096921,2096921,308682,251315
2096921,2096921,308492,251395
2096921,2096921,308699,251356
2096921,2096921,308543,251358
2096921,2096921,308516,251062
2096921,2096921,308513,251218
2096921,2096921,308273,251275
2096921,2096921,308486,251184
2096921,2096921,308449,251270
2096921,2096921,308576,251208
2096921,2096921,308434,251097
2096921,2096921,308593,251250
2096921,2096921,308697,251205
2096921,2096921,308770,251146
2096921,2096921,308575,251301
2096921,2096921,308639,251348
2096921,2096921,308576,251384
2096921,2096921,308511,251127
2096921,2096921,308777,251359
2096921,2096921,308564,251337
2096921,2096921,308396,251390
2096921,2096921,308371,251383
2096921,2096921,308514,251492
2096921,2096921,308565,251298
2096921,2096921,308633,251306
2096921,2096921,308653,251291
2096921,2096921,308469,251243
2096921,2096921,308473,251127
2096921,2096921,308453,251277
2096921,2096921,308375,251171
2096921,2096921,308588,251153
2096921,2096921,308723,251339
2096921,2096921,308655,251265
2096921,2096921,308494,251268
2096921,2096921,308584,251252
2096921,2096921,308337,251280
2096921,2096921,308379,251234
2096921,2096921,308446,251317
2096921,2096921,308341,251120
2096921,2096921,308549,251060
2096921,2096921,308406,251117
2096921,2096921,308460,251106
2096921,2096921,307845,250892
2096921,2096921,308123,250918
2096921,2096921,307855,250642
2096921,2096921,307878,250744
2096921,2096921,307846,250825
2096921,2096921,307793,250594
2096921,2096921,307612,250782
2096921,2096921,307622,250387
2096921,2096921,307344,250805
2096921,2096921,307542,250415
2096921,2096921,306780,250119
2096921,2096921,306895,249987
2096921,2096921,306915,249768
2096921,2096921,306858,250034
2096921,2096921,307034,249771
2096921,2096921,305969,249236
2096921,2096921,305783,249082
2096921,2096921,305706,249075
2096921,2096921,305927,249067
2096921,2096921,305973,249295
2096921,2096921,305232,248370
2096921,2096921,305091,248205
2096921,2096921,305129,248462
2096921,2096921,304932,248274
2096921,2096921,304886,248288
2096921,2096921,302951,246816
2096921,2096921,302521,246579
2096921,2096921,302435,246350
2096921,2096921,302367,246375
2096921,2096921,302386,246394
2096921,2096921,300023,244682
2096921,2096921,299687,244243
2096921,2096921,299758,244207
2096921,2096921,299665,244336
2096921,2096921,299685,244198
2096921,2096921,297871,242834
2096921,2096921,297714,242266
2096921,2096921,297494,242407
2096921,2096921,297437,242204
2096921,2096921,297438,242195
2096921,2096921,296220,241060
2096921,2096921,295985,241022
2096921,2096921,295861,240695
2096921,2096921,295901,240911
2096921,2096921,295804,240985
2096921,2096921,294796,240047
2096921,2096921,294645,240019
2096921,2096921,294743,239989
2096921,2096921,294857,240095
2096921,2096921,294615,239894
2096921,2096921,293753,239567
2096921,2096921,293880,239543
2096921,2096921,293745,239367
2096921,2096921,293686,239330
2096921,2096921,293664,239281
2096921,2096921,293233,238837
2096921,2096921,293028,238931
2096921,2096921,293053,238760
2096921,2096921,293233,238811
2096921,2096921,293212,238778
2096921,2096921,293028,238714
2096921,2096921,292829,238519
2096921,2096921,293181,238375
2096921,2096921,292828,238436
2096921,2096921,292895,238630
2096921,2096921,292758,238558
2096921,2096921,292923,238602
2096921,2096921,292601,238477
2096921,2096921,292845,238573
2096921,2096921,292843,238541
2096921,2096921,292929,238461
2096921,2096921,292734,238540
2096921,2096921,292886,238360
2096921,2096921,292870,238696
2096921,2096921,292902,238608
2096921,2096921,292936,238826
2096921,2096921,293103,238779
2096921,2096921,293075,238684
2096921,2096921,293094,238773
2096921,2096921,293485,238810
2096921,2096921,293184,238917
2096921,2096921,293296,238799
2096921,2096921,293397,238650
2096921,2096921,293328,238898
2096921,2096921,293110,238887
2096921,2096921,293356,238932
2096921,2096921,293326,239132
2096921,2096921,293352,239070
2096921,2096921,293409,239014
2096921,2096921,293639,238884
2096921,2096921,293766,239649
2096921,2096921,293994,239491
2096921,2096921,293925,239659
2096921,2096921,293959,239270
2096921,2096921,293922,239250
2096921,2096921,294244,239577
2096921,2096921,294456,239704
2096921,2096921,294511,239937
2096921,2096921,294416,239952
2096921,2096921,294359,239980
2096921,2096921,294916,240174
2096921,2096921,294883,240315
2096921,2096921,294947,240471
2096921,2096921,294891,240423
2096921,2096921,295078,240291
2096921,2096921,295527,240606
2096921,2096921,295756,240957
2096921,2096921,295261,240771
2096921,2096921,295434,240702
2096921,2096921,295474,240878
2096921,2096921,295899,241008
2096921,2096921,296031,241139
2096921,2096921,296269,240877
2096921,2096921,296087,241200
2096921,2096921,295967,240970
2096921,2096921,296313,241362
2096921,2096921,296604,241455
2096921,2096921,296578,241550
2096921,2096921,296682,241673
2096921,2096921,296482,241677
2096921,2096921,297018,241931
2096921,2096921,297155,241722
2096921,2096921,297169,241966
2096921,2096921,297009,242164
2096921,2096921,297113,241990
2096921,2096921,297600,242399
2096921,2096921,297543,242505
2096921,2096921,297745,242358
2096921,2096921,297682,242503
2096921,2096921,298000,242810
2096921,2096921,298146,242776
2096921,2096921,298299,242882
2096921,2096921,298272,242998
2096921,2096921,298055,242881
2096921,2096921,298088,242888
2096921,2096921,298534,243195
2096921,2096921,298716,243413
2096921,2096921,298401,243434
2096921,2096921,298794,243626
2096921,2096921,298861,243372
2096921,2096921,299336,243905
2096921,2096921,299368,244004
2096921,2096921,299182,244032
2096921,2096921,299145,243726
2096921,2096921,299264,243602
2096921,2096921,299690,244356
2096921,2096921,299836,244259
2096921,2096921,299784,244373
2096921,2096921,299924,244259
2096921,2096921,299937,244409
2096921,2096921,300223,244685
2096921,2096921,300403,244701
2096921,2096921,300507,244678
2096921,2096921,300119,244750
2096921,2096921,300374,244434
2096921,2096921,300792,245062
2096921,2096921,300727,244877
2096921,2096921,300853,244700
2096921,2096921,300833,244801
2096921,2096921,300855,244985
2096921,2096921,301133,245488
2096921,2096921,301213,245432
2096921,2096921,301209,245270
2096921,2096921,300959,245438
2096921,2096921,301126,245149
2096921,2096921,301388,245543
2096921,2096921,301361,245668
2096921,2096921,301194,245522
2096921,2096921,301268,245696
2096921,2096921,301244,245626
2096921,2096921,301672,245751
2096921,2096921,301626,245702
2096921,2096921,301230,245696
2096921,2096921,301403,245534
2096921,2096921,301453,245632
2096921,2096921,301842,245680
2096921,2096921,302122,245764
2096921,2096921,301848,245904
2096921,2096921,301716,245687
2096921,2096921,301587,245924
2096921,2096921,301788,245798
2096921,2096921,301657,245731
2096921,2096921,301577,245559
2096921,2096921,301930,245882
2096921,2096921,301481,245775
2096921,2096921,301594,245740
2096921,2096921,301508,245507
2096921,2096921,301728,245855
2096921,2096921,301807,245710
2096921,2096921,301543,245875
2096921,2096921,301417,245760
2096921,2096921,301626,245712
2096921,2096921,301861,245717
2096921,2096921,301669,245587
2096921,2096921,301619,245786
2096921,2096921,301642,245705
2096921,2096921,301706,245561
2096921,2096921,301605,245483
2096921,2096921,301196,245481
2096921,2096921,301341,245302
2096921,2096921,301127,245553
2096921,2096921,301487,245372
2096921,2096921,301514,245480
2096921,2096921,301380,245263
2096921,2096921,301528,245555
2096921,2096921,301221,245345
2096921,2096921,301611,245378
2096921,2096921,301122,245404
2096921,2096921,301197,245622
2096921,2096921,301031,245619
2096921,2096921,301270,245452
2096921,2096921,301227,245401
2096921,2096921,301559,245277
2096921,2096921,301449,245598
2096921,2096921,301292,245580
2096921,2096921,301336,245621
2096921,2096921,301488,245760
2096921,2096921,301489,245506
2096921,2096921,301415,245463
2096921,2096921,301529,245794
2096921,2096921,301401,245700
2096921,2096921,301633,245469
2096921,2096921,301786,245672
2096921,2096921,301609,245583
2096921,2096921,301524,245603
2096921,2096921,301489,245793
2096921,2096921,301644,245445
2096921,2096921,301845,245719
2096921,2096921,302067,245599
2096921,2096921,302074,245671
2096921,2096921,301829,245761
2096921,2096921,302078,246060
2096921,2096921,302055,245891
2096921,2096921,302070,246050
2096921,2096921,301932,245946
2096921,2096921,302418,246246
2096921,2096921,302285,246166
2096921,2096921,302588,246184
2096921,2096921,302232,246418
2096921,2096921,302383,246446
2096921,2096921,302814,246848
2096921,2096921,302951,246640
2096921,2096921,303147,246647
2096921,2096921,303175,246582
2096921,2096921,302733,246714
2096921,2096921,302961,246929
2096921,2096921,303243,246737
2096921,2096921,303001,246846
2096921,2096921,303229,246812
2096921,2096921,303071,247218
2096921,2096921,303746,247249
2096921,2096921,303755,247555
2096921,2096921,303797,247429
2096921,2096921,303794,247343
2096921,2096921,303710,247327
2096921,2096921,304259,247849
2096921,2096921,304294,247884
2096921,2096921,304215,247825
2096921,2096921,304164,247887
2096921,2096921,304063,247777
2096921,2096921,304350,247935
2096921,2096921,304534,248137
2096921,2096921,304340,247888
2096921,2096921,304482,247794
2096921,2096921,304215,247798
2096921,2096921,304541,248093
2096921,2096921,304778,248193
2096921,2096921,304742,248116
2096921,2096921,304805,248038
2096921,2096921,304926,248317
2096921,2096921,305187,248561
2096921,2096921,305207,248775
2096921,2096921,305379,248776
2096921,2096921,305259,248748
2096921,2096921,305188,248521
2096921,2096921,305389,248660
2096921,2096921,305474,249091
2096921,2096921,305482,248698
2096921,2096921,305843,248779
2096921,2096921,305457,248612
2096921,2096921,305991,249304
2096921,2096921,305821,249012
2096921,2096921,305965,249257
2096921,2096921,306017,249163
2096921,2096921,306073,249239
2096921,2096921,306276,249604
2096921,2096921,306600,249533
2096921,2096921,306162,249325
2096921,2096921,306310,249348
2096921,2096921,306310,249466
2096921,2096921,306576,249788
2096921,2096921,306778,249958
2096921,2096921,306664,249835
2096921,2096921,306792,249467
2096921,2096921,306420,249836
2096921,2096921,306830,250093
2096921,2096921,307032,250168
2096921,2096921,306875,249917
2096921,2096921,306972,249982
2096921,2096921,306839,250208
2096921,2096921,307407,250148
2096921,2096921,307442,250465
2096921,2096921,307415,250386
2096921,2096921,307334,250328
2096921,2096921,307242,250296
2096921,2096921,307665,250620
2096921,2096921,307675,250736
2096921,2096921,307675,250596
2096921,2096921,307810,250491
2096921,2096921,307791,250688
2096921,2096921,307821,250769
2096921,2096921,308002,250888
2096921,2096921,307834,250969
2096921,2096921,307844,250898
2096921,2096921,307861,250931
2096921,2096921,308346,250998
2096921,2096921,308573,251342
2096921,2096921,308360,251350
2096921,2096921,308477,251435
2096921,2096921,308485,251282
2096921,2096921,308507,251463
2096921,2096921,308753,251365
2096921,2096921,308836,251499
2096921,2096921,308556,251425
2096921,2096921,308725,251238
2096921,2096921,308922,251555
2096921,2096921,308787,251526
2096921,2096921,308714,251415
2096921,2096921,308942,251439
2096921,2096921,308545,251599
2096921,2096921,308974,251657
2096921,2096921,309186,251848
2096921,2096921,309118,251854
2096921,2096921,308996,251589
2096921,2096921,309059,251838
2096921,2096921,309364,251848
2096921,2096921,309451,251901
2096921,2096921,309174,252018
2096921,2096921,309355,252234
2096921,2096921,308937,252011
2096921,2096921,309436,252085
2096921,2096921,309787,252077
2096921,2096921,309858,252334
2096921,2096921,309662,252202
2096921,2096921,309831,252281
2096921,2096921,310139,252301
2096921,2096921,310254,252298
2096921,2096921,310202,252235
2096921,2096921,309946,252406
2096921,2096921,309944,252413
2096921,2096921,310342,252879
2096921,2096921,310409,252724
2096921,2096921,310624,252850
2096921,2096921,310419,252671
2096921,2096921,310181,252654
2096921,2096921,310248,252910
2096921,2096921,310388,252944
2096921,2096921,310293,252692
2096921,2096921,310180,252864
2096921,2096921,310483,252822
2096921,2096921,310697,252875
2096921,2096921,310838,252892
2096921,2096921,310870,253024
2096921,2096921,310648,252982
2096921,2096921,310704,252791
2096921,2096921,310636,253278
2096921,2096921,310794,253190
2096921,2096921,310709,253227
2096921,2096921,310789,253288
2096921,2096921,310816,253492
2096921,2096921,311161,253315
2096921,2096921,311075,253444
2096921,2096921,311145,253295
2096921,2096921,311152,253384
2096921,2096921,311076,253347
2096921,2096921,311064,253600
2096921,2096921,311458,253542
2096921,2096921,311174,253548
2096921,2096921,311315,253697
2096921,2096921,311375,253544
2096921,2096921,311498,253848
2096921,2096921,311704,253855
2096921,2096921,311524,253602
2096921,2096921,311576,253844
2096921,2096921,311488,253661
2096921,2096921,311781,253729
2096921,2096921,311788,253659
2096921,2096921,311670,253782
2096921,2096921,311848,253868
2096921,2096921,311744,254045
2096921,2096921,311879,254111
2096921,2096921,311794,253956
2096921,2096921,311818,254017
2096921,2096921,311915,254075
2096921,2096921,311694,254104
2096921,2096921,312160,254115
2096921,2096921,312000,253872
2096921,2096921,312158,253928
2096921,2096921,312078,254304
2096921,2096921,311869,254310
2096921,2096921,312343,254201
2096921,2096921,312095,254242
2096921,2096921,312178,254177
2096921,2096921,312101,254306
2096921,2096921,312267,254178
2096921,2096921,312391,254352
2096921,2096921,312478,254374
2096921,2096921,312268,254430
2096921,2096921,312334,254531
2096921,2096921,312231,254330
2096921,2096921,312733,254467
2096921,2096921,312636,254677
2096921,2096921,312843,254418
2096921,2096921,312629,254655
2096921,2096921,312433,254489
2096921,2096921,312767,254648
2096921,2096921,312574,254807
2096921,2096921,312597,254785
2096921,2096921,312777,254815
2096921,2096921,312713,254694
2096921,2096921,312520,254939
2096921,2096921,313131,254816
2096921,2096921,313113,254860
2096921,2096921,312967,254985
2096921,2096921,312988,254964
2096921,2096921,312985,254945
2096921,2096921,313011,254948
2096921,2096921,313054,254917
2096921,2096921,312855,255161
2096921,2096921,312899,254928
2096921,2096921,313197,255025
2096921,2096921,313226,254840
2096921,2096921,313153,255077
2096921,2096921,313208,254910
2096921,2096921,313287,255126
2096921,2096921,313405,255268
2096921,2096921,313227,255233
2096921,2096921,313210,255010
2096921,2096921,313463,255312
2096921,2096921,313104,255394
2096921,2096921,313443,255258
2096921,2096921,313499,255270
2096921,2096921,313287,255246
2096921,2096921,313459,255120
2096921,2096921,313222,255199
2096921,2096921,313483,255108
2096921,2096921,313587,255455
2096921,2096921,313447,255325
2096921,2096921,313529,255267
2096921,2096921,313652,255406
2096921,2096921,313662,255580
2096921,2096921,313733,255632
2096921,2096921,313730,255346
2096921,2096921,313692,255317
2096921,2096921,313807,255319
2096921,2096921,313800,255689
2096921,2096921,313603,255464
2096921,2096921,313942,255239
2096921,2096921,313837,255583
2096921,2096921,313645,255541
2096921,2096921,313947,255506
2096921,2096921,313681,255717
2096921,2096921,313804,255661
2096921,2096921,313952,255741
2096921,2096921,313756,255608
2096921,2096921,313613,255587
2096921,2096921,313718,255758
2096921,2096921,313786,255821
2096921,2096921,313884,255572
2096921,2096921,313889,255587
2096921,2096921,313934,255701
2096921,2096921,313891,255880
2096921,2096921,313781,255879
2096921,2096921,314138,255632
2096921,2096921,313990,255690
2096921,2096921,313775,255679
2096921,2096921,313741,255522
2096921,2096921,313893,255505
2096921,2096921,314223,255860
2096921,2096921,314046,255512
2096921,2096921,314373,255504
2096921,2096921,314253,255739
2096921,2096921,314143,255848
2096921,2096921,314005,255818
2096921,2096921,313973,255679
2096921,2096921,313870,255825
2096921,2096921,314275,255767
2096921,2096921,314172,255994
2096921,2096921,314146,255702
2096921,2096921,314124,255904
2096921,2096921,314081,255801
2096921,2096921,314157,255843
2096921,2096921,314395,255847
2096921,2096921,314430,255890
2096921,2096921,314163,255742
2096921,2096921,314040,255874
2096921,2096921,314043,256016
2096921,2096921,314378,255728
2096921,2096921,314192,255835
2096921,2096921,314108,255889
2096921,2096921,313942,255736
2096921,2096921,313925,255914
2096921,2096921,313583,255580
2096921,2096921,313780,255608
2096921,2096921,313717,255700
2096921,2096921,313554,255397
2096921,2096921,313017,255176
2096921,2096921,313416,255056
2096921,2096921,313253,255207
2096921,2096921,313346,255007
2096921,2096921,312973,254724
2096921,2096921,312630,254621
2096921,2096921,312610,254664
2096921,2096921,312544,254429
2096921,2096921,312524,254560
2096921,2096921,311685,254070
2096921,2096921,311485,253549
2096921,2096921,311739,253454
2096921,2096921,311828,253648
2096921,2096921,311794,253896
2096921,2096921,310944,253338
2096921,2096921,310795,253165
2096921,2096921,310723,253079
2096921,2096921,310658,253252
2096921,2096921,310847,253111
2096921,2096921,308936,251666
2096921,2096921,308487,251057
2096921,2096921,308314,251334
2096921,2096921,308333,251083
2096921,2096921,308414,251179
2096921,2096921,305933,249086
2096921,2096921,305497,248814
2096921,2096921,305475,248705
2096921,2096921,305227,248902
2096921,2096921,305299,248622
2096921,2096921,303875,247461
2096921,2096921,303351,247227
2096921,2096921,303015,247145
2096921,2096921,303395,247123
2096921,2096921,303321,247031
2096921,2096921,302031,245897
2096921,2096921,301739,245657
2096921,2096921,301723,245771
2096921,2096921,301576,245795
2096921,2096921,301660,245701
2096921,2096921,300768,245021
2096921,2096921,300677,244814
2096921,2096921,300535,244481
2096921,2096921,300427,244866
2096921,2096921,300447,244783
2096921,2096921,299955,244235
2096921,2096921,299782,244063
2096921,2096921,299567,243928
2096921,2096921,299453,244014
2096921,2096921,299364,244250
2096921,2096921,299050,243584
2096921,2096921,299195,243646
2096921,2096921,298902,243680
2096921,2096921,298983,243448
2096921,2096921,299125,243767
2096921,2096921,298802,243246
2096921,2096921,298611,243248
2096921,2096921,298717,243415
2096921,2096921,298629,243326
2096921,2096921,298700,243147
2096921,2096921,298565,243043
2096921,2096921,298334,243189
2096921,2096921,298725,243383
2096921,2096921,298585,243023
2096921,2096921,298710,243394
2096921,2096921,298452,243364
2096921,2096921,298330,243544
2096921,2096921,298509,243559
2096921,2096921,298535,243238
2096921,2096921,298669,243081
2096921,2096921,298617,243345
2096921,2096921,298879,243291
2096921,2096921,298975,243212
2096921,2096921,298742,243388
2096921,2096921,298836,243369
2096921,2096921,299031,243486
2096921,2096921,298917,243436
2096921,2096921,299022,243625
2096921,2096921,298896,243574
2096921,2096921,299006,243589
2096921,2096921,299081,243828
2096921,2096921,299250,243846
2096921,2096921,299074,243810
2096921,2096921,299251,243792
2096921,2096921,299056,243665
2096921,2096921,299432,243979
2096921,2096921,299758,243898
2096921,2096921,299782,244096
2096921,2096921,299737,244202
2096921,2096921,299603,244089
2096921,2096921,300036,244372
2096921,2096921,300131,244609
2096921,2096921,300073,244691
2096921,2096921,300124,244597
2096921,2096921,299875,244473
2096921,2096921,300383,244861
2096921,2096921,300513,244998
2096921,2096921,300515,245092
2096921,2096921,300707,244855
2096921,2096921,300565,244706
2096921,2096921,301131,245181
2096921,2096921,301138,245262
2096921,2096921,301286,245441
2096921,2096921,301105,245244
2096921,2096921,301279,245218
2096921,2096921,301472,245891
2096921,2096921,301805,245724
2096921,2096921,301633,245868
2096921,2096921,301517,246020
2096921,2096921,301622,245798
2096921,2096921,302228,246147
2096921,2096921,302235,246350
2096921,2096921,302137,246192
2096921,2096921,302082,246267
2096921,2096921,302206,246231
2096921,2096921,302572,246604
2096921,2096921,302487,246641
2096921,2096921,302496,246493
2096921,2096921,302711,246489
2096921,2096921,302799,246695
2096921,2096921,303256,247017
2096921,2096921,303248,246837
2096921,2096921,303360,247374
2096921,2096921,303074,247034
2096921,2096921,303061,247310
2096921,2096921,303460,247338
2096921,2096921,303843,247428
2096921,2096921,303770,247306
2096921,2096921,303641,247504
2096921,2096921,303651,247294
2096921,2096921,303697,247822
2096921,2096921,304201,247894
2096921,2096921,304318,247972
2096921,2096921,304241,247895
2096921,2096921,304355,247771
2096921,2096921,304855,248342
2096921,2096921,304758,248484
2096921,2096921,304866,248041
2096921,2096921,304872,248209
2096921,2096921,304847,248084
2096921,2096921,305256,248454
2096921,2096921,305079,248512
2096921,2096921,305474,248511
2096921,2096921,305145,248824
2096921,2096921,305160,248789
2096921,2096921,305786,248866
2096921,2096921,305863,248921
2096921,2096921,305795,248991
2096921,2096921,305691,249238
2096921,2096921,305532,249163
2096921,2096921,306092,249154
2096921,2096921,306229,249523
2096921,2096921,306259,249396
2096921,2096921,306052,249377
2096921,2096921,306336,249209
2096921,2096921,306448,249615
2096921,2096921,306346,249684
2096921,2096921,306644,249942
2096921,2096921,306090,249587
2096921,2096921,306358,249683
2096921,2096921,306328,250018
2096921,2096921,306626,249890
2096921,2096921,306621,249833
2096921,2096921,306626,249728
2096921,2096921,306618,250020
2096921,2096921,306656,249989
2096921,2096921,306698,249863
2096921,2096921,306818,249698
2096921,2096921,306890,249960
2096921,2096921,306625,249868
2096921,2096921,306830,249978
2096921,2096921,306590,249769
2096921,2096921,306706,249869
2096921,2096921,306862,249848
2096921,2096921,306922,250065
2096921,2096921,306795,250089
2096921,2096921,306637,249969
2096921,2096921,306771,249801
2096921,2096921,306744,249848
2096921,2096921,306496,249864
2096921,2096921,306770,249583
2096921,2096921,306730,249881
2096921,2096921,306532,249806
2096921,2096921,306719,249814
2096921,2096921,306613,249642
2096921,2096921,306524,249854
2096921,2096921,306580,249902
2096921,2096921,306776,249602
2096921,2096921,306513,249591
2096921,2096921,306446,249757
2096921,2096921,306284,249501
2096921,2096921,306468,249408
2096921,2096921,306437,249436
2096921,2096921,306315,249388
2096921,2096921,306459,249446
2096921,2096921,306199,249176
2096921,2096921,306425,249392
2096921,2096921,306389,249474
2096921,2096921,306213,249678
2096921,2096921,306320,249255
2096921,2096921,306152,249302
2096921,2096921,306027,249323
2096921,2096921,306129,249034
2096921,2096921,305869,249236
2096921,2096921,305870,249277
2096921,2096921,305990,249343
2096921,2096921,306092,249286
2096921,2096921,305836,249105
2096921,2096921,305908,249051
2096921,2096921,305846,249206
2096921,2096921,305995,249305
2096921,2096921,305903,249340
2096921,2096921,305700,249144
2096921,2096921,306015,249407
2096921,2096921,305969,249144
2096921,2096921,305940,249182
2096921,2096921,306015,249268
2096921,2096921,306036,249249
2096921,2096921,305899,249118
2096921,2096921,306089,249198
2096921,2096921,306036,249345
2096921,2096921,305970,249377
2096921,2096921,306172,249472
2096921,2096921,306146,249630
2096921,2096921,306161,249583
2096921,2096921,306290,249526
2096921,2096921,306204,249266
2096921,2096921,306156,249570
2096921,2096921,306336,249321
2096921,2096921,306195,249513
2096921,2096921,306567,249703
2096921,2096921,306848,249761
2096921,2096921,306671,249702
2096921,2096921,306669,249563
2096921,2096921,306649,249827
2096921,2096921,306906,250114
2096921,2096921,306932,250311
2096921,2096921,307108,250373
2096921,2096921,307135,250189
2096921,2096921,306942,250219
2096921,2096921,307284,250502
2096921,2096921,307510,250324
2096921,2096921,307310,250492
2096921,2096921,307666,250183
2096921,2096921,307169,250334
2096921,2096921,307579,250833
2096921,2096921,307777,250798
2096921,2096921,307924,250692
2096921,2096921,308065,250740
2096921,2096921,307912,250603
2096921,2096921,308041,250979
2096921,2096921,307945,250843
2096921,2096921,308184,250877
2096921,2096921,308195,251011
2096921,2096921,307948,251069
2096921,2096921,308330,251492
2096921,2096921,308445,251086
2096921,2096921,308479,251222
2096921,2096921,308254,251164
2096921,2096921,308315,251166
2096921,2096921,308705,251320
2096921,2096921,308713,251528
2096921,2096921,308643,251447
2096921,2096921,308665,251283
2096921,2096921,308733,251367
2096921,2096921,309059,251730
2096921,2096921,309105,251786
2096921,2096921,309048,251646
2096921,2096921,309228,251679
2096921,2096921,309098,251775
2096921,2096921,309254,251930
2096921,2096921,309203,251782
2096921,2096921,309314,252100
2096921,2096921,309470,251794
2096921,2096921,309110,252056
2096921,2096921,309745,252187
2096921,2096921,309616,252126
2096921,2096921,309703,252088
2096921,2096921,309542,252439
2096921,2096921,309468,252158
2096921,2096921,309783,252300
2096921,2096921,309691,252306
2096921,2096921,309958,252179
2096921,2096921,309806,252093
2096921,2096921,309764,252344
2096921,2096921,309750,252305
2096921,2096921,310091,252315
2096921,2096921,309893,252538
2096921,2096921,310053,252652
2096921,2096921,309942,252649
2096921,2096921,310404,252594
2096921,2096921,310357,252733
2096921,2096921,310389,252695
2096921,2096921,310426,252792
2096921,2096921,310472,252866
2096921,2096921,310757,253112
2096921,2096921,310448,252974
2096921,2096921,310358,253161
2096921,2096921,310359,253076
2096921,2096921,310588,253045
2096921,2096921,310977,253161
2096921,2096921,310994,253105
2096921,2096921,310749,253314
2096921,2096921,310952,253486
2096921,2096921,310875,253056
2096921,2096921,310907,253554
2096921,2096921,310989,253270
2096921,2096921,311052,253600
2096921,2096921,310972,253698
2096921,2096921,311020,253629
2096921,2096921,311362,253683
2096921,2096921,311162,253499
2096921,2096921,311485,253800
2096921,2096921,311345,253591
2096921,2096921,311439,253544
2096921,2096921,311757,253527
2096921,2096921,311524,253724
2096921,2096921,311589,253609
2096921,2096921,311714,253713
2096921,2096921,311424,253567
2096921,2096921,311515,253984
2096921,2096921,311668,253692
2096921,2096921,311673,253973
2096921,2096921,311603,254030
2096921,2096921,311476,254113
2096921,2096921,311933,254200
2096921,2096921,312222,254082
2096921,2096921,311877,254367
2096921,2096921,311771,254063
2096921,2096921,311748,253933
2096921,2096921,311820,254181
2096921,2096921,311937,254342
2096921,2096921,311879,254147
2096921,2096921,312007,254284
2096921,2096921,312074,254097
2096921,2096921,311848,254225
2096921,2096921,312211,254448
2096921,2096921,312313,254352
2096921,2096921,312122,254330
2096921,2096921,312292,254451
2096921,2096921,312303,254440
2096921,2096921,312570,254457
2096921,2096921,312138,254334
2096921,2096921,312138,254488
2096921,2096921,312444,254524
2096921,2096921,312551,254497
2096921,2096921,312474,254416
2096921,2096921,312523,254658
2096921,2096921,312541,254535
2096921,2096921,312477,254518
2096921,2096921,312514,254782
2096921,2096921,312575,254785
2096921,2096921,312541,254700
2096921,2096921,312726,254760
2096921,2096921,312649,254638
2096921,2096921,312656,254832
2096921,2096921,312917,254865
2096921,2096921,312691,254864
2096921,2096921,312595,254767
2096921,2096921,312560,254667
2096921,2096921,312913,254682
2096921,2096921,312375,254871
2096921,2096921,312911,254985
2096921,2096921,312811,254920
2096921,2096921,312876,254888
2096921,2096921,312865,254975
2096921,2096921,312776,254840
2096921,2096921,313024,254881
2096921,2096921,312780,254613
2096921,2096921,312920,254755
2096921,2096921,313080,254977
2096921,2096921,312972,255023
2096921,2096921,313000,254739
2096921,2096921,312792,254928
2096921,2096921,313053,254795
2096921,2096921,313105,254925
2096921,2096921,312961,254956
2096921,2096921,313189,255074
2096921,2096921,313070,255104
2096921,2096921,313161,254771
2096921,2096921,312960,254897
2096921,2096921,313171,255073
2096921,2096921,313172,255025
2096921,2096921,313195,255307
2096921,2096921,313346,255145
2096921,2096921,313174,255048
2096921,2096921,313273,255068
2096921,2096921,313184,255099
2096921,2096921,313408,255194
2096921,2096921,313128,255031
2096921,2096921,313309,255014
2096921,2096921,313091,255132
2096921,2096921,313162,254903
2096921,2096921,313339,255161
2096921,2096921,313287,255203
2096921,2096921,313314,255270
2096921,2096921,313268,255075
2096921,2096921,313233,255089
2096921,2096921,313222,255070
2096921,2096921,313149,255215
2096921,2096921,313148,255275
2096921,2096921,313329,255124
2096921,2096921,313235,255154
2096921,2096921,313374,255175
2096921,2096921,313400,255081
2096921,2096921,313615,255268
2096921,2096921,313323,255014
2096921,2096921,313327,255084
2096921,2096921,313240,255343
2096921,2096921,313319,255192
2096921,2096921,313410,255057
2096921,2096921,313218,255235
2096921,2096921,313284,255207
2096921,2096921,313486,255347
2096921,2096921,313426,255514
2096921,2096921,313715,255180
2096921,2096921,313379,255426
2096921,2096921,313459,255452
2096921,2096921,313303,255394
2096921,2096921,313513,255157
2096921,2096921,313463,255293
2096921,2096921,313426,255625
2096921,2096921,313450,255298
2096921,2096921,313415,255368
2096921,2096921,313560,255501
2096921,2096921,313584,255294
2096921,2096921,313651,255392
2096921,2096921,313298,255136
2096921,2096921,313517,255391
2096921,2096921,313577,255311
2096921,2096921,313638,255423
2096921,2096921,313577,255163
2096921,2096921,313431,255318
2096921,2096921,313566,255309
2096921,2096921,313575,255537
2096921,2096921,313393,255558
2096921,2096921,313591,255467
2096921,2096921,313501,255344
2096921,2096921,313546,255353
2096921,2096921,313383,255445
2096921,2096921,313551,255210
2096921,2096921,313642,255303
2096921,2096921,313350,255249
2096921,2096921,313359,255566
2096921,2096921,313494,255341
2096921,2096921,313518,255425
2096921,2096921,313483,255323
2096921,2096921,313371,255421
2096921,2096921,313393,255310
2096921,2096921,313552,255361
2096921,2096921,313255,255296
2096921,2096921,313236,255175
2096921,2096921,313549,255226
2096921,2096921,313463,255142
2096921,2096921,313544,255331
2096921,2096921,313201,255413
2096921,2096921,313139,255277
2096921,2096921,313424,255028
2096921,2096921,313423,254898
2096921,2096921,313158,255086
2096921,2096921,313554,254948
2096921,2096921,313371,255093
2096921,2096921,313360,255136
2096921,2096921,313233,254874
2096921,2096921,313422,255085
2096921,2096921,313177,255028
2096921,2096921,313441,255027
2096921,2096921,313109,255042
2096921,2096921,313257,254925
2096921,2096921,313028,254970
2096921,2096921,313440,254867
2096921,2096921,313154,255133
2096921,2096921,313308,255064
2096921,2096921,313183,255030
2096921,2096921,313555,255031
2096921,2096921,313506,255148
2096921,2096921,313148,254986
2096921,2096921,313206,255112
2096921,2096921,312995,255094
2096921,2096921,313108,255088
2096921,2096921,312956,255045
2096921,2096921,313090,255042
2096921,2096921,312937,254864
2096921,2096921,312787,254840
2096921,2096921,312896,254561
2096921,2096921,312909,254928
2096921,2096921,313065,254828
2096921,2096921,312996,254982
2096921,2096921,313005,254956
2096921,2096921,313125,254745
2096921,2096921,312914,254676
2096921,2096921,312642,254816
2096921,2096921,312690,254816
2096921,2096921,312963,254770
2096921,2096921,312711,254836
2096921,2096921,312149,254592
2096921,2096921,312246,254461
2096921,2096921,312516,254334
2096921,2096921,312305,254254
2096921,2096921,312466,254211
2096921,2096921,311808,253945
2096921,2096921,311866,253952
2096921,2096921,311725,253827
2096921,2096921,311842,253723
2096921,2096921,311625,254016
2096921,2096921,310905,253389
2096921,2096921,310691,253424
2096921,2096921,310574,253132
2096921,2096921,310788,253162
2096921,2096921,310965,253065
2096921,2096921,310203,252708
2096921,2096921,309900,252396
2096921,2096921,310014,252197
2096921,2096921,309661,252384
2096921,2096921,309985,252212
2096921,2096921,309157,251513
2096921,2096921,308800,251525
2096921,2096921,308549,251811
2096921,2096921,308704,251389
2096921,2096921,308587,251426
2096921,2096921,306676,249885
2096921,2096921,306395,249791
2096921,2096921,306315,249407
2096921,2096921,306330,249447
2096921,2096921,306207,249337
2096921,2096921,304157,247520
2096921,2096921,303240,247287
2096921,2096921,303282,246857
2096921,2096921,303129,246718
2096921,2096921,303144,246959
2096921,2096921,301429,245646
2096921,2096921,301173,245184
2096921,2096921,300940,245194
2096921,2096921,300924,245123
2096921,2096921,300938,245413
2096921,2096921,299886,244076
2096921,2096921,299366,243869
2096921,2096921,299296,243714
2096921,2096921,299402,243765
2096921,2096921,299424,243800
2096921,2096921,298471,243098
2096921,2096921,297971,242880
2096921,2096921,297985,242823
2096921,2096921,297863,242847
2096921,2096921,297823,242816
2096921,2096921,297164,242367
2096921,2096921,297060,242190
2096921,2096921,297169,241875
2096921,2096921,297053,242054
2096921,2096921,297059,241914
2096921,2096921,296354,241395
2096921,2096921,296448,241454
2096921,2096921,296379,241278
2096921,2096921,296448,241761
2096921,2096921,296316,241411
2096921,2096921,295974,241105
2096921,2096921,295895,241052
2096921,2096921,295923,241317
2096921,2096921,295543,241061
2096921,2096921,295734,241093
2096921,2096921,295603,240960
2096921,2096921,295480,241024
2096921,2096921,295310,240708
2096921,2096921,295508,240780
2096921,2096921,295561,241042
2096921,2096921,295784,241022
2096921,2096921,295652,241125
2096921,2096921,295557,240897
2096921,2096921,295697,241007
2096921,2096921,295626,240701
2096921,2096921,295894,240862
2096921,2096921,295807,240982
2096921,2096921,295824,241341
2096921,2096921,295444,241124
2096921,2096921,295952,241158
2096921,2096921,295779,241025
2096921,2096921,295565,241080
2096921,2096921,295565,241088
2096921,2096921,295765,241041
2096921,2096921,295685,241191
2096921,2096921,296014,241140
2096921,2096921,295839,241292
2096921,2096921,296137,241099
2096921,2096921,295968,241206
2096921,2096921,295893,240990
2096921,2096921,295971,241435
2096921,2096921,296250,241340
2096921,2096921,296209,241549
2096921,2096921,296512,241355
2096921,2096921,296530,241363
2096921,2096921,296752,241576
2096921,2096921,296915,241713
2096921,2096921,296534,241983
2096921,2096921,296803,241924
2096921,2096921,296853,241869
2096921,2096921,297073,242144
2096921,2096921,297171,242093
2096921,2096921,297377,242157
2096921,2096921,297247,242207
2096921,2096921,297321,242254
2096921,2096921,297490,242550
2096921,2096921,297746,242587
2096921,2096921,297497,242548
2096921,2096921,297621,242545
2096921,2096921,297580,242502
2096921,2096921,297846,242908
2096921,2096921,298207,242954
2096921,2096921,298359,242736
2096921,2096921,298283,242778
2096921,2096921,298176,242665
2096921,2096921,298591,243130
2096921,2096921,298620,243086
2096921,2096921,298523,243007
2096921,2096921,298400,242988
2096921,2096921,298399,243077
2096921,2096921,298734,243192
2096921,2096921,299061,243639
2096921,2096921,298924,243445
2096921,2096921,298735,243654
2096921,2096921,298870,243409
2096921,2096921,299134,243666
2096921,2096921,299277,243780
2096921,2096921,299128,243809
2096921,2096921,299076,243793
2096921,2096921,299176,243763
2096921,2096921,299552,244020
2096921,2096921,299536,244032
2096921,2096921,299912,244389
2096921,2096921,299966,244278
2096921,2096921,299852,244344
2096921,2096921,299997,244212
2096921,2096921,300331,244478
2096921,2096921,300364,244238
2096921,2096921,300203,244900
2096921,2096921,300183,244747
2096921,2096921,300416,244895
2096921,2096921,300653,245115
2096921,2096921,300636,244927
2096921,2096921,300726,245143
2096921,2096921,300580,245030
2096921,2096921,300899,245012
2096921,2096921,301201,245139
2096921,2096921,300864,245105
2096921,2096921,301107,245363
2096921,2096921,301222,245600
2096921,2096921,301540,245665
2096921,2096921,301433,245665
2096921,2096921,301589,245441
2096921,2096921,301556,245667
2096921,2096921,301686,245572
2096921,2096921,301599,245922
2096921,2096921,301625,245828
2096921,2096921,301778,245797
2096921,2096921,301677,245847
2096921,2096921,301862,245809
2096921,2096921,302188,245988
2096921,2096921,301998,245928
2096921,2096921,301884,245806
2096921,2096921,301922,246065
2096921,2096921,301964,245867
2096921,2096921,302082,246116
2096921,2096921,302028,246067
2096921,2096921,302232,246054
2096921,2096921,302240,246003
2096921,2096921,302082,246001
2096921,2096921,302302,246259
2096921,2096921,302123,246207
2096921,2096921,302118,246242
2096921,2096921,301905,245919
2096921,2096921,302234,246272
2096921,2096921,302251,246201
2096921,2096921,302325,245895
2096921,2096921,302042,246105
2096921,2096921,302166,246138
2096921,2096921,302098,245816
2096921,2096921,302193,246012
2096921,2096921,301764,246151
2096921,2096921,302206,245978
2096921,2096921,302145,245817
2096921,2096921,302224,245984
2096921,2096921,301969,246085
2096921,2096921,301707,245759
2096921,2096921,301872,245881
2096921,2096921,301660,245753
2096921,2096921,301828,245717
2096921,2096921,301553,245863
2096921,2096921,301626,245824
2096921,2096921,301508,245836
2096921,2096921,301610,245712
2096921,2096921,301569,245398
2096921,2096921,301318,245348
2096921,2096921,301394,245547
2096921,2096921,301627,245505
2096921,2096921,301521,245372
2096921,2096921,301483,245369
2096921,2096921,301079,245157
2096921,2096921,301253,245268
2096921,2096921,301115,245131
2096921,2096921,301173,245546
2096921,2096921,301219,245265
2096921,2096921,300945,244994
2096921,2096921,301005,245252
2096921,2096921,301077,245114
2096921,2096921,300893,244968
2096921,2096921,300835,244815
2096921,2096921,300954,245071
2096921,2096921,300857,245182
2096921,2096921,300940,245364
2096921,2096921,300957,244969
2096921,2096921,300830,245148
2096921,2096921,300874,244992
2096921,2096921,300855,244927
2096921,2096921,300948,244997
2096921,2096921,300892,244756
2096921,2096921,301006,245095
2096921,2096921,300716,245002
2096921,2096921,300721,244888
2096921,2096921,300996,245199
2096921,2096921,300621,245205
2096921,2096921,300794,244938
2096921,2096921,300864,245126
2096921,2096921,301069,244966
2096921,2096921,301036,244998
2096921,2096921,300846,245165
2096921,2096921,300785,244992
2096921,2096921,301010,244959
2096921,2096921,300990,245380
2096921,2096921,300999,245234
2096921,2096921,301097,245296
2096921,2096921,301017,245104
2096921,2096921,301167,245371
2096921,2096921,301284,245297
2096921,2096921,301259,245322
2096921,2096921,301364,245322
2096921,2096921,301355,245382
2096921,2096921,301571,245487
2096921,2096921,301602,245368
2096921,2096921,301556,245833
2096921,2096921,301466,245729
2096921,2096921,301589,246068
2096921,2096921,301867,245701
2096921,2096921,302035,246024
2096921,2096921,302023,245893
2096921,2096921,302010,245914
2096921,2096921,302200,245948
2096921,2096921,302195,246252
2096921,2096921,302048,246212
2096921,2096921,302194,246206
2096921,2096921,302349,246133
2096921,2096921,301866,246175
2096921,2096921,302420,246243
2096921,2096921,302475,246395
2096921,2096921,302368,246327
2096921,2096921,302831,246294
2096921,2096921,302513,246301
2096921,2096921,302646,246422
2096921,2096921,302594,246624
2096921,2096921,302754,246352
2096921,2096921,302488,246461
2096921,2096921,302493,246547
2096921,2096921,303003,246710
2096921,2096921,303035,246613
2096921,2096921,302894,246699
2096921,2096921,302794,246685
2096921,2096921,303071,246554
2096921,2096921,303000,246694
2096921,2096921,303195,246785
2096921,2096921,303122,246703
2096921,2096921,303273,246928
2096921,2096921,302944,246721
2096921,2096921,303495,247038
2096921,2096921,303434,247003
2096921,2096921,303577,247096
2096921,2096921,303407,247239
2096921,2096921,303345,246975
2096921,2096921,303546,247369
2096921,2096921,303786,247044
2096921,2096921,303805,247137
2096921,2096921,303656,247389
2096921,2096921,303853,247288
2096921,2096921,303811,247498
2096921,2096921,303629,247657
2096921,2096921,304050,247668
2096921,2096921,304243,247374
2096921,2096921,303849,247550
2096921,2096921,304266,247725
2096921,2096921,304153,247639
2096921,2096921,304164,247767
2096921,2096921,303977,247771
2096921,2096921,304137,247789
2096921,2096921,304366,247834
2096921,2096921,304263,247971
2096921,2096921,304311,247611
2096921,2096921,304262,247874
2096921,2096921,304205,247904
2096921,2096921,304235,248102
2096921,2096921,304459,248039
2096921,2096921,304550,247779
2096921,2096921,304616,248071
2096921,2096921,304383,247728
2096921,2096921,304599,248210
2096921,2096921,304972,248297
2096921,2096921,304883,248352
2096921,2096921,304795,248398
2096921,2096921,304866,248248
2096921,2096921,305071,248357
2096921,2096921,304999,248476
2096921,2096921,305233,248437
2096921,2096921,305196,248521
2096921,2096921,305079,248447
2096921,2096921,305180,248553
2096921,2096921,305387,248714
2096921,2096921,305345,248678
2096921,2096921,305498,248335
2096921,2096921,305540,248794
2096921,2096921,305436,248869
2096921,2096921,305745,248951
2096921,2096921,305519,248744
2096921,2096921,305459,248640
2096921,2096921,305581,248757
2096921,2096921,305730,248741
2096921,2096921,305826,248751
2096921,2096921,305667,248894
2096921,2096921,305781,248900
2096921,2096921,305564,248891
2096921,2096921,305847,248907
2096921,2096921,305919,248777
2096921,2096921,305884,248822
2096921,2096921,305709,249261
2096921,2096921,305835,248816
2096921,2096921,305957,249048
2096921,2096921,306010,249115
2096921,2096921,306104,249051
2096921,2096921,306255,248982
2096921,2096921,306004,249000
2096921,2096921,306120,249098
2096921,2096921,306190,249222
2096921,2096921,306256,249400
2096921,2096921,306158,249412
2096921,2096921,306102,249114
2096921,2096921,306319,249497
2096921,2096921,306282,249424
2096921,2096921,306516,249541
2096921,2096921,306269,249615
2096921,2096921,306357,249615
2096921,2096921,306417,249764
2096921,2096921,306709,249736
2096921,2096921,306562,249484
2096921,2096921,306558,249731
2096921,2096921,306567,249767
2096921,2096921,306796,249704
2096921,2096921,306830,249797
2096921,2096921,306891,249815
2096921,2096921,306755,249739
2096921,2096921,306638,249830
2096921,2096921,306787,250074
2096921,2096921,306867,250060
2096921,2096921,306640,249819
2096921,2096921,306563,249826
2096921,2096921,306784,249869
2096921,2096921,306934,250087
2096921,2096921,307062,249771
2096921,2096921,306763,249972
2096921,2096921,306980,249986
2096921,2096921,306820,250125
2096921,2096921,306862,250022
2096921,2096921,307195,250113
2096921,2096921,307099,250120
2096921,2096921,307016,250236
2096921,2096921,306973,250146
2096921,2096921,307236,250315
2096921,2096921,307071,250165
2096921,2096921,307270,250348
2096921,2096921,307371,249984
2096921,2096921,307113,250071
2096921,2096921,307188,250323
2096921,2096921,307191,250168
2096921,2096921,307369,250572
2096921,2096921,307337,250332
2096921,2096921,307297,250309
2096921,2096921,307067,250291
2096921,2096921,307122,250233
2096921,2096921,307346,250222
2096921,2096921,307309,250366
2096921,2096921,307341,250191
2096921,2096921,307558,250620
2096921,2096921,307457,250504
2096921,2096921,307329,250372
2096921,2096921,307377,250421
2096921,2096921,307443,250430
2096921,2096921,307626,250569
2096921,2096921,307578,250549
2096921,2096921,307540,250511
2096921,2096921,307740,250744
2096921,2096921,307812,250509
2096921,2096921,307530,250541
2096921,2096921,307751,250603
2096921,2096921,307695,250730
2096921,2096921,307811,250781
2096921,2096921,307754,250546
2096921,2096921,307948,250502
2096921,2096921,307718,250843
2096921,2096921,307565,250700
2096921,2096921,307680,250436
2096921,2096921,307844,250603
2096921,2096921,307873,250728
2096921,2096921,308170,250893
2096921,2096921,308001,250889
2096921,2096921,307912,250837
2096921,2096921,307799,250841
2096921,2096921,307958,250893
2096921,2096921,307949,251130
2096921,2096921,307934,250984
2096921,2096921,308043,250777
2096921,2096921,308058,250927
2096921,2096921,308072,250880
2096921,2096921,308202,250921
2096921,2096921,308111,250976
2096921,2096921,308104,250929
2096921,2096921,307861,250919
2096921,2096921,308303,250768
2096921,2096921,307923,251006
2096921,2096921,308167,250957
2096921,2096921,308041,250958
2096921,2096921,308109,250758
2096921,2096921,308413,251031
2096921,2096921,308447,250849
2096921,2096921,308269,251191
2096921,2096921,308427,251071
2096921,2096921,308144,251097
2096921,2096921,308162,250928
2096921,2096921,308641,250999
2096921,2096921,308408,251186
2096921,2096921,308370,250926
2096921,2096921,308449,250754
2096921,2096921,308463,251061
2096921,2096921,308237,251203
2096921,2096921,308694,251339
2096921,2096921,308546,251092
2096921,2096921,308604,251165
2096921,2096921,308740,251252
2096921,2096921,308667,251135
2096921,2096921,308610,251272
2096921,2096921,308277,251250
2096921,2096921,308393,251271
2096921,2096921,308695,251221
2096921,2096921,308482,251116
2096921,2096921,308440,251042
2096921,2096921,308472,251128
2096921,2096921,308764,251016
2096921,2096921,308549,251455
2096921,2096921,308349,251322
2096921,2096921,308592,251126
2096921,2096921,308372,251172
2096921,2096921,308520,251146
2096921,2096921,308599,251180
2096921,2096921,308597,251332
2096921,2096921,308422,251289
2096921,2096921,308576,251378
2096921,2096921,308410,251383
2096921,2096921,308350,251191
2096921,2096921,308342,251296
2096921,2096921,308498,251029
2096921,2096921,308516,251134
2096921,2096921,308398,251072
2096921,2096921,308402,251139
2096921,2096921,308337,250941
2096921,2096921,308368,251146
2096921,2096921,308427,251328
2096921,2096921,308344,251188
2096921,2096921,308474,250960
2096921,2096921,308652,251012
2096921,2096921,308623,251030
2096921,2096921,308609,250960
2096921,2096921,308589,251238
2096921,2096921,308524,251237
2096921,2096921,308564,251264
2096921,2096921,308448,251308
2096921,2096921,308450,251504
2096921,2096921,308510,251269
2096921,2096921,308539,251402
2096921,2096921,308563,251165
2096921,2096921,308338,251077
2096921,2096921,308535,251450
2096921,2096921,308799,251472
2096921,2096921,308567,251198
2096921,2096921,308535,251302
2096921,2096921,308647,251156
2096921,2096921,308628,251111
2096921,2096921,308459,250980
2096921,2096921,308527,251035
2096921,2096921,308374,251088
2096921,2096921,308450,250977
2096921,2096921,308357,250875
2096921,2096921,308669,251049
2096921,2096921,308123,250680
2096921,2096921,308069,250890
2096921,2096921,307904,250752
2096921,2096921,308034,250712
2096921,2096921,307970,250741
2096921,2096921,307912,250519
2096921,2096921,307741,250685
2096921,2096921,307446,250407
2096921,2096921,307646,250517
2096921,2096921,307508,250138
2096921,2096921,306968,249906
2096921,2096921,306523,249694
2096921,2096921,306712,249753
2096921,2096921,306555,249753
2096921,2096921,306811,249617
2096921,2096921,305968,249031
2096921,2096921,306039,249071
2096921,2096921,305871,248751
2096921,2096921,305967,248760
2096921,2096921,305751,248912
2096921,2096921,305036,248481
2096921,2096921,305111,248149
2096921,2096921,304784,247832
2096921,2096921,304709,248553
2096921,2096921,304785,248354
2096921,2096921,303042,246986
2096921,2096921,302574,246261
2096921,2096921,302400,246373
2096921,2096921,302320,246297
2096921,2096921,302883,246325
2096921,2096921,300342,244564
2096921,2096921,299887,244122
2096921,2096921,299778,244338
2096921,2096921,299320,244084
2096921,2096921,299481,243853
2096921,2096921,297885,242692
2096921,2096921,297508,242635
2096921,2096921,297344,242341
2096921,2096921,297242,242210
2096921,2096921,297356,242112
2096921,2096921,296154,241349
2096921,2096921,296078,241199
2096921,2096921,296005,240869
2096921,2096921,295815,240667
2096921,2096921,295858,241206
2096921,2096921,294789,240155
2096921,2096921,294577,240128
2096921,2096921,294525,239987
2096921,2096921,294667,239726
2096921,2096921,294866,240007
2096921,2096921,294183,239467
2096921,2096921,293956,239340
2096921,2096921,293694,239398
2096921,2096921,293706,239408
2096921,2096921,293698,239157
2096921,2096921,293329,238804
2096921,2096921,293323,238998
2096921,2096921,293018,238917
2096921,2096921,293364,238807
2096921,2096921,293284,238965
2096921,2096921,292934,238569
2096921,2096921,292789,238749
2096921,2096921,292714,238560
2096921,2096921,292966,238537
2096921,2096921,292715,238587
2096921,2096921,292915,238427
2096921,2096921,293091,238473
2096921,2096921,292789,238535
2096921,2096921,292686,238275
2096921,2096921,292926,238325
2096921,2096921,292727,238442
2096921,2096921,292906,238422
2096921,2096921,292579,238392
2096921,2096921,292739,238573
2096921,2096921,292651,238499
2096921,2096921,292807,238625
2096921,2096921,292782,238715
2096921,2096921,292852,238616
2096921,2096921,292896,238768
2096921,2096921,292934,238496
2096921,2096921,292948,238722
2096921,2096921,293026,238810
2096921,2096921,292975,238879
2096921,2096921,293361,238751
2096921,2096921,293161,238747
2096921,2096921,293103,238810
2096921,2096921,293343,238882
2096921,2096921,293496,238958
2096921,2096921,293529,238899
2096921,2096921,293243,238756
2096921,2096921,293753,239204
2096921,2096921,293693,239372
2096921,2096921,293665,239502
2096921,2096921,293699,239297
2096921,2096921,293724,239341
2096921,2096921,294511,239817
2096921,2096921,294482,239509
2096921,2096921,294375,239715
2096921,2096921,294250,239775
2096921,2096921,294424,239892
2096921,2096921,294726,240156
2096921,2096921,294722,239937
2096921,2096921,294906,240306
2096921,2096921,294822,240230
2096921,2096921,294597,240225
2096921,2096921,295391,240632
2096921,2096921,295512,240586
2096921,2096921,295361,240685
2096921,2096921,295511,240434
2096921,2096921,295506,240672
2096921,2096921,295844,240907
2096921,2096921,295779,241001
2096921,2096921,296029,240830
2096921,2096921,296112,240878
2096921,2096921,295868,241000
2096921,2096921,296233,241512
2096921,2096921,296555,241206
2096921,2096921,296491,241325
2096921,2096921,296320,241496
2096921,2096921,296429,241544
2096921,2096921,296751,241633
2096921,2096921,297070,241802
2096921,2096921,296766,241980
2096921,2096921,296918,242094
2096921,2096921,296897,241908
2096921,2096921,297319,242135
2096921,2096921,297395,242450
2096921,2096921,297322,242154
2096921,2096921,297353,242133
2096921,2096921,297291,242366
2096921,2096921,297996,242823
2096921,2096921,297984,242659
2096921,2096921,298224,242753
2096921,2096921,298151,242770
2096921,2096921,298084,242854
2096921,2096921,298623,243048
2096921,2096921,298701,243371
2096921,2096921,298599,243399
2096921,2096921,298458,243386
2096921,2096921,298679,243232
2096921,2096921,299286,243411
2096921,2096921,299259,243655
2096921,2096921,299329,243400
2096921,2096921,299003,243672
2096921,2096921,299101,243669
2096921,2096921,299712,244158
2096921,2096921,299731,244246
2096921,2096921,299879,244063
2096921,2096921,299863,244124
2096921,2096921,299886,244145
2096921,2096921,300202,244379
2096921,2096921,300321,244250
2096921,2096921,300304,244549
2096921,2096921,300211,244710
2096921,2096921,300086,244614
2096921,2096921,300226,244933
2096921,2096921,300338,244882
2096921,2096921,300615,244797
2096921,2096921,300768,244963
2096921,2096921,300738,244940
2096921,2096921,300934,245073
2096921,2096921,300956,245201
2096921,2096921,301104,245180
2096921,2096921,300974,244962
2096921,2096921,300903,245015
2096921,2096921,301003,245344
2096921,2096921,301294,245325
2096921,2096921,301071,245329
2096921,2096921,301050,245428
2096921,2096921,301246,245358
2096921,2096921,301417,245465
2096921,2096921,301566,245850
2096921,2096921,301432,245541
2096921,2096921,301354,245772
2096921,2096921,301399,245738
2096921,2096921,301283,245687
2096921,2096921,301479,245741
2096921,2096921,301588,245674
2096921,2096921,301533,245771
2096921,2096921,301598,245559
2096921,2096921,301695,245644
2096921,2096921,301395,245808
2096921,2096921,301387,245564
2096921,2096921,301470,245687
2096921,2096921,301587,245713
2096921,2096921,301650,245721
2096921,2096921,301450,245685
2096921,2096921,301397,245622
2096921,2096921,301464,245555
2096921,2096921,301677,245611
2096921,2096921,301480,245599
2096921,2096921,301238,245658
2096921,2096921,301627,245695
2096921,2096921,301443,245520
2096921,2096921,301462,245396
2096921,2096921,301607,245419
2096921,2096921,301215,245526
2096921,2096921,301453,245497
2096921,2096921,301458,245534
2096921,2096921,301272,245270
2096921,2096921,301180,245506
2096921,2096921,301122,245244
2096921,2096921,301309,245382
2096921,2096921,301160,245213
2096921,2096921,301465,245457
2096921,2096921,301044,245356
2096921,2096921,301263,245305
2096921,2096921,301005,245226
2096921,2096921,301007,245300
2096921,2096921,301255,245304
2096921,2096921,301411,245147
2096921,2096921,301380,245281
2096921,2096921,301069,245222
2096921,2096921,301182,245227
2096921,2096921,300897,245318
2096921,2096921,301028,245236
2096921,2096921,301062,245342
2096921,2096921,301263,245307
2096921,2096921,301028,245311
2096921,2096921,301282,245433
2096921,2096921,301404,245524
2096921,2096921,301264,245334
2096921,2096921,301362,245551
2096921,2096921,301531,245434
2096921,2096921,301355,245319
2096921,2096921,301497,245498
2096921,2096921,301487,245594
2096921,2096921,301569,245595
2096921,2096921,301807,245487
2096921,2096921,301723,245317
2096921,2096921,301871,245634
2096921,2096921,301788,245775
2096921,2096921,301515,245675
2096921,2096921,301839,245580
2096921,2096921,301867,245877
2096921,2096921,302144,245914
2096921,2096921,302070,246186
2096921,2096921,302276,246252
2096921,2096921,302320,246082
2096921,2096921,302280,246170
2096921,2096921,302746,246498
2096921,2096921,302724,246548
2096921,2096921,302917,246583
2096921,2096921,302848,246687
2096921,2096921,302724,246627
2096921,2096921,303039,246667
2096921,2096921,303201,246766
2096921,2096921,303032,247278
2096921,2096921,303079,247068
2096921,2096921,303293,246981
2096921,2096921,303590,247014
2096921,2096921,303356,247133
2096921,2096921,303330,247230
2096921,2096921,303545,247313
2096921,2096921,303147,247244
2096921,2096921,303735,247570
2096921,2096921,304056,247738
2096921,2096921,303939,247527
2096921,2096921,303988,247284
2096921,2096921,303965,247642
2096921,2096921,304272,247798
2096921,2096921,304351,247979
2096921,2096921,304497,247975
2096921,2096921,304433,248055
2096921,2096921,304454,248059
2096921,2096921,304276,248101
2096921,2096921,304430,248423
2096921,2096921,304816,248182
2096921,2096921,304869,248434
2096921,2096921,304877,248215
2096921,2096921,304902,248530
2096921,2096921,305080,248328
2096921,2096921,305220,248452
2096921,2096921,305142,248534
2096921,2096921,304877,248474
2096921,2096921,305068,248891
2096921,2096921,305469,248823
2096921,2096921,305506,248689
2096921,2096921,305236,248831
2096921,2096921,305203,248733
2096921,2096921,305706,248831
2096921,2096921,305602,249194
2096921,2096921,305773,249264
2096921,2096921,305841,249047
2096921,2096921,305798,248927
2096921,2096921,305879,249364
2096921,2096921,305851,249387
2096921,2096921,306021,249244
2096921,2096921,306074,249382
2096921,2096921,306058,249514
2096921,2096921,306479,249381
2096921,2096921,306316,249573
2096921,2096921,306300,249798
2096921,2096921,306522,249668
2096921,2096921,306416,249750
2096921,2096921,306828,249837
2096921,2096921,306683,249901
2096921,2096921,306545,249757
2096921,2096921,306834,249645
2096921,2096921,306846,249871
2096921,2096921,307138,250313
2096921,2096921,307275,250150
2096921,2096921,307224,250164
2096921,2096921,307182,250159
2096921,2096921,307058,250471
2096921,2096921,307346,250365
2096921,2096921,307338,250462
2096921,2096921,307374,250536
2096921,2096921,307375,250480
2096921,2096921,307377,250328
2096921,2096921,307605,250689
2096921,2096921,307897,250641
2096921,2096921,307970,250993
2096921,2096921,307833,250949
2096921,2096921,307707,250807
2096921,2096921,307938,251026
2096921,2096921,308260,250729
2096921,2096921,308200,251096
2096921,2096921,308282,250956
2096921,2096921,308200,251024
2096921,2096921,308296,251070
2096921,2096921,308286,250768
2096921,2096921,308527,251166
2096921,2096921,308503,251510
2096921,2096921,308563,251481
2096921,2096921,308619,251457
2096921,2096921,308724,251419
2096921,2096921,308654,251462
2096921,2096921,308834,251167
2096921,2096921,308829,251411
2096921,2096921,308950,251749
2096921,2096921,309088,251405
2096921,2096921,308952,251727
2096921,2096921,309130,251617
2096921,2096921,308899,251713
2096921,2096921,309404,251886
2096921,2096921,309317,251685
2096921,2096921,309370,251893
2096921,2096921,309208,251791
2096921,2096921,309364,252193
2096921,2096921,309646,252130
2096921,2096921,309746,252050
2096921,2096921,309737,252123
2096921,2096921,309618,252039
2096921,2096921,309628,252167
2096921,2096921,309903,252331
2096921,2096921,309796,252112
2096921,2096921,309812,252133
2096921,2096921,309978,252415
2096921,2096921,309786,252306
2096921,2096921,310100,252613
2096921,2096921,310003,252411
2096921,2096921,310072,252667
2096921,2096921,310165,252691
2096921,2096921,310216,252630
2096921,2096921,310176,252723
2096921,2096921,310381,252914
2096921,2096921,310556,252668
2096921,2096921,310427,252736
2096921,2096921,310362,252915
2096921,2096921,310774,252923
2096921,2096921,310626,253150
2096921,2096921,310515,252880
2096921,2096921,310445,252907
2096921,2096921,310385,252861
2096921,2096921,310605,252990
2096921,2096921,311152,253233
2096921,2096921,310821,253231
2096921,2096921,310700,253125
2096921,2096921,310855,253072
2096921,2096921,310992,253416
2096921,2096921,311007,253239
2096921,2096921,311060,253241
2096921,2096921,311024,253310
2096921,2096921,310846,253209
2096921,2096921,311313,253509
2096921,2096921,311206,253412
2096921,2096921,311425,253804
2096921,2096921,310935,253719
2096921,2096921,311357,253488
2096921,2096921,311267,253764
2096921,2096921,311292,253789
2096921,2096921,311261,253776
2096921,2096921,311596,253580
2096921,2096921,311643,253870
2096921,2096921,311505,253770
2096921,2096921,311607,253861
2096921,2096921,311235,253824
2096921,2096921,311445,253661
2096921,2096921,311519,253743
2096921,2096921,311840,253939
2096921,2096921,311689,253967
2096921,2096921,311890,254004
2096921,2096921,311486,253897
2096921,2096921,311851,254077
2096921,2096921,311927,254077
2096921,2096921,312047,254158
2096921,2096921,311915,253895
2096921,2096921,311972,254039
2096921,2096921,311707,254018
2096921,2096921,312111,254118
2096921,2096921,312241,254035
2096921,2096921,312108,254283
2096921,2096921,312202,254449
2096921,2096921,311977,254139
2096921,2096921,312028,254441
2096921,2096921,312341,254350
2096921,2096921,312281,254629
2096921,2096921,312137,254308
2096921,2096921,312086,254259
2096921,2096921,312315,254560
2096921,2096921,312497,254444
2096921,2096921,312442,254749
2096921,2096921,312512,254675
2096921,2096921,312524,254583
2096921,2096921,312659,254484
2096921,2096921,312491,254949
2096921,2096921,312597,254426
2096921,2096921,312538,254390
2096921,2096921,312560,254699
2096921,2096921,312814,254714
2096921,2096921,312996,254798
2096921,2096921,313036,254807
2096921,2096921,312763,255001
2096921,2096921,312757,254640
2096921,2096921,313001,254941
2096921,2096921,312827,254820
2096921,2096921,313073,254911
2096921,2096921,312912,254729
2096921,2096921,312889,254771
2096921,2096921,313244,254897
2096921,2096921,313173,255071
2096921,2096921,312897,254883
2096921,2096921,313068,254818
2096921,2096921,313076,254928
2096921,2096921,313297,255054
2096921,2096921,313378,255014
2096921,2096921,313350,254971
2096921,2096921,313049,255010
2096921,2096921,313254,255105
2096921,2096921,313289,255371
2096921,2096921,313496,255325
2096921,2096921,313500,255101
2096921,2096921,313294,255396
2096921,2096921,313354,255222
2096921,2096921,313474,255086
2096921,2096921,313484,255191
2096921,2096921,313489,255223
2096921,2096921,313476,255139
2096921,2096921,313514,255181
2096921,2096921,313316,255448
2096921,2096921,313622,255330
2096921,2096921,313944,255438
2096921,2096921,313587,255568
2096921,2096921,313684,255427
2096921,2096921,313672,255283
2096921,2096921,313585,255465
2096921,2096921,313735,255461
2096921,2096921,313383,255577
2096921,2096921,313927,255402
2096921,2096921,313869,255655
2096921,2096921,313855,255552
2096921,2096921,313766,255446
2096921,2096921,313501,255205
2096921,2096921,313417,255385
2096921,2096921,313815,255239
2096921,2096921,313968,255556
2096921,2096921,313694,255560
2096921,2096921,314098,255456
2096921,2096921,313850,255350
2096921,2096921,313898,255563
2096921,2096921,314165,255651
2096921,2096921,314125,255740
2096921,2096921,313774,255547
2096921,2096921,313917,255677
2096921,2096921,313984,255523
2096921,2096921,314065,255462
2096921,2096921,313877,255533
2096921,2096921,313870,255484
2096921,2096921,314048,255692
2096921,2096921,314190,255491
2096921,2096921,314021,255735
2096921,2096921,313928,255453
2096921,2096921,314066,255614
2096921,2096921,314029,255567
2096921,2096921,314140,255730
2096921,2096921,313911,255706
2096921,2096921,313873,255708
2096921,2096921,314155,255631
2096921,2096921,314049,255662
2096921,2096921,313855,255875
2096921,2096921,313936,255704
2096921,2096921,314022,255671
2096921,2096921,314044,255742
2096921,2096921,314063,255974
2096921,2096921,314128,255747
2096921,2096921,314128,255716
2096921,2096921,313956,255762
2096921,2096921,314027,255940
2096921,2096921,314232,255743
2096921,2096921,313814,255453
2096921,2096921,313789,255361
2096921,2096921,313789,255351
2096921,2096921,313824,255589
2096921,2096921,313840,255294
2096921,2096921,313291,255273
2096921,2096921,313548,255138
2096921,2096921,313126,255192
2096921,2096921,313365,255087
2096921,2096921,313382,255187
2096921,2096921,312536,254774
2096921,2096921,312543,254458
2096921,2096921,312655,254627
2096921,2096921,312564,254310
2096921,2096921,312592,254453
2096921,2096921,311733,254009
2096921,2096921,311774,253636
2096921,2096921,311516,253797
2096921,2096921,311482,253625
2096921,2096921,311810,253789
2096921,2096921,311009,253200
2096921,2096921,310810,253113
2096921,2096921,310878,253230
2096921,2096921,310600,252934
2096921,2096921,310606,253185
2096921,2096921,308851,251503
2096921,2096921,308167,251211
2096921,2096921,308071,251121
2096921,2096921,308327,250850
2096921,2096921,308171,251103
2096921,2096921,305933,249410
2096921,2096921,305565,248946
2096921,2096921,305564,248879
2096921,2096921,305730,248817
2096921,2096921,305320,248783
2096921,2096921,303823,247262
2096921,2096921,303376,247092
2096921,2096921,303406,247060
2096921,2096921,303348,246914
2096921,2096921,303006,246892
2096921,2096921,301844,245823
2096921,2096921,301718,245612
2096921,2096921,301456,245732
2096921,2096921,301587,245637
2096921,2096921,301931,245600
2096921,2096921,300500,244876
2096921,2096921,300362,245009
2096921,2096921,300546,245059
2096921,2096921,300207,244670
2096921,2096921,300257,244864
2096921,2096921,299502,244115
2096921,2096921,299551,244030
2096921,2096921,299536,244238
2096921,2096921,299535,244104
2096921,2096921,299746,244049
2096921,2096921,299163,243432
2096921,2096921,299162,243603
2096921,2096921,299091,243455
2096921,2096921,298896,243691
2096921,2096921,299168,243494
2096921,2096921,298421,243505
2096921,2096921,298576,243362
2096921,2096921,298547,243237
2096921,2096921,298757,243104
2096921,2096921,298368,243484
2096921,2096921,298447,243154
2096921,2096921,298455,243025
2096921,2096921,298241,243161
2096921,2096921,298236,243157
2096921,2096921,298134,242975
2096921,2096921,298598,243305
2096921,2096921,298588,243225
2096921,2096921,298659,243255
2096921,2096921,298546,243118
2096921,2096921,298548,243210
2096921,2096921,298474,243285
2096921,2096921,298741,243529
2096921,2096921,298537,243406
2096921,2096921,298759,243363
2096921,2096921,298928,243694
2096921,2096921,298837,243496
2096921,2096921,298857,243589
2096921,2096921,298903,243557
2096921,2096921,298828,243724
2096921,2096921,299054,243524
2096921,2096921,299078,243712
2096921,2096921,298891,243611
2096921,2096921,299026,243434
2096921,2096921,299075,243485
2096921,2096921,298758,243660
2096921,2096921,299329,244139
2096921,2096921,299443,244082
2096921,2096921,299541,244050
2096921,2096921,299699,244135
2096921,2096921,299492,243880
2096921,2096921,300082,244289
2096921,2096921,300278,244444
2096921,2096921,300275,244541
2096921,2096921,300051,244561
2096921,2096921,300153,244442
2096921,2096921,300356,245054
2096921,2096921,300688,245083
2096921,2096921,300567,244989
2096921,2096921,300809,244910
2096921,2096921,300796,244848
2096921,2096921,301065,245053
2096921,2096921,301231,245335
2096921,2096921,301148,245447
2096921,2096921,301251,245553
2096921,2096921,301496,245539
2096921,2096921,301676,245787
2096921,2096921,301840,245947
2096921,2096921,301718,245752
2096921,2096921,301453,245825
2096921,2096921,301790,245982
2096921,2096921,302032,245759
2096921,2096921,302207,245864
2096921,2096921,302118,246301
2096921,2096921,302069,246150
2096921,2096921,301997,246180
2096921,2096921,302596,246447
2096921,2096921,302577,246492
2096921,2096921,302798,246865
2096921,2096921,302571,246571
2096921,2096921,302614,246819
2096921,2096921,302958,246980
2096921,2096921,303349,246903
2096921,2096921,303221,247018
2096921,2096921,303297,247112
2096921,2096921,303092,247028
2096921,2096921,303825,247542
2096921,2096921,303773,247562
2096921,2096921,303345,247448
2096921,2096921,303630,247564
2096921,2096921,303673,247476
2096921,2096921,303951,247664
2096921,2096921,304297,247586
2096921,2096921,304186,247806
2096921,2096921,304346,247791
2096921,2096921,304378,247932
2096921,2096921,304988,248142
2096921,2096921,304913,248262
2096921,2096921,304770,248450
2096921,2096921,304527,248270
2096921,2096921,304899,248301
2096921,2096921,305259,248837
2096921,2096921,305321,248959
2096921,2096921,305271,248636
2096921,2096921,305241,248812
2096921,2096921,305381,248499
2096921,2096921,305708,249151
2096921,2096921,305918,248996
2096921,2096921,305762,249087
2096921,2096921,305863,249000
2096921,2096921,306097,249143
2096921,2096921,306133,249641
2096921,2096921,306118,249603
2096921,2096921,306138,249320
2096921,2096921,306108,249415
2096921,2096921,306147,249204
2096921,2096921,306280,249554
2096921,2096921,306495,249496
2096921,2096921,306544,249523
2096921,2096921,306167,249717
2096921,2096921,306218,249756
2096921,2096921,306730,249978
2096921,2096921,306745,249823
2096921,2096921,306693,249905
2096921,2096921,306598,249939
2096921,2096921,306585,250013
2096921,2096921,306877,249834
2096921,2096921,306811,249960
2096921,2096921,306823,250207
2096921,2096921,307080,249743
2096921,2096921,306796,250045
2096921,2096921,306551,249660
2096921,2096921,306690,249902
2096921,2096921,306803,250008
2096921,2096921,306567,249826
2096921,2096921,306728,249687
2096921,2096921,306862,249941
2096921,2096921,306716,249986
2096921,2096921,306671,250081
2096921,2096921,306768,249912
2096921,2096921,306666,250011
2096921,2096921,306506,249665
2096921,2096921,306741,250043
2096921,2096921,306293,249643
2096921,2096921,306596,249894
2096921,2096921,306338,249895
2096921,2096921,306371,249458
2096921,2096921,306538,249807
2096921,2096921,306507,249644
2096921,2096921,306447,249654
2096921,2096921,306538,249502
2096921,2096921,306546,249609
2096921,2096921,306047,249453
2096921,2096921,306050,249257
2096921,2096921,306409,249277
2096921,2096921,306397,249377
2096921,2096921,306290,249349
2096921,2096921,306210,249727
2096921,2096921,306217,249395
2096921,2096921,306293,249394
2096921,2096921,306207,249354
2096921,2096921,305805,249258
2096921,2096921,306096,249269
2096921,2096921,306111,249123
2096921,2096921,305726,248982
2096921,2096921,305906,249191
2096921,2096921,305828,249091
2096921,2096921,305947,249461
2096921,2096921,306090,249191
2096921,2096921,306114,249293
2096921,2096921,306044,249687
2096921,2096921,306153,249340
2096921,2096921,305857,249386
2096921,2096921,305961,249240
2096921,2096921,305945,249091
2096921,2096921,305918,249059
2096921,2096921,306062,249326
2096921,2096921,306001,249560
2096921,2096921,306213,249462
2096921,2096921,306208,249436
2096921,2096921,306009,249284
2096921,2096921,306302,249386
2096921,2096921,306380,249455
2096921,2096921,306249,249330
2096921,2096921,306180,249346
2096921,2096921,305851,249565
2096921,2096921,306342,249703
2096921,2096921,306409,249548
2096921,2096921,306482,249376
2096921,2096921,306375,249557
2096921,2096921,306291,249608
2096921,2096921,306602,249898
2096921,2096921,306918,249781
2096921,2096921,306764,250189
2096921,2096921,306784,249919
2096921,2096921,306630,249901
2096921,2096921,307059,250036
2096921,2096921,307205,250499
2096921,2096921,307111,250132
2096921,2096921,306982,249865
2096921,2096921,307206,250201
2096921,2096921,307369,250449
2096921,2096921,307493,250718
2096921,2096921,307477,250381
2096921,2096921,307795,250509
2096921,2096921,307557,250394
2096921,2096921,307948,250871
2096921,2096921,307931,250849
2096921,2096921,307744,250656
2096921,2096921,307993,250803
2096921,2096921,307880,250519
2096921,2096921,308108,250716
2096921,2096921,308182,250909
2096921,2096921,308163,250799
2096921,2096921,308090,250927
2096921,2096921,308033,250957
2096921,2096921,308590,251250
2096921,2096921,308212,251470
2096921,2096921,308652,251197
2096921,2096921,308615,251212
2096921,2096921,308566,251184
2096921,2096921,308645,251443
2096921,2096921,308810,251328
2096921,2096921,308797,251486
2096921,2096921,308732,251544
2096921,2096921,308559,251672
2096921,2096921,308764,251837
2096921,2096921,308757,251819
2096921,2096921,308937,251582
2096921,2096921,309112,251728
2096921,2096921,309240,251823
2096921,2096921,309282,251878
2096921,2096921,309138,251886
2096921,2096921,309282,252006
2096921,2096921,309227,251851
2096921,2096921,309254,252179
2096921,2096921,309589,252155
2096921,2096921,309883,252226
2096921,2096921,309846,252357
2096921,2096921,309746,252343
2096921,2096921,309586,252242
2096921,2096921,309821,252630
2096921,2096921,309707,252368
2096921,2096921,309831,252463
2096921,2096921,309578,252490
2096921,2096921,309621,252686
2096921,2096921,309897,252658
2096921,2096921,310213,252680
2096921,2096921,310167,252748
2096921,2096921,310120,252823
2096921,2096921,310222,252855
2096921,2096921,310438,252708
2096921,2096921,310513,252921
2096921,2096921,310366,252896
2096921,2096921,310373,252840
2096921,2096921,310513,252983
2096921,2096921,310778,253165
2096921,2096921,310784,253025
2096921,2096921,310640,253088
2096921,2096921,310616,252895
2096921,2096921,310580,253088
2096921,2096921,310800,253045
2096921,2096921,311010,253098
2096921,2096921,310824,252983
2096921,2096921,310771,253093
2096921,2096921,310935,253140
2096921,2096921,311216,253358
2096921,2096921,311050,253591
2096921,2096921,311069,253401
2096921,2096921,311004,253271
2096921,2096921,311387,253132
2096921,2096921,311281,253534
2096921,2096921,311613,253737
2096921,2096921,311618,253806
2096921,2096921,311465,253695
2096921,2096921,311329,253643
2096921,2096921,311348,253864
2096921,2096921,311660,253821
2096921,2096921,311466,253694
2096921,2096921,311740,253970
2096921,2096921,311500,253936
2096921,2096921,311758,253979
2096921,2096921,311674,253766
2096921,2096921,311868,253948
2096921,2096921,311769,253915
2096921,2096921,311706,254134
2096921,2096921,311797,254148
2096921,2096921,312108,254214
2096921,2096921,312054,254061
2096921,2096921,312056,254040
2096921,2096921,311697,254164
2096921,2096921,312280,253970
2096921,2096921,312097,254341
2096921,2096921,311792,254283
2096921,2096921,311962,254178
2096921,2096921,312146,254403
2096921,2096921,312270,254601
2096921,2096921,312399,254406
2096921,2096921,312592,254282
2096921,2096921,312489,254385
2096921,2096921,312273,254280
2096921,2096921,312535,254513
2096921,2096921,312489,254382
2096921,2096921,312194,254646
2096921,2096921,312476,254477
2096921,2096921,312604,254505
2096921,2096921,312701,254628
2096921,2096921,312779,254809
2096921,2096921,312704,254763
2096921,2096921,312734,254745
2096921,2096921,312457,254883
2096921,2096921,312832,255000
2096921,2096921,312816,254700
2096921,2096921,312883,254741
2096921,2096921,312657,254885
2096921,2096921,312967,254819
2096921,2096921,312832,254970
2096921,2096921,312941,254711
2096921,2096921,312954,255081
2096921,2096921,312920,255003
2096921,2096921,312826,254908
2096921,2096921,312793,254766
2096921,2096921,312639,254660
2096921,2096921,312849,254798
2096921,2096921,312950,254745
2096921,2096921,312732,254824
2096921,2096921,312871,255183
2096921,2096921,312922,254987
2096921,2096921,313085,254902
2096921,2096921,312941,255021
2096921,2096921,313001,255037
2096921,2096921,313058,255307
2096921,2096921,313188,255187
2096921,2096921,313267,255068
2096921,2096921,313182,254876
2096921,2096921,313220,255053
2096921,2096921,313474,255345
2096921,2096921,313104,255044
2096921,2096921,313165,255043
2096921,2096921,313090,254991
2096921,2096921,313407,255052
2096921,2096921,313264,255327
2096921,2096921,313116,255022
2096921,2096921,313264,255094
2096921,2096921,313391,255069
2096921,2096921,313544,255385
2096921,2096921,313378,255108
2096921,2096921,313183,255319
2096921,2096921,313295,255212
2096921,2096921,313379,255082
2096921,2096921,313431,255283
2096921,2096921,313418,254972
2096921,2096921,313332,255059
2096921,2096921,313167,255097
2096921,2096921,313259,255249
2096921,2096921,313605,255459
2096921,2096921,313426,255218
2096921,2096921,313347,255423
2096921,2096921,313451,255498
2096921,2096921,313349,255163
2096921,2096921,313354,255437
2096921,2096921,313389,255348
2096921,2096921,313366,255382
2096921,2096921,313579,255225
2096921,2096921,313442,255233
2096921,2096921,313489,255179
2096921,2096921,313588,255333
2096921,2096921,313551,255183
2096921,2096921,313423,255210
2096921,2096921,313475,255349
2096921,2096921,313808,255345
2096921,2096921,313426,255201
2096921,2096921,313580,255471
2096921,2096921,313557,255299
2096921,2096921,313733,255425
2096921,2096921,313561,255590
2096921,2096921,313633,255340
2096921,2096921,313595,255476
2096921,2096921,313839,255363
2096921,2096921,313581,255460
2096921,2096921,313564,255285
2096921,2096921,313657,255352
2096921,2096921,313587,255473
2096921,2096921,313668,255566
2096921,2096921,313816,255416
2096921,2096921,313683,255416
2096921,2096921,313519,255467
2096921,2096921,313733,255511
2096921,2096921,313835,255291
2096921,2096921,313886,255238
2096921,2096921,313597,255567
2096921,2096921,313398,255218
2096921,2096921,313523,255354
2096921,2096921,313636,255405
2096921,2096921,313730,255433
2096921,2096921,313718,255251
2096921,2096921,313444,255082
2096921,2096921,313654,255220
2096921,2096921,313732,255342
2096921,2096921,313303,255389
2096921,2096921,313574,255511
2096921,2096921,313346,255531
2096921,2096921,313639,255608
2096921,2096921,313588,255536
2096921,2096921,313758,255333
2096921,2096921,313835,255473
2096921,2096921,313883,255406
2096921,2096921,313753,255315
2096921,2096921,313732,255689
2096921,2096921,313107,255394
2096921,2096921,313353,255281
2096921,2096921,313440,255324
2096921,2096921,313434,255160
2096921,2096921,313497,255121
2096921,2096921,313629,255384
2096921,2096921,313547,255551
2096921,2096921,313473,255434
2096921,2096921,313434,255460
2096921,2096921,313438,255382
2096921,2096921,313595,255335
2096921,2096921,313513,255342
2096921,2096921,313470,255245
2096921,2096921,313492,255063
2096921,2096921,313409,255187
2096921,2096921,313477,255374
2096921,2096921,313260,255252
2096921,2096921,313308,255164
2096921,2096921,313213,255111
2096921,2096921,313564,255008
2096921,2096921,313320,255250
2096921,2096921,313262,255283
2096921,2096921,313263,255329
2096921,2096921,313418,255170
2096921,2096921,313269,255295
2096921,2096921,313122,255340
2096921,2096921,312984,255285
2096921,2096921,313172,255093
2096921,2096921,313335,255306
2096921,2096921,313221,255265
2096921,2096921,313073,255053
2096921,2096921,313197,254914
2096921,2096921,313092,255000
2096921,2096921,313262,255142
2096921,2096921,313160,255036
2096921,2096921,313003,254954
2096921,2096921,313025,255005
2096921,2096921,313015,254975
2096921,2096921,312940,254952
2096921,2096921,313030,254817
2096921,2096921,312873,254927
2096921,2096921,312974,254940
2096921,2096921,312972,254968
2096921,2096921,313029,255137
2096921,2096921,312759,255096
2096921,2096921,312879,254893
2096921,2096921,313096,255187
2096921,2096921,312588,254627
2096921,2096921,312603,254603
2096921,2096921,312466,254447
2096921,2096921,312486,254454
2096921,2096921,312196,254380
2096921,2096921,312165,254135
2096921,2096921,311791,253927
2096921,2096921,311931,254036
2096921,2096921,311805,254143
2096921,2096921,312148,253979
2096921,2096921,311337,253507
2096921,2096921,311013,253318
2096921,2096921,310947,253277
2096921,2096921,311117,253232
2096921,2096921,310944,253655
2096921,2096921,310243,252719
2096921,2096921,310207,252547
2096921,2096921,309969,252576
2096921,2096921,309779,252704
2096921,2096921,309891,252635
2096921,2096921,309253,251644
2096921,2096921,309117,251493
2096921,2096921,308814,251525
2096921,2096921,308774,251530
2096921,2096921,308912,251764
2096921,2096921,306990,250174
2096921,2096921,306707,249843
2096921,2096921,306368,249792
2096921,2096921,306682,249607
2096921,2096921,306386,249645
2096921,2096921,304207,247538
2096921,2096921,303446,247304
2096921,2096921,303409,247391
2096921,2096921,303184,247250
2096921,2096921,303288,247278
2096921,2096921,301743,245978
2096921,2096921,301293,245339
2096921,2096921,301174,245268
2096921,2096921,301300,245053
2096921,2096921,301171,245365
2096921,2096921,299742,244263
2096921,2096921,299369,244138
2096921,2096921,299443,244223
2096921,2096921,299663,244158
2096921,2096921,299683,244134
2096921,2096921,298511,243409
2096921,2096921,298095,243123
2096921,2096921,298055,242909
2096921,2096921,298179,242780
2096921,2096921,298075,242825
2096921,2096921,297419,242130
2096921,2096921,297362,242012
2096921,2096921,297130,242014
2096921,2096921,297025,242123
2096921,2096921,296968,241919
2096921,2096921,296518,241344
2096921,2096921,296349,241277
2096921,2096921,296507,241369
2096921,2096921,296665,241590
2096921,2096921,296369,241580
2096921,2096921,296235,241369
2096921,2096921,296190,241115
2096921,2096921,295856,241310
2096921,2096921,296137,241147
2096921,2096921,295949,241206
2096921,2096921,295679,240923
2096921,2096921,295895,240843
2096921,2096921,296117,240975
2096921,2096921,295806,241008
2096921,2096921,295611,240959
2096921,2096921,295699,240841
2096921,2096921,295505,241019
2096921,2096921,295666,240848
2096921,2096921,295544,240923
2096921,2096921,295846,241114
2096921,2096921,295894,241181
2096921,2096921,295990,241079
2096921,2096921,295650,241018
2096921,2096921,295735,240911
2096921,2096921,295853,240997
2096921,2096921,295962,241013
2096921,2096921,295772,241185
2096921,2096921,295825,241297
2096921,2096921,296261,241280
2096921,2096921,295762,241474
2096921,2096921,295996,241218
2096921,2096921,296168,241144
2096921,2096921,296293,241225
2096921,2096921,295883,241212
2096921,2096921,295910,241193
2096921,2096921,296230,241612
2096921,2096921,296416,241558
2096921,2096921,296491,241294
2096921,2096921,296424,241212
2096921,2096921,296290,241616
2096921,2096921,296881,241888
2096921,2096921,296760,241899
2096921,2096921,296501,242058
2096921,2096921,296720,241895
2096921,2096921,296870,241899
2096921,2096921,297138,242198
2096921,2096921,297237,242091
2096921,2096921,297599,242082
2096921,2096921,297444,242425
2096921,2096921,297206,242352
2096921,2096921,297625,242641
2096921,2096921,298023,242543
2096921,2096921,297748,242921
2096921,2096921,297645,242621
2096921,2096921,297488,242834
2096921,2096921,298093,242913
2096921,2096921,298162,243038
2096921,2096921,298054,242890
2096921,2096921,298071,243172
2096921,2096921,298376,242788
2096921,2096921,298414,243237
2096921,2096921,298753,243048
2096921,2096921,298525,243263
2096921,2096921,298278,243150
2096921,2096921,298279,243237
2096921,2096921,298868,243411
2096921,2096921,298975,243537
2096921,2096921,299039,243294
2096921,2096921,299027,243558
2096921,2096921,298905,243610
2096921,2096921,299308,243630
2096921,2096921,299575,243876
2096921,2096921,299391,244155
2096921,2096921,299537,243781
2096921,2096921,299399,243876
2096921,2096921,299786,244338
2096921,2096921,299842,244235
2096921,2096921,299886,244581
2096921,2096921,299698,244388
2096921,2096921,299742,244457
2096921,2096921,300101,244629
2096921,2096921,300420,244752
2096921,2096921,300444,244662
2096921,2096921,300378,244964
2096921,2096921,300349,244674
2096921,2096921,300665,244833
2096921,2096921,301022,245108
2096921,2096921,300585,244911
2096921,2096921,300802,245017
2096921,2096921,300980,245014
2096921,2096921,301108,245251
2096921,2096921,301156,245463
2096921,2096921,301031,245449
2096921,2096921,301540,245455
2096921,2096921,301139,245568
2096921,2096921,301319,245583
2096921,2096921,301443,245715
2096921,2096921,301552,245442
2096921,2096921,301620,245724
2096921,2096921,301380,245717
2096921,2096921,301720,245900
2096921,2096921,301661,245858
2096921,2096921,301819,245755
2096921,2096921,301671,245927
2096921,2096921,301904,245891
2096921,2096921,301926,245881
2096921,2096921,302221,245923
2096921,2096921,301924,245970
2096921,2096921,302109,246087
2096921,2096921,301903,245888
2096921,2096921,302057,246097
2096921,2096921,302187,246157
2096921,2096921,302031,246255
2096921,2096921,302170,246077
2096921,2096921,301927,245995
2096921,2096921,302242,246172
2096921,2096921,302236,246202
2096921,2096921,302263,246137
2096921,2096921,302146,246187
2096921,2096921,302291,246433
2096921,2096921,302203,246046
2096921,2096921,301935,246251
2096921,2096921,302255,246168
2096921,2096921,302383,246308
2096921,2096921,302138,246025
2096921,2096921,302388,245998
2096921,2096921,302003,246013
2096921,2096921,302170,246207
2096921,2096921,302088,246162
2096921,2096921,301961,246038
2096921,2096921,301778,245872
2096921,2096921,301989,245929
2096921,2096921,302014,246065
2096921,2096921,301916,246038
2096921,2096921,301719,246022
2096921,2096921,301609,245837
2096921,2096921,301975,245742
2096921,2096921,301597,245799
2096921,2096921,301794,245899
2096921,2096921,301772,245820
2096921,2096921,301329,245462
2096921,2096921,301538,245566
2096921,2096921,301854,245555
2096921,2096921,301575,245499
2096921,2096921,301455,245608
2096921,2096921,301168,245415
2096921,2096921,301406,245260
2096921,2096921,301242,245280
2096921,2096921,301282,245069
2096921,2096921,301069,245497
2096921,2096921,300945,245249
2096921,2096921,300892,245529
2096921,2096921,300927,245094
2096921,2096921,300811,245186
2096921,2096921,300979,245042
2096921,2096921,300857,245116
2096921,2096921,301033,245111
2096921,2096921,300979,245126
2096921,2096921,300714,245177
2096921,2096921,300687,244946
2096921,2096921,300749,245162
2096921,2096921,300916,245137
2096921,2096921,301051,245140
2096921,2096921,300746,244815
2096921,2096921,300842,245136
2096921,2096921,300797,244958
2096921,2096921,300884,245123
2096921,2096921,300994,244978
2096921,2096921,301017,244907
2096921,2096921,300874,245179
2096921,2096921,300763,244942
2096921,2096921,300937,245040
2096921,2096921,301077,245258
2096921,2096921,300914,245042
2096921,2096921,300949,245280
2096921,2096921,301230,245120
2096921,2096921,301201,245454
2096921,2096921,300968,245145
2096921,2096921,300954,245158
2096921,2096921,300914,245052
2096921,2096921,301223,245127
2096921,2096921,301401,245282
2096921,2096921,301216,245395
2096921,2096921,301445,245454
2096921,2096921,301278,245474
2096921,2096921,301662,245601
2096921,2096921,301686,245946
2096921,2096921,301358,245793
2096921,2096921,301522,245712
2096921,2096921,301760,245723
2096921,2096921,301793,245877
2096921,2096921,301819,245798
2096921,2096921,302069,246056
2096921,2096921,301869,245964
2096921,2096921,301821,245873
2096921,2096921,301982,246292
2096921,2096921,301863,246378
2096921,2096921,302128,246088
2096921,2096921,302243,246028
2096921,2096921,302267,246268
2096921,2096921,302526,246199
2096921,2096921,302536,246275
2096921,2096921,302584,246137
2096921,2096921,302533,246442
2096921,2096921,302486,246267
2096921,2096921,302804,246881
2096921,2096921,302810,246960
2096921,2096921,303026,246498
2096921,2096921,303145,246510
2096921,2096921,302676,246595
2096921,2096921,302813,246830
2096921,2096921,302898,246923
2096921,2096921,302983,246663
2096921,2096921,303141,246657
2096921,2096921,302845,246741
2096921,2096921,303299,247013
2096921,2096921,303297,247086
2096921,2096921,303354,246896
2096921,2096921,303397,247172
2096921,2096921,303331,247086
2096921,2096921,303514,246970
2096921,2096921,303453,247189
2096921,2096921,303599,247061
2096921,2096921,303359,247259
2096921,2096921,303395,247182
2096921,2096921,303616,247459
2096921,2096921,303533,247328
2096921,2096921,303768,247418
2096921,2096921,303587,247588
2096921,2096921,303799,247379
2096921,2096921,303946,247591
2096921,2096921,304056,247683
2096921,2096921,304077,247618
2096921,2096921,303849,247639
2096921,2096921,303910,247551
2096921,2096921,304312,247699
2096921,2096921,304279,247793
2096921,2096921,304369,247727
2096921,2096921,304071,247701
2096921,2096921,304292,247645
2096921,2096921,304461,247663
2096921,2096921,304507,247753
2096921,2096921,304579,247933
2096921,2096921,304275,247723
2096921,2096921,304542,248204
2096921,2096921,304672,248120
2096921,2096921,304639,248313
2096921,2096921,304928,248049
2096921,2096921,304717,248090
2096921,2096921,304569,248127
2096921,2096921,304802,248299
2096921,2096921,305014,248136
2096921,2096921,304895,248256
2096921,2096921,304832,248560
2096921,2096921,304832,248538
2096921,2096921,305184,248551
2096921,2096921,305348,248380
2096921,2096921,305069,248485
2096921,2096921,305039,248488
2096921,2096921,305128,248473
2096921,2096921,305357,248568
2096921,2096921,305446,248483
2096921,2096921,305318,248576
2096921,2096921,305138,248801
2096921,2096921,305244,248545
2096921,2096921,305343,248864
2096921,2096921,305699,248888
2096921,2096921,305696,248670
2096921,2096921,305655,248742
2096921,2096921,305435,248944
2096921,2096921,305619,248997
2096921,2096921,305629,249003
2096921,2096921,305598,248939
2096921,2096921,305842,248824
2096921,2096921,305626,248878
2096921,2096921,305854,249178
2096921,2096921,306057,249073
2096921,2096921,305949,249217
2096921,2096921,305964,249116
2096921,2096921,305910,249228
2096921,2096921,306175,249562
2096921,2096921,306048,249360
2096921,2096921,306296,249209
2096921,2096921,305932,249243
2096921,2096921,306196,249300
2096921,2096921,306370,249348
2096921,2096921,306379,249348
2096921,2096921,306413,249522
2096921,2096921,306099,249575
2096921,2096921,306018,249442
2096921,2096921,306273,249391
2096921,2096921,306351,249337
2096921,2096921,306545,249258
2096921,2096921,306166,249292
2096921,2096921,306354,249527
2096921,2096921,306489,249502
2096921,2096921,306514,249465
2096921,2096921,306514,249692
2096921,2096921,306624,249654
2096921,2096921,306402,249704
2096921,2096921,306694,249839
2096921,2096921,306653,249907
2096921,2096921,306965,249457
2096921,2096921,306470,249632
2096921,2096921,306752,249652
2096921,2096921,306832,249926
2096921,2096921,306832,249779
2096921,2096921,306893,249918
2096921,2096921,306619,249886
2096921,2096921,306918,249993
2096921,2096921,306845,250012
2096921,2096921,307077,250129
2096921,2096921,306630,249937
2096921,2096921,306976,249934
2096921,2096921,307042,249771
2096921,2096921,307022,249758
2096921,2096921,307047,250170
2096921,2096921,307236,250096
2096921,2096921,307022,250214
2096921,2096921,306750,250048
2096921,2096921,306975,249906
2096921,2096921,307110,250126
2096921,2096921,307217,250192
2096921,2096921,307053,249945
2096921,2096921,307183,250217
2096921,2096921,307285,250037
2096921,2096921,307523,250381
2096921,2096921,307211,250207
2096921,2096921,307443,250064
2096921,2096921,307350,250300
2096921,2096921,307490,250474
2096921,2096921,307214,250218
2096921,2096921,307250,250445
2096921,2096921,307289,250373
2096921,2096921,307581,250354
2096921,2096921,307657,250466
2096921,2096921,307475,250312
2096921,2096921,307403,250255
2096921,2096921,307471,250328
2096921,2096921,307625,250291
2096921,2096921,307438,250577
2096921,2096921,307684,250505
2096921,2096921,307617,250579
2096921,2096921,307489,250291
2096921,2096921,307566,250269
2096921,2096921,307485,250535
2096921,2096921,307961,250410
2096921,2096921,308080,250575
2096921,2096921,307724,250608
2096921,2096921,307915,250353
2096921,2096921,307859,250692
2096921,2096921,307976,250621
2096921,2096921,307782,250700
2096921,2096921,307685,250628
2096921,2096921,307729,250788
2096921,2096921,307637,250785
2096921,2096921,307762,250819
2096921,2096921,307749,250725
2096921,2096921,307931,250947
2096921,2096921,308056,250705
2096921,2096921,307940,250870
2096921,2096921,307698,250828
2096921,2096921,307996,250750
2096921,2096921,308123,250534
2096921,2096921,308092,250769
2096921,2096921,307990,250773
2096921,2096921,308140,250688
2096921,2096921,308153,250674
2096921,2096921,308000,250896
2096921,2096921,307922,250884
2096921,2096921,308121,250872
2096921,2096921,307902,250904
2096921,2096921,308160,250982
2096921,2096921,308092,250914
2096921,2096921,308114,250864
2096921,2096921,308263,250927
2096921,2096921,308308,250969
2096921,2096921,308186,250675
2096921,2096921,308533,250706
2096921,2096921,308344,250796
2096921,2096921,308145,250914
2096921,2096921,308123,251080
2096921,2096921,308409,250964
2096921,2096921,308589,251179
2096921,2096921,308235,250951
2096921,2096921,308522,251125
