2096921,2096921,165916,708912
2096921,2096921,165966,708812
2096921,2096921,165677,709217
2096921,2096921,165725,709228
2096921,2096921,165753,709244
2096921,2096921,165979,709269
2096921,2096921,165757,709298
2096921,2096921,165875,709265
2096921,2096921,165907,709195
2096921,2096921,165793,708930
2096921,2096921,165918,709151
2096921,2096921,165915,709208
2096921,2096921,165765,709227
2096921,2096921,166057,709081
2096921,2096921,166130,708867
2096921,2096921,165960,709278
2096921,2096921,165705,709146
2096921,2096921,165907,709187
2096921,2096921,165597,709101
2096921,2096921,165699,708903
2096921,2096921,165788,709240
2096921,2096921,165771,709431
2096921,2096921,165972,709544
2096921,2096921,165895,709530
2096921,2096921,165730,709407
2096921,2096921,165883,709773
2096921,2096921,165647,709327
2096921,2096921,165831,709337
2096921,2096921,165972,709182
2096921,2096921,165864,709108
2096921,2096921,165589,709230
2096921,2096921,165852,709458
2096921,2096921,165849,709475
2096921,2096921,166111,709562
2096921,2096921,166076,709504
2096921,2096921,165995,709327
2096921,2096921,165751,709365
2096921,2096921,166090,709374
2096921,2096921,166002,709217
2096921,2096921,165987,709454
2096921,2096921,165952,709310
2096921,2096921,165912,709410
2096921,2096921,165683,709443
2096921,2096921,165597,709384
2096921,2096921,165869,709676
2096921,2096921,165840,709450
2096921,2096921,165960,709495
2096921,2096921,165899,709544
2096921,2096921,165618,709354
2096921,2096921,165681,709537
2096921,2096921,165811,709209
2096921,2096921,165937,709617
2096921,2096921,165858,709516
2096921,2096921,165726,709738
2096921,2096921,165993,709610
2096921,2096921,165763,709720
2096921,2096921,165985,709466
2096921,2096921,165921,709484
2096921,2096921,165910,709528
2096921,2096921,166135,709520
2096921,2096921,166022,709459
2096921,2096921,166036,709827
2096921,2096921,166074,709558
2096921,2096921,165872,709739
2096921,2096921,166184,709592
2096921,2096921,166035,709745
2096921,2096921,165860,709562
2096921,2096921,165510,709375
2096921,2096921,165657,709438
2096921,2096921,166016,709719
2096921,2096921,166095,709581
2096921,2096921,165960,709642
2096921,2096921,166008,709699
2096921,2096921,165820,709620
2096921,2096921,165942,709501
2096921,2096921,165800,709598
2096921,2096921,165933,709649
2096921,2096921,165957,709674
2096921,2096921,165869,709646
2096921,2096921,165885,709800
2096921,2096921,166005,709553
2096921,2096921,166076,709614
2096921,2096921,165665,709769
2096921,2096921,166147,709655
2096921,2096921,166082,709473
2096921,2096921,165669,709905
2096921,2096921,165750,709800
2096921,2096921,165865,709726
2096921,2096921,166095,709422
2096921,2096921,165882,709697
2096921,2096921,165716,709422
2096921,2096921,165927,709523
2096921,2096921,165881,709134
2096921,2096921,166081,709390
2096921,2096921,166332,709711
2096921,2096921,166043,709600
2096921,2096921,166217,709412
2096921,2096921,165837,709661
2096921,2096921,166098,709579
2096921,2096921,165616,709724
2096921,2096921,165807,709610
2096921,2096921,165853,709345
2096921,2096921,166062,709495
2096921,2096921,165943,709390
2096921,2096921,166025,709523
2096921,2096921,165899,709481
2096921,2096921,165749,709532
2096921,2096921,165702,709548
2096921,2096921,165960,709570
2096921,2096921,165705,709794
2096921,2096921,165687,709199
2096921,2096921,165935,709269
2096921,2096921,165892,709210
2096921,2096921,166108,709451
2096921,2096921,166014,709183
2096921,2096921,165944,709070
2096921,2096921,166044,709057
2096921,2096921,165839,709022
2096921,2096921,165857,709072
2096921,2096921,165904,709310
2096921,2096921,165769,709188
2096921,2096921,166038,709127
2096921,2096921,166040,709281
2096921,2096921,165707,709220
2096921,2096921,165637,709192
2096921,2096921,165721,709248
2096921,2096921,165655,709055
2096921,2096921,165782,708957
2096921,2096921,165869,709052
2096921,2096921,165683,708796
2096921,2096921,165538,709137
2096921,2096921,165738,708699
2096921,2096921,165821,709164
2096921,2096921,165994,709061
2096921,2096921,165711,708923
2096921,2096921,165784,708804
2096921,2096921,165636,708657
2096921,2096921,165691,708921
2096921,2096921,165615,708505
2096921,2096921,165166,708492
2096921,2096921,165379,708140
2096921,2096921,165604,707984
2096921,2096921,165845,708088
2096921,2096921,165578,708129
2096921,2096921,165452,708131
2096921,2096921,165166,707130
2096921,2096921,165622,707479
2096921,2096921,165333,707430
2096921,2096921,165277,707728
2096921,2096921,165141,707679
2096921,2096921,165195,706850
2096921,2096921,165304,706509
2096921,2096921,165220,706713
2096921,2096921,165102,706527
2096921,2096921,164883,706697
2096921,2096921,164886,705523
2096921,2096921,164642,705238
2096921,2096921,164355,705083
2096921,2096921,164765,705217
2096921,2096921,164524,705031
2096921,2096921,164297,704063
2096921,2096921,164304,703908
2096921,2096921,164406,703924
2096921,2096921,164418,703716
2096921,2096921,163794,703655
2096921,2096921,163772,701416
2096921,2096921,163583,700900
2096921,2096921,163692,700669
2096921,2096921,163516,700563
2096921,2096921,163045,700351
2096921,2096921,162562,697617
2096921,2096921,162712,697329
2096921,2096921,162569,697033
2096921,2096921,162789,697157
2096921,2096921,162154,696862
2096921,2096921,162107,695139
2096921,2096921,161865,694206
2096921,2096921,161868,693962
2096921,2096921,161937,694322
2096921,2096921,161477,694008
2096921,2096921,161350,692643
2096921,2096921,161434,692187
2096921,2096921,161437,692232
2096921,2096921,161566,691841
2096921,2096921,160851,691668
2096921,2096921,160846,690547
2096921,2096921,160799,690170
2096921,2096921,160848,690257
2096921,2096921,160767,690045
2096921,2096921,160442,690009
2096921,2096921,160517,689681
2096921,2096921,160678,689446
2096921,2096921,160933,689302
2096921,2096921,160615,689081
2096921,2096921,160611,689015
2096921,2096921,160581,688347
2096921,2096921,160372,688387
2096921,2096921,160453,688216
2096921,2096921,160460,688391
2096921,2096921,160344,687844
2096921,2096921,160595,687760
2096921,2096921,160514,687897
2096921,2096921,160449,687561
2096921,2096921,160346,687784
2096921,2096921,160293,687780
2096921,2096921,160274,687570
2096921,2096921,160324,687511
2096921,2096921,160014,687236
2096921,2096921,160097,687308
2096921,2096921,160229,687300
2096921,2096921,160237,687124
2096921,2096921,159759,687074
2096921,2096921,160027,687282
2096921,2096921,160104,687183
2096921,2096921,160199,687410
2096921,2096921,160288,687642
2096921,2096921,159961,687994
2096921,2096921,160188,687729
2096921,2096921,160434,687869
2096921,2096921,160047,687632
2096921,2096921,160277,687599
2096921,2096921,160417,687667
2096921,2096921,160089,687809
2096921,2096921,160238,687738
2096921,2096921,160618,687821
2096921,2096921,160408,687397
2096921,2096921,160302,687591
2096921,2096921,160246,687429
2096921,2096921,160101,687795
2096921,2096921,160292,687880
2096921,2096921,160330,688139
2096921,2096921,160544,688702
2096921,2096921,160359,688182
2096921,2096921,160345,688683
2096921,2096921,160579,688245
2096921,2096921,160311,688688
2096921,2096921,160419,688915
2096921,2096921,160548,688651
2096921,2096921,160577,688662
2096921,2096921,160756,688877
2096921,2096921,160485,689345
2096921,2096921,160837,689451
2096921,2096921,160560,689325
2096921,2096921,160786,689655
2096921,2096921,160812,689327
2096921,2096921,160878,690045
2096921,2096921,160807,690137
2096921,2096921,160685,690291
2096921,2096921,160779,690261
2096921,2096921,160758,690060
2096921,2096921,160976,690663
2096921,2096921,160965,690778
2096921,2096921,161067,690598
2096921,2096921,160869,690700
2096921,2096921,161132,690573
2096921,2096921,161024,691078
2096921,2096921,161159,690993
2096921,2096921,161129,691134
2096921,2096921,161060,691163
2096921,2096921,161382,690970
2096921,2096921,161399,691466
2096921,2096921,161320,691595
2096921,2096921,161380,691239
2096921,2096921,161470,691614
2096921,2096921,161497,691703
2096921,2096921,161602,692039
2096921,2096921,161280,692116
2096921,2096921,161474,692062
2096921,2096921,161095,691810
2096921,2096921,161469,692072
2096921,2096921,161681,692289
2096921,2096921,161687,692621
2096921,2096921,161525,692856
2096921,2096921,161438,692853
2096921,2096921,161843,693025
2096921,2096921,161747,693592
2096921,2096921,161604,693773
2096921,2096921,161847,693510
2096921,2096921,161388,693434
2096921,2096921,161851,693357
2096921,2096921,161982,693975
2096921,2096921,162002,694211
2096921,2096921,162063,694163
2096921,2096921,161953,694060
2096921,2096921,162021,694064
2096921,2096921,161962,694470
2096921,2096921,162321,694507
2096921,2096921,161897,694779
2096921,2096921,162374,694725
2096921,2096921,162414,694824
2096921,2096921,162503,695354
2096921,2096921,162371,695086
2096921,2096921,162278,695218
2096921,2096921,162376,695123
2096921,2096921,162366,695230
2096921,2096921,162338,695489
2096921,2096921,162565,695459
2096921,2096921,162230,695836
2096921,2096921,162255,695872
2096921,2096921,162492,695830
2096921,2096921,162342,696018
2096921,2096921,162283,696037
2096921,2096921,162313,696017
2096921,2096921,162240,696152
2096921,2096921,162585,696179
2096921,2096921,162305,696249
2096921,2096921,162558,696182
2096921,2096921,162457,696013
2096921,2096921,162691,696331
2096921,2096921,162521,696384
2096921,2096921,162486,696400
2096921,2096921,162551,696365
2096921,2096921,162720,696448
2096921,2096921,162690,696673
2096921,2096921,162739,696606
2096921,2096921,162464,696219
2096921,2096921,162833,695912
2096921,2096921,162685,696250
2096921,2096921,162881,696238
2096921,2096921,162376,696471
2096921,2096921,162419,696150
2096921,2096921,162439,696352
2096921,2096921,162635,696016
2096921,2096921,162686,696284
2096921,2096921,162506,696233
2096921,2096921,162479,696061
2096921,2096921,162374,696184
2096921,2096921,161964,696119
2096921,2096921,162321,696209
2096921,2096921,162571,696110
2096921,2096921,162303,696041
2096921,2096921,162418,695691
2096921,2096921,162371,695863
2096921,2096921,162513,695822
2096921,2096921,162032,695864
2096921,2096921,162201,695839
2096921,2096921,162235,695682
2096921,2096921,162387,695542
2096921,2096921,162511,695572
2096921,2096921,162388,695621
2096921,2096921,162277,695518
2096921,2096921,162358,695344
2096921,2096921,162595,695409
2096921,2096921,162182,695195
2096921,2096921,162203,695333
2096921,2096921,162223,695147
2096921,2096921,162163,694892
2096921,2096921,162107,694887
2096921,2096921,162303,695289
2096921,2096921,162062,694924
2096921,2096921,162032,694822
2096921,2096921,162205,695115
2096921,2096921,162064,694983
2096921,2096921,162200,694739
2096921,2096921,162200,694993
2096921,2096921,162116,694962
2096921,2096921,161967,695102
2096921,2096921,162051,694946
2096921,2096921,162279,694813
2096921,2096921,162145,695087
2096921,2096921,162171,695288
2096921,2096921,162199,695029
2096921,2096921,162264,695241
2096921,2096921,162226,694873
2096921,2096921,162509,694703
2096921,2096921,162466,695122
2096921,2096921,162307,695300
2096921,2096921,162099,695094
2096921,2096921,162222,695145
2096921,2096921,162242,695014
2096921,2096921,162480,695522
2096921,2096921,162292,695316
2096921,2096921,162322,695208
2096921,2096921,162267,695250
2096921,2096921,162265,695492
2096921,2096921,162271,695883
2096921,2096921,162290,695682
2096921,2096921,162222,696073
2096921,2096921,161994,695826
2096921,2096921,162508,695918
2096921,2096921,162542,696424
2096921,2096921,162461,696550
2096921,2096921,162173,696635
2096921,2096921,162549,696159
2096921,2096921,162541,696141
2096921,2096921,162596,696890
2096921,2096921,162504,696811
2096921,2096921,162696,696731
2096921,2096921,162419,696811
2096921,2096921,162680,696789
2096921,2096921,162929,697183
2096921,2096921,163003,697042
2096921,2096921,162958,697178
2096921,2096921,162948,696960
2096921,2096921,163078,697285
2096921,2096921,162920,697199
2096921,2096921,162864,697596
2096921,2096921,163020,697511
2096921,2096921,162746,697580
2096921,2096921,163070,697284
2096921,2096921,163263,697509
2096921,2096921,163135,697689
2096921,2096921,162925,698216
2096921,2096921,162984,698037
2096921,2096921,162996,698187
2096921,2096921,162902,698277
2096921,2096921,162808,698235
2096921,2096921,162781,698488
2096921,2096921,162556,698295
2096921,2096921,163141,698434
2096921,2096921,163127,698756
2096921,2096921,163007,698694
2096921,2096921,163158,698615
2096921,2096921,163357,698566
2096921,2096921,163310,698514
2096921,2096921,163458,698929
2096921,2096921,163171,699060
2096921,2096921,163093,699082
2096921,2096921,163264,698982
2096921,2096921,163579,699172
2096921,2096921,163595,699453
2096921,2096921,163437,699399
2096921,2096921,163298,699308
2096921,2096921,163461,699609
2096921,2096921,163267,699560
2096921,2096921,163555,699696
2096921,2096921,163405,699893
2096921,2096921,163360,699750
2096921,2096921,163528,699931
2096921,2096921,163634,699691
2096921,2096921,163571,700099
2096921,2096921,163847,700034
2096921,2096921,163328,700289
2096921,2096921,163572,700232
2096921,2096921,163584,700239
2096921,2096921,163104,700331
2096921,2096921,163387,700374
2096921,2096921,163360,700625
2096921,2096921,163641,700283
2096921,2096921,163622,700616
2096921,2096921,163637,700792
2096921,2096921,163490,700930
2096921,2096921,163718,700681
2096921,2096921,163740,700745
2096921,2096921,163785,700800
2096921,2096921,163664,700780
2096921,2096921,163720,700921
2096921,2096921,163685,701203
2096921,2096921,163708,701019
2096921,2096921,163794,700945
2096921,2096921,164053,701623
2096921,2096921,164093,701558
2096921,2096921,163873,701444
2096921,2096921,163908,701405
2096921,2096921,164083,701412
2096921,2096921,164154,701841
2096921,2096921,163980,701824
2096921,2096921,164196,701509
2096921,2096921,164182,701883
2096921,2096921,163951,701765
2096921,2096921,164053,701952
2096921,2096921,164055,701906
2096921,2096921,164019,701883
2096921,2096921,164266,701895
2096921,2096921,164178,702124
2096921,2096921,164172,702358
2096921,2096921,163981,702459
2096921,2096921,164002,702594
2096921,2096921,164035,702225
2096921,2096921,164385,702276
2096921,2096921,164101,702326
2096921,2096921,164167,702424
2096921,2096921,164378,702627
2096921,2096921,164032,702621
2096921,2096921,164250,702420
2096921,2096921,164150,702725
2096921,2096921,164439,702831
2096921,2096921,164087,702790
2096921,2096921,164371,702671
2096921,2096921,164261,702595
2096921,2096921,164177,702880
2096921,2096921,164198,703053
2096921,2096921,163991,702800
2096921,2096921,164013,702901
2096921,2096921,164017,702824
2096921,2096921,164326,703135
2096921,2096921,164397,702978
2096921,2096921,164284,703293
2096921,2096921,164326,703245
2096921,2096921,164066,703048
2096921,2096921,164361,703580
2096921,2096921,164493,703547
2096921,2096921,164483,703777
2096921,2096921,164544,703562
2096921,2096921,164647,703548
2096921,2096921,164482,703559
2096921,2096921,164612,703640
2096921,2096921,164760,703759
2096921,2096921,164577,703593
2096921,2096921,164422,703662
2096921,2096921,164414,703848
2096921,2096921,164441,703818
2096921,2096921,164439,703682
2096921,2096921,164522,704059
2096921,2096921,164495,703702
2096921,2096921,164400,704166
2096921,2096921,164591,704260
2096921,2096921,164442,704118
2096921,2096921,164573,704213
2096921,2096921,164503,704179
2096921,2096921,164586,704280
2096921,2096921,164880,704274
2096921,2096921,164427,704562
2096921,2096921,164503,704358
2096921,2096921,164506,704044
2096921,2096921,164314,704021
2096921,2096921,164572,704341
2096921,2096921,164546,704278
2096921,2096921,164622,704285
2096921,2096921,164482,704371
2096921,2096921,165157,704652
2096921,2096921,165189,704432
2096921,2096921,164917,704364
2096921,2096921,164465,704715
2096921,2096921,164698,704695
2096921,2096921,164864,704453
2096921,2096921,164919,704721
2096921,2096921,164696,704548
2096921,2096921,164713,704520
2096921,2096921,164517,704539
2096921,2096921,164874,704708
2096921,2096921,164833,704864
2096921,2096921,164688,704760
2096921,2096921,164804,704728
2096921,2096921,164994,704415
2096921,2096921,164763,704596
2096921,2096921,164963,704876
2096921,2096921,164903,704879
2096921,2096921,164766,704912
2096921,2096921,164759,704824
2096921,2096921,165218,705006
2096921,2096921,165066,704790
2096921,2096921,164869,704741
2096921,2096921,164590,704800
2096921,2096921,164828,705069
2096921,2096921,164753,705085
2096921,2096921,164979,704848
2096921,2096921,164818,704993
2096921,2096921,164857,705435
2096921,2096921,164794,705012
2096921,2096921,164800,705335
2096921,2096921,164841,705386
2096921,2096921,165042,705609
2096921,2096921,164798,705313
2096921,2096921,164935,705372
2096921,2096921,164740,705378
2096921,2096921,164876,705471
2096921,2096921,164845,705365
2096921,2096921,164656,705634
2096921,2096921,165033,705444
2096921,2096921,165016,705566
2096921,2096921,164932,705469
2096921,2096921,165017,705457
2096921,2096921,164972,705665
2096921,2096921,165086,705666
2096921,2096921,165173,705681
2096921,2096921,165087,705709
2096921,2096921,164876,705338
2096921,2096921,164849,705590
2096921,2096921,165029,705419
2096921,2096921,165098,705785
2096921,2096921,164838,705583
2096921,2096921,165054,705958
2096921,2096921,165081,705664
2096921,2096921,164922,705843
2096921,2096921,164914,705794
2096921,2096921,165079,705626
2096921,2096921,165057,706003
2096921,2096921,164916,705861
2096921,2096921,164670,706105
2096921,2096921,165087,705972
2096921,2096921,165127,706174
2096921,2096921,164785,706243
2096921,2096921,165157,706051
2096921,2096921,164988,706544
2096921,2096921,164877,706174
2096921,2096921,165188,706003
2096921,2096921,165305,706002
2096921,2096921,165221,706293
2096921,2096921,165447,706146
2096921,2096921,165139,705997
2096921,2096921,165208,706075
2096921,2096921,165169,706127
2096921,2096921,165128,706285
2096921,2096921,165295,706036
2096921,2096921,165330,706094
2096921,2096921,164927,706030
2096921,2096921,165183,706315
2096921,2096921,165045,706236
2096921,2096921,165374,706112
2096921,2096921,165236,706210
2096921,2096921,165251,706122
2096921,2096921,165052,706214
2096921,2096921,165343,706383
2096921,2096921,165128,706027
2096921,2096921,165593,706331
2096921,2096921,165417,706117
2096921,2096921,165142,706102
2096921,2096921,165188,705958
2096921,2096921,165270,706222
2096921,2096921,165205,706187
2096921,2096921,165235,706621
2096921,2096921,165087,706445
2096921,2096921,165132,706202
2096921,2096921,165302,706434
2096921,2096921,165120,706616
2096921,2096921,165099,706463
2096921,2096921,165289,706134
2096921,2096921,165182,706158
2096921,2096921,165065,706264
2096921,2096921,165058,706334
2096921,2096921,164986,706276
2096921,2096921,165392,706246
2096921,2096921,165466,706334
2096921,2096921,165022,706407
2096921,2096921,165099,706515
2096921,2096921,165023,706170
2096921,2096921,165149,706039
2096921,2096921,165254,706415
2096921,2096921,165160,706587
2096921,2096921,165104,706391
2096921,2096921,165137,706361
2096921,2096921,165267,706489
2096921,2096921,165274,706344
2096921,2096921,165324,706388
2096921,2096921,165216,706340
2096921,2096921,165069,706588
2096921,2096921,165441,706567
2096921,2096921,165281,706530
2096921,2096921,164861,706598
2096921,2096921,164603,706068
2096921,2096921,164699,706088
2096921,2096921,164996,705628
2096921,2096921,165024,706035
2096921,2096921,164965,705837
2096921,2096921,165169,705702
2096921,2096921,164814,705555
2096921,2096921,164729,705364
2096921,2096921,164829,705193
2096921,2096921,164838,705354
2096921,2096921,164708,704641
2096921,2096921,164917,704632
2096921,2096921,164820,704358
2096921,2096921,164795,704544
2096921,2096921,164321,704489
2096921,2096921,164176,703661
2096921,2096921,164164,703347
2096921,2096921,164369,703368
2096921,2096921,164195,703345
2096921,2096921,164053,703302
2096921,2096921,163853,702259
2096921,2096921,164091,702364
2096921,2096921,163963,701734
2096921,2096921,164036,701810
2096921,2096921,163393,702178
2096921,2096921,163281,699948
2096921,2096921,163196,699126
2096921,2096921,163168,699191
2096921,2096921,163208,698986
2096921,2096921,162335,699052
2096921,2096921,162386,695979
2096921,2096921,162418,695427
2096921,2096921,162528,695343
2096921,2096921,162499,695308
2096921,2096921,161935,695632
2096921,2096921,161658,693259
2096921,2096921,161646,692642
2096921,2096921,161753,692884
2096921,2096921,161672,692535
2096921,2096921,161145,692369
2096921,2096921,161195,691089
2096921,2096921,161099,690857
2096921,2096921,160954,690693
2096921,2096921,161004,690268
2096921,2096921,160749,690532
2096921,2096921,160313,689666
2096921,2096921,160452,689228
2096921,2096921,160445,689300
2096921,2096921,160458,689437
2096921,2096921,160311,689625
2096921,2096921,160224,688552
2096921,2096921,160223,688398
2096921,2096921,160360,688156
2096921,2096921,160354,688022
2096921,2096921,160111,688425
2096921,2096921,160163,687825
2096921,2096921,160218,687457
2096921,2096921,160199,687427
2096921,2096921,160116,687607
2096921,2096921,160218,687542
2096921,2096921,160297,686988
2096921,2096921,160290,687081
2096921,2096921,160187,686843
2096921,2096921,160032,686829
2096921,2096921,159974,686960
2096921,2096921,159907,686898
2096921,2096921,159881,686875
2096921,2096921,159984,686852
2096921,2096921,160022,686961
2096921,2096921,160161,686589
2096921,2096921,160134,686790
2096921,2096921,160133,686929
2096921,2096921,160459,687303
2096921,2096921,160332,687164
2096921,2096921,160360,687232
2096921,2096921,160323,687391
2096921,2096921,160078,687518
2096921,2096921,160085,687346
2096921,2096921,160218,687445
2096921,2096921,160237,687470
2096921,2096921,160501,687420
2096921,2096921,160466,687834
2096921,2096921,160122,687708
2096921,2096921,160418,687983
2096921,2096921,160244,687626
2096921,2096921,160275,687882
2096921,2096921,160166,687743
2096921,2096921,160068,687809
2096921,2096921,160204,687946
2096921,2096921,160324,688077
2096921,2096921,160519,688587
2096921,2096921,160439,688889
2096921,2096921,160464,688619
2096921,2096921,160646,688519
2096921,2096921,160816,688625
2096921,2096921,160526,688993
2096921,2096921,160783,689063
2096921,2096921,160561,689046
2096921,2096921,160706,689079
2096921,2096921,160799,689140
2096921,2096921,160859,689766
2096921,2096921,161005,690043
2096921,2096921,161074,690060
2096921,2096921,160952,689903
2096921,2096921,161172,689974
2096921,2096921,161058,690805
2096921,2096921,161229,690986
2096921,2096921,160852,690663
2096921,2096921,161009,691007
2096921,2096921,161078,690860
2096921,2096921,161093,691292
2096921,2096921,161252,691278
2096921,2096921,161173,691513
2096921,2096921,161301,691329
2096921,2096921,161433,691584
2096921,2096921,161363,692146
2096921,2096921,161509,692382
2096921,2096921,161739,692199
2096921,2096921,161589,692234
2096921,2096921,161647,692123
2096921,2096921,161424,692782
2096921,2096921,161691,692815
2096921,2096921,161602,692837
2096921,2096921,161763,692988
2096921,2096921,161603,692923
2096921,2096921,161694,693286
2096921,2096921,161749,693415
2096921,2096921,161749,693287
2096921,2096921,161670,693544
2096921,2096921,162060,693835
2096921,2096921,161890,694259
2096921,2096921,161876,694424
2096921,2096921,161659,694384
2096921,2096921,162235,694104
2096921,2096921,162389,694137
2096921,2096921,162228,694982
2096921,2096921,162052,695160
2096921,2096921,162200,695246
2096921,2096921,162182,695106
2096921,2096921,162267,694905
2096921,2096921,162261,695424
2096921,2096921,162318,695546
2096921,2096921,162465,696031
2096921,2096921,162225,695653
2096921,2096921,162020,696052
2096921,2096921,162259,696390
2096921,2096921,162306,696809
2096921,2096921,162505,696726
2096921,2096921,162608,696388
2096921,2096921,162633,696459
2096921,2096921,162710,697005
2096921,2096921,162906,697252
2096921,2096921,162832,697434
2096921,2096921,162745,697136
2096921,2096921,162660,697175
2096921,2096921,163098,697739
2096921,2096921,162992,697766
2096921,2096921,162923,697817
2096921,2096921,162915,697909
2096921,2096921,163053,697834
2096921,2096921,163093,698051
2096921,2096921,163161,698268
2096921,2096921,162642,698658
2096921,2096921,162650,698381
2096921,2096921,163137,698379
2096921,2096921,163336,698609
2096921,2096921,163262,698608
2096921,2096921,163250,698982
2096921,2096921,163407,699106
2096921,2096921,163076,699008
2096921,2096921,163223,698951
2096921,2096921,162762,698757
2096921,2096921,163009,698923
2096921,2096921,163125,698641
2096921,2096921,163265,698979
2096921,2096921,162949,698764
2096921,2096921,162926,698541
2096921,2096921,163029,698608
2096921,2096921,163281,698630
2096921,2096921,163347,698972
2096921,2096921,163660,699095
2096921,2096921,163405,699184
2096921,2096921,163289,698923
2096921,2096921,163120,699089
2096921,2096921,163398,698935
2096921,2096921,163045,698757
2096921,2096921,163052,698860
2096921,2096921,163274,698718
2096921,2096921,163215,699115
2096921,2096921,162895,698835
2096921,2096921,163268,698743
2096921,2096921,163070,698711
2096921,2096921,162829,698697
2096921,2096921,162908,698886
2096921,2096921,163077,698984
2096921,2096921,163050,698685
2096921,2096921,163095,698626
2096921,2096921,163027,698633
2096921,2096921,163311,698726
2096921,2096921,162956,698599
2096921,2096921,163012,698319
2096921,2096921,162825,698849
2096921,2096921,162920,698421
2096921,2096921,163003,698214
2096921,2096921,163089,698269
2096921,2096921,163036,698224
2096921,2096921,162989,698506
2096921,2096921,162852,698434
2096921,2096921,163076,698510
2096921,2096921,163080,698556
2096921,2096921,162957,698481
2096921,2096921,162893,698533
2096921,2096921,162919,698460
2096921,2096921,163200,698369
2096921,2096921,163188,698541
2096921,2096921,163215,698830
2096921,2096921,162850,699038
2096921,2096921,162829,698796
2096921,2096921,163117,698892
2096921,2096921,163071,698944
2096921,2096921,163187,698780
2096921,2096921,163083,698904
2096921,2096921,163142,699160
2096921,2096921,163098,699185
2096921,2096921,163146,699192
2096921,2096921,163027,699017
2096921,2096921,163202,699065
2096921,2096921,163469,699361
2096921,2096921,163138,699062
2096921,2096921,163019,699115
2096921,2096921,163375,699003
2096921,2096921,163610,698962
2096921,2096921,163345,699473
2096921,2096921,163489,699491
2096921,2096921,163453,699600
2096921,2096921,163345,699775
2096921,2096921,163573,699638
2096921,2096921,163601,700082
2096921,2096921,163438,700406
2096921,2096921,163793,700603
2096921,2096921,163644,700761
2096921,2096921,163762,700301
2096921,2096921,163742,701075
2096921,2096921,163669,700762
2096921,2096921,163232,700932
2096921,2096921,163573,700736
2096921,2096921,163591,701060
2096921,2096921,163896,701374
2096921,2096921,164042,701628
2096921,2096921,163654,701757
2096921,2096921,163824,701854
2096921,2096921,163958,701525
2096921,2096921,164012,701850
2096921,2096921,163967,701692
2096921,2096921,163763,701545
2096921,2096921,163963,701870
2096921,2096921,164105,701683
2096921,2096921,164436,702135
2096921,2096921,164105,702204
2096921,2096921,163825,702662
2096921,2096921,163890,702397
2096921,2096921,164039,702302
2096921,2096921,164271,702670
2096921,2096921,164358,702903
2096921,2096921,164348,702494
2096921,2096921,164313,703035
2096921,2096921,164099,702737
2096921,2096921,164017,703297
2096921,2096921,164305,703109
2096921,2096921,164301,703256
2096921,2096921,164220,703133
2096921,2096921,164366,703162
2096921,2096921,164409,703676
2096921,2096921,164461,703679
2096921,2096921,164318,703625
2096921,2096921,164311,703496
2096921,2096921,164494,703638
2096921,2096921,164633,704007
2096921,2096921,164479,704344
2096921,2096921,164501,704222
2096921,2096921,164399,704059
2096921,2096921,164472,704261
2096921,2096921,164420,704651
2096921,2096921,164831,704428
2096921,2096921,164738,704457
2096921,2096921,164443,704531
2096921,2096921,164684,704361
2096921,2096921,164803,704805
2096921,2096921,164796,704988
2096921,2096921,164941,704812
2096921,2096921,164780,705229
2096921,2096921,164810,705096
2096921,2096921,164887,705515
2096921,2096921,164659,705307
2096921,2096921,164936,705457
2096921,2096921,164951,705438
2096921,2096921,164918,705341
2096921,2096921,165034,705720
2096921,2096921,164885,705899
2096921,2096921,165191,705990
2096921,2096921,165009,705556
2096921,2096921,165202,705532
2096921,2096921,165037,705850
2096921,2096921,165151,705928
2096921,2096921,165045,706015
2096921,2096921,165217,706317
2096921,2096921,165088,706099
2096921,2096921,164956,706878
2096921,2096921,165110,706756
2096921,2096921,165345,706785
2096921,2096921,165234,706653
2096921,2096921,165157,706790
2096921,2096921,165124,706924
2096921,2096921,164815,706818
2096921,2096921,164858,706893
2096921,2096921,164990,707062
2096921,2096921,165305,706954
2096921,2096921,165519,707433
2096921,2096921,165445,707380
2096921,2096921,165387,707446
2096921,2096921,165574,707629
2096921,2096921,165634,707588
2096921,2096921,165757,707755
2096921,2096921,165398,708313
2096921,2096921,165463,707720
2096921,2096921,165400,707878
2096921,2096921,165633,707805
2096921,2096921,165093,708225
2096921,2096921,165693,708242
2096921,2096921,165674,708170
2096921,2096921,165396,708108
2096921,2096921,165696,708414
2096921,2096921,165605,708480
2096921,2096921,165719,708512
2096921,2096921,165559,708506
2096921,2096921,165570,708230
2096921,2096921,165659,708589
2096921,2096921,165772,708652
2096921,2096921,165943,708895
2096921,2096921,165647,709061
2096921,2096921,165617,708763
2096921,2096921,165689,708994
2096921,2096921,165892,708927
2096921,2096921,165662,708970
2096921,2096921,165601,708932
2096921,2096921,165729,708938
2096921,2096921,165831,709023
2096921,2096921,165842,709223
2096921,2096921,165853,709434
2096921,2096921,165765,709761
2096921,2096921,165949,709652
2096921,2096921,165762,709672
2096921,2096921,166031,709848
2096921,2096921,166100,709647
2096921,2096921,166089,709814
2096921,2096921,165986,709608
2096921,2096921,166174,709672
2096921,2096921,166020,709657
2096921,2096921,166042,709582
2096921,2096921,166089,709768
2096921,2096921,166132,709953
2096921,2096921,166338,709653
2096921,2096921,166241,709975
2096921,2096921,165790,709755
2096921,2096921,166124,709985
2096921,2096921,165458,710134
2096921,2096921,165951,709998
2096921,2096921,165994,710655
2096921,2096921,166059,710419
2096921,2096921,166007,710087
2096921,2096921,166270,710074
2096921,2096921,166291,710286
2096921,2096921,166346,710330
2096921,2096921,166001,710496
2096921,2096921,166401,710179
2096921,2096921,166155,710602
2096921,2096921,166274,710605
2096921,2096921,166219,710530
2096921,2096921,166212,710940
2096921,2096921,166408,710892
2096921,2096921,166544,711084
2096921,2096921,166417,710794
2096921,2096921,166448,711178
2096921,2096921,165971,711067
2096921,2096921,165974,711054
2096921,2096921,165970,711047
2096921,2096921,166110,711003
2096921,2096921,166522,711262
2096921,2096921,166292,711057
2096921,2096921,166252,711148
2096921,2096921,166484,711158
2096921,2096921,166468,711088
2096921,2096921,166440,711246
2096921,2096921,166161,711403
2096921,2096921,166311,711428
2096921,2096921,166396,711333
2096921,2096921,166531,711160
2096921,2096921,166303,711428
2096921,2096921,166326,711571
2096921,2096921,166332,711429
2096921,2096921,166376,711555
2096921,2096921,166333,711619
2096921,2096921,166284,711816
2096921,2096921,166373,711547
2096921,2096921,166425,711729
2096921,2096921,166388,711803
2096921,2096921,167032,711360
2096921,2096921,166757,711664
2096921,2096921,166418,711858
2096921,2096921,166490,711994
2096921,2096921,166260,711868
2096921,2096921,166659,711655
2096921,2096921,166360,711866
2096921,2096921,166435,711918
2096921,2096921,166587,711730
2096921,2096921,166606,711680
2096921,2096921,166764,711784
2096921,2096921,166553,711730
2096921,2096921,166653,712128
2096921,2096921,166612,712378
2096921,2096921,166504,712147
2096921,2096921,166589,712088
2096921,2096921,166751,712057
2096921,2096921,166742,712217
2096921,2096921,166575,712589
2096921,2096921,166403,712092
2096921,2096921,166613,712216
2096921,2096921,166587,712311
2096921,2096921,166575,712679
2096921,2096921,166486,712484
2096921,2096921,166624,712469
2096921,2096921,166709,712166
2096921,2096921,166636,712599
2096921,2096921,166544,712676
2096921,2096921,166786,712976
2096921,2096921,166653,712542
2096921,2096921,166868,712670
2096921,2096921,166850,712515
2096921,2096921,166864,712410
2096921,2096921,166678,712707
2096921,2096921,166715,712742
2096921,2096921,166646,712831
2096921,2096921,166510,713049
2096921,2096921,166684,713122
2096921,2096921,166765,712735
2096921,2096921,166815,712864
2096921,2096921,166728,712747
2096921,2096921,166858,712962
2096921,2096921,166871,712858
2096921,2096921,166848,712816
2096921,2096921,167064,712910
2096921,2096921,166939,713017
2096921,2096921,166759,713323
2096921,2096921,166643,712976
2096921,2096921,166881,712829
2096921,2096921,166610,713112
2096921,2096921,166602,713101
2096921,2096921,166450,713000
2096921,2096921,166700,713164
2096921,2096921,167066,712874
2096921,2096921,166841,712830
2096921,2096921,166582,713088
2096921,2096921,166736,713089
2096921,2096921,166754,712959
2096921,2096921,166830,713192
2096921,2096921,166639,713162
2096921,2096921,166743,713114
2096921,2096921,166776,713163
2096921,2096921,166908,712919
2096921,2096921,166859,713073
2096921,2096921,166732,713251
2096921,2096921,166984,712969
2096921,2096921,166711,712681
2096921,2096921,166862,713305
2096921,2096921,166809,712764
2096921,2096921,166774,713068
2096921,2096921,166476,713187
2096921,2096921,166862,713169
2096921,2096921,166893,713113
2096921,2096921,166729,713240
2096921,2096921,166834,713305
2096921,2096921,166907,712918
2096921,2096921,166758,713148
2096921,2096921,166920,712991
2096921,2096921,166965,712792
2096921,2096921,166811,713009
2096921,2096921,166794,712903
2096921,2096921,166847,713060
2096921,2096921,166734,712930
2096921,2096921,166898,712686
2096921,2096921,166931,712967
2096921,2096921,167011,713013
2096921,2096921,166988,713091
2096921,2096921,166805,713318
2096921,2096921,166883,712968
2096921,2096921,166890,712787
2096921,2096921,166503,712949
2096921,2096921,166608,712485
2096921,2096921,166561,712471
2096921,2096921,166745,712542
2096921,2096921,166896,712548
2096921,2096921,166566,712434
2096921,2096921,166661,712198
2096921,2096921,166258,711839
2096921,2096921,166440,711800
2096921,2096921,166620,711986
2096921,2096921,166151,711940
2096921,2096921,166233,711425
2096921,2096921,166261,710680
2096921,2096921,166308,711015
2096921,2096921,166445,710741
2096921,2096921,165945,711001
2096921,2096921,166075,710104
2096921,2096921,165971,709626
2096921,2096921,165854,709546
2096921,2096921,165645,709780
2096921,2096921,165637,709854
2096921,2096921,165700,708912
2096921,2096921,165584,708503
2096921,2096921,165622,708563
2096921,2096921,165636,708410
2096921,2096921,165080,708394
2096921,2096921,164878,706102
2096921,2096921,164751,705728
2096921,2096921,164785,705218
2096921,2096921,164662,705490
2096921,2096921,163601,705378
2096921,2096921,163788,702278
2096921,2096921,163625,701685
2096921,2096921,163578,701549
2096921,2096921,163719,701727
2096921,2096921,163163,701846
2096921,2096921,162938,699640
2096921,2096921,162958,699181
2096921,2096921,162797,699059
2096921,2096921,162781,699051
2096921,2096921,162756,698724
2096921,2096921,162500,697174
2096921,2096921,162742,696691
2096921,2096921,162740,696783
2096921,2096921,162691,696773
2096921,2096921,162221,696911
2096921,2096921,162088,695784
2096921,2096921,162115,695378
2096921,2096921,162196,695243
2096921,2096921,162211,695060
2096921,2096921,162045,694847
2096921,2096921,162001,694269
2096921,2096921,161838,694236
2096921,2096921,161814,694146
2096921,2096921,161651,694206
2096921,2096921,161516,694400
2096921,2096921,161530,693716
2096921,2096921,161587,693497
2096921,2096921,161628,693362
2096921,2096921,161620,693226
2096921,2096921,161080,693429
2096921,2096921,161274,692925
2096921,2096921,161528,692894
2096921,2096921,161306,692994
2096921,2096921,161575,692898
2096921,2096921,161574,692755
2096921,2096921,161448,692589
2096921,2096921,161383,692889
2096921,2096921,161363,692743
2096921,2096921,161145,692604
2096921,2096921,161544,692597
2096921,2096921,161617,692889
2096921,2096921,161396,692689
2096921,2096921,161593,692656
2096921,2096921,161686,692579
2096921,2096921,161651,692701
2096921,2096921,161694,692806
2096921,2096921,161730,693087
2096921,2096921,161764,692870
2096921,2096921,161804,693022
2096921,2096921,162009,692815
2096921,2096921,161967,693206
2096921,2096921,161746,693100
2096921,2096921,161793,693016
2096921,2096921,161559,693527
2096921,2096921,161564,693509
2096921,2096921,161703,693480
2096921,2096921,161644,693492
2096921,2096921,161689,693334
2096921,2096921,161326,693275
2096921,2096921,161749,693344
2096921,2096921,161968,693864
2096921,2096921,162168,694217
2096921,2096921,161856,694094
2096921,2096921,162008,693986
2096921,2096921,162034,694125
2096921,2096921,161842,694602
2096921,2096921,162018,694661
2096921,2096921,162136,694325
2096921,2096921,161882,694367
2096921,2096921,161967,694701
2096921,2096921,162005,694839
2096921,2096921,162068,695234
2096921,2096921,162174,695397
2096921,2096921,162306,695324
2096921,2096921,162489,695178
2096921,2096921,162687,695623
2096921,2096921,162150,695848
2096921,2096921,162243,695998
2096921,2096921,162486,696049
2096921,2096921,162379,695865
2096921,2096921,162746,696322
2096921,2096921,162282,696570
2096921,2096921,162206,696486
2096921,2096921,162270,696482
2096921,2096921,162681,696513
2096921,2096921,162644,697401
2096921,2096921,162693,697035
2096921,2096921,162582,697261
2096921,2096921,162590,697093
2096921,2096921,162923,697259
2096921,2096921,162872,697824
2096921,2096921,162898,698050
2096921,2096921,162651,697733
2096921,2096921,163046,697939
2096921,2096921,162987,697765
2096921,2096921,163111,698308
2096921,2096921,163034,698347
2096921,2096921,163062,698283
2096921,2096921,162700,698553
2096921,2096921,162988,698405
2096921,2096921,163091,698782
2096921,2096921,163231,698928
2096921,2096921,163315,699136
2096921,2096921,163209,699226
2096921,2096921,163316,698939
2096921,2096921,163205,699525
2096921,2096921,163038,699677
2096921,2096921,163044,699739
2096921,2096921,163034,699938
2096921,2096921,163433,699962
2096921,2096921,163772,700308
2096921,2096921,163570,700478
2096921,2096921,163597,700132
2096921,2096921,163778,700384
2096921,2096921,163652,700458
2096921,2096921,163501,701050
2096921,2096921,163581,700843
2096921,2096921,163562,700859
2096921,2096921,163650,700831
2096921,2096921,163837,700952
2096921,2096921,163682,701220
2096921,2096921,163967,701577
2096921,2096921,163957,701783
2096921,2096921,163946,701610
2096921,2096921,164070,701440
2096921,2096921,163990,701961
2096921,2096921,164141,701863
2096921,2096921,163905,701867
2096921,2096921,163995,702099
2096921,2096921,164090,702245
2096921,2096921,164213,702363
2096921,2096921,163741,702490
2096921,2096921,163950,702721
2096921,2096921,164000,702730
2096921,2096921,164000,702558
2096921,2096921,163914,702624
2096921,2096921,163949,702755
2096921,2096921,164165,702557
2096921,2096921,164215,702612
2096921,2096921,164306,702483
2096921,2096921,164311,702667
2096921,2096921,164188,702821
2096921,2096921,164148,702945
2096921,2096921,164261,702918
2096921,2096921,164392,703172
2096921,2096921,164249,703091
2096921,2096921,164355,702948
2096921,2096921,164002,702682
2096921,2096921,164278,702938
2096921,2096921,164066,702749
2096921,2096921,164371,702759
2096921,2096921,164171,702720
2096921,2096921,164316,702831
2096921,2096921,164203,702912
2096921,2096921,164295,702691
2096921,2096921,164018,702743
2096921,2096921,163982,702804
2096921,2096921,163920,702737
2096921,2096921,163902,702953
2096921,2096921,163892,702833
2096921,2096921,163910,702768
2096921,2096921,164132,702472
2096921,2096921,164075,702277
2096921,2096921,163912,702435
2096921,2096921,163970,702569
2096921,2096921,164146,702255
2096921,2096921,164001,702318
2096921,2096921,164076,702292
2096921,2096921,163990,702377
2096921,2096921,164053,702087
2096921,2096921,164269,701953
2096921,2096921,164119,701801
2096921,2096921,163978,702106
2096921,2096921,164023,702104
2096921,2096921,164024,702138
2096921,2096921,164040,701994
2096921,2096921,164025,701604
2096921,2096921,163725,701846
2096921,2096921,163967,701689
2096921,2096921,163624,701821
2096921,2096921,163829,701951
2096921,2096921,163880,701962
2096921,2096921,164094,701883
2096921,2096921,164017,701856
2096921,2096921,163843,702002
2096921,2096921,163880,701827
2096921,2096921,163817,701738
2096921,2096921,163987,701637
2096921,2096921,163856,701994
2096921,2096921,163784,701619
2096921,2096921,164051,701848
2096921,2096921,163937,701842
2096921,2096921,164000,701786
2096921,2096921,163854,701801
2096921,2096921,163863,701690
2096921,2096921,163839,701812
2096921,2096921,164025,702013
2096921,2096921,163908,701795
2096921,2096921,163839,702110
2096921,2096921,164091,701733
2096921,2096921,164077,702254
2096921,2096921,164199,702040
2096921,2096921,163823,701963
2096921,2096921,164044,702112
2096921,2096921,164113,702062
2096921,2096921,164245,702092
2096921,2096921,164090,702723
2096921,2096921,163839,702194
2096921,2096921,163905,702572
2096921,2096921,164308,702398
2096921,2096921,163916,702971
2096921,2096921,164361,703055
2096921,2096921,164280,703194
2096921,2096921,164147,702908
2096921,2096921,164335,703037
2096921,2096921,164474,703114
2096921,2096921,164470,703439
2096921,2096921,164209,703272
2096921,2096921,164101,703439
2096921,2096921,164514,703415
2096921,2096921,164421,703542
2096921,2096921,164066,703765
2096921,2096921,164125,703764
2096921,2096921,164381,703592
2096921,2096921,164542,703851
2096921,2096921,164501,704087
2096921,2096921,164164,704075
2096921,2096921,164354,704250
2096921,2096921,164543,703884
2096921,2096921,164713,704255
2096921,2096921,164664,704482
2096921,2096921,164473,704294
2096921,2096921,164706,704467
2096921,2096921,164753,704527
2096921,2096921,164636,704364
2096921,2096921,164412,704183
2096921,2096921,164501,704324
2096921,2096921,164665,704445
2096921,2096921,164721,704614
2096921,2096921,164679,704724
2096921,2096921,164680,704931
2096921,2096921,164815,705102
2096921,2096921,164636,705081
2096921,2096921,164582,704930
2096921,2096921,164800,704984
2096921,2096921,164841,705200
2096921,2096921,164575,705511
2096921,2096921,164851,705606
2096921,2096921,164646,705937
2096921,2096921,164947,705751
2096921,2096921,164836,705694
2096921,2096921,165111,705583
2096921,2096921,164916,705711
2096921,2096921,165391,705681
2096921,2096921,164997,705536
2096921,2096921,165048,705967
2096921,2096921,165023,706119
2096921,2096921,165184,705758
2096921,2096921,164782,705733
2096921,2096921,165149,705716
2096921,2096921,165157,706244
2096921,2096921,165051,706439
2096921,2096921,165094,706409
2096921,2096921,164916,706474
2096921,2096921,164806,706494
2096921,2096921,165034,706342
2096921,2096921,164895,706816
2096921,2096921,165114,706648
2096921,2096921,165014,706789
2096921,2096921,165054,706678
2096921,2096921,164882,706543
2096921,2096921,165633,707002
2096921,2096921,165373,707030
2096921,2096921,165537,707040
2096921,2096921,165726,707016
2096921,2096921,165566,707123
2096921,2096921,165460,707123
2096921,2096921,165296,707245
2096921,2096921,165594,707105
2096921,2096921,165674,706855
2096921,2096921,165459,706958
2096921,2096921,165550,707197
2096921,2096921,165616,707349
2096921,2096921,165438,707574
2096921,2096921,165479,707740
2096921,2096921,165600,707944
2096921,2096921,165383,707701
2096921,2096921,165377,707826
2096921,2096921,165206,707545
2096921,2096921,165391,707828
2096921,2096921,165387,707864
2096921,2096921,165462,707879
2096921,2096921,165474,708112
2096921,2096921,165609,707820
2096921,2096921,165409,708367
2096921,2096921,165448,708460
2096921,2096921,165452,708395
2096921,2096921,165344,708211
2096921,2096921,165257,708272
2096921,2096921,165478,708488
2096921,2096921,165542,708329
2096921,2096921,165422,708369
2096921,2096921,165543,708349
2096921,2096921,165576,708152
2096921,2096921,165583,708250
2096921,2096921,165570,708371
2096921,2096921,165619,708248
2096921,2096921,165617,708157
2096921,2096921,165735,708194
2096921,2096921,165662,708539
2096921,2096921,165902,708833
2096921,2096921,165817,708787
2096921,2096921,165625,708736
2096921,2096921,165466,708783
2096921,2096921,165376,708788
2096921,2096921,165669,708745
2096921,2096921,165831,708903
2096921,2096921,165816,708819
2096921,2096921,165530,708599
2096921,2096921,165593,708791
2096921,2096921,166063,708868
2096921,2096921,165820,709114
2096921,2096921,165947,709182
2096921,2096921,165776,708931
2096921,2096921,165798,708849
2096921,2096921,165950,708865
2096921,2096921,165722,708944
2096921,2096921,165781,708955
2096921,2096921,165617,709161
2096921,2096921,165609,709241
2096921,2096921,165746,709234
2096921,2096921,165771,709041
2096921,2096921,165888,709411
2096921,2096921,165704,709509
2096921,2096921,165875,709614
2096921,2096921,165566,709452
2096921,2096921,165672,708985
2096921,2096921,165756,709465
2096921,2096921,165660,709345
2096921,2096921,165758,709194
2096921,2096921,165938,709424
2096921,2096921,165910,709237
2096921,2096921,165837,709427
2096921,2096921,165691,709264
2096921,2096921,165842,709299
2096921,2096921,165901,709421
2096921,2096921,165749,709616
2096921,2096921,165655,709334
2096921,2096921,165644,709209
2096921,2096921,165561,709271
2096921,2096921,165851,709452
2096921,2096921,165628,709164
2096921,2096921,166219,709626
2096921,2096921,165786,709303
2096921,2096921,165798,709680
2096921,2096921,165809,709529
2096921,2096921,165703,709523
2096921,2096921,165882,709477
2096921,2096921,165776,709464
2096921,2096921,165800,709442
2096921,2096921,165619,709383
2096921,2096921,165496,709556
2096921,2096921,165960,709741
2096921,2096921,165937,709568
2096921,2096921,165990,709552
2096921,2096921,165822,709683
2096921,2096921,166194,709380
2096921,2096921,166024,709681
2096921,2096921,165981,709619
2096921,2096921,165915,709537
2096921,2096921,165835,709503
2096921,2096921,165690,709834
2096921,2096921,165955,709774
2096921,2096921,166061,709566
2096921,2096921,166015,709563
2096921,2096921,166184,709650
2096921,2096921,165885,709775
2096921,2096921,165903,709721
2096921,2096921,165781,709855
2096921,2096921,166005,709889
2096921,2096921,166125,709348
2096921,2096921,166145,709397
2096921,2096921,166201,709721
2096921,2096921,165898,709647
2096921,2096921,165901,709745
2096921,2096921,166039,709649
2096921,2096921,166029,709807
2096921,2096921,165921,709612
2096921,2096921,165704,709831
2096921,2096921,166232,709461
2096921,2096921,166001,709496
2096921,2096921,165934,709463
2096921,2096921,165845,710051
2096921,2096921,165796,709699
2096921,2096921,166297,709705
2096921,2096921,166015,709625
2096921,2096921,166072,710196
2096921,2096921,166095,709534
2096921,2096921,165569,709858
2096921,2096921,165546,709661
2096921,2096921,165818,709832
2096921,2096921,166168,709735
2096921,2096921,166090,709751
2096921,2096921,166003,709500
2096921,2096921,166111,709694
2096921,2096921,165666,709734
2096921,2096921,165894,709413
2096921,2096921,165878,709609
2096921,2096921,165992,709784
2096921,2096921,165771,709352
2096921,2096921,166159,709280
2096921,2096921,165921,709687
2096921,2096921,165797,709729
2096921,2096921,165925,709912
2096921,2096921,165974,709703
2096921,2096921,165944,709988
2096921,2096921,165822,709788
2096921,2096921,165950,709599
2096921,2096921,165758,709709
2096921,2096921,165906,709405
2096921,2096921,165993,709559
2096921,2096921,166241,709807
2096921,2096921,166334,709770
2096921,2096921,165758,709602
2096921,2096921,166036,710150
2096921,2096921,165869,709681
2096921,2096921,165704,709779
2096921,2096921,165811,709619
2096921,2096921,165827,709731
2096921,2096921,165886,709856
2096921,2096921,165698,709482
2096921,2096921,165911,709475
2096921,2096921,165835,709449
2096921,2096921,166065,709650
2096921,2096921,165825,709519
2096921,2096921,166044,709404
2096921,2096921,166008,709395
2096921,2096921,166211,709659
2096921,2096921,165886,709726
2096921,2096921,166198,709408
2096921,2096921,166036,709418
2096921,2096921,166167,709234
2096921,2096921,166356,709476
2096921,2096921,165815,709442
2096921,2096921,165713,709587
2096921,2096921,165615,709279
2096921,2096921,165889,709541
2096921,2096921,165887,709358
2096921,2096921,165781,709557
2096921,2096921,166030,709484
2096921,2096921,165561,709360
2096921,2096921,165673,709259
2096921,2096921,165784,709144
2096921,2096921,165608,709296
2096921,2096921,165799,709356
2096921,2096921,165918,709260
2096921,2096921,165883,709378
2096921,2096921,165950,708713
2096921,2096921,165568,708864
2096921,2096921,165782,709145
2096921,2096921,165788,708904
2096921,2096921,165554,709132
2096921,2096921,165833,709245
2096921,2096921,166100,709079
2096921,2096921,165822,709380
2096921,2096921,165903,708926
2096921,2096921,165707,708942
2096921,2096921,165621,708823
2096921,2096921,165751,708984
2096921,2096921,165613,708926
2096921,2096921,165492,708568
2096921,2096921,165681,708466
2096921,2096921,165449,708236
2096921,2096921,165206,708094
2096921,2096921,165445,708112
2096921,2096921,165432,707627
2096921,2096921,165090,707494
2096921,2096921,165531,707797
2096921,2096921,165374,707841
2096921,2096921,165282,707522
2096921,2096921,165587,706717
2096921,2096921,165389,706490
2096921,2096921,165425,706609
2096921,2096921,165348,706892
2096921,2096921,165034,706654
2096921,2096921,164659,705375
2096921,2096921,164913,705077
2096921,2096921,164905,705234
2096921,2096921,164695,705215
2096921,2096921,164628,705360
2096921,2096921,164624,703777
2096921,2096921,164833,704045
2096921,2096921,164465,703923
2096921,2096921,164552,703672
2096921,2096921,163665,703828
2096921,2096921,163734,701510
2096921,2096921,163464,700961
2096921,2096921,163480,700840
2096921,2096921,163403,700759
2096921,2096921,162765,700674
2096921,2096921,162715,697770
2096921,2096921,162725,696996
2096921,2096921,162584,696951
2096921,2096921,162422,697051
2096921,2096921,162076,696990
2096921,2096921,161970,695012
2096921,2096921,161808,694598
2096921,2096921,161885,694674
2096921,2096921,161699,694038
2096921,2096921,161606,694295
2096921,2096921,161548,692474
2096921,2096921,161502,692118
2096921,2096921,161605,691788
2096921,2096921,161228,692087
2096921,2096921,160891,691886
2096921,2096921,160788,690713
2096921,2096921,160771,690405
2096921,2096921,160902,690377
2096921,2096921,161042,690119
2096921,2096921,160633,690352
2096921,2096921,160643,689399
2096921,2096921,160545,689278
2096921,2096921,160679,689354
2096921,2096921,160735,689309
2096921,2096921,160412,689356
2096921,2096921,160419,688477
2096921,2096921,160415,688651
2096921,2096921,160314,688323
2096921,2096921,160567,688310
2096921,2096921,160264,688548
2096921,2096921,160332,687821
2096921,2096921,160251,687721
2096921,2096921,160245,687946
2096921,2096921,160363,687944
2096921,2096921,160325,687841
2096921,2096921,160162,687502
2096921,2096921,160173,687455
2096921,2096921,159983,687527
2096921,2096921,160107,687718
2096921,2096921,160111,687402
2096921,2096921,160351,687292
2096921,2096921,160065,687712
2096921,2096921,160361,687243
2096921,2096921,160452,687501
2096921,2096921,160298,687461
2096921,2096921,160385,687565
2096921,2096921,160273,687334
2096921,2096921,160354,687831
2096921,2096921,160251,687551
2096921,2096921,160500,687796
2096921,2096921,160845,687794
2096921,2096921,160712,687546
2096921,2096921,160407,687901
2096921,2096921,160203,687758
2096921,2096921,160657,687784
2096921,2096921,160295,687620
2096921,2096921,160184,687833
2096921,2096921,160391,687769
2096921,2096921,160389,687974
2096921,2096921,160238,688135
2096921,2096921,160647,688553
2096921,2096921,160658,688515
2096921,2096921,160406,688335
2096921,2096921,160144,688405
2096921,2096921,160760,688629
2096921,2096921,160509,689112
2096921,2096921,160600,688975
2096921,2096921,160412,688687
2096921,2096921,160269,688808
2096921,2096921,160690,688646
2096921,2096921,160909,688988
2096921,2096921,160913,689086
2096921,2096921,160924,689538
2096921,2096921,160612,689379
2096921,2096921,161193,689540
2096921,2096921,160811,689879
2096921,2096921,160899,690087
2096921,2096921,160635,690127
2096921,2096921,161013,690427
2096921,2096921,161132,689846
2096921,2096921,160897,690473
2096921,2096921,160731,690641
2096921,2096921,160742,691179
2096921,2096921,160773,690684
2096921,2096921,160852,690734
2096921,2096921,160856,690928
2096921,2096921,160871,691258
2096921,2096921,161071,691478
2096921,2096921,161055,691338
2096921,2096921,161367,691308
2096921,2096921,161568,691783
2096921,2096921,161367,691651
2096921,2096921,161586,691911
2096921,2096921,161494,691522
2096921,2096921,161573,691598
2096921,2096921,161674,692004
2096921,2096921,161668,692078
2096921,2096921,161549,691811
2096921,2096921,161402,692220
2096921,2096921,161501,692305
2096921,2096921,161605,692981
2096921,2096921,161314,693025
2096921,2096921,161523,692852
2096921,2096921,161566,692833
2096921,2096921,161493,693124
2096921,2096921,161739,693280
2096921,2096921,161635,693603
2096921,2096921,161553,693469
2096921,2096921,161592,693868
2096921,2096921,161715,693578
2096921,2096921,162028,694372
2096921,2096921,161914,694177
2096921,2096921,162100,694440
2096921,2096921,161823,694013
2096921,2096921,162214,694232
2096921,2096921,162097,694625
2096921,2096921,162101,694748
2096921,2096921,162194,694761
2096921,2096921,162183,694885
2096921,2096921,162497,694677
2096921,2096921,162401,694923
2096921,2096921,162289,695339
2096921,2096921,162278,695304
2096921,2096921,162136,695251
2096921,2096921,162262,695042
2096921,2096921,162523,695390
2096921,2096921,162217,695547
2096921,2096921,162172,695791
2096921,2096921,162261,695809
2096921,2096921,162199,695937
2096921,2096921,162586,696062
2096921,2096921,162705,695962
2096921,2096921,162464,695947
2096921,2096921,162202,695804
2096921,2096921,162232,696196
2096921,2096921,162702,696011
2096921,2096921,162379,696130
2096921,2096921,162832,696107
2096921,2096921,162320,696027
2096921,2096921,162662,695825
2096921,2096921,162521,696323
2096921,2096921,162476,696375
2096921,2096921,162322,696324
2096921,2096921,162727,696502
2096921,2096921,162896,696448
2096921,2096921,162670,696354
2096921,2096921,162402,696419
2096921,2096921,162589,696425
2096921,2096921,162521,696562
2096921,2096921,162599,696304
2096921,2096921,162470,696230
2096921,2096921,162821,696276
2096921,2096921,162325,696413
2096921,2096921,162615,696054
2096921,2096921,162561,696248
2096921,2096921,162339,695767
2096921,2096921,162419,695794
2096921,2096921,162666,696171
2096921,2096921,162526,695937
2096921,2096921,162668,695946
2096921,2096921,162557,695821
2096921,2096921,162421,695665
2096921,2096921,162071,695833
2096921,2096921,162542,695989
2096921,2096921,162287,695922
2096921,2096921,162456,695775
2096921,2096921,162088,695856
2096921,2096921,162136,695577
2096921,2096921,162141,695485
2096921,2096921,162290,695444
2096921,2096921,162197,695557
2096921,2096921,162219,695521
2096921,2096921,162557,695331
2096921,2096921,162448,695367
2096921,2096921,162317,695245
2096921,2096921,162328,695283
2096921,2096921,162591,695286
2096921,2096921,162201,695093
2096921,2096921,162313,694991
2096921,2096921,162333,694930
2096921,2096921,162289,694849
2096921,2096921,162217,695233
2096921,2096921,162352,694913
2096921,2096921,162388,695075
2096921,2096921,162367,695105
2096921,2096921,162096,695149
2096921,2096921,161764,695188
2096921,2096921,162215,695129
2096921,2096921,161935,695070
2096921,2096921,161967,694847
2096921,2096921,162144,694909
2096921,2096921,162153,695043
2096921,2096921,162300,694779
2096921,2096921,162438,695171
2096921,2096921,161943,695055
2096921,2096921,162514,695206
2096921,2096921,162367,694952
2096921,2096921,162639,694721
2096921,2096921,162252,694934
2096921,2096921,162312,695231
2096921,2096921,162432,695129
2096921,2096921,162702,695441
2096921,2096921,162207,695439
2096921,2096921,162187,695405
2096921,2096921,162304,695274
2096921,2096921,162620,695806
2096921,2096921,162265,695815
2096921,2096921,162266,695509
2096921,2096921,162224,695775
2096921,2096921,162279,695599
2096921,2096921,162703,695928
2096921,2096921,162643,696360
2096921,2096921,162677,696271
2096921,2096921,162589,696418
2096921,2096921,162694,696152
2096921,2096921,162603,696670
2096921,2096921,162749,696730
2096921,2096921,162983,696461
2096921,2096921,162790,696684
2096921,2096921,162531,696692
2096921,2096921,162585,697097
2096921,2096921,162405,697325
2096921,2096921,162533,696961
2096921,2096921,162540,697315
2096921,2096921,162462,696886
2096921,2096921,162698,697385
2096921,2096921,162781,697415
2096921,2096921,162847,697532
2096921,2096921,162969,697435
2096921,2096921,163003,697652
2096921,2096921,163160,697703
2096921,2096921,162866,698017
2096921,2096921,163109,697949
2096921,2096921,163052,698004
2096921,2096921,163181,697779
2096921,2096921,162925,698029
2096921,2096921,163263,698441
2096921,2096921,163089,698126
2096921,2096921,163230,698254
2096921,2096921,163007,698153
2096921,2096921,163575,698366
2096921,2096921,163388,698908
2096921,2096921,163329,698723
2096921,2096921,162932,698753
2096921,2096921,162903,698675
2096921,2096921,163098,699016
2096921,2096921,163282,698915
2096921,2096921,163239,699016
2096921,2096921,163387,699136
2096921,2096921,163368,698870
2096921,2096921,163439,699283
2096921,2096921,163352,699372
2096921,2096921,163301,699263
2096921,2096921,163236,699557
2096921,2096921,163674,699290
2096921,2096921,163376,699398
2096921,2096921,163315,699567
2096921,2096921,163255,699844
2096921,2096921,163613,699910
2096921,2096921,163439,699863
2096921,2096921,163536,699914
2096921,2096921,163607,700066
2096921,2096921,163588,700267
2096921,2096921,163527,700486
2096921,2096921,163766,700135
2096921,2096921,163357,700285
2096921,2096921,163531,700369
2096921,2096921,163522,700218
2096921,2096921,163325,700071
2096921,2096921,163398,700262
2096921,2096921,163519,700669
2096921,2096921,163638,700829
2096921,2096921,163700,700674
2096921,2096921,163749,700574
2096921,2096921,163695,700643
2096921,2096921,163791,701037
2096921,2096921,163603,701173
2096921,2096921,163736,700873
2096921,2096921,164021,700826
2096921,2096921,163906,700974
2096921,2096921,163852,701390
2096921,2096921,163927,701382
2096921,2096921,163927,701482
2096921,2096921,164503,701311
2096921,2096921,164034,701507
2096921,2096921,163962,701624
2096921,2096921,163977,701628
2096921,2096921,163940,701768
2096921,2096921,164082,701622
2096921,2096921,164019,701379
2096921,2096921,164159,701932
2096921,2096921,163988,702127
2096921,2096921,164136,701871
2096921,2096921,164165,701874
2096921,2096921,164126,701974
2096921,2096921,163939,702331
2096921,2096921,163955,702562
2096921,2096921,164128,702141
2096921,2096921,164178,702117
2096921,2096921,164007,702317
2096921,2096921,164490,702535
2096921,2096921,164065,702526
2096921,2096921,163870,702582
2096921,2096921,163904,702642
2096921,2096921,163839,702699
2096921,2096921,164056,702606
2096921,2096921,164196,702899
2096921,2096921,164314,703061
2096921,2096921,164305,702924
2096921,2096921,164304,702607
2096921,2096921,164309,702918
2096921,2096921,164233,702838
2096921,2096921,164186,703017
2096921,2096921,164270,703073
2096921,2096921,164393,703193
2096921,2096921,164490,703253
2096921,2096921,164450,703388
2096921,2096921,164526,703224
2096921,2096921,164471,703058
2096921,2096921,164206,703032
2096921,2096921,164295,703181
2096921,2096921,164262,703304
2096921,2096921,164236,703104
2096921,2096921,164497,703479
2096921,2096921,164518,703311
2096921,2096921,164514,703557
2096921,2096921,164378,703836
2096921,2096921,164315,703746
2096921,2096921,164407,703941
2096921,2096921,164423,704033
2096921,2096921,164495,704225
2096921,2096921,164514,704072
2096921,2096921,164371,704155
2096921,2096921,164482,703911
2096921,2096921,164274,703887
2096921,2096921,164331,703579
2096921,2096921,164663,703959
2096921,2096921,164623,704019
2096921,2096921,164743,703870
2096921,2096921,164277,704008
2096921,2096921,164585,703957
2096921,2096921,164692,704136
2096921,2096921,164529,704372
2096921,2096921,164823,704518
2096921,2096921,164939,704216
2096921,2096921,164580,704369
2096921,2096921,164530,704567
2096921,2096921,164505,704372
2096921,2096921,164228,704367
2096921,2096921,164510,704209
2096921,2096921,164457,704503
2096921,2096921,164672,704426
2096921,2096921,164603,704514
2096921,2096921,164783,704647
2096921,2096921,164708,704558
2096921,2096921,164820,704805
2096921,2096921,164777,704434
2096921,2096921,164951,704727
2096921,2096921,164919,704570
2096921,2096921,164906,704795
2096921,2096921,164654,704707
2096921,2096921,164492,704882
2096921,2096921,164760,704708
2096921,2096921,164744,704729
2096921,2096921,164910,704841
2096921,2096921,164870,704777
2096921,2096921,164602,705121
2096921,2096921,165045,704771
2096921,2096921,164529,704845
2096921,2096921,164979,704951
2096921,2096921,164756,704971
2096921,2096921,164876,704950
2096921,2096921,165056,704940
2096921,2096921,164728,704900
2096921,2096921,164524,705169
2096921,2096921,164957,704838
2096921,2096921,164756,704806
2096921,2096921,164876,705149
2096921,2096921,164977,704951
2096921,2096921,164984,704722
2096921,2096921,164952,704969
2096921,2096921,164817,705331
2096921,2096921,164980,705455
2096921,2096921,165024,705248
2096921,2096921,164785,705241
2096921,2096921,164897,705489
2096921,2096921,164700,705424
2096921,2096921,164765,705290
2096921,2096921,164999,705254
2096921,2096921,164769,705229
2096921,2096921,165024,705323
2096921,2096921,165155,705577
2096921,2096921,165143,705518
2096921,2096921,164831,705562
2096921,2096921,165175,705432
2096921,2096921,165031,705642
2096921,2096921,165124,705489
2096921,2096921,164860,705309
2096921,2096921,164791,705261
2096921,2096921,164964,705811
2096921,2096921,164936,705603
2096921,2096921,164985,705804
2096921,2096921,165089,705710
2096921,2096921,165262,705718
2096921,2096921,165074,705575
2096921,2096921,165072,705582
2096921,2096921,164834,705676
2096921,2096921,165015,705792
2096921,2096921,164817,705716
2096921,2096921,164846,705667
2096921,2096921,165104,705767
2096921,2096921,165080,705808
2096921,2096921,165197,705928
2096921,2096921,165109,706012
2096921,2096921,165096,706163
2096921,2096921,164977,706238
2096921,2096921,164969,706173
2096921,2096921,165036,706305
2096921,2096921,164968,706124
2096921,2096921,164875,706055
2096921,2096921,164877,706150
2096921,2096921,164929,705919
2096921,2096921,164902,706063
2096921,2096921,165244,706001
2096921,2096921,165046,706141
2096921,2096921,165195,706148
2096921,2096921,165135,706159
2096921,2096921,165405,705926
2096921,2096921,165463,705941
2096921,2096921,165218,706102
2096921,2096921,165251,705980
2096921,2096921,165183,706343
2096921,2096921,165167,706202
2096921,2096921,165132,705961
2096921,2096921,165156,705998
2096921,2096921,165119,705978
2096921,2096921,164866,706208
2096921,2096921,165007,706065
2096921,2096921,165147,706158
2096921,2096921,165066,705949
2096921,2096921,165262,706291
2096921,2096921,165147,706247
2096921,2096921,164878,706329
2096921,2096921,164907,706395
2096921,2096921,165014,706346
2096921,2096921,164733,706326
2096921,2096921,164974,706261
2096921,2096921,164997,706091
2096921,2096921,164901,706223
2096921,2096921,165083,706252
2096921,2096921,165019,706220
2096921,2096921,164860,706489
2096921,2096921,164807,706263
2096921,2096921,164988,706186
2096921,2096921,165237,706360
2096921,2096921,164931,706303
2096921,2096921,165029,706098
2096921,2096921,165251,706263
2096921,2096921,165443,706242
2096921,2096921,165279,706310
2096921,2096921,165524,706155
2096921,2096921,165423,706098
2096921,2096921,165247,706394
2096921,2096921,165028,706359
2096921,2096921,165135,706183
2096921,2096921,164918,706481
2096921,2096921,164909,706656
2096921,2096921,164972,706313
2096921,2096921,164926,706357
2096921,2096921,164998,706323
2096921,2096921,164995,705997
2096921,2096921,164974,705849
2096921,2096921,164961,705782
2096921,2096921,164971,705492
2096921,2096921,165064,705518
2096921,2096921,165032,705317
2096921,2096921,164704,705270
2096921,2096921,164789,705121
2096921,2096921,165036,704860
2096921,2096921,164761,705098
2096921,2096921,165017,704576
2096921,2096921,164923,704570
2096921,2096921,164576,704644
2096921,2096921,164750,704344
2096921,2096921,164461,704691
2096921,2096921,164080,703715
2096921,2096921,164356,702946
2096921,2096921,164076,703243
2096921,2096921,164206,702897
2096921,2096921,164075,703347
2096921,2096921,163832,702157
2096921,2096921,163815,701768
2096921,2096921,164161,701747
2096921,2096921,163954,701492
2096921,2096921,163348,701601
2096921,2096921,163139,699324
2096921,2096921,162966,699027
2096921,2096921,163335,699053
2096921,2096921,163192,698835
2096921,2096921,162666,699149
2096921,2096921,162461,696049
2096921,2096921,162220,695565
2096921,2096921,162312,695647
2096921,2096921,162460,695581
2096921,2096921,161577,695536
2096921,2096921,161480,693488
2096921,2096921,161411,692861
2096921,2096921,161251,692496
2096921,2096921,161362,692663
2096921,2096921,161549,692791
2096921,2096921,161231,691428
2096921,2096921,160951,690847
2096921,2096921,161043,690553
2096921,2096921,160981,690526
2096921,2096921,160597,690615
2096921,2096921,160713,689340
2096921,2096921,160507,689330
2096921,2096921,160650,689044
2096921,2096921,160588,689141
2096921,2096921,160691,688952
2096921,2096921,160650,688216
2096921,2096921,160419,688165
2096921,2096921,160477,688348
2096921,2096921,160604,688093
2096921,2096921,160226,688271
2096921,2096921,160208,687597
2096921,2096921,160276,687451
2096921,2096921,160262,687187
2096921,2096921,159946,687517
2096921,2096921,159885,687649
2096921,2096921,160076,687226
2096921,2096921,160061,687058
2096921,2096921,160035,687067
2096921,2096921,160179,687023
2096921,2096921,159853,687131
2096921,2096921,159655,687128
2096921,2096921,159911,686634
2096921,2096921,159817,686711
2096921,2096921,159910,686671
2096921,2096921,159846,686887
2096921,2096921,160294,687081
2096921,2096921,160094,687207
2096921,2096921,159748,687043
2096921,2096921,160278,686950
2096921,2096921,160368,687151
2096921,2096921,160422,687155
2096921,2096921,160256,687199
2096921,2096921,160060,686854
2096921,2096921,159984,687153
2096921,2096921,160411,687251
2096921,2096921,160090,687255
2096921,2096921,160448,687352
2096921,2096921,160401,687701
2096921,2096921,160186,687491
2096921,2096921,160207,687624
2096921,2096921,160317,687989
2096921,2096921,160030,687507
2096921,2096921,160309,688009
2096921,2096921,160119,687823
2096921,2096921,160729,687956
2096921,2096921,160330,688273
2096921,2096921,160364,688532
2096921,2096921,160583,688298
2096921,2096921,160529,688074
2096921,2096921,160535,688392
2096921,2096921,160668,688830
2096921,2096921,160503,688867
2096921,2096921,160629,689019
2096921,2096921,160606,689300
2096921,2096921,160787,689240
2096921,2096921,160692,689488
2096921,2096921,160748,689735
2096921,2096921,160815,689884
2096921,2096921,160889,689708
2096921,2096921,160989,689680
2096921,2096921,161077,690099
2096921,2096921,160995,690206
2096921,2096921,161040,690588
2096921,2096921,160769,690684
2096921,2096921,161271,690556
2096921,2096921,161207,691511
2096921,2096921,161091,691241
2096921,2096921,161338,691570
2096921,2096921,161185,691451
2096921,2096921,161403,691228
2096921,2096921,161484,691845
2096921,2096921,161348,692178
2096921,2096921,161336,692013
2096921,2096921,161395,692034
2096921,2096921,161584,691894
2096921,2096921,161574,692247
2096921,2096921,161779,692487
2096921,2096921,161538,692115
2096921,2096921,161738,692575
2096921,2096921,161779,692553
2096921,2096921,161674,693066
2096921,2096921,161628,693250
2096921,2096921,161670,693208
2096921,2096921,161621,693433
2096921,2096921,162008,693407
2096921,2096921,161829,693874
2096921,2096921,162176,694096
2096921,2096921,161755,694083
2096921,2096921,161886,693932
2096921,2096921,161680,694075
2096921,2096921,161892,694501
2096921,2096921,162159,694726
2096921,2096921,162108,694702
2096921,2096921,162035,694604
2096921,2096921,162312,694804
2096921,2096921,162224,695281
2096921,2096921,162534,695575
2096921,2096921,162453,695600
2096921,2096921,162414,695749
2096921,2096921,162537,695786
2096921,2096921,162493,696398
2096921,2096921,162320,696394
2096921,2096921,162304,696492
2096921,2096921,162398,696201
2096921,2096921,162520,696034
2096921,2096921,162711,697013
2096921,2096921,162764,697082
2096921,2096921,162790,696976
2096921,2096921,162804,697001
2096921,2096921,162729,697226
2096921,2096921,162721,697332
2096921,2096921,162667,697376
2096921,2096921,162783,697635
2096921,2096921,162723,697421
2096921,2096921,162685,697517
2096921,2096921,163012,697876
2096921,2096921,163041,697895
2096921,2096921,163163,697936
2096921,2096921,163075,698066
2096921,2096921,163129,698034
2096921,2096921,162937,698201
2096921,2096921,162827,697965
2096921,2096921,163112,698327
2096921,2096921,162897,698494
2096921,2096921,163123,698297
2096921,2096921,163083,698468
2096921,2096921,163034,698871
2096921,2096921,163343,698717
2096921,2096921,163141,698591
2096921,2096921,163072,698475
2096921,2096921,163072,698750
2096921,2096921,163000,698736
2096921,2096921,162662,698630
2096921,2096921,162907,698363
2096921,2096921,163501,698253
2096921,2096921,163396,698566
2096921,2096921,163038,698721
2096921,2096921,163388,698751
2096921,2096921,163093,698767
2096921,2096921,163183,698876
2096921,2096921,162937,698970
2096921,2096921,162999,698970
2096921,2096921,163078,698971
2096921,2096921,162904,698732
2096921,2096921,162782,698745
2096921,2096921,162988,698906
2096921,2096921,162939,698814
2096921,2096921,162932,698658
2096921,2096921,162975,698637
2096921,2096921,162943,698560
2096921,2096921,162970,698425
2096921,2096921,162941,698359
2096921,2096921,162960,698253
2096921,2096921,162956,698466
2096921,2096921,162951,698295
2096921,2096921,163076,698047
2096921,2096921,162988,698241
2096921,2096921,163261,698289
2096921,2096921,162914,698294
2096921,2096921,162891,698555
2096921,2096921,163044,698067
2096921,2096921,162705,698322
2096921,2096921,162755,698310
2096921,2096921,162745,698245
2096921,2096921,162698,698095
2096921,2096921,163169,698324
2096921,2096921,163060,698214
2096921,2096921,163002,698297
2096921,2096921,163212,698375
2096921,2096921,163051,698168
2096921,2096921,162686,698465
2096921,2096921,162822,698514
2096921,2096921,162975,698395
2096921,2096921,163204,697951
2096921,2096921,163084,698225
2096921,2096921,163154,698313
2096921,2096921,162965,698430
2096921,2096921,163038,698399
2096921,2096921,162842,698382
2096921,2096921,163159,698408
2096921,2096921,163057,698649
2096921,2096921,163060,698785
2096921,2096921,162907,698882
2096921,2096921,163307,698906
2096921,2096921,163032,698602
2096921,2096921,163092,699160
2096921,2096921,162956,699246
2096921,2096921,163228,698914
2096921,2096921,163444,698969
2096921,2096921,163283,699069
2096921,2096921,163286,699202
2096921,2096921,163464,699536
2096921,2096921,163301,699823
2096921,2096921,163316,699677
2096921,2096921,163599,699673
2096921,2096921,163362,700004
2096921,2096921,163599,699904
2096921,2096921,163672,700366
2096921,2096921,163671,700259
2096921,2096921,163743,700413
2096921,2096921,163851,700416
2096921,2096921,163596,700616
2096921,2096921,163513,700214
2096921,2096921,163638,700710
2096921,2096921,163382,700830
2096921,2096921,163796,701271
2096921,2096921,163472,701187
2096921,2096921,163791,701322
2096921,2096921,163908,701358
2096921,2096921,164081,701366
2096921,2096921,164052,701603
2096921,2096921,163746,701550
2096921,2096921,163866,701841
2096921,2096921,163890,701807
2096921,2096921,163874,701653
2096921,2096921,163864,702201
2096921,2096921,164201,702411
2096921,2096921,164161,702263
2096921,2096921,163842,702235
2096921,2096921,163951,702265
2096921,2096921,163991,702519
2096921,2096921,164101,702389
2096921,2096921,164099,702644
2096921,2096921,164124,702703
2096921,2096921,164359,702461
2096921,2096921,164323,702825
2096921,2096921,164489,702906
2096921,2096921,164337,702801
2096921,2096921,164304,702809
2096921,2096921,164262,703168
2096921,2096921,164260,703526
2096921,2096921,164317,703653
2096921,2096921,164182,703676
2096921,2096921,164144,703766
2096921,2096921,164320,703750
2096921,2096921,164372,703833
2096921,2096921,164395,704374
2096921,2096921,164420,704378
2096921,2096921,164387,704165
2096921,2096921,164604,704285
2096921,2096921,164553,704426
2096921,2096921,164759,704540
2096921,2096921,164534,704284
2096921,2096921,164554,704137
2096921,2096921,164718,704030
2096921,2096921,164476,704787
2096921,2096921,164647,704968
2096921,2096921,164742,704991
2096921,2096921,164559,704707
2096921,2096921,164781,704614
2096921,2096921,164896,705268
2096921,2096921,164644,705417
2096921,2096921,164573,705126
2096921,2096921,164520,705307
2096921,2096921,164761,705195
2096921,2096921,164674,705696
2096921,2096921,164852,705560
2096921,2096921,165055,705710
2096921,2096921,164965,705665
2096921,2096921,165031,705884
2096921,2096921,164953,705950
2096921,2096921,165147,706178
2096921,2096921,165186,706090
2096921,2096921,164902,705944
2096921,2096921,165315,706004
2096921,2096921,165354,706555
2096921,2096921,165263,706500
2096921,2096921,165099,706612
2096921,2096921,165035,706805
2096921,2096921,165143,706556
2096921,2096921,165252,707117
2096921,2096921,165315,706935
2096921,2096921,165328,706768
2096921,2096921,165216,707106
2096921,2096921,165502,707422
2096921,2096921,165236,707228
2096921,2096921,165567,707151
2096921,2096921,165335,707402
2096921,2096921,165407,707487
2096921,2096921,165310,707624
2096921,2096921,165594,707405
2096921,2096921,165734,707618
2096921,2096921,165456,707610
2096921,2096921,165295,707696
2096921,2096921,165548,707607
2096921,2096921,165347,707988
2096921,2096921,165512,708011
2096921,2096921,165303,708069
2096921,2096921,165775,708162
2096921,2096921,165619,707798
2096921,2096921,165555,708335
2096921,2096921,165472,708091
2096921,2096921,165814,708230
2096921,2096921,165442,708510
2096921,2096921,165541,708141
2096921,2096921,165689,708537
2096921,2096921,165592,708628
2096921,2096921,165619,708356
2096921,2096921,165742,708785
2096921,2096921,165757,708397
2096921,2096921,165974,708747
2096921,2096921,165830,708818
2096921,2096921,165736,708872
2096921,2096921,165632,708838
2096921,2096921,165845,708922
2096921,2096921,165530,709217
2096921,2096921,165732,709590
2096921,2096921,165943,709400
2096921,2096921,165695,709559
2096921,2096921,165873,709422
2096921,2096921,165432,709250
2096921,2096921,165502,709197
2096921,2096921,165452,709223
2096921,2096921,166021,709232
2096921,2096921,165873,709316
2096921,2096921,165964,709388
2096921,2096921,166104,709388
2096921,2096921,166013,709859
2096921,2096921,165806,709897
2096921,2096921,165792,709664
2096921,2096921,165986,710057
2096921,2096921,165943,709912
2096921,2096921,165860,710306
2096921,2096921,165890,710212
2096921,2096921,166202,710226
2096921,2096921,165919,710164
2096921,2096921,165984,710402
2096921,2096921,166003,710073
2096921,2096921,166359,710262
2096921,2096921,166378,710408
2096921,2096921,166266,710602
2096921,2096921,166130,710647
2096921,2096921,166349,710480
2096921,2096921,166182,710434
2096921,2096921,166286,710355
2096921,2096921,166244,710601
2096921,2096921,166189,710849
2096921,2096921,165827,710760
2096921,2096921,166113,710819
2096921,2096921,166576,710480
2096921,2096921,166337,710719
2096921,2096921,166196,710616
2096921,2096921,166148,710764
2096921,2096921,166135,710922
2096921,2096921,166314,711023
2096921,2096921,166469,711083
2096921,2096921,166418,711085
2096921,2096921,165971,711033
2096921,2096921,166030,711251
2096921,2096921,166380,711046
2096921,2096921,166475,711005
2096921,2096921,166234,711177
2096921,2096921,166205,711349
2096921,2096921,166245,711143
2096921,2096921,166435,711447
2096921,2096921,166478,711369
2096921,2096921,166396,711502
2096921,2096921,166541,711366
2096921,2096921,166345,711397
2096921,2096921,166373,711493
2096921,2096921,166030,711523
2096921,2096921,166508,711498
2096921,2096921,166152,711672
2096921,2096921,166679,711730
2096921,2096921,166399,711407
2096921,2096921,166629,711790
2096921,2096921,166481,711984
2096921,2096921,166833,711979
2096921,2096921,166811,711682
2096921,2096921,166440,711481
2096921,2096921,166534,711772
2096921,2096921,166727,711701
2096921,2096921,166554,711844
2096921,2096921,166309,712002
2096921,2096921,166404,712149
2096921,2096921,166719,712236
2096921,2096921,166692,712181
2096921,2096921,166571,712231
2096921,2096921,166452,712352
2096921,2096921,166690,712146
2096921,2096921,166495,712174
2096921,2096921,166559,712328
2096921,2096921,166215,712139
2096921,2096921,166419,711856
2096921,2096921,166391,712213
2096921,2096921,166664,712280
2096921,2096921,166570,712447
2096921,2096921,166585,712454
2096921,2096921,166891,712637
2096921,2096921,167037,712539
2096921,2096921,166610,712721
2096921,2096921,166838,712772
2096921,2096921,166390,712625
2096921,2096921,166635,712627
2096921,2096921,166551,712549
2096921,2096921,166817,712640
2096921,2096921,166994,712554
2096921,2096921,166724,712668
2096921,2096921,166531,712639
2096921,2096921,166891,712344
2096921,2096921,166413,712505
2096921,2096921,166480,712690
2096921,2096921,166666,712632
2096921,2096921,166810,712685
2096921,2096921,166545,712943
2096921,2096921,166755,712985
2096921,2096921,166556,712847
2096921,2096921,166589,712829
2096921,2096921,166607,713041
2096921,2096921,166739,713073
2096921,2096921,166806,712907
2096921,2096921,166588,712889
2096921,2096921,166777,712547
2096921,2096921,166735,712984
2096921,2096921,166946,712670
2096921,2096921,166830,712752
2096921,2096921,166642,712766
2096921,2096921,166839,712763
2096921,2096921,166946,712906
2096921,2096921,166782,712848
2096921,2096921,166705,712774
2096921,2096921,166747,712872
2096921,2096921,166581,712695
2096921,2096921,167180,713253
2096921,2096921,166963,712961
2096921,2096921,166868,712878
2096921,2096921,166910,713171
2096921,2096921,167097,712849
2096921,2096921,166775,712564
2096921,2096921,167181,713132
2096921,2096921,167076,712796
2096921,2096921,167000,713176
2096921,2096921,167009,712735
2096921,2096921,166868,713005
2096921,2096921,167024,713266
2096921,2096921,166720,713261
2096921,2096921,166781,713383
2096921,2096921,166518,713233
2096921,2096921,166525,713135
2096921,2096921,166875,713250
2096921,2096921,166984,713077
2096921,2096921,166700,712783
2096921,2096921,166736,712748
2096921,2096921,166696,712956
2096921,2096921,166925,713018
2096921,2096921,166642,713071
2096921,2096921,166981,712945
2096921,2096921,166866,713154
2096921,2096921,166939,713098
2096921,2096921,166652,713114
2096921,2096921,166773,713104
2096921,2096921,166418,712952
2096921,2096921,166775,712796
2096921,2096921,166723,713067
2096921,2096921,166971,712871
2096921,2096921,166930,712912
2096921,2096921,166700,712039
2096921,2096921,166582,712308
2096921,2096921,166879,712562
2096921,2096921,166500,712625
2096921,2096921,166550,712152
2096921,2096921,166506,712199
2096921,2096921,166514,712157
2096921,2096921,166526,712013
2096921,2096921,166389,712074
2096921,2096921,166277,711099
2096921,2096921,166032,710978
2096921,2096921,166346,711065
2096921,2096921,166481,711328
2096921,2096921,166045,711533
2096921,2096921,165970,709976
2096921,2096921,165904,709915
2096921,2096921,165819,709766
2096921,2096921,165921,709554
2096921,2096921,165542,709825
2096921,2096921,165576,708639
2096921,2096921,165866,708289
2096921,2096921,165601,708618
2096921,2096921,165640,708346
2096921,2096921,164844,708248
2096921,2096921,164971,705831
2096921,2096921,165051,705383
2096921,2096921,164894,705393
2096921,2096921,165110,705292
2096921,2096921,163948,705181
2096921,2096921,163825,702438
2096921,2096921,163963,701831
2096921,2096921,163959,701794
2096921,2096921,163682,701817
2096921,2096921,163107,701965
2096921,2096921,163094,699819
2096921,2096921,162939,699341
2096921,2096921,163095,698853
2096921,2096921,162961,698997
2096921,2096921,162802,699065
2096921,2096921,162637,697373
2096921,2096921,162690,697409
2096921,2096921,162477,697014
2096921,2096921,162588,696866
2096921,2096921,162076,696951
2096921,2096921,162069,695328
2096921,2096921,161975,695207
2096921,2096921,162257,694949
2096921,2096921,162065,695016
2096921,2096921,161671,695030
2096921,2096921,161965,694194
2096921,2096921,161883,694097
2096921,2096921,161869,694099
2096921,2096921,162025,694258
2096921,2096921,161901,694069
2096921,2096921,161743,693564
2096921,2096921,161755,693297
2096921,2096921,161820,693296
2096921,2096921,161487,693410
2096921,2096921,161576,693361
2096921,2096921,161448,693142
2096921,2096921,161424,692925
2096921,2096921,161407,692793
2096921,2096921,161591,692889
2096921,2096921,161564,692707
2096921,2096921,161223,692665
2096921,2096921,161285,692488
2096921,2096921,161462,692486
2096921,2096921,161581,692629
2096921,2096921,161602,692603
2096921,2096921,161664,692735
2096921,2096921,161690,692718
2096921,2096921,161416,692654
2096921,2096921,161617,692968
2096921,2096921,161458,692896
2096921,2096921,161354,692966
2096921,2096921,161606,692963
2096921,2096921,161420,693201
2096921,2096921,161311,693013
2096921,2096921,161831,692857
2096921,2096921,161589,693148
2096921,2096921,161845,693610
2096921,2096921,161686,693634
2096921,2096921,161601,693156
2096921,2096921,161631,693255
2096921,2096921,161622,693486
2096921,2096921,161745,693731
2096921,2096921,161453,693599
2096921,2096921,161562,693331
2096921,2096921,161833,693699
2096921,2096921,162080,693630
2096921,2096921,161946,693969
2096921,2096921,161885,693882
2096921,2096921,161936,694159
2096921,2096921,162233,694190
2096921,2096921,162001,694795
2096921,2096921,161957,694651
2096921,2096921,162238,694756
2096921,2096921,162117,694631
2096921,2096921,162185,694523
2096921,2096921,162154,695269
2096921,2096921,162249,695117
2096921,2096921,162220,695175
2096921,2096921,162070,695105
2096921,2096921,162366,695169
2096921,2096921,162540,695668
2096921,2096921,162592,695819
2096921,2096921,162356,695813
2096921,2096921,162370,696067
2096921,2096921,162481,695955
2096921,2096921,162805,696678
2096921,2096921,162645,696744
2096921,2096921,162764,696701
2096921,2096921,162684,696470
2096921,2096921,162961,696405
2096921,2096921,162568,696997
2096921,2096921,162699,697140
2096921,2096921,162491,697508
2096921,2096921,162659,697319
2096921,2096921,162839,697353
2096921,2096921,162931,697636
2096921,2096921,163010,697968
2096921,2096921,162893,697833
2096921,2096921,162686,697902
2096921,2096921,162746,697853
2096921,2096921,162882,698417
2096921,2096921,162949,698465
2096921,2096921,163155,698285
2096921,2096921,162944,698426
2096921,2096921,162969,698634
2096921,2096921,163197,699072
2096921,2096921,163420,699388
2096921,2096921,163240,699102
2096921,2096921,163428,698929
2096921,2096921,163493,698923
2096921,2096921,163521,699686
2096921,2096921,163243,699684
2096921,2096921,163320,699843
2096921,2096921,163339,699824
2096921,2096921,163377,699833
2096921,2096921,163899,700197
2096921,2096921,163530,700201
2096921,2096921,163612,700688
2096921,2096921,163374,700580
2096921,2096921,163849,700545
2096921,2096921,163629,700947
2096921,2096921,163710,701365
2096921,2096921,163854,701089
2096921,2096921,163712,701009
2096921,2096921,164008,701019
2096921,2096921,164306,701560
2096921,2096921,164081,701566
2096921,2096921,164267,701510
2096921,2096921,164122,701587
2096921,2096921,163836,701702
2096921,2096921,164148,702279
2096921,2096921,164033,702444
2096921,2096921,163866,702170
2096921,2096921,163955,702304
2096921,2096921,164228,702224
2096921,2096921,164007,702340
2096921,2096921,164014,702521
2096921,2096921,163981,702599
2096921,2096921,164012,702493
2096921,2096921,164143,702514
2096921,2096921,163973,702658
2096921,2096921,164349,703052
2096921,2096921,164113,702790
2096921,2096921,164218,702754
2096921,2096921,164091,702691
2096921,2096921,164064,702916
2096921,2096921,164255,703013
2096921,2096921,164068,702996
2096921,2096921,164192,702821
2096921,2096921,164163,703084
2096921,2096921,164348,702850
2096921,2096921,164024,703215
2096921,2096921,164104,703189
2096921,2096921,164236,703067
2096921,2096921,164201,702863
2096921,2096921,164226,703102
2096921,2096921,164235,702948
2096921,2096921,164079,703273
2096921,2096921,164087,703396
2096921,2096921,164044,703006
2096921,2096921,164051,702857
2096921,2096921,163993,702852
2096921,2096921,163806,702873
2096921,2096921,164061,703094
2096921,2096921,163960,702671
2096921,2096921,164073,702942
2096921,2096921,163886,702682
2096921,2096921,164034,702753
2096921,2096921,163995,702570
2096921,2096921,164027,702550
2096921,2096921,164066,702062
2096921,2096921,163961,702660
2096921,2096921,164008,702201
2096921,2096921,164053,702055
2096921,2096921,164013,701838
2096921,2096921,163758,702310
2096921,2096921,164046,701990
2096921,2096921,164055,702379
2096921,2096921,163895,702341
2096921,2096921,163785,702522
2096921,2096921,163673,701982
2096921,2096921,163873,702075
2096921,2096921,164148,702196
2096921,2096921,163744,702060
2096921,2096921,163916,701671
2096921,2096921,163857,701985
2096921,2096921,163982,702033
2096921,2096921,163899,701867
2096921,2096921,163773,702039
2096921,2096921,163727,701926
2096921,2096921,163883,701859
2096921,2096921,163931,701283
2096921,2096921,163720,701465
2096921,2096921,163768,701727
2096921,2096921,164011,701909
2096921,2096921,164075,702085
2096921,2096921,163786,702041
2096921,2096921,163939,702022
2096921,2096921,163824,702267
2096921,2096921,163962,702024
2096921,2096921,163831,702121
2096921,2096921,163772,701907
2096921,2096921,163883,701801
2096921,2096921,163926,701866
2096921,2096921,163956,701853
2096921,2096921,164036,702217
2096921,2096921,163977,701936
2096921,2096921,164028,702177
2096921,2096921,163998,702167
2096921,2096921,164022,702344
2096921,2096921,164269,702783
2096921,2096921,164077,702756
2096921,2096921,164067,702934
2096921,2096921,163934,702622
2096921,2096921,164169,702696
2096921,2096921,163960,702899
2096921,2096921,164357,703116
2096921,2096921,164190,703084
2096921,2096921,164406,702902
2096921,2096921,164229,703382
2096921,2096921,164451,703275
2096921,2096921,164160,703527
2096921,2096921,164519,703506
2096921,2096921,164442,703471
2096921,2096921,164423,703437
2096921,2096921,164366,703784
2096921,2096921,164814,703432
2096921,2096921,164619,703799
2096921,2096921,164664,703832
2096921,2096921,164548,703581
2096921,2096921,164568,704046
2096921,2096921,164460,703872
2096921,2096921,164323,704147
2096921,2096921,164241,704323
2096921,2096921,164471,704246
2096921,2096921,164433,704644
2096921,2096921,164719,704976
2096921,2096921,164632,704687
2096921,2096921,164648,704809
2096921,2096921,164747,704476
2096921,2096921,164631,704811
2096921,2096921,164574,704676
2096921,2096921,164507,704473
2096921,2096921,164513,704676
2096921,2096921,164761,704754
2096921,2096921,164879,705234
2096921,2096921,164878,705452
2096921,2096921,165160,705271
2096921,2096921,164931,705269
2096921,2096921,164833,705334
2096921,2096921,164902,705861
2096921,2096921,164820,705528
2096921,2096921,164968,705756
2096921,2096921,164629,705750
2096921,2096921,164940,705653
2096921,2096921,164920,705775
2096921,2096921,164964,705898
2096921,2096921,165004,705795
2096921,2096921,164900,706174
2096921,2096921,164955,705699
2096921,2096921,164830,705919
2096921,2096921,165008,705905
2096921,2096921,164915,706148
2096921,2096921,164967,705963
2096921,2096921,164934,706434
2096921,2096921,164994,706423
2096921,2096921,165121,706570
2096921,2096921,164829,706304
2096921,2096921,165168,706894
2096921,2096921,165147,706666
2096921,2096921,165103,706803
2096921,2096921,164968,706871
2096921,2096921,165098,706770
2096921,2096921,165354,706901
2096921,2096921,165211,706731
2096921,2096921,165335,706858
2096921,2096921,165179,707140
2096921,2096921,165245,706991
2096921,2096921,165330,707284
2096921,2096921,165376,706927
2096921,2096921,165187,707407
2096921,2096921,165348,707545
2096921,2096921,165391,707416
2096921,2096921,165399,707318
2096921,2096921,164975,707442
2096921,2096921,165174,707511
2096921,2096921,165067,707533
2096921,2096921,165353,707415
2096921,2096921,165345,707362
2096921,2096921,165557,707422
2096921,2096921,165609,707550
2096921,2096921,165545,707936
2096921,2096921,165484,708107
2096921,2096921,165643,707793
2096921,2096921,165339,708019
2096921,2096921,165441,707897
2096921,2096921,165274,707976
2096921,2096921,165622,708099
2096921,2096921,165547,708398
2096921,2096921,165494,708148
2096921,2096921,165456,708099
2096921,2096921,165478,708245
2096921,2096921,165379,708031
2096921,2096921,165667,708385
2096921,2096921,165316,708158
2096921,2096921,165575,708462
2096921,2096921,165577,708507
2096921,2096921,165780,708599
2096921,2096921,165686,708711
2096921,2096921,165990,708370
2096921,2096921,165793,708421
2096921,2096921,165628,708415
2096921,2096921,165503,708400
2096921,2096921,165525,708453
2096921,2096921,165752,708480
2096921,2096921,166092,708788
2096921,2096921,165835,708599
2096921,2096921,165740,708464
2096921,2096921,165828,708901
2096921,2096921,166042,708719
2096921,2096921,165726,708960
2096921,2096921,165717,709248
2096921,2096921,165815,709000
2096921,2096921,165872,709045
2096921,2096921,165936,708896
2096921,2096921,166050,709213
2096921,2096921,165766,709010
2096921,2096921,165920,709155
2096921,2096921,165872,709442
2096921,2096921,166154,709173
2096921,2096921,165875,709225
2096921,2096921,165669,709156
2096921,2096921,165588,709378
2096921,2096921,165994,708916
2096921,2096921,165793,709185
2096921,2096921,165991,709281
2096921,2096921,165706,709350
2096921,2096921,166156,709195
2096921,2096921,166195,709234
2096921,2096921,166026,709354
2096921,2096921,165652,709522
2096921,2096921,165816,709546
2096921,2096921,165986,709545
2096921,2096921,165613,709479
2096921,2096921,165764,709451
2096921,2096921,165904,709420
2096921,2096921,166015,709575
2096921,2096921,166250,709436
2096921,2096921,166239,709634
2096921,2096921,166022,709658
2096921,2096921,166087,709620
2096921,2096921,166331,709808
2096921,2096921,166090,709782
2096921,2096921,166195,709705
2096921,2096921,166154,709729
2096921,2096921,166004,709817
2096921,2096921,165920,709514
2096921,2096921,165804,709363
2096921,2096921,165827,709427
2096921,2096921,166012,709608
2096921,2096921,165801,709590
2096921,2096921,166193,710152
2096921,2096921,166189,709726
2096921,2096921,166027,709719
2096921,2096921,165878,709566
2096921,2096921,165934,709788
2096921,2096921,166190,709835
2096921,2096921,166391,709923
2096921,2096921,165974,710016
2096921,2096921,166043,709632
2096921,2096921,166013,709635
2096921,2096921,166030,709803
2096921,2096921,165930,709680
2096921,2096921,165919,709661
2096921,2096921,166056,709721
2096921,2096921,166205,709934
2096921,2096921,166199,710113
2096921,2096921,165988,709800
2096921,2096921,166035,709806
2096921,2096921,165861,710041
2096921,2096921,165971,710105
2096921,2096921,166145,710031
2096921,2096921,166230,709812
2096921,2096921,166473,710075
2096921,2096921,165871,710403
2096921,2096921,166015,710171
2096921,2096921,166420,709882
2096921,2096921,165912,709683
2096921,2096921,166016,709959
2096921,2096921,165868,710298
2096921,2096921,165830,710279
2096921,2096921,165891,709967
2096921,2096921,165856,710046
2096921,2096921,165747,710031
2096921,2096921,165908,709846
2096921,2096921,165985,709702
2096921,2096921,166356,709972
2096921,2096921,166121,710010
2096921,2096921,166246,710194
2096921,2096921,166179,710151
2096921,2096921,166004,710112
2096921,2096921,166014,709812
2096921,2096921,166052,709936
2096921,2096921,165903,710029
2096921,2096921,165988,710202
2096921,2096921,166122,709924
2096921,2096921,166186,710033
2096921,2096921,166168,710262
2096921,2096921,166350,710283
2096921,2096921,165956,710307
2096921,2096921,165841,710035
2096921,2096921,165875,710288
2096921,2096921,166137,710206
2096921,2096921,166107,710108
2096921,2096921,165848,710109
2096921,2096921,165947,710113
2096921,2096921,166197,709954
2096921,2096921,166018,709887
2096921,2096921,166442,709995
2096921,2096921,166111,710009
2096921,2096921,166206,710040
2096921,2096921,166044,710150
2096921,2096921,166015,710070
2096921,2096921,165659,709954
2096921,2096921,166010,710127
2096921,2096921,166233,710132
2096921,2096921,165807,709994
2096921,2096921,165943,710029
2096921,2096921,165687,709811
2096921,2096921,166343,709951
2096921,2096921,166304,709812
2096921,2096921,166155,709373
2096921,2096921,166217,709961
2096921,2096921,166193,709821
2096921,2096921,166265,709727
2096921,2096921,165924,709829
2096921,2096921,165823,709941
2096921,2096921,165492,709957
2096921,2096921,165877,709960
2096921,2096921,165813,709931
2096921,2096921,166096,709888
2096921,2096921,165865,709675
2096921,2096921,165841,709678
2096921,2096921,166165,709569
2096921,2096921,166226,709623
2096921,2096921,166227,709558
2096921,2096921,166244,709362
2096921,2096921,166384,709694
2096921,2096921,166233,709782
2096921,2096921,166133,709469
2096921,2096921,166145,709742
2096921,2096921,166135,709479
2096921,2096921,165873,709872
2096921,2096921,165941,709334
2096921,2096921,165922,709625
2096921,2096921,165966,709714
2096921,2096921,165845,709590
2096921,2096921,165840,709219
2096921,2096921,165910,709314
2096921,2096921,165913,709178
2096921,2096921,166009,709179
2096921,2096921,165870,709605
2096921,2096921,165772,709430
2096921,2096921,165743,709407
2096921,2096921,165832,709459
2096921,2096921,166032,709231
2096921,2096921,166110,709619
2096921,2096921,166044,709143
2096921,2096921,165700,709308
2096921,2096921,165771,709298
2096921,2096921,165873,709545
2096921,2096921,165816,709056
2096921,2096921,165865,709424
2096921,2096921,165772,709271
2096921,2096921,165529,709292
2096921,2096921,165803,708844
2096921,2096921,165938,708728
2096921,2096921,165625,708511
2096921,2096921,165962,708611
2096921,2096921,165441,708452
2096921,2096921,165327,707816
2096921,2096921,165459,707697
2096921,2096921,165532,707455
2096921,2096921,165552,707854
2096921,2096921,165497,707688
2096921,2096921,165404,707037
2096921,2096921,165185,706773
2096921,2096921,165498,707076
2096921,2096921,165292,706984
2096921,2096921,164772,706569
2096921,2096921,164757,705606
2096921,2096921,165056,705853
2096921,2096921,164666,706174
2096921,2096921,164882,705412
2096921,2096921,164341,705893
2096921,2096921,164830,704643
2096921,2096921,164442,704248
2096921,2096921,164612,704412
2096921,2096921,164614,704382
2096921,2096921,163797,704276
2096921,2096921,163974,701403
2096921,2096921,163753,700923
2096921,2096921,163656,700695
2096921,2096921,163812,700949
2096921,2096921,162720,700919
2096921,2096921,162885,697917
2096921,2096921,162751,697323
2096921,2096921,162690,697051
2096921,2096921,162771,697283
2096921,2096921,162227,697484
2096921,2096921,162001,695019
2096921,2096921,162082,694337
2096921,2096921,162188,694451
2096921,2096921,161897,694405
2096921,2096921,161589,694501
2096921,2096921,161260,692606
2096921,2096921,161365,692386
2096921,2096921,161650,692182
2096921,2096921,161300,692384
2096921,2096921,161319,692185
2096921,2096921,161163,690918
2096921,2096921,160751,690623
2096921,2096921,161033,690733
2096921,2096921,161072,690771
2096921,2096921,160714,690386
2096921,2096921,160781,689623
2096921,2096921,160817,689340
2096921,2096921,160846,689462
2096921,2096921,160952,689470
2096921,2096921,160614,689387
2096921,2096921,160550,688186
2096921,2096921,160894,688457
2096921,2096921,160673,688446
2096921,2096921,160817,688350
2096921,2096921,160527,688685
2096921,2096921,160345,688169
2096921,2096921,160342,688072
2096921,2096921,160217,687762
2096921,2096921,160310,687978
2096921,2096921,160196,687894
2096921,2096921,160285,687535
2096921,2096921,160331,687576
2096921,2096921,160064,687555
2096921,2096921,159968,687717
2096921,2096921,160438,687655
2096921,2096921,160502,687698
2096921,2096921,160052,687646
2096921,2096921,160306,687714
2096921,2096921,160706,687697
2096921,2096921,160366,687734
2096921,2096921,160307,687879
2096921,2096921,160206,687916
2096921,2096921,160415,687985
2096921,2096921,160473,687790
2096921,2096921,160443,687972
2096921,2096921,160651,688189
2096921,2096921,160477,687957
2096921,2096921,160568,687921
2096921,2096921,160380,687682
2096921,2096921,160034,687807
2096921,2096921,160491,688155
2096921,2096921,160506,688299
2096921,2096921,160491,688077
2096921,2096921,160356,688206
2096921,2096921,160499,687986
2096921,2096921,160188,688465
2096921,2096921,160513,688580
2096921,2096921,160856,688647
2096921,2096921,160910,688653
2096921,2096921,160579,688611
2096921,2096921,160652,688848
2096921,2096921,160570,688831
2096921,2096921,160564,688787
2096921,2096921,160609,689145
2096921,2096921,160610,689301
2096921,2096921,160934,689670
2096921,2096921,161005,689663
2096921,2096921,160990,690033
2096921,2096921,160793,689792
2096921,2096921,161097,689916
2096921,2096921,160941,690105
2096921,2096921,160916,690263
2096921,2096921,160906,690199
2096921,2096921,160769,690438
2096921,2096921,160950,690236
2096921,2096921,160919,690680
2096921,2096921,161060,691168
2096921,2096921,161441,690956
2096921,2096921,161084,691004
2096921,2096921,161291,691006
2096921,2096921,161144,691579
2096921,2096921,161394,691358
2096921,2096921,161321,691426
2096921,2096921,161003,691244
2096921,2096921,160992,691372
2096921,2096921,161497,691983
2096921,2096921,161530,692083
2096921,2096921,161375,691965
2096921,2096921,161779,691740
2096921,2096921,161823,691840
2096921,2096921,161648,692170
2096921,2096921,161579,692345
2096921,2096921,161429,692500
2096921,2096921,161565,692469
2096921,2096921,161569,692482
2096921,2096921,161347,692904
2096921,2096921,161318,693158
2096921,2096921,161456,693088
2096921,2096921,161602,693320
2096921,2096921,161558,693161
2096921,2096921,161439,693579
2096921,2096921,161417,693808
2096921,2096921,161792,693784
2096921,2096921,161742,693617
2096921,2096921,161803,693697
2096921,2096921,161811,693995
2096921,2096921,161772,694128
2096921,2096921,162108,694256
2096921,2096921,162056,694426
2096921,2096921,162145,694156
2096921,2096921,162211,694606
2096921,2096921,162061,694984
2096921,2096921,162112,694739
2096921,2096921,162286,694795
2096921,2096921,162289,694686
2096921,2096921,162585,695141
2096921,2096921,162407,695395
2096921,2096921,162423,695417
2096921,2096921,162424,695353
2096921,2096921,162467,695309
2096921,2096921,162412,695793
2096921,2096921,162490,695659
2096921,2096921,162408,695877
2096921,2096921,162200,695969
2096921,2096921,162703,696043
2096921,2096921,162277,696289
2096921,2096921,162644,696236
2096921,2096921,162575,696493
2096921,2096921,162575,696051
2096921,2096921,162606,695753
2096921,2096921,162477,695974
2096921,2096921,162657,695975
2096921,2096921,162530,696193
2096921,2096921,162686,696410
2096921,2096921,162828,696161
2096921,2096921,162606,696380
2096921,2096921,163061,696495
2096921,2096921,162622,696476
2096921,2096921,162674,696537
2096921,2096921,162565,696372
2096921,2096921,162582,696475
2096921,2096921,162610,696270
2096921,2096921,162496,696397
2096921,2096921,162323,696290
2096921,2096921,162560,696381
2096921,2096921,162681,696128
2096921,2096921,162661,696457
2096921,2096921,162751,696386
2096921,2096921,162773,696364
2096921,2096921,162596,696380
2096921,2096921,162657,696317
2096921,2096921,162247,696022
2096921,2096921,162390,696186
2096921,2096921,162543,696162
2096921,2096921,162333,696424
2096921,2096921,162545,695811
2096921,2096921,162349,695931
2096921,2096921,162517,695864
2096921,2096921,162629,696327
2096921,2096921,162501,695852
2096921,2096921,162681,695884
2096921,2096921,162505,695733
2096921,2096921,162333,695387
2096921,2096921,162043,695452
2096921,2096921,162304,695675
2096921,2096921,162181,695371
2096921,2096921,162393,695700
2096921,2096921,162408,695529
2096921,2096921,162259,695424
2096921,2096921,162267,695282
2096921,2096921,162136,695206
2096921,2096921,162412,694879
2096921,2096921,162310,695064
2096921,2096921,162319,695006
2096921,2096921,162173,695194
2096921,2096921,162218,695154
2096921,2096921,162241,695426
2096921,2096921,162575,695140
2096921,2096921,162283,695155
2096921,2096921,162323,695294
2096921,2096921,162164,695216
2096921,2096921,161962,695266
2096921,2096921,162150,694841
2096921,2096921,162129,694839
2096921,2096921,162128,695113
2096921,2096921,162383,694965
2096921,2096921,162035,694868
2096921,2096921,162300,695342
2096921,2096921,162053,695192
2096921,2096921,162337,695256
2096921,2096921,162234,695215
2096921,2096921,162381,694837
2096921,2096921,162216,695209
2096921,2096921,162199,695095
2096921,2096921,162227,695260
2096921,2096921,162258,695255
2096921,2096921,162131,695357
2096921,2096921,162461,695372
2096921,2096921,162330,695275
2096921,2096921,162511,695437
2096921,2096921,162512,695599
2096921,2096921,162282,695895
2096921,2096921,162294,695659
2096921,2096921,162398,695846
2096921,2096921,162693,695717
2096921,2096921,162788,695972
2096921,2096921,162701,696419
2096921,2096921,162601,696347
2096921,2096921,162619,696501
2096921,2096921,162614,696632
2096921,2096921,162394,696585
2096921,2096921,162710,696518
2096921,2096921,162685,696974
2096921,2096921,162900,696616
2096921,2096921,162806,696458
2096921,2096921,162942,696993
2096921,2096921,162936,697301
2096921,2096921,163032,697188
2096921,2096921,163045,697214
2096921,2096921,162971,697251
2096921,2096921,162766,697336
2096921,2096921,162544,697470
2096921,2096921,162829,697477
2096921,2096921,162900,697494
2096921,2096921,162496,697709
2096921,2096921,162828,698056
2096921,2096921,162743,697882
2096921,2096921,162858,697907
2096921,2096921,163020,697580
2096921,2096921,163043,697833
2096921,2096921,163208,698046
2096921,2096921,163229,698050
2096921,2096921,163095,698294
2096921,2096921,163067,698107
2096921,2096921,163234,698040
2096921,2096921,163298,698548
2096921,2096921,163138,698737
2096921,2096921,163282,698887
2096921,2096921,163249,698589
2096921,2096921,163568,698696
2096921,2096921,163123,698916
2096921,2096921,163263,698918
2096921,2096921,163120,698897
2096921,2096921,163084,699120
2096921,2096921,163289,699355
2096921,2096921,163415,699517
2096921,2096921,163350,699323
2096921,2096921,163247,699346
2096921,2096921,163208,699406
2096921,2096921,163354,699543
2096921,2096921,163068,699880
2096921,2096921,163393,699678
2096921,2096921,163540,699645
2096921,2096921,163742,699602
2096921,2096921,163559,699814
2096921,2096921,163427,699932
2096921,2096921,163674,699835
2096921,2096921,163868,699882
2096921,2096921,163471,700143
2096921,2096921,163643,700016
2096921,2096921,163460,700150
2096921,2096921,163609,700385
2096921,2096921,163636,700271
2096921,2096921,163473,700502
2096921,2096921,163622,700800
2096921,2096921,163772,700613
2096921,2096921,163361,700873
2096921,2096921,163706,700845
2096921,2096921,163652,701119
2096921,2096921,163674,700952
2096921,2096921,163509,700866
2096921,2096921,163537,700786
2096921,2096921,163751,700993
2096921,2096921,163845,700716
2096921,2096921,163926,700855
2096921,2096921,163902,701314
2096921,2096921,163978,701144
2096921,2096921,163917,701413
2096921,2096921,163994,701814
2096921,2096921,163948,701444
2096921,2096921,163540,701612
2096921,2096921,163923,701771
2096921,2096921,164127,701746
2096921,2096921,163860,701739
2096921,2096921,163854,701760
2096921,2096921,164035,702182
2096921,2096921,164149,701994
2096921,2096921,164116,702282
2096921,2096921,164094,701889
2096921,2096921,163906,702161
2096921,2096921,164108,702237
2096921,2096921,164076,702134
2096921,2096921,164177,702147
2096921,2096921,163998,702151
2096921,2096921,163774,702183
2096921,2096921,163812,702514
2096921,2096921,164285,702417
2096921,2096921,164177,702609
2096921,2096921,164152,702452
2096921,2096921,164187,702278
2096921,2096921,164374,702324
2096921,2096921,164027,702471
2096921,2096921,164108,702907
2096921,2096921,164284,702668
2096921,2096921,164134,702833
2096921,2096921,164426,703268
2096921,2096921,164350,703157
2096921,2096921,164241,702879
2096921,2096921,164400,702755
2096921,2096921,164248,702997
2096921,2096921,164250,703262
2096921,2096921,164006,703280
2096921,2096921,164096,703359
2096921,2096921,163882,703442
2096921,2096921,163996,703313
2096921,2096921,164074,703514
2096921,2096921,164311,703548
2096921,2096921,164217,703472
2096921,2096921,164236,703650
2096921,2096921,164429,703604
2096921,2096921,164799,703744
2096921,2096921,164335,703589
2096921,2096921,164429,703668
2096921,2096921,164612,703833
2096921,2096921,164630,703464
2096921,2096921,164653,703678
2096921,2096921,164331,703740
2096921,2096921,164534,704108
2096921,2096921,164689,703799
2096921,2096921,164747,703824
2096921,2096921,164442,704041
2096921,2096921,164516,704016
2096921,2096921,164675,704082
2096921,2096921,164492,703962
2096921,2096921,164581,704234
2096921,2096921,164540,704102
2096921,2096921,164862,704016
2096921,2096921,164492,704115
2096921,2096921,164830,704222
2096921,2096921,164620,703999
2096921,2096921,164581,704310
2096921,2096921,164604,704207
2096921,2096921,164540,704256
2096921,2096921,164631,703956
2096921,2096921,164763,704574
2096921,2096921,164410,704610
2096921,2096921,164833,704770
2096921,2096921,164943,704775
2096921,2096921,164810,704772
2096921,2096921,164675,704701
2096921,2096921,164708,704706
2096921,2096921,164725,704375
2096921,2096921,164789,704602
2096921,2096921,164477,704562
2096921,2096921,164716,704636
2096921,2096921,164936,704812
2096921,2096921,164724,704775
2096921,2096921,164756,704791
2096921,2096921,164825,704554
2096921,2096921,164802,704658
2096921,2096921,164547,704801
2096921,2096921,164760,705045
2096921,2096921,164957,704876
2096921,2096921,164677,704625
2096921,2096921,164851,704784
2096921,2096921,164910,705030
2096921,2096921,164947,705125
2096921,2096921,164634,704992
2096921,2096921,164685,704858
2096921,2096921,164739,704784
2096921,2096921,164450,705016
2096921,2096921,164479,705148
2096921,2096921,164852,705218
2096921,2096921,164842,704909
2096921,2096921,164966,705272
2096921,2096921,164899,705474
2096921,2096921,165039,705351
2096921,2096921,165050,705494
2096921,2096921,165176,705608
2096921,2096921,165137,705461
2096921,2096921,164752,705208
2096921,2096921,165107,705120
2096921,2096921,164931,705427
2096921,2096921,164848,705625
2096921,2096921,164476,705521
2096921,2096921,164906,705622
2096921,2096921,164984,705575
2096921,2096921,165040,705438
2096921,2096921,164782,705382
2096921,2096921,164672,705507
2096921,2096921,164767,705657
2096921,2096921,164876,705620
2096921,2096921,165104,705651
2096921,2096921,165052,705391
2096921,2096921,164895,705475
2096921,2096921,165012,705602
2096921,2096921,164970,705928
2096921,2096921,164812,705883
2096921,2096921,164924,705672
2096921,2096921,164966,705740
2096921,2096921,165064,705914
2096921,2096921,165107,705780
2096921,2096921,164869,705928
2096921,2096921,165143,706058
2096921,2096921,164991,706016
2096921,2096921,165194,706060
2096921,2096921,164868,706061
2096921,2096921,165099,705984
2096921,2096921,164870,706074
2096921,2096921,165074,705775
2096921,2096921,164765,705828
2096921,2096921,164933,705923
2096921,2096921,165033,705905
2096921,2096921,165268,705824
2096921,2096921,165035,705984
2096921,2096921,165214,705860
2096921,2096921,165252,705899
2096921,2096921,165237,706021
2096921,2096921,165080,706124
2096921,2096921,164823,705920
2096921,2096921,165020,706115
2096921,2096921,164854,706040
2096921,2096921,164801,706095
2096921,2096921,165221,706312
2096921,2096921,164930,706091
2096921,2096921,165199,705922
2096921,2096921,165292,706066
2096921,2096921,165380,706093
2096921,2096921,165278,706224
2096921,2096921,165187,706002
2096921,2096921,165294,706124
2096921,2096921,165016,706174
2096921,2096921,165025,705963
2096921,2096921,164878,706167
2096921,2096921,164862,705911
2096921,2096921,164732,706073
2096921,2096921,164767,706165
2096921,2096921,165160,706217
2096921,2096921,165161,706228
2096921,2096921,165114,706129
2096921,2096921,165022,706483
2096921,2096921,165088,706135
2096921,2096921,164842,706334
2096921,2096921,165298,706353
2096921,2096921,165089,706124
2096921,2096921,164894,706192
2096921,2096921,165412,706298
2096921,2096921,165199,706236
2096921,2096921,165414,705855
2096921,2096921,165017,706167
2096921,2096921,165128,705920
2096921,2096921,165199,706312
2096921,2096921,164943,706143
2096921,2096921,165084,706366
2096921,2096921,165151,706385
2096921,2096921,165221,706276
2096921,2096921,165063,706381
2096921,2096921,164964,706254
2096921,2096921,165159,706175
2096921,2096921,165018,706223
2096921,2096921,164807,705985
2096921,2096921,165235,706097
2096921,2096921,165265,706227
2096921,2096921,165263,705951
2096921,2096921,165047,706220
2096921,2096921,164934,705547
2096921,2096921,164895,705759
2096921,2096921,165053,706173
2096921,2096921,164821,705682
2096921,2096921,165074,705753
2096921,2096921,164930,705401
2096921,2096921,164826,705184
2096921,2096921,164739,705245
2096921,2096921,164838,705336
2096921,2096921,164555,705409
2096921,2096921,164863,704890
2096921,2096921,164479,704454
2096921,2096921,164687,704777
2096921,2096921,164742,704544
2096921,2096921,164461,704481
2096921,2096921,164377,703551
2096921,2096921,164350,703387
2096921,2096921,164221,702851
2096921,2096921,164246,703069
2096921,2096921,164022,702879
2096921,2096921,163860,702254
2096921,2096921,163808,701865
2096921,2096921,164016,701730
2096921,2096921,164090,701788
2096921,2096921,163228,701680
2096921,2096921,163179,699165
2096921,2096921,163128,698819
2096921,2096921,163175,698619
2096921,2096921,162838,698884
2096921,2096921,162477,699010
2096921,2096921,162169,695969
2096921,2096921,162505,695367
2096921,2096921,162381,695571
2096921,2096921,162167,695104
2096921,2096921,161581,695394
2096921,2096921,161741,693135
2096921,2096921,161488,692747
2096921,2096921,161611,692642
2096921,2096921,161499,692533
2096921,2096921,161238,692472
2096921,2096921,161106,690987
2096921,2096921,160991,690653
2096921,2096921,161040,690425
2096921,2096921,161268,690562
2096921,2096921,160757,690457
2096921,2096921,160754,689311
2096921,2096921,160467,688730
2096921,2096921,160737,689043
2096921,2096921,160705,688975
2096921,2096921,160914,688943
2096921,2096921,160580,688424
2096921,2096921,160368,687905
2096921,2096921,160268,687812
2096921,2096921,160576,688219
2096921,2096921,160387,688185
2096921,2096921,159926,687357
2096921,2096921,160021,687555
2096921,2096921,160043,687374
2096921,2096921,160208,687249
2096921,2096921,160224,687047
2096921,2096921,159957,686940
2096921,2096921,160186,687094
2096921,2096921,160030,686934
2096921,2096921,160134,686776
2096921,2096921,159845,686941
2096921,2096921,159966,686812
2096921,2096921,160266,686917
2096921,2096921,159831,687038
2096921,2096921,159788,686887
2096921,2096921,159866,686762
2096921,2096921,160371,686981
2096921,2096921,160013,686833
2096921,2096921,160121,686960
2096921,2096921,159973,686704
2096921,2096921,160017,686958
2096921,2096921,160248,687018
2096921,2096921,160172,686968
2096921,2096921,160264,686737
2096921,2096921,160196,687023
2096921,2096921,160116,687229
2096921,2096921,160002,687488
2096921,2096921,160171,687806
2096921,2096921,160041,687570
2096921,2096921,159867,687743
2096921,2096921,160421,687531
2096921,2096921,160251,687830
2096921,2096921,160237,687837
2096921,2096921,160034,687514
2096921,2096921,160259,687642
2096921,2096921,160612,687627
2096921,2096921,160780,688124
2096921,2096921,160688,688528
2096921,2096921,160648,688485
2096921,2096921,160265,688605
2096921,2096921,160829,688171
2096921,2096921,160643,688617
2096921,2096921,160683,688809
2096921,2096921,160547,689133
2096921,2096921,160530,688850
2096921,2096921,160629,689017
2096921,2096921,160955,689509
2096921,2096921,160554,689773
2096921,2096921,160377,689832
2096921,2096921,160476,689700
2096921,2096921,160741,689405
2096921,2096921,160993,690258
2096921,2096921,160894,690376
2096921,2096921,160920,690383
2096921,2096921,160874,690402
2096921,2096921,161114,690300
2096921,2096921,161016,690846
2096921,2096921,161271,691278
2096921,2096921,161064,691012
2096921,2096921,161394,691087
2096921,2096921,161160,691139
2096921,2096921,161255,691383
2096921,2096921,161594,691440
2096921,2096921,161374,691275
2096921,2096921,161064,691754
2096921,2096921,161449,691880
2096921,2096921,161661,692170
2096921,2096921,161565,692227
2096921,2096921,161448,692370
2096921,2096921,161473,692543
2096921,2096921,161610,692628
2096921,2096921,161618,693256
2096921,2096921,161726,693119
2096921,2096921,161762,693156
2096921,2096921,161488,693151
2096921,2096921,161861,693040
2096921,2096921,162013,693723
2096921,2096921,161945,693635
2096921,2096921,161658,693961
2096921,2096921,161779,693984
2096921,2096921,161985,693708
2096921,2096921,162439,694392
2096921,2096921,162333,694537
2096921,2096921,162387,694752
2096921,2096921,162165,694753
2096921,2096921,162155,694839
2096921,2096921,162339,695303
2096921,2096921,162296,695310
2096921,2096921,162465,695656
2096921,2096921,162179,695582
2096921,2096921,162206,695533
2096921,2096921,162039,695970
2096921,2096921,162341,696134
2096921,2096921,162409,696518
2096921,2096921,162441,696477
2096921,2096921,162490,696588
2096921,2096921,162795,696930
2096921,2096921,163064,696816
2096921,2096921,162924,696776
2096921,2096921,162381,696539
2096921,2096921,162859,696644
2096921,2096921,162559,697029
2096921,2096921,162559,697268
2096921,2096921,162505,697102
2096921,2096921,162695,697052
2096921,2096921,162606,697143
2096921,2096921,163098,697346
2096921,2096921,162932,697739
2096921,2096921,162931,697911
2096921,2096921,162726,697955
2096921,2096921,162777,697808
2096921,2096921,162789,698150
2096921,2096921,163003,698224
2096921,2096921,162786,698280
2096921,2096921,162832,698355
2096921,2096921,162925,698340
2096921,2096921,163478,698467
2096921,2096921,162848,698364
2096921,2096921,163237,698459
2096921,2096921,163113,698414
2096921,2096921,163034,698590
2096921,2096921,163067,698421
2096921,2096921,163034,698549
2096921,2096921,163041,698454
2096921,2096921,163212,698203
2096921,2096921,163063,698163
2096921,2096921,163041,698667
2096921,2096921,163368,698677
2096921,2096921,163166,698562
2096921,2096921,163146,698565
2096921,2096921,162974,698748
2096921,2096921,162873,698611
2096921,2096921,163062,698643
2096921,2096921,162777,698581
2096921,2096921,163290,698789
2096921,2096921,163566,699240
2096921,2096921,163343,698641
2096921,2096921,163247,698707
2096921,2096921,163300,698577
2096921,2096921,163059,698278
2096921,2096921,162804,698355
2096921,2096921,163237,698522
2096921,2096921,163247,698521
2096921,2096921,163178,698125
2096921,2096921,162999,698085
2096921,2096921,163075,697987
2096921,2096921,163062,698131
2096921,2096921,162965,698207
2096921,2096921,162969,698312
2096921,2096921,163017,698339
2096921,2096921,162819,698194
2096921,2096921,163033,697929
2096921,2096921,162798,698069
2096921,2096921,162760,697980
2096921,2096921,162810,697921
2096921,2096921,162918,697642
2096921,2096921,162933,697896
2096921,2096921,162915,698216
2096921,2096921,163051,698254
2096921,2096921,163023,698030
2096921,2096921,163211,698108
2096921,2096921,162808,697904
2096921,2096921,162814,698261
2096921,2096921,163005,698046
2096921,2096921,163057,697931
2096921,2096921,162875,698087
2096921,2096921,163138,698585
2096921,2096921,163211,698731
2096921,2096921,162884,698316
2096921,2096921,162933,698368
2096921,2096921,162895,698314
2096921,2096921,163181,698824
2096921,2096921,162880,698766
2096921,2096921,162800,698615
2096921,2096921,162946,698632
2096921,2096921,162935,698407
2096921,2096921,163212,698959
2096921,2096921,163378,698977
2096921,2096921,163391,698890
2096921,2096921,163227,698774
2096921,2096921,163497,699019
2096921,2096921,163237,699084
2096921,2096921,163466,699112
2096921,2096921,163196,699513
2096921,2096921,163204,699467
2096921,2096921,163826,699207
2096921,2096921,163605,699836
2096921,2096921,163467,700149
2096921,2096921,163447,700000
2096921,2096921,163709,700110
2096921,2096921,163500,700000
2096921,2096921,163245,700546
2096921,2096921,163869,700779
2096921,2096921,163414,700677
2096921,2096921,163437,700673
2096921,2096921,163414,700536
2096921,2096921,163939,701043
2096921,2096921,164031,701164
2096921,2096921,163970,701351
2096921,2096921,163811,701308
2096921,2096921,164043,701481
2096921,2096921,163920,701586
2096921,2096921,163900,701536
2096921,2096921,163956,701787
2096921,2096921,164203,701744
2096921,2096921,164135,701602
2096921,2096921,163983,702006
2096921,2096921,164073,702007
2096921,2096921,164161,702010
2096921,2096921,164252,702276
2096921,2096921,164046,702111
2096921,2096921,164055,702338
2096921,2096921,164216,702358
2096921,2096921,164183,702545
2096921,2096921,163920,702229
2096921,2096921,164316,702214
2096921,2096921,164398,702668
2096921,2096921,164284,702907
2096921,2096921,163933,703100
2096921,2096921,164295,703285
2096921,2096921,164473,702810
2096921,2096921,164282,703377
2096921,2096921,164076,703300
2096921,2096921,164305,703487
2096921,2096921,164376,703381
2096921,2096921,164503,703436
2096921,2096921,164863,703845
2096921,2096921,164619,703796
2096921,2096921,164301,703822
2096921,2096921,164427,703787
2096921,2096921,164630,703811
2096921,2096921,164642,704307
2096921,2096921,164319,704196
2096921,2096921,164508,704146
2096921,2096921,164679,704183
2096921,2096921,165071,704275
2096921,2096921,164848,704653
2096921,2096921,165094,704778
2096921,2096921,164843,704522
2096921,2096921,164665,704984
2096921,2096921,165024,704800
2096921,2096921,164795,704829
2096921,2096921,164670,704836
2096921,2096921,164601,704743
2096921,2096921,164575,704976
2096921,2096921,164758,704971
2096921,2096921,164910,705591
2096921,2096921,164692,705517
2096921,2096921,164835,705604
2096921,2096921,164892,705306
2096921,2096921,164883,705782
2096921,2096921,164810,705949
2096921,2096921,164937,706034
2096921,2096921,164915,706067
2096921,2096921,164957,706040
2096921,2096921,165064,705887
2096921,2096921,165070,706108
2096921,2096921,165222,706185
2096921,2096921,165092,706190
2096921,2096921,165006,706453
2096921,2096921,165263,706287
2096921,2096921,165281,706630
2096921,2096921,165328,706636
2096921,2096921,165091,706863
2096921,2096921,165106,706768
2096921,2096921,165041,706918
2096921,2096921,165092,706968
2096921,2096921,165223,707249
2096921,2096921,165224,707167
2096921,2096921,165082,707118
2096921,2096921,165379,707028
2096921,2096921,165356,707484
2096921,2096921,165280,707116
2096921,2096921,165183,707610
2096921,2096921,165443,707078
2096921,2096921,165703,707675
2096921,2096921,166063,707643
2096921,2096921,165662,707980
2096921,2096921,165664,708025
2096921,2096921,165536,707753
2096921,2096921,165748,707810
2096921,2096921,165650,708250
2096921,2096921,165498,708392
2096921,2096921,165420,707961
2096921,2096921,165420,708018
2096921,2096921,165603,707831
2096921,2096921,165534,708564
2096921,2096921,165691,708660
2096921,2096921,165507,708411
2096921,2096921,165382,708362
2096921,2096921,165649,707947
2096921,2096921,165460,708619
2096921,2096921,165687,708533
2096921,2096921,165667,709112
2096921,2096921,165952,708616
2096921,2096921,165765,708597
2096921,2096921,166005,708969
2096921,2096921,166107,709223
2096921,2096921,165917,709035
2096921,2096921,165736,709001
2096921,2096921,165900,708961
2096921,2096921,165843,709264
2096921,2096921,165977,709381
2096921,2096921,165578,709589
2096921,2096921,165807,709742
2096921,2096921,165947,709518
2096921,2096921,165977,709401
2096921,2096921,166004,709473
2096921,2096921,166265,709669
