2096921,2096921,179005,594760,0
2096921,2096921,179103,595076,0
2096921,2096921,179391,595252,0
2096921,2096921,179084,595048,0
2096921,2096921,178936,594875,0
2096921,2096921,178790,595240,0
2096921,2096921,179122,595527,0
2096921,2096921,179261,595508,0
2096921,2096921,179127,595628,0
2096921,2096921,179290,595751,0
2096921,2096921,179455,595748,0
2096921,2096921,179337,595697,0
2096921,2096921,179424,596030,0
2096921,2096921,179234,595876,0
2096921,2096921,179263,595771,0
2096921,2096921,179253,596051,0
2096921,2096921,179568,596174,0
2096921,2096921,179340,596353,0
2096921,2096921,179548,596505,0
2096921,2096921,179594,596616,0
2096921,2096921,179712,596535,0
2096921,2096921,179811,596890,0
2096921,2096921,179630,597080,0
2096921,2096921,179618,596943,0
2096921,2096921,179796,597085,0
2096921,2096921,179515,597116,0
2096921,2096921,179713,597139,0
2096921,2096921,179976,597178,0
2096921,2096921,179935,597157,0
2096921,2096921,179822,597336,0
2096921,2096921,180078,597358,0
2096921,2096921,179891,597775,0
2096921,2096921,179873,597563,0
2096921,2096921,179744,597917,0
2096921,2096921,179584,597651,0
2096921,2096921,179814,597711,0
2096921,2096921,179983,597832,0
2096921,2096921,179994,597871,0
2096921,2096921,179796,597871,0
2096921,2096921,179993,597835,0
2096921,2096921,179927,598015,0
2096921,2096921,180223,598450,0
2096921,2096921,180342,598537,0
2096921,2096921,180086,598378,0
2096921,2096921,180240,598696,0
2096921,2096921,180216,598736,0
2096921,2096921,180405,598393,0
2096921,2096921,180497,598830,0
2096921,2096921,180472,598930,0
2096921,2096921,180549,599317,0
2096921,2096921,180307,599307,0
2096921,2096921,180462,599129,0
2096921,2096921,180531,599126,0
2096921,2096921,180395,599122,0
2096921,2096921,180456,598908,0
2096921,2096921,180085,599096,0
2096921,2096921,180567,599377,0
2096921,2096921,180785,599616,0
2096921,2096921,180804,599678,0
2096921,2096921,180568,599432,0
2096921,2096921,180512,600002,0
2096921,2096921,180767,599842,0
2096921,2096921,180881,600076,0
2096921,2096921,180820,600091,0
2096921,2096921,180667,599877,0
2096921,2096921,180898,600044,0
2096921,2096921,180743,600017,0
2096921,2096921,180831,600033,0
2096921,2096921,180944,600450,0
2096921,2096921,181106,600319,0
2096921,2096921,180780,600458,0
2096921,2096921,181065,600723,0
2096921,2096921,181020,600812,0
2096921,2096921,181020,600678,0
2096921,2096921,180888,600644,0
2096921,2096921,180894,600567,0
2096921,2096921,180748,600882,0
2096921,2096921,181018,601087,0
2096921,2096921,180949,601168,0
2096921,2096921,181071,601067,0
2096921,2096921,181024,601327,0
2096921,2096921,181430,601507,0
2096921,2096921,181318,601362,0
2096921,2096921,181227,601164,0
2096921,2096921,181287,601540,0
2096921,2096921,181087,601647,0
2096921,2096921,181169,601360,0
2096921,2096921,181447,601628,0
2096921,2096921,181178,601652,0
2096921,2096921,181389,601729,0
2096921,2096921,181357,601764,0
2096921,2096921,181605,601962,0
2096921,2096921,181437,601984,0
2096921,2096921,181605,602098,0
2096921,2096921,181594,602061,0
2096921,2096921,181377,601784,0
2096921,2096921,181656,602021,0
2096921,2096921,181645,602133,0
2096921,2096921,181741,602502,0
2096921,2096921,181657,602192,0
2096921,2096921,181367,602787,0
2096921,2096921,181362,602468,0
2096921,2096921,181439,602667,0
2096921,2096921,181693,602799,0
2096921,2096921,181550,602929,0
2096921,2096921,181729,602814,0
2096921,2096921,181831,603050,0
2096921,2096921,181665,602845,0
2096921,2096921,181395,602852,0
2096921,2096921,182087,603273,0
2096921,2096921,181673,603054,0
2096921,2096921,182054,603113,0
2096921,2096921,181914,603171,0
2096921,2096921,181743,603266,0
2096921,2096921,181891,603219,0
2096921,2096921,181678,602989,0
2096921,2096921,182216,603379,0
2096921,2096921,181869,603484,0
2096921,2096921,181881,603472,0
2096921,2096921,182094,603576,0
2096921,2096921,181973,603834,0
2096921,2096921,182276,603710,0
2096921,2096921,182343,604040,0
2096921,2096921,182045,603931,0
2096921,2096921,182027,604088,0
2096921,2096921,182015,603888,0
2096921,2096921,182093,603942,0
2096921,2096921,182512,604156,0
2096921,2096921,182157,604406,0
2096921,2096921,182423,604310,0
2096921,2096921,182275,604294,0
2096921,2096921,182333,604618,0
2096921,2096921,182302,605006,0
2096921,2096921,182489,604760,0
2096921,2096921,182498,604649,0
2096921,2096921,182291,604687,0
2096921,2096921,182206,604914,0
2096921,2096921,182265,605025,0
2096921,2096921,182609,604969,0
2096921,2096921,182554,605020,0
2096921,2096921,182394,604954,0
2096921,2096921,182540,605101,0
2096921,2096921,182767,605405,0
2096921,2096921,182582,605418,0
2096921,2096921,182276,605148,0
2096921,2096921,182561,605289,0
2096921,2096921,182520,605140,0
2096921,2096921,182600,605718,0
2096921,2096921,182726,605845,0
2096921,2096921,182596,605743,0
2096921,2096921,182656,605618,0
2096921,2096921,182478,605619,0
2096921,2096921,182766,606111,0
2096921,2096921,182483,606042,0
2096921,2096921,182495,605781,0
2096921,2096921,182708,605807,0
2096921,2096921,182942,606300,0
2096921,2096921,182873,606194,0
2096921,2096921,182758,606377,0
2096921,2096921,183041,606393,0
2096921,2096921,182936,606330,0
2096921,2096921,183061,606501,0
2096921,2096921,182820,606657,0
2096921,2096921,182707,606612,0
2096921,2096921,183038,606266,0
2096921,2096921,183048,606600,0
2096921,2096921,183001,606376,0
2096921,2096921,183065,606688,0
2096921,2096921,182804,606932,0
2096921,2096921,182901,606956,0
2096921,2096921,183083,606876,0
2096921,2096921,183184,606987,0
2096921,2096921,182914,606962,0
2096921,2096921,182938,607089,0
2096921,2096921,183023,606776,0
2096921,2096921,182882,607075,0
2096921,2096921,183040,606850,0
2096921,2096921,183154,607449,0
2096921,2096921,183132,607453,0
2096921,2096921,183236,607331,0
2096921,2096921,183274,607450,0
2096921,2096921,183382,607937,0
2096921,2096921,183087,607881,0
2096921,2096921,183429,608128,0
2096921,2096921,183296,607749,0
2096921,2096921,183100,607967,0
2096921,2096921,183535,607834,0
2096921,2096921,183503,608192,0
2096921,2096921,183547,608170,0
2096921,2096921,183417,608053,0
2096921,2096921,183532,607836,0
2096921,2096921,183495,608040,0
2096921,2096921,183723,608304,0
2096921,2096921,183749,608416,0
2096921,2096921,183190,608279,0
2096921,2096921,183360,608201,0
2096921,2096921,183634,608166,0
2096921,2096921,183965,608612,0
2096921,2096921,183910,608251,0
2096921,2096921,183630,608625,0
2096921,2096921,183694,608465,0
2096921,2096921,183325,608527,0
2096921,2096921,183368,608329,0
2096921,2096921,183548,608458,0
2096921,2096921,183239,608307,0
2096921,2096921,183440,608183,0
2096921,2096921,183332,608025,0
2096921,2096921,183402,607958,0
2096921,2096921,183098,607921,0
2096921,2096921,183560,607958,0
2096921,2096921,183207,608152,0
2096921,2096921,182952,607740,0
2096921,2096921,182980,607604,0
2096921,2096921,183000,607325,0
2096921,2096921,182907,607087,0
2096921,2096921,182831,607585,0
2096921,2096921,182598,606822,0
2096921,2096921,182824,606487,0
2096921,2096921,182812,606797,0
2096921,2096921,182615,606285,0
2096921,2096921,182626,606188,0
2096921,2096921,182272,605667,0
2096921,2096921,182242,605327,0
2096921,2096921,182334,605059,0
2096921,2096921,182428,605083,0
2096921,2096921,182189,605328,0
2096921,2096921,181435,603793,0
2096921,2096921,181450,602711,0
2096921,2096921,181139,602502,0
2096921,2096921,181384,602379,0
2096921,2096921,181166,602803,0
2096921,2096921,180170,600607,0
2096921,2096921,179938,599108,0
2096921,2096921,179900,598927,0
2096921,2096921,179857,598922,0
2096921,2096921,179717,598971,0
2096921,2096921,179099,597740,0
2096921,2096921,179082,596547,0
2096921,2096921,179031,596754,0
2096921,2096921,178886,596789,0
2096921,2096921,178701,596575,0
2096921,2096921,178188,595340,0
2096921,2096921,178108,594639,0
2096921,2096921,178221,594470,0
2096921,2096921,178056,594571,0
2096921,2096921,178058,594501,0
2096921,2096921,177797,593986,0
2096921,2096921,177679,593309,0
2096921,2096921,177872,593411,0
2096921,2096921,177786,593419,0
2096921,2096921,177822,593576,0
2096921,2096921,177668,592961,0
2096921,2096921,177652,592571,0
2096921,2096921,177543,592660,0
2096921,2096921,177122,592640,0
2096921,2096921,177365,592482,0
2096921,2096921,177286,592654,0
2096921,2096921,177049,591941,0
2096921,2096921,177407,592277,0
2096921,2096921,177443,592143,0
2096921,2096921,177370,592242,0
2096921,2096921,177063,591928,0
2096921,2096921,177229,591926,0
2096921,2096921,177083,591628,0
2096921,2096921,176980,591770,0
2096921,2096921,177114,591919,0
2096921,2096921,177087,591875,0
2096921,2096921,176994,591843,0
2096921,2096921,177307,591907,0
2096921,2096921,176876,591884,0
2096921,2096921,177292,591957,0
2096921,2096921,177061,591966,0
2096921,2096921,176970,592343,0
2096921,2096921,177262,592317,0
2096921,2096921,177345,592354,0
2096921,2096921,176842,592165,0
2096921,2096921,177537,592389,0
2096921,2096921,177353,592924,0
2096921,2096921,177229,592727,0
2096921,2096921,177747,592745,0
2096921,2096921,177789,593056,0
2096921,2096921,177553,593055,0
2096921,2096921,177529,593272,0
2096921,2096921,177255,593318,0
2096921,2096921,177640,593071,0
2096921,2096921,177460,593276,0
2096921,2096921,177903,593523,0
2096921,2096921,178176,594079,0
2096921,2096921,177853,593746,0
2096921,2096921,177817,593873,0
2096921,2096921,177714,593916,0
2096921,2096921,178173,594155,0
2096921,2096921,178382,594520,0
2096921,2096921,178193,594724,0
2096921,2096921,178247,594654,0
2096921,2096921,178304,594964,0
2096921,2096921,178501,595102,0
2096921,2096921,178520,595267,0
2096921,2096921,178664,595612,0
2096921,2096921,178590,595643,0
2096921,2096921,178566,595641,0
2096921,2096921,178748,596117,0
2096921,2096921,178878,596552,0
2096921,2096921,178478,596597,0
2096921,2096921,178534,596786,0
2096921,2096921,178832,596808,0
2096921,2096921,178888,596934,0
2096921,2096921,179299,597619,0
2096921,2096921,179174,597532,0
2096921,2096921,179118,597929,0
2096921,2096921,179088,597949,0
2096921,2096921,179538,598168,0
2096921,2096921,179524,598413,0
2096921,2096921,179546,598429,0
2096921,2096921,179459,598463,0
2096921,2096921,179521,598674,0
2096921,2096921,179624,598547,0
2096921,2096921,179982,599407,0
2096921,2096921,179833,599306,0
2096921,2096921,179705,599368,0
2096921,2096921,179778,599385,0
2096921,2096921,180082,600147,0
2096921,2096921,180088,600235,0
2096921,2096921,180291,600487,0
2096921,2096921,179983,600277,0
2096921,2096921,180049,600277,0
2096921,2096921,180367,600617,0
2096921,2096921,180563,601274,0
2096921,2096921,180531,601330,0
2096921,2096921,180774,601397,0
2096921,2096921,180343,601446,0
2096921,2096921,180720,601814,0
2096921,2096921,180695,602359,0
2096921,2096921,180686,602343,0
2096921,2096921,180643,602171,0
2096921,2096921,180840,602341,0
2096921,2096921,181101,602469,0
2096921,2096921,181232,603238,0
2096921,2096921,181144,603402,0
2096921,2096921,181111,603489,0
2096921,2096921,181158,603409,0
2096921,2096921,181410,603692,0
2096921,2096921,181242,603969,0
2096921,2096921,181355,604303,0
2096921,2096921,181182,604050,0
2096921,2096921,181598,604346,0
2096921,2096921,181698,604935,0
2096921,2096921,181743,605218,0
2096921,2096921,181993,605207,0
2096921,2096921,181921,605275,0
2096921,2096921,181808,605494,0
2096921,2096921,182131,605959,0
2096921,2096921,181821,606017,0
2096921,2096921,181864,605976,0
2096921,2096921,181896,606009,0
2096921,2096921,182068,606166,0
2096921,2096921,182236,606353,0
2096921,2096921,182600,606851,0
2096921,2096921,182357,607134,0
2096921,2096921,182399,607013,0
2096921,2096921,182418,607049,0
2096921,2096921,182595,607230,0
2096921,2096921,182387,607335,0
2096921,2096921,182671,607300,0
2096921,2096921,182341,607392,0
2096921,2096921,182497,607513,0
2096921,2096921,182577,607811,0
2096921,2096921,182731,607995,0
2096921,2096921,182689,607981,0
2096921,2096921,182964,608153,0
2096921,2096921,182764,607922,0
2096921,2096921,182761,608391,0
2096921,2096921,182775,608467,0
2096921,2096921,182965,608662,0
2096921,2096921,182786,608395,0
2096921,2096921,182714,608351,0
2096921,2096921,182912,608711,0
2096921,2096921,182889,608835,0
2096921,2096921,182997,608853,0
2096921,2096921,183019,608911,0
2096921,2096921,182983,609088,0
2096921,2096921,183012,608848,0
2096921,2096921,183355,609145,0
2096921,2096921,183169,608920,0
2096921,2096921,183094,609167,0
2096921,2096921,183060,608983,0
2096921,2096921,182889,609166,0
2096921,2096921,183204,608958,0
2096921,2096921,183392,609262,0
2096921,2096921,183085,609160,0
2096921,2096921,182988,609309,0
2096921,2096921,183300,609320,0
2096921,2096921,183308,609351,0
2096921,2096921,182970,608879,0
2096921,2096921,182873,608796,0
2096921,2096921,182929,608986,0
2096921,2096921,183044,609141,0
2096921,2096921,182930,609090,0
2096921,2096921,183139,609245,0
2096921,2096921,183176,609285,0
2096921,2096921,183241,609006,0
2096921,2096921,183202,609189,0
2096921,2096921,183022,609197,0
2096921,2096921,182856,609453,0
2096921,2096921,183058,609088,0
2096921,2096921,182990,609346,0
2096921,2096921,183184,608940,0
2096921,2096921,182974,609248,0
2096921,2096921,182869,609199,0
2096921,2096921,183278,609600,0
2096921,2096921,183175,609552,0
2096921,2096921,183235,609354,0
2096921,2096921,183055,609594,0
2096921,2096921,183041,609463,0
2096921,2096921,183134,609393,0
2096921,2096921,183077,609000,0
2096921,2096921,183319,609321,0
2096921,2096921,183355,609498,0
2096921,2096921,183230,609493,0
2096921,2096921,183105,609396,0
2096921,2096921,183279,609615,0
2096921,2096921,183294,609828,0
2096921,2096921,183741,610105,0
2096921,2096921,183313,609790,0
2096921,2096921,183264,609887,0
2096921,2096921,183189,609871,0
2096921,2096921,183522,609958,0
2096921,2096921,183589,609963,0
2096921,2096921,183568,610352,0
2096921,2096921,183580,610420,0
2096921,2096921,183707,610689,0
2096921,2096921,183724,610760,0
2096921,2096921,183265,610650,0
2096921,2096921,183491,610626,0
2096921,2096921,183546,610510,0
2096921,2096921,183547,610412,0
2096921,2096921,183594,611036,0
2096921,2096921,183960,611229,0
2096921,2096921,183894,611274,0
2096921,2096921,183880,611306,0
2096921,2096921,183849,611489,0
2096921,2096921,184020,612017,0
2096921,2096921,183994,612126,0
2096921,2096921,184111,612043,0
2096921,2096921,184082,612024,0
2096921,2096921,184049,612221,0
2096921,2096921,184184,612472,0
2096921,2096921,184234,613015,0
2096921,2096921,184237,612999,0
2096921,2096921,184211,613143,0
2096921,2096921,184440,612757,0
2096921,2096921,184455,612977,0
2096921,2096921,184403,613591,0
2096921,2096921,184455,613415,0
2096921,2096921,184513,613421,0
2096921,2096921,184523,613468,0
2096921,2096921,184563,613718,0
2096921,2096921,184833,614011,0
2096921,2096921,184899,613787,0
2096921,2096921,185012,614104,0
2096921,2096921,184926,614046,0
2096921,2096921,185013,614246,0
2096921,2096921,185172,614501,0
2096921,2096921,185088,614474,0
2096921,2096921,184958,614292,0
2096921,2096921,185165,614647,0
2096921,2096921,185008,614666,0
2096921,2096921,185236,614841,0
2096921,2096921,185196,614918,0
2096921,2096921,185146,614950,0
2096921,2096921,184859,615006,0
2096921,2096921,185264,615376,0
2096921,2096921,185151,615585,0
2096921,2096921,185380,615673,0
2096921,2096921,185356,615410,0
2096921,2096921,185369,615543,0
2096921,2096921,185155,615663,0
2096921,2096921,185685,616152,0
2096921,2096921,185612,616137,0
2096921,2096921,185672,616186,0
2096921,2096921,185442,616253,0
2096921,2096921,186006,616482,0
2096921,2096921,185647,616588,0
2096921,2096921,185875,616649,0
2096921,2096921,185565,616750,0
2096921,2096921,185920,616858,0
2096921,2096921,185835,617167,0
2096921,2096921,185991,617020,0
2096921,2096921,185967,617311,0
2096921,2096921,186087,617233,0
2096921,2096921,185649,617264,0
2096921,2096921,185968,617441,0
2096921,2096921,185858,617920,0
2096921,2096921,186205,617840,0
2096921,2096921,185901,617653,0
2096921,2096921,185989,617142,0
2096921,2096921,186156,617986,0
2096921,2096921,186302,618193,0
2096921,2096921,186197,617841,0
2096921,2096921,186343,618322,0
2096921,2096921,186204,618196,0
2096921,2096921,186529,618451,0
2096921,2096921,186446,618671,0
2096921,2096921,186426,618692,0
2096921,2096921,186394,618382,0
2096921,2096921,186530,618819,0
2096921,2096921,186385,619087,0
2096921,2096921,186531,619326,0
2096921,2096921,186591,619196,0
2096921,2096921,186764,619201,0
2096921,2096921,186419,619156,0
2096921,2096921,186827,619419,0
2096921,2096921,186822,619492,0
2096921,2096921,186593,619337,0
2096921,2096921,186651,619305,0
2096921,2096921,186546,619320,0
2096921,2096921,186777,619410,0
2096921,2096921,186847,619791,0
2096921,2096921,187135,620236,0
2096921,2096921,186814,620113,0
2096921,2096921,186803,619974,0
2096921,2096921,186947,620327,0
2096921,2096921,186617,620314,0
2096921,2096921,186891,620286,0
2096921,2096921,186678,620402,0
2096921,2096921,186930,620181,0
2096921,2096921,187143,620277,0
2096921,2096921,187020,620580,0
2096921,2096921,187085,620628,0
2096921,2096921,187130,620628,0
2096921,2096921,187249,620757,0
2096921,2096921,187327,620657,0
2096921,2096921,187337,620777,0
2096921,2096921,187116,620893,0
2096921,2096921,187147,621065,0
2096921,2096921,187382,620793,0
2096921,2096921,187389,621265,0
2096921,2096921,187103,621081,0
2096921,2096921,187364,621089,0
2096921,2096921,187409,621496,0
2096921,2096921,187285,621457,0
2096921,2096921,187354,621567,0
2096921,2096921,187465,621647,0
2096921,2096921,187578,621499,0
2096921,2096921,187399,621380,0
2096921,2096921,187583,621446,0
2096921,2096921,187657,621586,0
2096921,2096921,187459,621801,0
2096921,2096921,187608,621837,0
2096921,2096921,187398,622308,0
2096921,2096921,187702,622086,0
2096921,2096921,187928,622393,0
2096921,2096921,187564,622128,0
2096921,2096921,187395,622136,0
2096921,2096921,187663,622204,0
2096921,2096921,187306,622169,0
2096921,2096921,187383,622081,0
2096921,2096921,187427,622258,0
2096921,2096921,187565,622335,0
2096921,2096921,187911,622403,0
2096921,2096921,187998,622555,0
2096921,2096921,188036,622339,0
2096921,2096921,187804,622407,0
2096921,2096921,187764,622517,0
2096921,2096921,187555,622463,0
2096921,2096921,187756,622501,0
2096921,2096921,187941,622680,0
2096921,2096921,187821,622893,0
2096921,2096921,188048,622958,0
2096921,2096921,187945,622861,0
2096921,2096921,187850,622793,0
2096921,2096921,187715,623031,0
2096921,2096921,187983,622806,0
2096921,2096921,187576,622956,0
2096921,2096921,188114,622669,0
2096921,2096921,187768,623108,0
2096921,2096921,188234,623341,0
2096921,2096921,188024,623225,0
2096921,2096921,188185,623144,0
2096921,2096921,188031,623593,0
2096921,2096921,188018,623115,0
2096921,2096921,188114,623260,0
2096921,2096921,187871,623458,0
2096921,2096921,188016,623352,0
2096921,2096921,188008,623196,0
2096921,2096921,187713,622998,0
2096921,2096921,187916,623128,0
2096921,2096921,188303,623691,0
2096921,2096921,188218,623469,0
2096921,2096921,188221,623281,0
2096921,2096921,188472,623676,0
2096921,2096921,188304,623508,0
2096921,2096921,188120,623335,0
2096921,2096921,188207,623546,0
2096921,2096921,188045,623491,0
2096921,2096921,188117,623555,0
2096921,2096921,188331,623287,0
2096921,2096921,188079,623371,0
2096921,2096921,188267,623673,0
2096921,2096921,188131,623675,0
2096921,2096921,188484,623433,0
2096921,2096921,188464,623673,0
2096921,2096921,188340,623715,0
2096921,2096921,188170,623739,0
2096921,2096921,188284,623679,0
2096921,2096921,188448,623629,0
2096921,2096921,188318,623736,0
2096921,2096921,188119,623951,0
2096921,2096921,188284,623712,0
2096921,2096921,188256,623844,0
2096921,2096921,188165,624175,0
2096921,2096921,188243,623954,0
2096921,2096921,188184,624138,0
2096921,2096921,188166,624080,0
2096921,2096921,188186,623981,0
2096921,2096921,188385,623996,0
2096921,2096921,188507,624398,0
2096921,2096921,188407,624126,0
2096921,2096921,188295,624413,0
2096921,2096921,188644,624317,0
2096921,2096921,188534,624322,0
2096921,2096921,188397,624284,0
2096921,2096921,188559,624599,0
2096921,2096921,188492,624325,0
2096921,2096921,188424,624493,0
2096921,2096921,188281,624407,0
2096921,2096921,188570,624361,0
2096921,2096921,188606,624465,0
2096921,2096921,188543,624613,0
2096921,2096921,188341,624653,0
2096921,2096921,188524,624481,0
2096921,2096921,188802,624511,0
2096921,2096921,188391,624547,0
2096921,2096921,188523,624406,0
2096921,2096921,188335,624519,0
2096921,2096921,188648,624330,0
2096921,2096921,188413,624450,0
2096921,2096921,188535,624701,0
2096921,2096921,188564,624722,0
2096921,2096921,188749,624502,0
2096921,2096921,188679,624439,0
2096921,2096921,188839,624962,0
2096921,2096921,188646,625028,0
2096921,2096921,188774,624775,0
2096921,2096921,188390,624942,0
2096921,2096921,188197,624626,0
2096921,2096921,188712,624445,0
2096921,2096921,188686,624632,0
2096921,2096921,188962,624922,0
2096921,2096921,188645,624894,0
2096921,2096921,188606,625276,0
2096921,2096921,188739,624931,0
2096921,2096921,188533,625081,0
2096921,2096921,188496,624709,0
2096921,2096921,188703,625025,0
2096921,2096921,188665,624615,0
2096921,2096921,188774,624870,0
2096921,2096921,188580,624939,0
2096921,2096921,188527,625047,0
2096921,2096921,188376,624919,0
2096921,2096921,188938,625034,0
2096921,2096921,188699,624903,0
2096921,2096921,188608,624858,0
2096921,2096921,188726,624584,0
2096921,2096921,188681,624892,0
2096921,2096921,188455,624527,0
2096921,2096921,188570,624750,0
2096921,2096921,188817,624816,0
2096921,2096921,188665,625137,0
2096921,2096921,188632,625038,0
2096921,2096921,188961,624872,0
2096921,2096921,188463,625003,0
2096921,2096921,188464,624739,0
2096921,2096921,188647,624953,0
2096921,2096921,188521,625089,0
2096921,2096921,188565,624978,0
2096921,2096921,188519,625119,0
2096921,2096921,188486,625095,0
2096921,2096921,188661,624994,0
2096921,2096921,188926,624893,0
2096921,2096921,188956,624976,0
2096921,2096921,188774,625071,0
2096921,2096921,188709,624946,0
2096921,2096921,188643,624985,0
2096921,2096921,188719,624988,0
2096921,2096921,188545,624956,0
2096921,2096921,188632,625147,0
2096921,2096921,188504,625206,0
2096921,2096921,188747,624917,0
2096921,2096921,188622,625046,0
2096921,2096921,188701,625074,0
2096921,2096921,188660,625414,0
2096921,2096921,188832,625068,0
2096921,2096921,188479,625158,0
2096921,2096921,188797,624717,0
2096921,2096921,188398,624737,0
2096921,2096921,188816,624835,0
2096921,2096921,188729,625045,0
2096921,2096921,188762,625174,0
2096921,2096921,188808,625131,0
2096921,2096921,188747,624940,0
2096921,2096921,188616,624829,0
2096921,2096921,188614,624284,0
2096921,2096921,188568,624343,0
2096921,2096921,188332,624393,0
2096921,2096921,188387,624504,0
2096921,2096921,188213,623869,0
2096921,2096921,188202,623839,0
2096921,2096921,188318,623458,0
2096921,2096921,188223,623607,0
2096921,2096921,188472,623733,0
2096921,2096921,187886,623279,0
2096921,2096921,187665,622512,0
2096921,2096921,187553,622440,0
2096921,2096921,187994,622597,0
2096921,2096921,187832,622886,0
2096921,2096921,187529,622022,0
2096921,2096921,187408,621471,0
2096921,2096921,187597,621263,0
2096921,2096921,187266,621469,0
2096921,2096921,187454,621489,0
2096921,2096921,186825,620578,0
2096921,2096921,186921,620110,0
2096921,2096921,187067,619892,0
2096921,2096921,186868,619987,0
2096921,2096921,186847,619901,0
2096921,2096921,186059,618388,0
2096921,2096921,185524,617281,0
2096921,2096921,185611,616619,0
2096921,2096921,185823,616975,0
2096921,2096921,185753,617087,0
2096921,2096921,184454,614972,0
2096921,2096921,184118,613273,0
2096921,2096921,184169,612684,0
2096921,2096921,184145,612546,0
2096921,2096921,184392,612770,0
2096921,2096921,183461,611201,0
2096921,2096921,183121,610169,0
2096921,2096921,183058,609924,0
2096921,2096921,183092,610042,0
2096921,2096921,183136,609617,0
2096921,2096921,182592,608785,0
2096921,2096921,182120,607948,0
2096921,2096921,182220,607457,0
2096921,2096921,182291,607411,0
2096921,2096921,182123,607637,0
2096921,2096921,181766,606360,0
2096921,2096921,181658,606148,0
2096921,2096921,181640,606018,0
2096921,2096921,181607,606036,0
2096921,2096921,181628,606051,0
2096921,2096921,181381,605315,0
2096921,2096921,181345,604710,0
2096921,2096921,181211,604385,0
2096921,2096921,180783,604500,0
2096921,2096921,181177,604528,0
2096921,2096921,180869,604295,0
2096921,2096921,180949,603883,0
2096921,2096921,180972,603766,0
2096921,2096921,180891,604064,0
2096921,2096921,180987,604132,0
2096921,2096921,180689,603639,0
2096921,2096921,180712,603332,0
2096921,2096921,180782,603206,0
2096921,2096921,180457,603086,0
2096921,2096921,180670,603374,0
2096921,2096921,180763,603159,0
2096921,2096921,180470,602603,0
2096921,2096921,180551,602929,0
2096921,2096921,180313,602958,0
2096921,2096921,180409,602786,0
2096921,2096921,180348,603161,0
2096921,2096921,180523,602805,0
2096921,2096921,180543,602628,0
2096921,2096921,180157,602812,0
2096921,2096921,180303,602704,0
2096921,2096921,180709,602854,0
2096921,2096921,180962,602984,0
2096921,2096921,180552,603101,0
2096921,2096921,180726,603065,0
2096921,2096921,180664,603085,0
2096921,2096921,180544,602997,0
2096921,2096921,180563,602928,0
2096921,2096921,180526,603166,0
2096921,2096921,180433,602716,0
2096921,2096921,180556,602754,0
2096921,2096921,180632,603131,0
2096921,2096921,180881,603122,0
2096921,2096921,180785,603360,0
2096921,2096921,180872,603348,0
2096921,2096921,180819,603236,0
2096921,2096921,180763,603434,0
2096921,2096921,181054,603717,0
2096921,2096921,180790,603803,0
2096921,2096921,180778,603719,0
2096921,2096921,180957,603508,0
2096921,2096921,180961,603963,0
2096921,2096921,181047,603946,0
2096921,2096921,181093,604186,0
2096921,2096921,181073,603908,0
2096921,2096921,181031,604033,0
2096921,2096921,181336,604285,0
2096921,2096921,181123,604815,0
2096921,2096921,181246,604690,0
2096921,2096921,181181,604672,0
2096921,2096921,181264,604444,0
2096921,2096921,181214,605107,0
2096921,2096921,181383,605241,0
2096921,2096921,181426,605330,0
2096921,2096921,181538,605350,0
2096921,2096921,181796,605272,0
2096921,2096921,181801,605535,0
2096921,2096921,181177,605685,0
2096921,2096921,181447,605181,0
2096921,2096921,181562,605477,0
2096921,2096921,181516,605341,0
2096921,2096921,181554,606048,0
2096921,2096921,181804,606158,0
2096921,2096921,181854,606083,0
2096921,2096921,181665,606001,0
2096921,2096921,181614,606167,0
2096921,2096921,181935,606259,0
2096921,2096921,182059,606453,0
2096921,2096921,181830,606550,0
2096921,2096921,181609,606516,0
2096921,2096921,181668,606369,0
2096921,2096921,182235,606720,0
2096921,2096921,182415,606755,0
2096921,2096921,182065,607262,0
2096921,2096921,182275,607191,0
2096921,2096921,182046,607136,0
2096921,2096921,182352,607310,0
2096921,2096921,182532,607327,0
2096921,2096921,182368,607396,0
2096921,2096921,182641,607387,0
2096921,2096921,182471,607603,0
2096921,2096921,182496,607962,0
2096921,2096921,182592,607802,0
2096921,2096921,182796,608346,0
2096921,2096921,182578,608187,0
2096921,2096921,182598,608003,0
2096921,2096921,182890,608062,0
2096921,2096921,182598,608480,0
2096921,2096921,182711,608470,0
2096921,2096921,182906,608323,0
2096921,2096921,182578,608393,0
2096921,2096921,182935,608939,0
2096921,2096921,183148,608980,0
2096921,2096921,182995,608922,0
2096921,2096921,182944,608909,0
2096921,2096921,182975,609016,0
2096921,2096921,182984,609179,0
2096921,2096921,183183,608984,0
2096921,2096921,183083,609153,0
2096921,2096921,183168,609134,0
2096921,2096921,183019,609086,0
2096921,2096921,183286,609470,0
2096921,2096921,183364,609792,0
2096921,2096921,183328,609857,0
2096921,2096921,183441,609554,0
2096921,2096921,183333,609589,0
2096921,2096921,183586,609646,0
2096921,2096921,183582,609921,0
2096921,2096921,183435,609944,0
2096921,2096921,183188,609739,0
2096921,2096921,183270,609732,0
2096921,2096921,183175,609796,0
2096921,2096921,183359,609940,0
2096921,2096921,183531,609841,0
2096921,2096921,183508,610093,0
2096921,2096921,183290,610075,0
2096921,2096921,183262,610047,0
2096921,2096921,183499,609802,0
2096921,2096921,183589,609865,0
2096921,2096921,183334,609838,0
2096921,2096921,182993,609888,0
2096921,2096921,182997,609738,0
2096921,2096921,183174,609529,0
2096921,2096921,183400,609811,0
2096921,2096921,183424,609649,0
2096921,2096921,183497,609653,0
2096921,2096921,183328,609840,0
2096921,2096921,183407,609349,0
2096921,2096921,183225,609436,0
2096921,2096921,183370,609458,0
2096921,2096921,183337,608819,0
2096921,2096921,183018,608847,0
2096921,2096921,182998,608709,0
2096921,2096921,183114,608895,0
2096921,2096921,183311,608726,0
2096921,2096921,183041,608645,0
2096921,2096921,182784,608740,0
2096921,2096921,183024,608272,0
2096921,2096921,182652,608576,0
2096921,2096921,182757,608228,0
2096921,2096921,182894,608329,0
2096921,2096921,182745,608147,0
2096921,2096921,183041,608166,0
2096921,2096921,182682,607773,0
2096921,2096921,182961,608078,0
2096921,2096921,182884,608067,0
2096921,2096921,182854,607904,0
2096921,2096921,182575,607401,0
2096921,2096921,182381,607418,0
2096921,2096921,182494,607317,0
2096921,2096921,182763,607420,0
2096921,2096921,182413,607550,0
2096921,2096921,182406,607141,0
2096921,2096921,182543,607104,0
2096921,2096921,182583,607325,0
2096921,2096921,182727,607520,0
2096921,2096921,182371,607311,0
2096921,2096921,182297,607166,0
2096921,2096921,182583,606874,0
2096921,2096921,182390,606791,0
2096921,2096921,182335,607011,0
2096921,2096921,182264,606784,0
2096921,2096921,182272,606776,0
2096921,2096921,182215,606726,0
2096921,2096921,182593,606762,0
2096921,2096921,182389,606527,0
2096921,2096921,182067,606766,0
2096921,2096921,182375,606580,0
2096921,2096921,182041,606654,0
2096921,2096921,182020,606463,0
2096921,2096921,182059,606397,0
2096921,2096921,182001,606459,0
2096921,2096921,182167,606185,0
2096921,2096921,182103,606301,0
2096921,2096921,182177,606616,0
2096921,2096921,182133,606308,0
2096921,2096921,182356,606578,0
2096921,2096921,182106,606324,0
2096921,2096921,182082,606262,0
2096921,2096921,182537,606539,0
2096921,2096921,182242,606097,0
2096921,2096921,182286,606516,0
2096921,2096921,182393,606509,0
2096921,2096921,182258,606581,0
2096921,2096921,182478,606322,0
2096921,2096921,182447,606462,0
2096921,2096921,182385,606574,0
2096921,2096921,182356,606728,0
2096921,2096921,182566,606705,0
2096921,2096921,182510,606857,0
2096921,2096921,182342,606382,0
2096921,2096921,182615,606771,0
2096921,2096921,182501,606847,0
2096921,2096921,182654,606669,0
2096921,2096921,182592,606793,0
2096921,2096921,182172,607110,0
2096921,2096921,182415,607226,0
2096921,2096921,182634,607234,0
2096921,2096921,182392,607001,0
2096921,2096921,182369,606954,0
2096921,2096921,182768,606994,0
2096921,2096921,182508,607086,0
2096921,2096921,182595,606918,0
2096921,2096921,182713,607193,0
2096921,2096921,182820,607235,0
2096921,2096921,182813,607306,0
2096921,2096921,182682,607153,0
2096921,2096921,183091,607303,0
2096921,2096921,182675,607348,0
2096921,2096921,182602,607276,0
2096921,2096921,182415,607343,0
2096921,2096921,182285,607536,0
2096921,2096921,182647,607295,0
2096921,2096921,182873,607306,0
2096921,2096921,182680,607400,0
2096921,2096921,182522,607275,0
2096921,2096921,183030,607564,0
2096921,2096921,182917,607702,0
2096921,2096921,182672,607190,0
2096921,2096921,182944,607397,0
2096921,2096921,182778,607336,0
2096921,2096921,182606,607493,0
2096921,2096921,182628,607481,0
2096921,2096921,182760,607795,0
2096921,2096921,182861,607869,0
2096921,2096921,182714,607600,0
2096921,2096921,182761,607659,0
2096921,2096921,182785,607624,0
2096921,2096921,182774,607497,0
2096921,2096921,183046,607557,0
2096921,2096921,182524,607482,0
2096921,2096921,182947,607578,0
2096921,2096921,182782,607680,0
2096921,2096921,183039,607590,0
2096921,2096921,182780,607735,0
2096921,2096921,183001,607875,0
2096921,2096921,182752,607667,0
2096921,2096921,182914,607708,0
2096921,2096921,182644,607776,0
2096921,2096921,182893,607728,0
2096921,2096921,182672,607691,0
2096921,2096921,183116,607904,0
2096921,2096921,182723,607757,0
2096921,2096921,182863,607959,0
2096921,2096921,182980,608086,0
2096921,2096921,182910,607686,0
2096921,2096921,183005,607927,0
2096921,2096921,183191,607837,0
2096921,2096921,183118,607792,0
2096921,2096921,183098,607712,0
2096921,2096921,182942,607812,0
2096921,2096921,183300,607620,0
2096921,2096921,183347,607652,0
2096921,2096921,183286,607843,0
2096921,2096921,183290,607993,0
2096921,2096921,182969,608002,0
2096921,2096921,183269,607845,0
2096921,2096921,182985,607844,0
2096921,2096921,182939,607847,0
2096921,2096921,182741,607749,0
2096921,2096921,183008,607805,0
2096921,2096921,183022,607899,0
2096921,2096921,183311,608052,0
2096921,2096921,183220,607865,0
2096921,2096921,183038,607781,0
2096921,2096921,183232,607961,0
2096921,2096921,183026,607910,0
2096921,2096921,182851,607454,0
2096921,2096921,182986,607997,0
2096921,2096921,183306,608078,0
2096921,2096921,183107,608076,0
2096921,2096921,182867,607897,0
2096921,2096921,183050,607767,0
2096921,2096921,182848,607609,0
2096921,2096921,183106,607896,0
2096921,2096921,183105,607826,0
2096921,2096921,183070,607994,0
2096921,2096921,183239,607979,0
2096921,2096921,183463,607938,0
2096921,2096921,183268,607855,0
2096921,2096921,183208,607749,0
2096921,2096921,182775,607942,0
2096921,2096921,182723,607904,0
2096921,2096921,182894,607602,0
2096921,2096921,183415,607451,0
2096921,2096921,183073,607921,0
2096921,2096921,183090,607857,0
2096921,2096921,183139,607942,0
2096921,2096921,183346,607552,0
2096921,2096921,183050,607644,0
2096921,2096921,183154,607733,0
2096921,2096921,183023,607844,0
2096921,2096921,183410,607591,0
2096921,2096921,183195,607459,0
2096921,2096921,183222,607452,0
2096921,2096921,183053,607676,0
2096921,2096921,183368,607831,0
2096921,2096921,183286,607378,0
2096921,2096921,183288,607469,0
2096921,2096921,182962,607671,0
2096921,2096921,183058,607677,0
2096921,2096921,183092,607295,0
2096921,2096921,183208,607501,0
2096921,2096921,183012,607610,0
2096921,2096921,183342,607517,0
2096921,2096921,183247,607756,0
2096921,2096921,183276,607624,0
2096921,2096921,183067,607454,0
2096921,2096921,183156,607481,0
2096921,2096921,182932,607226,0
2096921,2096921,183168,607159,0
2096921,2096921,182922,607121,0
2096921,2096921,182959,607288,0
2096921,2096921,182776,607153,0
2096921,2096921,183173,607033,0
2096921,2096921,183033,607387,0
2096921,2096921,183123,607564,0
2096921,2096921,183068,607201,0
2096921,2096921,182888,606740,0
2096921,2096921,183013,606923,0
2096921,2096921,183195,607147,0
2096921,2096921,182796,607097,0
2096921,2096921,182873,606869,0
2096921,2096921,183132,607081,0
2096921,2096921,183203,607296,0
2096921,2096921,183163,606847,0
2096921,2096921,182859,606720,0
2096921,2096921,182925,607127,0
2096921,2096921,182975,606938,0
2096921,2096921,182910,606520,0
2096921,2096921,182587,606880,0
2096921,2096921,182860,606866,0
2096921,2096921,182673,606413,0
2096921,2096921,182763,606501,0
2096921,2096921,182957,606608,0
2096921,2096921,182780,606456,0
2096921,2096921,182828,606577,0
2096921,2096921,182751,606272,0
2096921,2096921,182935,606412,0
2096921,2096921,182735,606649,0
2096921,2096921,182629,606654,0
2096921,2096921,182398,606538,0
2096921,2096921,182850,606109,0
2096921,2096921,182847,606316,0
2096921,2096921,182880,606193,0
2096921,2096921,182930,606216,0
2096921,2096921,182777,606151,0
2096921,2096921,182929,606293,0
2096921,2096921,182955,606324,0
2096921,2096921,182724,606094,0
2096921,2096921,182626,606188,0
2096921,2096921,183002,606162,0
2096921,2096921,182514,606324,0
2096921,2096921,182745,605953,0
2096921,2096921,182602,606021,0
2096921,2096921,182831,606043,0
2096921,2096921,183090,605945,0
2096921,2096921,182753,605869,0
2096921,2096921,182666,605826,0
2096921,2096921,182624,605963,0
2096921,2096921,182752,605766,0
2096921,2096921,182729,605474,0
2096921,2096921,182582,605745,0
2096921,2096921,182771,605912,0
2096921,2096921,182791,605946,0
2096921,2096921,182460,605778,0
2096921,2096921,182464,605710,0
2096921,2096921,182683,605762,0
2096921,2096921,182727,605605,0
2096921,2096921,182644,605435,0
2096921,2096921,182473,605680,0
2096921,2096921,182359,605591,0
2096921,2096921,182285,605272,0
2096921,2096921,182410,605578,0
2096921,2096921,182581,605571,0
2096921,2096921,182612,605361,0
2096921,2096921,182508,605453,0
2096921,2096921,182520,605367,0
2096921,2096921,182451,605118,0
2096921,2096921,182234,605198,0
2096921,2096921,182531,605185,0
2096921,2096921,182502,605351,0
2096921,2096921,182464,604954,0
2096921,2096921,182455,604955,0
2096921,2096921,182474,604784,0
2096921,2096921,182568,604975,0
2096921,2096921,182514,604930,0
2096921,2096921,182407,604979,0
2096921,2096921,182283,604586,0
2096921,2096921,182622,604686,0
2096921,2096921,182470,604845,0
2096921,2096921,182235,605182,0
2096921,2096921,182608,605020,0
2096921,2096921,182349,604882,0
2096921,2096921,182674,604992,0
2096921,2096921,182429,604788,0
2096921,2096921,182420,604803,0
2096921,2096921,182535,604588,0
2096921,2096921,182346,604473,0
2096921,2096921,182232,604345,0
2096921,2096921,182087,604578,0
2096921,2096921,181896,604524,0
2096921,2096921,182249,604324,0
2096921,2096921,182265,604378,0
2096921,2096921,182082,604358,0
2096921,2096921,182501,604342,0
2096921,2096921,182160,604400,0
2096921,2096921,182022,604264,0
2096921,2096921,182384,604236,0
2096921,2096921,182271,604183,0
2096921,2096921,181779,604197,0
2096921,2096921,181943,603878,0
2096921,2096921,182074,603692,0
2096921,2096921,182010,603922,0
2096921,2096921,181995,603869,0
2096921,2096921,182210,603924,0
2096921,2096921,182215,603777,0
2096921,2096921,182022,603528,0
2096921,2096921,182034,603709,0
2096921,2096921,182073,603442,0
2096921,2096921,182012,603451,0
2096921,2096921,182408,603385,0
2096921,2096921,182145,603591,0
2096921,2096921,182019,603530,0
2096921,2096921,181861,603490,0
2096921,2096921,182326,603521,0
2096921,2096921,181784,603360,0
2096921,2096921,181690,603486,0
2096921,2096921,181743,603208,0
2096921,2096921,181938,603205,0
2096921,2096921,181772,603204,0
2096921,2096921,181855,602978,0
2096921,2096921,181542,603125,0
2096921,2096921,181914,602873,0
2096921,2096921,181879,603165,0
2096921,2096921,181638,603129,0
2096921,2096921,181596,602980,0
2096921,2096921,181762,602984,0
2096921,2096921,181786,602733,0
2096921,2096921,181721,602591,0
2096921,2096921,181752,602724,0
2096921,2096921,181506,602767,0
2096921,2096921,181508,602715,0
2096921,2096921,181658,602650,0
2096921,2096921,181784,602686,0
2096921,2096921,181870,602893,0
2096921,2096921,181631,602389,0
2096921,2096921,181540,601938,0
2096921,2096921,181256,601743,0
2096921,2096921,181418,601602,0
2096921,2096921,181453,601782,0
2096921,2096921,181231,601514,0
2096921,2096921,181201,601121,0
2096921,2096921,181403,601199,0
2096921,2096921,181237,601250,0
2096921,2096921,181197,601223,0
2096921,2096921,181033,600512,0
2096921,2096921,180823,599997,0
2096921,2096921,180716,600174,0
2096921,2096921,180812,599932,0
2096921,2096921,180608,599794,0
2096921,2096921,180111,599214,0
2096921,2096921,180256,598539,0
2096921,2096921,180115,598702,0
2096921,2096921,180435,598396,0
2096921,2096921,180407,598548,0
2096921,2096921,179794,597758,0
2096921,2096921,179794,597249,0
2096921,2096921,179763,597042,0
2096921,2096921,179976,597238,0
2096921,2096921,179845,596844,0
2096921,2096921,178881,595240,0
2096921,2096921,178284,593799,0
2096921,2096921,178330,593682,0
2096921,2096921,178758,593668,0
2096921,2096921,178485,593899,0
2096921,2096921,177497,591691,0
2096921,2096921,177055,590445,0
2096921,2096921,177139,589842,0
2096921,2096921,176941,589991,0
2096921,2096921,177378,589985,0
2096921,2096921,176295,588288,0
2096921,2096921,176208,587008,0
2096921,2096921,176130,587084,0
2096921,2096921,175861,586970,0
2096921,2096921,175809,586980,0
2096921,2096921,175397,585930,0
2096921,2096921,175236,584881,0
2096921,2096921,175153,584558,0
2096921,2096921,174951,584520,0
2096921,2096921,175124,584545,0
2096921,2096921,174566,583748,0
2096921,2096921,174875,583177,0
2096921,2096921,174641,583277,0
2096921,2096921,174724,583138,0
2096921,2096921,174566,582938,0
2096921,2096921,174222,582445,0
2096921,2096921,174391,581801,0
2096921,2096921,174318,581735,0
2096921,2096921,174107,581916,0
2096921,2096921,173834,581722,0
2096921,2096921,173801,581214,0
2096921,2096921,173948,580767,0
2096921,2096921,173969,580814,0
2096921,2096921,173823,580830,0
2096921,2096921,173854,580913,0
2096921,2096921,173496,580861,0
2096921,2096921,173599,580521,0
2096921,2096921,173298,580322,0
2096921,2096921,173340,580432,0
2096921,2096921,173317,580366,0
2096921,2096921,173267,580118,0
2096921,2096921,173378,580140,0
2096921,2096921,173367,580086,0
2096921,2096921,173361,579740,0
2096921,2096921,173509,579792,0
2096921,2096921,173225,580030,0
2096921,2096921,173544,580032,0
2096921,2096921,173415,579956,0
2096921,2096921,173492,579928,0
2096921,2096921,173340,580093,0
2096921,2096921,173533,580114,0
2096921,2096921,173779,580197,0
2096921,2096921,173813,580270,0
2096921,2096921,173563,580267,0
2096921,2096921,173335,580245,0
2096921,2096921,173300,580554,0
2096921,2096921,173653,580186,0
2096921,2096921,173787,580177,0
2096921,2096921,173532,580273,0
2096921,2096921,173257,580116,0
2096921,2096921,173635,580566,0
2096921,2096921,173710,580297,0
2096921,2096921,173711,580300,0
2096921,2096921,173757,580433,0
2096921,2096921,173506,580374,0
2096921,2096921,173655,580648,0
2096921,2096921,173824,580930,0
2096921,2096921,173982,581214,0
2096921,2096921,174028,580852,0
2096921,2096921,173855,581261,0
2096921,2096921,173983,581249,0
2096921,2096921,173702,581392,0
2096921,2096921,173952,581308,0
2096921,2096921,174060,581600,0
2096921,2096921,173993,581348,0
2096921,2096921,174244,581933,0
2096921,2096921,174628,582058,0
2096921,2096921,174202,582128,0
2096921,2096921,174468,582056,0
2096921,2096921,174134,581976,0
2096921,2096921,174252,582489,0
2096921,2096921,174244,582828,0
2096921,2096921,174682,583115,0
2096921,2096921,174450,582755,0
2096921,2096921,174596,582635,0
2096921,2096921,174714,583083,0
2096921,2096921,174831,583322,0
2096921,2096921,175004,583335,0
2096921,2096921,174690,583290,0
2096921,2096921,174882,583327,0
2096921,2096921,175119,583418,0
2096921,2096921,174835,583983,0
2096921,2096921,175143,583806,0
2096921,2096921,175238,583984,0
2096921,2096921,175079,584092,0
2096921,2096921,175251,584437,0
2096921,2096921,175728,584567,0
2096921,2096921,175362,584697,0
2096921,2096921,175168,584634,0
2096921,2096921,175188,584317,0
2096921,2096921,175330,585054,0
2096921,2096921,175240,585249,0
2096921,2096921,175723,584990,0
2096921,2096921,175479,585160,0
2096921,2096921,175374,585306,0
2096921,2096921,175676,585641,0
2096921,2096921,175643,585749,0
2096921,2096921,175544,585702,0
2096921,2096921,175484,585667,0
2096921,2096921,175770,585830,0
2096921,2096921,175906,586124,0
2096921,2096921,175955,586379,0
2096921,2096921,176202,586473,0
2096921,2096921,175899,586415,0
2096921,2096921,176068,586383,0
2096921,2096921,175976,587172,0
2096921,2096921,175873,587266,0
2096921,2096921,176191,587465,0
2096921,2096921,176255,587131,0
2096921,2096921,176098,587062,0
2096921,2096921,176280,587722,0
2096921,2096921,176607,588221,0
2096921,2096921,176652,588056,0
2096921,2096921,176694,587943,0
2096921,2096921,176669,587936,0
2096921,2096921,176550,587948,0
2096921,2096921,176554,588257,0
2096921,2096921,176587,588294,0
2096921,2096921,176412,588225,0
2096921,2096921,176573,588379,0
2096921,2096921,176591,588383,0
2096921,2096921,176670,588886,0
2096921,2096921,176977,589114,0
2096921,2096921,176662,589278,0
2096921,2096921,176821,589182,0
2096921,2096921,177064,589375,0
2096921,2096921,177088,589358,0
2096921,2096921,176949,589382,0
2096921,2096921,177166,589349,0
2096921,2096921,177049,589558,0
2096921,2096921,176999,589304,0
2096921,2096921,176950,589534,0
2096921,2096921,177110,589343,0
2096921,2096921,176873,589490,0
2096921,2096921,176928,589259,0
2096921,2096921,176979,589752,0
2096921,2096921,177168,589519,0
2096921,2096921,177045,589577,0
2096921,2096921,177206,589740,0
2096921,2096921,177164,589814,0
2096921,2096921,177046,589742,0
2096921,2096921,177065,589531,0
2096921,2096921,176913,589855,0
2096921,2096921,177304,589574,0
2096921,2096921,177297,589801,0
2096921,2096921,176875,589317,0
2096921,2096921,177125,589755,0
2096921,2096921,177052,589786,0
2096921,2096921,176761,589784,0
2096921,2096921,176888,589594,0
2096921,2096921,177059,589760,0
2096921,2096921,177047,589530,0
2096921,2096921,176908,589287,0
2096921,2096921,177077,589588,0
2096921,2096921,177160,589599,0
2096921,2096921,177147,589614,0
2096921,2096921,177199,589477,0
2096921,2096921,176843,589279,0
2096921,2096921,176763,589198,0
2096921,2096921,177082,589327,0
2096921,2096921,176941,589240,0
2096921,2096921,177084,588909,0
2096921,2096921,176931,589088,0
2096921,2096921,176893,589071,0
2096921,2096921,176699,589219,0
2096921,2096921,176816,588977,0
2096921,2096921,176710,588796,0
2096921,2096921,176756,588817,0
2096921,2096921,176682,588790,0
2096921,2096921,176733,588958,0
2096921,2096921,176667,588769,0
2096921,2096921,176965,588794,0
2096921,2096921,177042,588571,0
2096921,2096921,176704,588805,0
2096921,2096921,176866,588687,0
2096921,2096921,176806,588685,0
2096921,2096921,176884,588533,0
2096921,2096921,176446,588379,0
2096921,2096921,176620,588900,0
2096921,2096921,176586,588624,0
2096921,2096921,176550,588795,0
2096921,2096921,176785,588645,0
2096921,2096921,176734,588691,0
2096921,2096921,176847,588673,0
2096921,2096921,176771,588829,0
2096921,2096921,176829,588836,0
2096921,2096921,177150,588720,0
2096921,2096921,176737,588833,0
2096921,2096921,176627,588988,0
2096921,2096921,176566,588538,0
2096921,2096921,176813,589017,0
2096921,2096921,176557,588933,0
2096921,2096921,176776,588955,0
2096921,2096921,176803,589421,0
2096921,2096921,176803,588918,0
2096921,2096921,176882,589084,0
2096921,2096921,176942,588803,0
2096921,2096921,176965,589159,0
2096921,2096921,176478,589067,0
2096921,2096921,176657,589400,0
2096921,2096921,176985,589385,0
2096921,2096921,176719,589794,0
2096921,2096921,177281,589830,0
2096921,2096921,177140,589761,0
2096921,2096921,177060,589503,0
2096921,2096921,177315,590249,0
2096921,2096921,177341,590140,0
2096921,2096921,177315,590134,0
2096921,2096921,177316,589973,0
2096921,2096921,177485,589975,0
2096921,2096921,177428,590392,0
2096921,2096921,177297,590829,0
2096921,2096921,177379,590624,0
2096921,2096921,177712,590580,0
2096921,2096921,177486,590914,0
2096921,2096921,177605,591103,0
2096921,2096921,177663,590920,0
2096921,2096921,177343,591224,0
2096921,2096921,177610,590917,0
2096921,2096921,177393,591015,0
2096921,2096921,177651,591089,0
2096921,2096921,177563,591208,0
2096921,2096921,177912,591456,0
2096921,2096921,177724,591602,0
2096921,2096921,177887,591719,0
2096921,2096921,177947,592045,0
2096921,2096921,177710,591761,0
2096921,2096921,177939,591799,0
2096921,2096921,177782,591628,0
2096921,2096921,177697,591776,0
2096921,2096921,177864,592003,0
2096921,2096921,178145,592201,0
2096921,2096921,177912,592245,0
2096921,2096921,178116,592305,0
2096921,2096921,178137,592115,0
2096921,2096921,178082,592447,0
2096921,2096921,178070,592453,0
2096921,2096921,178145,592365,0
2096921,2096921,178067,592581,0
2096921,2096921,177746,592698,0
2096921,2096921,178255,592656,0
2096921,2096921,178528,593043,0
2096921,2096921,178339,593099,0
2096921,2096921,178504,593020,0
2096921,2096921,178395,593017,0
2096921,2096921,178561,593533,0
2096921,2096921,178627,593454,0
2096921,2096921,178622,593621,0
2096921,2096921,178355,593379,0
2096921,2096921,178092,593428,0
2096921,2096921,178545,593588,0
2096921,2096921,178566,593681,0
2096921,2096921,178631,593523,0
2096921,2096921,178841,593923,0
2096921,2096921,178568,594171,0
2096921,2096921,178547,594068,0
2096921,2096921,178583,594281,0
2096921,2096921,178550,594220,0
2096921,2096921,178746,594238,0
2096921,2096921,178783,594140,0
2096921,2096921,178612,594447,0
2096921,2096921,178866,594421,0
2096921,2096921,178993,594576,0
2096921,2096921,178878,594722,0
2096921,2096921,178646,594679,0
2096921,2096921,179006,594935,0
2096921,2096921,179311,595026,0
2096921,2096921,179082,594948,0
2096921,2096921,178842,594953,0
2096921,2096921,178988,595047,0
2096921,2096921,179241,595526,0
2096921,2096921,178977,595435,0
2096921,2096921,179173,595624,0
2096921,2096921,179160,595624,0
2096921,2096921,179315,595819,0
2096921,2096921,179425,596050,0
2096921,2096921,179419,596192,0
2096921,2096921,179263,595776,0
2096921,2096921,179508,595807,0
2096921,2096921,179266,595844,0
2096921,2096921,179246,596365,0
2096921,2096921,179343,596063,0
2096921,2096921,179437,596276,0
2096921,2096921,179586,596119,0
2096921,2096921,179719,596420,0
2096921,2096921,179602,596570,0
2096921,2096921,179925,596656,0
2096921,2096921,179678,596839,0
2096921,2096921,179602,596987,0
2096921,2096921,179459,596526,0
2096921,2096921,179901,597085,0
2096921,2096921,179796,596992,0
2096921,2096921,180073,597065,0
2096921,2096921,179846,597264,0
2096921,2096921,179955,597345,0
2096921,2096921,179989,597346,0
2096921,2096921,180085,597565,0
2096921,2096921,179979,597280,0
2096921,2096921,180007,597360,0
2096921,2096921,179782,597456,0
2096921,2096921,179918,597727,0
2096921,2096921,180341,597767,0
2096921,2096921,180020,597632,0
2096921,2096921,180033,597669,0
2096921,2096921,180055,597947,0
2096921,2096921,179945,598089,0
2096921,2096921,180016,598396,0
2096921,2096921,180033,598189,0
2096921,2096921,180128,598355,0
2096921,2096921,180202,598072,0
2096921,2096921,180433,598474,0
2096921,2096921,180415,598240,0
2096921,2096921,180242,598648,0
2096921,2096921,180569,598543,0
2096921,2096921,180661,598671,0
2096921,2096921,180453,598649,0
2096921,2096921,180682,599095,0
2096921,2096921,180484,598629,0
2096921,2096921,180671,598941,0
2096921,2096921,180443,599087,0
2096921,2096921,180580,599220,0
2096921,2096921,180645,599222,0
2096921,2096921,180443,599484,0
2096921,2096921,180740,599371,0
2096921,2096921,180833,599594,0
2096921,2096921,180729,599585,0
2096921,2096921,180551,599827,0
2096921,2096921,180649,599802,0
2096921,2096921,180785,599853,0
2096921,2096921,180752,599766,0
2096921,2096921,180817,600088,0
2096921,2096921,180745,600248,0
2096921,2096921,180820,600148,0
2096921,2096921,180846,600179,0
2096921,2096921,180814,600111,0
2096921,2096921,180648,599817,0
2096921,2096921,180737,600438,0
2096921,2096921,180788,600540,0
2096921,2096921,180901,600300,0
2096921,2096921,180945,600540,0
2096921,2096921,180965,600515,0
2096921,2096921,180821,600660,0
2096921,2096921,181200,600795,0
2096921,2096921,181195,600780,0
2096921,2096921,181152,600499,0
2096921,2096921,181137,601022,0
2096921,2096921,181301,601314,0
2096921,2096921,181157,601267,0
2096921,2096921,181038,601087,0
2096921,2096921,181068,601339,0
2096921,2096921,181350,601164,0
2096921,2096921,181212,601018,0
2096921,2096921,181112,601287,0
2096921,2096921,181272,601493,0
2096921,2096921,181391,601231,0
2096921,2096921,181128,601715,0
2096921,2096921,181205,601602,0
2096921,2096921,181304,601806,0
2096921,2096921,181615,601814,0
2096921,2096921,181417,601579,0
2096921,2096921,181359,601852,0
2096921,2096921,181399,602013,0
2096921,2096921,181551,601968,0
2096921,2096921,181567,602062,0
2096921,2096921,181558,602178,0
2096921,2096921,181593,602541,0
2096921,2096921,181484,602439,0
2096921,2096921,181671,602262,0
2096921,2096921,181517,602309,0
2096921,2096921,181596,602442,0
2096921,2096921,181723,602557,0
2096921,2096921,181776,602916,0
2096921,2096921,181660,602898,0
2096921,2096921,181988,602592,0
2096921,2096921,181827,603016,0
2096921,2096921,181930,603201,0
2096921,2096921,181715,603368,0
2096921,2096921,181846,603034,0
2096921,2096921,181521,603111,0
2096921,2096921,181760,602968,0
2096921,2096921,181891,603240,0
2096921,2096921,181916,603278,0
2096921,2096921,181880,603301,0
2096921,2096921,181878,603402,0
2096921,2096921,181973,603434,0
2096921,2096921,182262,603524,0
2096921,2096921,181806,604001,0
2096921,2096921,181883,603683,0
2096921,2096921,181905,603411,0
2096921,2096921,181853,603487,0
2096921,2096921,181856,603941,0
2096921,2096921,181900,603858,0
2096921,2096921,182022,604145,0
2096921,2096921,182228,603958,0
2096921,2096921,182263,604038,0
2096921,2096921,182295,604290,0
2096921,2096921,182215,604462,0
2096921,2096921,182458,604330,0
2096921,2096921,182512,604279,0
2096921,2096921,182332,604522,0
2096921,2096921,182259,604767,0
2096921,2096921,182561,604929,0
2096921,2096921,182403,604763,0
2096921,2096921,182436,605100,0
2096921,2096921,182367,604991,0
2096921,2096921,182449,604768,0
2096921,2096921,182733,605042,0
2096921,2096921,182559,605013,0
2096921,2096921,182474,604977,0
2096921,2096921,182304,604893,0
2096921,2096921,182633,605139,0
2096921,2096921,182723,605366,0
2096921,2096921,182778,605471,0
2096921,2096921,182556,605388,0
2096921,2096921,182843,605562,0
2096921,2096921,182771,605914,0
2096921,2096921,182544,605560,0
2096921,2096921,182741,605424,0
2096921,2096921,182745,605465,0
2096921,2096921,182812,605926,0
2096921,2096921,182803,605989,0
2096921,2096921,182868,606070,0
2096921,2096921,182523,606200,0
2096921,2096921,182673,606117,0
2096921,2096921,182853,606134,0
2096921,2096921,182985,606320,0
2096921,2096921,182741,606418,0
2096921,2096921,182917,606184,0
2096921,2096921,182981,606367,0
2096921,2096921,182966,606389,0
2096921,2096921,183191,606394,0
2096921,2096921,183157,606568,0
2096921,2096921,183052,606770,0
2096921,2096921,183027,606645,0
2096921,2096921,183106,606511,0
2096921,2096921,183172,606651,0
2096921,2096921,183144,606695,0
2096921,2096921,183050,606755,0
2096921,2096921,183004,607056,0
2096921,2096921,182812,606939,0
2096921,2096921,183031,607122,0
2096921,2096921,183104,607141,0
2096921,2096921,183285,607145,0
2096921,2096921,183241,607199,0
2096921,2096921,183344,607197,0
2096921,2096921,183288,607156,0
2096921,2096921,183346,607547,0
2096921,2096921,182995,607239,0
2096921,2096921,183209,607396,0
2096921,2096921,182992,607610,0
2096921,2096921,183121,607559,0
2096921,2096921,183269,607831,0
2096921,2096921,183234,607855,0
2096921,2096921,183468,607978,0
2096921,2096921,183596,608171,0
2096921,2096921,183294,608197,0
2096921,2096921,183481,608266,0
2096921,2096921,183513,608271,0
2096921,2096921,183241,608182,0
2096921,2096921,183255,608252,0
2096921,2096921,183663,608239,0
2096921,2096921,183377,608138,0
2096921,2096921,183637,608107,0
2096921,2096921,183732,608459,0
2096921,2096921,183644,608696,0
2096921,2096921,183380,608269,0
2096921,2096921,183285,608096,0
2096921,2096921,183322,608312,0
2096921,2096921,183265,608135,0
2096921,2096921,183163,608069,0
2096921,2096921,183409,607815,0
2096921,2096921,183103,607698,0
2096921,2096921,183293,607804,0
2096921,2096921,183094,607837,0
2096921,2096921,183418,607721,0
2096921,2096921,183224,607578,0
2096921,2096921,182913,607027,0
2096921,2096921,182799,607079,0
2096921,2096921,182910,607027,0
2096921,2096921,182808,606970,0
2096921,2096921,182491,606108,0
2096921,2096921,182803,606113,0
2096921,2096921,182762,606010,0
2096921,2096921,182860,606221,0
2096921,2096921,182784,606251,0
2096921,2096921,182318,605429,0
2096921,2096921,182050,605204,0
2096921,2096921,182095,605157,0
2096921,2096921,182115,605029,0
2096921,2096921,182036,605028,0
2096921,2096921,181279,603491,0
2096921,2096921,181055,602658,0
2096921,2096921,180975,602500,0
2096921,2096921,180989,602540,0
2096921,2096921,181065,602601,0
2096921,2096921,180063,600250,0
2096921,2096921,180011,599043,0
2096921,2096921,179917,598925,0
2096921,2096921,179960,598703,0
2096921,2096921,180060,598935,0
2096921,2096921,179130,597494,0
2096921,2096921,178948,596447,0
2096921,2096921,178782,596551,0
2096921,2096921,179021,596359,0
2096921,2096921,178948,596243,0
2096921,2096921,178316,595161,0
2096921,2096921,178113,594521,0
2096921,2096921,177935,594190,0
2096921,2096921,178321,594296,0
2096921,2096921,178239,594143,0
2096921,2096921,177830,593321,0
2096921,2096921,177542,592999,0
2096921,2096921,177471,592999,0
2096921,2096921,177488,592644,0
2096921,2096921,177566,592834,0
2096921,2096921,177258,592541,0
2096921,2096921,177199,592110,0
2096921,2096921,177052,592162,0
2096921,2096921,177328,591904,0
2096921,2096921,177194,591833,0
2096921,2096921,177191,591420,0
2096921,2096921,177512,591403,0
2096921,2096921,177031,591534,0
2096921,2096921,177424,591554,0
2096921,2096921,177358,591488,0
2096921,2096921,176917,591363,0
2096921,2096921,176870,591293,0
2096921,2096921,177061,591278,0
2096921,2096921,177094,591203,0
2096921,2096921,177050,591101,0
2096921,2096921,176753,591116,0
2096921,2096921,177212,591567,0
2096921,2096921,177122,591503,0
2096921,2096921,177370,591135,0
2096921,2096921,177030,591280,0
2096921,2096921,177017,591563,0
2096921,2096921,176923,591761,0
2096921,2096921,177155,591498,0
2096921,2096921,176934,591824,0
2096921,2096921,177145,591608,0
2096921,2096921,177211,591807,0
2096921,2096921,177256,591986,0
2096921,2096921,177138,592096,0
2096921,2096921,177416,592154,0
2096921,2096921,177853,592059,0
2096921,2096921,177632,592609,0
2096921,2096921,177292,592884,0
2096921,2096921,177245,592908,0
2096921,2096921,177291,592814,0
2096921,2096921,177402,592827,0
2096921,2096921,177533,592929,0
2096921,2096921,177481,593008,0
2096921,2096921,177639,593248,0
2096921,2096921,177881,593326,0
2096921,2096921,177482,593026,0
2096921,2096921,177973,593571,0
2096921,2096921,178146,593867,0
2096921,2096921,178118,594140,0
2096921,2096921,177784,594093,0
2096921,2096921,177857,593851,0
2096921,2096921,178209,594725,0
2096921,2096921,178195,594713,0
2096921,2096921,178111,595306,0
2096921,2096921,178587,595122,0
2096921,2096921,178212,595026,0
2096921,2096921,178562,595561,0
2096921,2096921,178662,596146,0
2096921,2096921,178560,595842,0
2096921,2096921,178479,595930,0
2096921,2096921,178572,596267,0
2096921,2096921,178952,596557,0
2096921,2096921,178707,596790,0
2096921,2096921,178888,597066,0
2096921,2096921,178755,597214,0
2096921,2096921,178783,597041,0
2096921,2096921,178994,597608,0
2096921,2096921,179013,597746,0
2096921,2096921,179146,598083,0
2096921,2096921,179238,597898,0
2096921,2096921,179135,597818,0
2096921,2096921,179542,598145,0
2096921,2096921,179241,598741,0
2096921,2096921,179746,598643,0
2096921,2096921,179751,598708,0
2096921,2096921,179659,598884,0
2096921,2096921,179504,599290,0
2096921,2096921,180010,599678,0
2096921,2096921,179889,599702,0
2096921,2096921,179994,599659,0
2096921,2096921,179865,599796,0
2096921,2096921,180082,600147,0
2096921,2096921,180290,600427,0
2096921,2096921,180239,600593,0
2096921,2096921,180063,600673,0
2096921,2096921,180416,600762,0
2096921,2096921,180750,601306,0
2096921,2096921,180736,601822,0
2096921,2096921,180559,601944,0
2096921,2096921,180492,601750,0
2096921,2096921,180350,601735,0
2096921,2096921,180989,602251,0
2096921,2096921,180926,602331,0
2096921,2096921,181257,602698,0
2096921,2096921,180901,603072,0
2096921,2096921,180828,602546,0
2096921,2096921,181021,603304,0
2096921,2096921,181380,603771,0
2096921,2096921,181328,603796,0
2096921,2096921,181292,603713,0
2096921,2096921,181266,603908,0
2096921,2096921,181570,604239,0
2096921,2096921,181741,604826,0
2096921,2096921,181515,605016,0
2096921,2096921,181269,604803,0
2096921,2096921,181789,604791,0
2096921,2096921,182028,605355,0
2096921,2096921,181869,605681,0
2096921,2096921,181947,605575,0
2096921,2096921,181819,605243,0
2096921,2096921,181829,605465,0
2096921,2096921,182098,605802,0
2096921,2096921,182153,606187,0
2096921,2096921,182393,606238,0
2096921,2096921,182356,606600,0
2096921,2096921,182261,606136,0
2096921,2096921,182488,606475,0
2096921,2096921,182500,606913,0
2096921,2096921,182416,606988,0
2096921,2096921,182373,606864,0
2096921,2096921,182419,606958,0
2096921,2096921,182768,607093,0
2096921,2096921,182349,607233,0
2096921,2096921,182446,607352,0
2096921,2096921,182488,607547,0
2096921,2096921,182663,607661,0
2096921,2096921,182803,607892,0
2096921,2096921,182762,607822,0
2096921,2096921,182662,607936,0
2096921,2096921,182606,607838,0
2096921,2096921,182867,607702,0
2096921,2096921,182718,607819,0
2096921,2096921,182596,607830,0
2096921,2096921,182824,608032,0
2096921,2096921,182898,608373,0
2096921,2096921,182992,608324,0
2096921,2096921,182970,608493,0
2096921,2096921,183114,608338,0
2096921,2096921,182629,608086,0
2096921,2096921,182680,608190,0
2096921,2096921,182973,608467,0
2096921,2096921,182873,608476,0
2096921,2096921,182949,608306,0
2096921,2096921,182887,608568,0
2096921,2096921,182912,608636,0
2096921,2096921,182858,608634,0
2096921,2096921,182877,608559,0
2096921,2096921,182936,608638,0
2096921,2096921,182802,608663,0
2096921,2096921,183106,608624,0
2096921,2096921,182558,608846,0
2096921,2096921,182889,608764,0
2096921,2096921,183266,608563,0
2096921,2096921,183110,608726,0
2096921,2096921,183044,608898,0
2096921,2096921,183154,608398,0
2096921,2096921,183035,608406,0
2096921,2096921,183014,608598,0
2096921,2096921,183090,608564,0
2096921,2096921,182965,608947,0
2096921,2096921,183071,608744,0
2096921,2096921,182849,608978,0
2096921,2096921,182883,608723,0
2096921,2096921,182904,608617,0
2096921,2096921,182952,608888,0
2096921,2096921,182737,608828,0
2096921,2096921,182802,608729,0
2096921,2096921,182775,609128,0
2096921,2096921,183101,608956,0
2096921,2096921,182829,608793,0
2096921,2096921,182780,609016,0
2096921,2096921,183083,608822,0
2096921,2096921,183366,608896,0
2096921,2096921,183290,609012,0
2096921,2096921,183110,608787,0
2096921,2096921,183149,609107,0
2096921,2096921,183319,609565,0
2096921,2096921,183160,609579,0
2096921,2096921,183088,609544,0
2096921,2096921,182902,609500,0
2096921,2096921,182972,609719,0
2096921,2096921,183124,609847,0
2096921,2096921,182990,609678,0
2096921,2096921,183197,610099,0
2096921,2096921,183203,609640,0
2096921,2096921,183522,609758,0
2096921,2096921,183375,609920,0
2096921,2096921,183539,610240,0
2096921,2096921,183291,610628,0
2096921,2096921,183412,610454,0
2096921,2096921,183529,610283,0
2096921,2096921,183179,610746,0
2096921,2096921,183937,611054,0
2096921,2096921,183694,611103,0
2096921,2096921,183665,611032,0
2096921,2096921,183831,611116,0
2096921,2096921,183986,611377,0
2096921,2096921,184074,611559,0
2096921,2096921,183845,611424,0
2096921,2096921,183992,611769,0
2096921,2096921,183982,611639,0
2096921,2096921,184358,612073,0
2096921,2096921,184138,612329,0
2096921,2096921,184134,612480,0
2096921,2096921,184186,612415,0
2096921,2096921,184362,612486,0
2096921,2096921,184366,612448,0
2096921,2096921,184557,612791,0
2096921,2096921,184227,612847,0
2096921,2096921,184545,612785,0
2096921,2096921,184279,612761,0
2096921,2096921,184320,613522,0
2096921,2096921,184320,613393,0
2096921,2096921,184676,613592,0
2096921,2096921,184608,613540,0
2096921,2096921,184950,613602,0
2096921,2096921,184846,613893,0
2096921,2096921,185069,614215,0
2096921,2096921,184445,614211,0
2096921,2096921,184631,614110,0
2096921,2096921,184645,614252,0
2096921,2096921,184902,614388,0
2096921,2096921,184847,614483,0
2096921,2096921,185261,614786,0
2096921,2096921,185022,614697,0
2096921,2096921,185397,614572,0
2096921,2096921,185205,614983,0
2096921,2096921,185328,615214,0
2096921,2096921,185141,615146,0
2096921,2096921,185079,615230,0
2096921,2096921,185415,615492,0
2096921,2096921,185360,615268,0
2096921,2096921,185416,615555,0
2096921,2096921,185473,615795,0
2096921,2096921,185471,615841,0
2096921,2096921,185590,616078,0
2096921,2096921,185975,615993,0
2096921,2096921,185463,616268,0
2096921,2096921,185429,616512,0
2096921,2096921,185671,616801,0
2096921,2096921,185748,616519,0
2096921,2096921,185549,616707,0
2096921,2096921,185704,616930,0
2096921,2096921,185782,616831,0
2096921,2096921,185933,617160,0
2096921,2096921,186144,616966,0
2096921,2096921,185935,617410,0
2096921,2096921,185749,617279,0
2096921,2096921,185887,617271,0
2096921,2096921,185970,617019,0
2096921,2096921,185885,617506,0
2096921,2096921,186308,617539,0
2096921,2096921,186196,617716,0
2096921,2096921,186059,617783,0
2096921,2096921,186264,618011,0
2096921,2096921,186294,617972,0
2096921,2096921,186472,617958,0
2096921,2096921,186397,618198,0
2096921,2096921,186154,618432,0
2096921,2096921,186200,618449,0
2096921,2096921,186242,618387,0
2096921,2096921,186544,618313,0
2096921,2096921,186220,618938,0
2096921,2096921,186341,618873,0
2096921,2096921,186524,618997,0
2096921,2096921,186541,618946,0
2096921,2096921,186640,619286,0
2096921,2096921,186637,619486,0
2096921,2096921,186530,619273,0
2096921,2096921,186483,619092,0
2096921,2096921,186682,619261,0
2096921,2096921,186793,619585,0
2096921,2096921,186650,619832,0
2096921,2096921,186866,619847,0
2096921,2096921,186741,619863,0
2096921,2096921,186619,619906,0
2096921,2096921,186797,619935,0
2096921,2096921,187131,620227,0
2096921,2096921,186897,620180,0
2096921,2096921,186887,620344,0
2096921,2096921,186932,620179,0
2096921,2096921,186714,620138,0
2096921,2096921,186998,620460,0
2096921,2096921,187116,620622,0
2096921,2096921,187286,620294,0
2096921,2096921,187376,620660,0
2096921,2096921,186878,620911,0
2096921,2096921,187010,620638,0
2096921,2096921,187098,620828,0
2096921,2096921,187124,621037,0
2096921,2096921,187137,620899,0
2096921,2096921,187188,620950,0
2096921,2096921,187365,620805,0
2096921,2096921,187006,621198,0
2096921,2096921,187385,621462,0
2096921,2096921,187194,621436,0
2096921,2096921,187391,621507,0
2096921,2096921,187412,621633,0
2096921,2096921,187375,621492,0
2096921,2096921,187431,621366,0
2096921,2096921,187478,621361,0
2096921,2096921,187321,621482,0
2096921,2096921,187068,621559,0
2096921,2096921,187529,621922,0
2096921,2096921,187659,622004,0
2096921,2096921,187555,621787,0
2096921,2096921,187673,621977,0
2096921,2096921,187717,622011,0
2096921,2096921,187610,622031,0
2096921,2096921,187366,622074,0
2096921,2096921,187604,622201,0
2096921,2096921,187455,622041,0
2096921,2096921,187546,622210,0
2096921,2096921,187664,622571,0
2096921,2096921,187555,622521,0
2096921,2096921,187543,622477,0
2096921,2096921,187804,622411,0
2096921,2096921,187879,622803,0
2096921,2096921,187873,622727,0
2096921,2096921,187996,622774,0
2096921,2096921,187814,622915,0
2096921,2096921,187968,622652,0
2096921,2096921,187923,622584,0
2096921,2096921,187795,622801,0
2096921,2096921,187807,622689,0
2096921,2096921,187714,622805,0
2096921,2096921,188016,622765,0
2096921,2096921,187916,622696,0
2096921,2096921,187852,622808,0
2096921,2096921,187957,623129,0
2096921,2096921,187845,622989,0
2096921,2096921,187994,623569,0
2096921,2096921,188261,623198,0
2096921,2096921,188241,623313,0
2096921,2096921,187965,623475,0
2096921,2096921,188150,623424,0
2096921,2096921,188169,623119,0
2096921,2096921,188241,623242,0
2096921,2096921,187854,623413,0
2096921,2096921,188225,623333,0
2096921,2096921,187801,623171,0
2096921,2096921,187980,623430,0
2096921,2096921,187998,623422,0
2096921,2096921,188159,623545,0
2096921,2096921,188032,623388,0
2096921,2096921,188277,623644,0
2096921,2096921,188092,623712,0
2096921,2096921,188239,623625,0
2096921,2096921,188032,623542,0
2096921,2096921,188182,623682,0
2096921,2096921,188185,623551,0
2096921,2096921,188100,623561,0
2096921,2096921,188085,623605,0
2096921,2096921,188270,623704,0
2096921,2096921,188450,623780,0
2096921,2096921,188380,623635,0
2096921,2096921,187999,623842,0
2096921,2096921,188608,623887,0
2096921,2096921,188133,623788,0
2096921,2096921,188324,623767,0
2096921,2096921,188160,623698,0
2096921,2096921,188107,623994,0
2096921,2096921,188084,623924,0
2096921,2096921,188438,623878,0
2096921,2096921,188222,623781,0
2096921,2096921,188236,623760,0
2096921,2096921,187949,623962,0
2096921,2096921,188295,623876,0
2096921,2096921,188125,623778,0
2096921,2096921,188251,624147,0
2096921,2096921,188233,624024,0
2096921,2096921,188376,624272,0
2096921,2096921,188207,624225,0
2096921,2096921,188678,624110,0
2096921,2096921,188527,624265,0
2096921,2096921,188520,624214,0
2096921,2096921,188486,624385,0
2096921,2096921,188390,624325,0
2096921,2096921,188328,624380,0
2096921,2096921,188390,624430,0
2096921,2096921,188074,624160,0
2096921,2096921,188128,624448,0
2096921,2096921,188335,624202,0
2096921,2096921,188735,624216,0
2096921,2096921,188176,624303,0
2096921,2096921,188596,624438,0
2096921,2096921,188355,624545,0
2096921,2096921,188582,624688,0
2096921,2096921,188486,624427,0
2096921,2096921,188478,624192,0
2096921,2096921,188361,624223,0
2096921,2096921,188431,624664,0
2096921,2096921,188201,624630,0
2096921,2096921,188579,624840,0
2096921,2096921,188609,624552,0
2096921,2096921,188678,624585,0
2096921,2096921,188715,624845,0
2096921,2096921,188504,624751,0
2096921,2096921,188244,624854,0
2096921,2096921,188484,624634,0
2096921,2096921,188618,624766,0
2096921,2096921,188538,624847,0
2096921,2096921,188614,624950,0
2096921,2096921,188409,624756,0
2096921,2096921,188638,624692,0
2096921,2096921,188678,624906,0
2096921,2096921,188701,625046,0
2096921,2096921,188684,624872,0
2096921,2096921,188737,624880,0
2096921,2096921,188447,625029,0
2096921,2096921,188627,624886,0
2096921,2096921,188597,624729,0
2096921,2096921,188516,624653,0
2096921,2096921,188446,624940,0
2096921,2096921,188729,624926,0
2096921,2096921,188775,624953,0
2096921,2096921,188739,624871,0
2096921,2096921,188508,625048,0
2096921,2096921,188766,624897,0
2096921,2096921,188415,624802,0
2096921,2096921,188453,624705,0
2096921,2096921,188340,624849,0
2096921,2096921,188859,624917,0
2096921,2096921,188821,624971,0
2096921,2096921,188548,624923,0
2096921,2096921,188609,624912,0
2096921,2096921,188487,624644,0
2096921,2096921,188780,624678,0
2096921,2096921,188366,624785,0
2096921,2096921,188496,624559,0
2096921,2096921,188498,624698,0
2096921,2096921,188360,625007,0
2096921,2096921,188417,624815,0
2096921,2096921,188589,624828,0
2096921,2096921,188796,624924,0
2096921,2096921,188699,624901,0
2096921,2096921,188764,624982,0
2096921,2096921,188451,625123,0
2096921,2096921,188308,624969,0
2096921,2096921,188279,624841,0
2096921,2096921,188582,624848,0
2096921,2096921,188484,624773,0
2096921,2096921,188652,624749,0
2096921,2096921,188595,624660,0
2096921,2096921,188635,624880,0
2096921,2096921,188231,624841,0
2096921,2096921,188648,624744,0
2096921,2096921,188220,624989,0
2096921,2096921,188345,624758,0
2096921,2096921,188415,624766,0
2096921,2096921,188563,624868,0
2096921,2096921,188502,624744,0
2096921,2096921,188902,625058,0
2096921,2096921,188570,625096,0
2096921,2096921,188677,624946,0
2096921,2096921,188404,624976,0
2096921,2096921,188432,624718,0
2096921,2096921,188120,624389,0
2096921,2096921,188322,623933,0
2096921,2096921,188109,624178,0
2096921,2096921,188252,624272,0
2096921,2096921,188092,623691,0
2096921,2096921,188168,623622,0
2096921,2096921,188143,623995,0
2096921,2096921,188220,623935,0
2096921,2096921,188534,623712,0
2096921,2096921,188134,623014,0
2096921,2096921,187846,622488,0
2096921,2096921,187708,622446,0
2096921,2096921,187726,622808,0
2096921,2096921,187821,622492,0
2096921,2096921,187219,621989,0
2096921,2096921,187040,621617,0
2096921,2096921,187249,621361,0
2096921,2096921,187147,621097,0
2096921,2096921,187197,621040,0
2096921,2096921,186709,620561,0
2096921,2096921,186919,620235,0
2096921,2096921,186724,619690,0
2096921,2096921,186654,619852,0
2096921,2096921,186767,619732,0
2096921,2096921,185858,618138,0
2096921,2096921,185586,616953,0
2096921,2096921,185924,616551,0
2096921,2096921,185418,616665,0
2096921,2096921,185688,616720,0
2096921,2096921,184771,614598,0
2096921,2096921,184249,613223,0
2096921,2096921,184060,612996,0
2096921,2096921,184195,612528,0
2096921,2096921,184004,612676,0
2096921,2096921,183148,610959,0
2096921,2096921,183171,609837,0
2096921,2096921,182919,609380,0
2096921,2096921,183101,609662,0
2096921,2096921,183198,609615,0
2096921,2096921,182459,608526,0
2096921,2096921,182460,607564,0
2096921,2096921,182197,607422,0
2096921,2096921,182216,607259,0
2096921,2096921,182139,607127,0
2096921,2096921,182008,606274,0
2096921,2096921,181672,605964,0
2096921,2096921,181631,605986,0
2096921,2096921,181649,606252,0
2096921,2096921,181803,606068,0
2096921,2096921,181353,605099,0
2096921,2096921,181022,604630,0
2096921,2096921,181144,604415,0
2096921,2096921,181081,604685,0
2096921,2096921,180948,604859,0
2096921,2096921,180814,604136,0
2096921,2096921,180766,604186,0
2096921,2096921,180704,603807,0
2096921,2096921,180748,603836,0
2096921,2096921,180661,603871,0
2096921,2096921,180472,603703,0
2096921,2096921,180609,603282,0
2096921,2096921,180391,603334,0
2096921,2096921,180777,603164,0
2096921,2096921,180704,603136,0
2096921,2096921,180648,602772,0
2096921,2096921,180367,602903,0
2096921,2096921,180532,602786,0
2096921,2096921,180533,602973,0
2096921,2096921,180671,603070,0
2096921,2096921,180586,602855,0
2096921,2096921,180491,602808,0
2096921,2096921,180314,603013,0
2096921,2096921,180308,602807,0
2096921,2096921,180625,602849,0
2096921,2096921,180613,602865,0
2096921,2096921,180578,603297,0
2096921,2096921,180472,602881,0
2096921,2096921,180441,603237,0
2096921,2096921,180699,603258,0
2096921,2096921,180692,603144,0
2096921,2096921,180797,603512,0
2096921,2096921,180636,603396,0
2096921,2096921,180672,603267,0
2096921,2096921,180362,603282,0
2096921,2096921,180610,603112,0
2096921,2096921,180584,603381,0
2096921,2096921,180677,603071,0
2096921,2096921,180591,603177,0
2096921,2096921,180829,602998,0
2096921,2096921,181055,603643,0
2096921,2096921,180615,603661,0
2096921,2096921,180637,603641,0
2096921,2096921,180769,603330,0
2096921,2096921,180836,603811,0
2096921,2096921,180899,604111,0
2096921,2096921,181099,604530,0
2096921,2096921,181145,604368,0
2096921,2096921,181306,604154,0
2096921,2096921,181210,604075,0
2096921,2096921,181417,604607,0
2096921,2096921,181264,604660,0
2096921,2096921,181354,604783,0
2096921,2096921,181295,604768,0
2096921,2096921,181215,604818,0
2096921,2096921,181085,605084,0
2096921,2096921,181361,605184,0
2096921,2096921,181673,605316,0
2096921,2096921,181554,605511,0
2096921,2096921,181538,605481,0
2096921,2096921,181621,605605,0
2096921,2096921,181720,605730,0
2096921,2096921,181647,605401,0
2096921,2096921,181643,605599,0
2096921,2096921,181556,605799,0
2096921,2096921,181718,606035,0
2096921,2096921,181927,606131,0
2096921,2096921,181758,606358,0
2096921,2096921,182160,606375,0
2096921,2096921,181739,606584,0
2096921,2096921,182099,606662,0
2096921,2096921,182140,606768,0
2096921,2096921,181999,606898,0
2096921,2096921,181967,606500,0
2096921,2096921,181996,606414,0
2096921,2096921,181763,607209,0
2096921,2096921,182149,607102,0
2096921,2096921,182073,607095,0
2096921,2096921,182193,607136,0
2096921,2096921,182475,607248,0
2096921,2096921,182339,607818,0
2096921,2096921,182138,607819,0
2096921,2096921,182697,607954,0
2096921,2096921,182496,608143,0
2096921,2096921,182290,607790,0
2096921,2096921,182358,608121,0
2096921,2096921,182631,608232,0
2096921,2096921,182947,608262,0
2096921,2096921,182534,608283,0
2096921,2096921,182535,608276,0
2096921,2096921,182801,608440,0
2096921,2096921,182861,608886,0
2096921,2096921,182825,608718,0
2096921,2096921,182666,609098,0
2096921,2096921,182784,608726,0
2096921,2096921,182921,609207,0
2096921,2096921,182961,609226,0
2096921,2096921,183021,609537,0
2096921,2096921,183143,609535,0
2096921,2096921,183288,609360,0
2096921,2096921,183109,609654,0
2096921,2096921,183235,609663,0
2096921,2096921,183104,609694,0
2096921,2096921,183064,609665,0
2096921,2096921,183085,609774,0
2096921,2096921,183100,610087,0
2096921,2096921,183405,609851,0
2096921,2096921,183279,609903,0
2096921,2096921,183419,609980,0
2096921,2096921,183398,610173,0
2096921,2096921,183465,609939,0
2096921,2096921,183649,610089,0
2096921,2096921,183298,610309,0
2096921,2096921,183309,610046,0
2096921,2096921,183277,610031,0
2096921,2096921,183262,610004,0
2096921,2096921,183570,610037,0
2096921,2096921,183408,610399,0
2096921,2096921,183218,610306,0
2096921,2096921,183408,610393,0
2096921,2096921,183380,610371,0
2096921,2096921,183464,610286,0
2096921,2096921,183353,610244,0
2096921,2096921,183224,610225,0
2096921,2096921,183203,610093,0
2096921,2096921,183207,609953,0
2096921,2096921,183152,610299,0
2096921,2096921,183295,609864,0
2096921,2096921,183229,609732,0
2096921,2096921,183493,609965,0
2096921,2096921,183277,609735,0
2096921,2096921,183013,609696,0
2096921,2096921,183209,609840,0
2096921,2096921,183256,609508,0
2096921,2096921,183206,609901,0
2096921,2096921,183203,609630,0
2096921,2096921,183060,609528,0
2096921,2096921,183118,609173,0
2096921,2096921,183049,609497,0
2096921,2096921,183314,609190,0
2096921,2096921,183191,608981,0
2096921,2096921,183146,608938,0
2096921,2096921,182812,608992,0
2096921,2096921,182695,608587,0
2096921,2096921,182830,608374,0
2096921,2096921,183135,608502,0
2096921,2096921,182847,608373,0
2096921,2096921,183152,608110,0
2096921,2096921,182928,608314,0
2096921,2096921,182777,608514,0
2096921,2096921,182849,607828,0
2096921,2096921,182644,608121,0
2096921,2096921,182352,607868,0
2096921,2096921,182642,607820,0
2096921,2096921,182406,607775,0
2096921,2096921,182479,607513,0
2096921,2096921,182452,607205,0
2096921,2096921,182691,607525,0
2096921,2096921,182350,607720,0
2096921,2096921,182404,607626,0
2096921,2096921,182427,607370,0
2096921,2096921,182251,606849,0
2096921,2096921,182173,606734,0
2096921,2096921,181960,606994,0
2096921,2096921,182066,607009,0
2096921,2096921,182255,606708,0
2096921,2096921,181996,606802,0
2096921,2096921,182092,606457,0
2096921,2096921,182035,606772,0
2096921,2096921,182425,606761,0
2096921,2096921,182176,606832,0
2096921,2096921,182354,606333,0
2096921,2096921,182401,606515,0
2096921,2096921,182068,606551,0
2096921,2096921,182017,606577,0
2096921,2096921,182228,606363,0
2096921,2096921,182108,606582,0
2096921,2096921,182263,606347,0
2096921,2096921,182409,606281,0
2096921,2096921,182515,606445,0
2096921,2096921,182338,606820,0
2096921,2096921,182204,606307,0
2096921,2096921,182127,606478,0
2096921,2096921,181897,606323,0
2096921,2096921,182143,606461,0
2096921,2096921,182402,606597,0
2096921,2096921,182237,606704,0
2096921,2096921,182298,606644,0
2096921,2096921,182250,606898,0
2096921,2096921,182368,606494,0
2096921,2096921,182602,606993,0
2096921,2096921,182586,606486,0
2096921,2096921,182421,606905,0
2096921,2096921,182359,606921,0
2096921,2096921,182438,606760,0
2096921,2096921,182640,607019,0
2096921,2096921,182410,606993,0
2096921,2096921,182506,607221,0
2096921,2096921,182508,607477,0
2096921,2096921,182597,607104,0
2096921,2096921,182693,607329,0
2096921,2096921,182622,607198,0
2096921,2096921,182610,607142,0
2096921,2096921,182702,607342,0
2096921,2096921,182484,607411,0
2096921,2096921,182536,607365,0
2096921,2096921,182599,607302,0
2096921,2096921,182727,607334,0
2096921,2096921,182688,607227,0
2096921,2096921,182902,607325,0
2096921,2096921,182673,607631,0
2096921,2096921,182763,607430,0
2096921,2096921,182580,607218,0
2096921,2096921,182625,607143,0
2096921,2096921,182598,607614,0
2096921,2096921,182676,607570,0
2096921,2096921,182769,607626,0
2096921,2096921,182581,607434,0
2096921,2096921,182830,607535,0
2096921,2096921,182558,607572,0
2096921,2096921,182743,607873,0
2096921,2096921,182572,607693,0
2096921,2096921,182756,607723,0
2096921,2096921,182538,607883,0
2096921,2096921,182903,607653,0
2096921,2096921,182682,607893,0
2096921,2096921,182969,607832,0
2096921,2096921,182879,607939,0
2096921,2096921,183031,607787,0
2096921,2096921,182899,608027,0
2096921,2096921,182671,607802,0
2096921,2096921,182841,608099,0
2096921,2096921,183025,608172,0
2096921,2096921,182887,608146,0
2096921,2096921,182620,607463,0
2096921,2096921,182810,608027,0
2096921,2096921,182929,607908,0
2096921,2096921,182905,607778,0
2096921,2096921,182914,608036,0
2096921,2096921,183210,608147,0
2096921,2096921,183128,608192,0
2096921,2096921,183266,608237,0
2096921,2096921,183093,607761,0
2096921,2096921,182984,607948,0
2096921,2096921,183082,607825,0
2096921,2096921,183049,608271,0
2096921,2096921,182868,607770,0
2096921,2096921,183191,608084,0
2096921,2096921,183090,608313,0
2096921,2096921,183111,607937,0
2096921,2096921,183076,607955,0
2096921,2096921,183277,608120,0
2096921,2096921,183280,608028,0
2096921,2096921,183212,607694,0
2096921,2096921,182867,607955,0
2096921,2096921,182941,608052,0
2096921,2096921,183032,607837,0
2096921,2096921,183202,608078,0
2096921,2096921,183196,608109,0
2096921,2096921,183150,608219,0
2096921,2096921,183206,608411,0
2096921,2096921,183231,608202,0
2096921,2096921,182993,607943,0
2096921,2096921,183190,608098,0
2096921,2096921,183306,607864,0
2096921,2096921,182892,608068,0
2096921,2096921,182862,608047,0
2096921,2096921,183152,608238,0
2096921,2096921,183092,608028,0
2096921,2096921,183027,608094,0
2096921,2096921,183070,608392,0
2096921,2096921,183269,608333,0
2096921,2096921,183176,608283,0
2096921,2096921,183081,608093,0
2096921,2096921,183126,607958,0
2096921,2096921,183251,608016,0
2096921,2096921,183093,608135,0
2096921,2096921,183010,608011,0
2096921,2096921,183240,608085,0
2096921,2096921,183339,608127,0
2096921,2096921,183214,608110,0
2096921,2096921,183314,607953,0
2096921,2096921,182975,608094,0
2096921,2096921,183026,608033,0
2096921,2096921,183315,607882,0
2096921,2096921,183161,607924,0
2096921,2096921,182936,607885,0
2096921,2096921,183145,608126,0
2096921,2096921,182915,608083,0
2096921,2096921,183172,607769,0
2096921,2096921,183285,608020,0
2096921,2096921,183385,608041,0
2096921,2096921,183119,607811,0
2096921,2096921,183157,607840,0
2096921,2096921,182811,607576,0
2096921,2096921,183103,607898,0
2096921,2096921,183176,607746,0
2096921,2096921,183194,607563,0
2096921,2096921,183260,607683,0
2096921,2096921,183076,607922,0
2096921,2096921,183226,608120,0
2096921,2096921,183020,607644,0
2096921,2096921,182933,607995,0
2096921,2096921,183359,607858,0
2096921,2096921,182976,607642,0
2096921,2096921,183006,607767,0
2096921,2096921,183106,607699,0
2096921,2096921,183001,607812,0
2096921,2096921,182889,607843,0
2096921,2096921,183053,607745,0
2096921,2096921,182832,607453,0
2096921,2096921,182998,607779,0
2096921,2096921,183036,607570,0
2096921,2096921,182961,607278,0
2096921,2096921,183169,607517,0
2096921,2096921,182971,607500,0
2096921,2096921,183264,607564,0
2096921,2096921,182916,607377,0
2096921,2096921,183253,607467,0
2096921,2096921,183303,607482,0
2096921,2096921,183114,607648,0
2096921,2096921,183067,607483,0
2096921,2096921,183097,607809,0
2096921,2096921,183063,607469,0
2096921,2096921,182824,607451,0
2096921,2096921,183197,607274,0
2096921,2096921,182882,607597,0
2096921,2096921,183331,607437,0
2096921,2096921,183036,607606,0
2096921,2096921,183033,607390,0
2096921,2096921,183177,607345,0
2096921,2096921,183191,607140,0
2096921,2096921,183379,607552,0
2096921,2096921,183118,607261,0
2096921,2096921,182929,607400,0
2096921,2096921,182974,607220,0
2096921,2096921,183239,607081,0
2096921,2096921,182979,607146,0
2096921,2096921,182876,606821,0
2096921,2096921,182970,606996,0
2096921,2096921,182995,607001,0
2096921,2096921,182820,606820,0
2096921,2096921,183055,606729,0
2096921,2096921,183202,606951,0
2096921,2096921,182779,606742,0
2096921,2096921,182500,606597,0
2096921,2096921,182855,606691,0
2096921,2096921,182749,606906,0
2096921,2096921,183006,606899,0
2096921,2096921,182879,606734,0
2096921,2096921,182872,606778,0
2096921,2096921,182842,606889,0
2096921,2096921,182877,606726,0
2096921,2096921,182660,606593,0
2096921,2096921,182807,606646,0
2096921,2096921,182579,606295,0
2096921,2096921,182875,606526,0
2096921,2096921,182869,606381,0
2096921,2096921,182829,606551,0
2096921,2096921,182854,606637,0
2096921,2096921,182898,606732,0
2096921,2096921,182719,606258,0
2096921,2096921,182849,606392,0
2096921,2096921,182884,606288,0
2096921,2096921,182563,606066,0
2096921,2096921,182775,605865,0
2096921,2096921,182788,606151,0
2096921,2096921,182768,606351,0
2096921,2096921,182710,606243,0
2096921,2096921,182856,606334,0
2096921,2096921,182914,606066,0
2096921,2096921,182876,605610,0
2096921,2096921,182855,606063,0
2096921,2096921,182745,606006,0
2096921,2096921,182546,605796,0
2096921,2096921,182483,605590,0
2096921,2096921,182288,605733,0
2096921,2096921,182432,605748,0
2096921,2096921,182353,605760,0
2096921,2096921,182735,605634,0
2096921,2096921,182493,605697,0
2096921,2096921,182911,605622,0
2096921,2096921,182662,605562,0
2096921,2096921,182349,605757,0
2096921,2096921,182715,605614,0
2096921,2096921,182427,605601,0
2096921,2096921,182400,605463,0
2096921,2096921,182451,605303,0
2096921,2096921,182593,605424,0
2096921,2096921,182430,605690,0
2096921,2096921,182276,605637,0
2096921,2096921,182276,605634,0
2096921,2096921,182390,605402,0
2096921,2096921,182751,605616,0
2096921,2096921,182693,605315,0
2096921,2096921,182549,605334,0
2096921,2096921,182320,604975,0
2096921,2096921,182435,605170,0
2096921,2096921,182543,604976,0
2096921,2096921,182271,605157,0
2096921,2096921,182399,604918,0
2096921,2096921,182537,605299,0
2096921,2096921,182289,604748,0
2096921,2096921,182370,604727,0
2096921,2096921,182123,604834,0
2096921,2096921,182301,604909,0
2096921,2096921,182032,604647,0
2096921,2096921,182165,604638,0
2096921,2096921,182146,604886,0
2096921,2096921,182326,604901,0
2096921,2096921,182210,604555,0
2096921,2096921,182307,604425,0
2096921,2096921,182142,604281,0
2096921,2096921,182061,604325,0
2096921,2096921,181997,604378,0
2096921,2096921,182330,604185,0
2096921,2096921,182136,604340,0
2096921,2096921,182031,604101,0
2096921,2096921,182224,603899,0
2096921,2096921,182353,603848,0
2096921,2096921,182036,603993,0
2096921,2096921,182043,604049,0
2096921,2096921,181875,603699,0
2096921,2096921,181984,603779,0
2096921,2096921,181922,603784,0
2096921,2096921,181837,603589,0
2096921,2096921,181752,603564,0
2096921,2096921,182036,603776,0
2096921,2096921,181941,603565,0
2096921,2096921,181866,603794,0
2096921,2096921,182097,603967,0
2096921,2096921,181983,603695,0
2096921,2096921,181848,603409,0
2096921,2096921,181736,603654,0
2096921,2096921,182049,603483,0
2096921,2096921,181691,603342,0
2096921,2096921,181619,603342,0
2096921,2096921,181557,603427,0
2096921,2096921,181914,603390,0
2096921,2096921,181881,603489,0
2096921,2096921,181952,603238,0
2096921,2096921,181890,603065,0
2096921,2096921,181939,603213,0
2096921,2096921,181809,603139,0
2096921,2096921,181781,603066,0
2096921,2096921,181882,602915,0
2096921,2096921,181726,602958,0
2096921,2096921,181758,602792,0
2096921,2096921,181887,602920,0
2096921,2096921,181669,602811,0
2096921,2096921,181639,602393,0
2096921,2096921,181485,601845,0
2096921,2096921,181523,602110,0
2096921,2096921,181401,601975,0
2096921,2096921,181667,601603,0
2096921,2096921,181067,601437,0
2096921,2096921,180961,601276,0
2096921,2096921,181167,601276,0
2096921,2096921,181496,601308,0
2096921,2096921,181399,601620,0
2096921,2096921,180828,600558,0
2096921,2096921,180764,600252,0
2096921,2096921,180607,600324,0
2096921,2096921,180915,599880,0
2096921,2096921,180564,600059,0
2096921,2096921,180294,599202,0
2096921,2096921,180526,598674,0
2096921,2096921,180108,598455,0
2096921,2096921,180233,598480,0
2096921,2096921,180328,598637,0
2096921,2096921,180016,597535,0
2096921,2096921,179628,597246,0
2096921,2096921,179827,596750,0
2096921,2096921,179765,596875,0
2096921,2096921,179846,597264,0
2096921,2096921,178790,594852,0
2096921,2096921,178654,593878,0
2096921,2096921,178403,593895,0
2096921,2096921,178567,594051,0
2096921,2096921,178551,594216,0
2096921,2096921,177577,591485,0
2096921,2096921,176862,590455,0
2096921,2096921,177233,589750,0
2096921,2096921,177118,589907,0
2096921,2096921,176930,589823,0
2096921,2096921,176407,588184,0
2096921,2096921,175980,587338,0
2096921,2096921,175890,586974,0
2096921,2096921,175856,587199,0
2096921,2096921,175968,587423,0
2096921,2096921,175358,585848,0
2096921,2096921,175267,585088,0
2096921,2096921,175104,585197,0
2096921,2096921,174788,584663,0
2096921,2096921,175219,584789,0
2096921,2096921,174808,583869,0
2096921,2096921,174740,583279,0
2096921,2096921,174460,583123,0
2096921,2096921,174664,583207,0
2096921,2096921,174670,583158,0
2096921,2096921,174229,582397,0
2096921,2096921,174242,582140,0
2096921,2096921,174103,582022,0
2096921,2096921,174141,582006,0
2096921,2096921,174108,581845,0
2096921,2096921,173660,581408,0
2096921,2096921,173784,580947,0
2096921,2096921,173837,580803,0
2096921,2096921,173667,580934,0
2096921,2096921,173586,580867,0
2096921,2096921,173333,580562,0
2096921,2096921,173653,580603,0
2096921,2096921,173731,580464,0
2096921,2096921,173412,580439,0
2096921,2096921,173384,580208,0
2096921,2096921,173565,580170,0
2096921,2096921,173749,580200,0
2096921,2096921,173416,580349,0
2096921,2096921,173650,580186,0
2096921,2096921,173604,579975,0
2096921,2096921,173364,580212,0
2096921,2096921,173604,579977,0
2096921,2096921,173262,579778,0
2096921,2096921,173177,579932,0
2096921,2096921,173090,579822,0
2096921,2096921,173378,579853,0
2096921,2096921,173696,579927,0
2096921,2096921,173569,580013,0
2096921,2096921,173513,580080,0
2096921,2096921,173410,580174,0
2096921,2096921,173604,580442,0
2096921,2096921,173573,580335,0
2096921,2096921,173508,580078,0
2096921,2096921,173659,580189,0
2096921,2096921,173608,580008,0
2096921,2096921,173458,580031,0
2096921,2096921,173487,580155,0
2096921,2096921,173727,579989,0
2096921,2096921,173615,580393,0
2096921,2096921,173503,580281,0
2096921,2096921,173572,580657,0
2096921,2096921,173633,581089,0
2096921,2096921,173643,581148,0
2096921,2096921,173714,580847,0
2096921,2096921,173871,580850,0
2096921,2096921,174024,581176,0
2096921,2096921,173873,581568,0
2096921,2096921,174254,581560,0
2096921,2096921,173760,581658,0
2096921,2096921,174111,581479,0
2096921,2096921,174139,582151,0
2096921,2096921,174107,582170,0
2096921,2096921,174191,581937,0
2096921,2096921,174355,581653,0
2096921,2096921,174271,582267,0
2096921,2096921,174569,582390,0
2096921,2096921,174386,582530,0
2096921,2096921,174518,582724,0
2096921,2096921,174461,582641,0
2096921,2096921,174332,582719,0
2096921,2096921,174670,582988,0
2096921,2096921,174904,583240,0
2096921,2096921,174578,583205,0
2096921,2096921,174597,583118,0
2096921,2096921,174647,583529,0
2096921,2096921,174900,583919,0
2096921,2096921,174675,583461,0
2096921,2096921,175055,583842,0
2096921,2096921,175109,583870,0
2096921,2096921,175133,583777,0
2096921,2096921,175045,584458,0
2096921,2096921,175222,584337,0
2096921,2096921,174916,584320,0
2096921,2096921,174983,584300,0
2096921,2096921,174918,584584,0
2096921,2096921,175075,584854,0
2096921,2096921,175379,585017,0
2096921,2096921,175327,585005,0
2096921,2096921,175476,585067,0
2096921,2096921,175383,584892,0
2096921,2096921,175338,585358,0
2096921,2096921,175542,585538,0
2096921,2096921,175509,585873,0
2096921,2096921,175735,585620,0
2096921,2096921,175600,585802,0
2096921,2096921,175901,586117,0
2096921,2096921,175990,586327,0
2096921,2096921,175893,586234,0
2096921,2096921,175739,586289,0
2096921,2096921,175993,586207,0
2096921,2096921,176231,586936,0
2096921,2096921,175889,586821,0
2096921,2096921,176025,587214,0
2096921,2096921,176034,587433,0
2096921,2096921,176130,587237,0
2096921,2096921,176289,587408,0
2096921,2096921,176470,587806,0
2096921,2096921,176393,587645,0
2096921,2096921,176251,587522,0
2096921,2096921,176306,587939,0
2096921,2096921,176507,588370,0
2096921,2096921,176548,588141,0
2096921,2096921,176443,588198,0
2096921,2096921,176564,588237,0
2096921,2096921,176366,587912,0
2096921,2096921,176535,588436,0
2096921,2096921,176823,588682,0
2096921,2096921,176525,588751,0
2096921,2096921,176975,588528,0
2096921,2096921,176617,588744,0
2096921,2096921,176899,588687,0
2096921,2096921,176854,589362,0
2096921,2096921,176869,589268,0
2096921,2096921,176930,588880,0
2096921,2096921,176956,588965,0
2096921,2096921,176790,589287,0
2096921,2096921,177035,589393,0
2096921,2096921,176843,589637,0
2096921,2096921,176922,589599,0
2096921,2096921,176713,589647,0
2096921,2096921,177006,589677,0
2096921,2096921,177164,589691,0
2096921,2096921,177218,589725,0
2096921,2096921,177089,589777,0
2096921,2096921,177125,589479,0
2096921,2096921,177010,589603,0
2096921,2096921,177196,589432,0
2096921,2096921,177011,589762,0
2096921,2096921,177255,589530,0
2096921,2096921,176795,589695,0
2096921,2096921,176999,589510,0
2096921,2096921,177072,589706,0
2096921,2096921,176863,589272,0
2096921,2096921,177116,589701,0
2096921,2096921,176974,589548,0
2096921,2096921,177000,589461,0
2096921,2096921,176955,589372,0
2096921,2096921,176978,589709,0
2096921,2096921,177207,589465,0
2096921,2096921,177082,589592,0
2096921,2096921,177076,589461,0
2096921,2096921,176719,589476,0
2096921,2096921,177051,589322,0
2096921,2096921,176717,589313,0
2096921,2096921,176658,589209,0
2096921,2096921,176680,589452,0
2096921,2096921,176575,589140,0
2096921,2096921,176887,589060,0
2096921,2096921,176754,588900,0
2096921,2096921,176955,589101,0
2096921,2096921,176914,589003,0
2096921,2096921,176787,588886,0
2096921,2096921,176421,588951,0
2096921,2096921,176769,588844,0
2096921,2096921,176797,588829,0
2096921,2096921,176517,588893,0
2096921,2096921,176696,588527,0
2096921,2096921,176784,588786,0
2096921,2096921,176441,588824,0
2096921,2096921,176577,588665,0
2096921,2096921,176812,588637,0
2096921,2096921,176590,588920,0
2096921,2096921,176741,588637,0
2096921,2096921,176558,588725,0
2096921,2096921,176549,588343,0
2096921,2096921,176673,588361,0
2096921,2096921,176845,588442,0
2096921,2096921,176673,588637,0
2096921,2096921,176864,588392,0
2096921,2096921,176551,588854,0
2096921,2096921,176539,588729,0
2096921,2096921,176891,588765,0
2096921,2096921,176757,588624,0
2096921,2096921,176756,588805,0
2096921,2096921,176439,588869,0
2096921,2096921,176754,588573,0
2096921,2096921,176646,588523,0
2096921,2096921,176691,588477,0
2096921,2096921,176542,588734,0
2096921,2096921,176770,588788,0
2096921,2096921,176842,589017,0
2096921,2096921,176799,589018,0
2096921,2096921,176693,588864,0
2096921,2096921,176522,589172,0
2096921,2096921,176582,588988,0
2096921,2096921,176753,589420,0
2096921,2096921,176916,589470,0
2096921,2096921,177010,589544,0
2096921,2096921,176987,589464,0
2096921,2096921,176651,589463,0
2096921,2096921,177032,589981,0
2096921,2096921,177306,589801,0
2096921,2096921,177162,589926,0
2096921,2096921,177105,589783,0
2096921,2096921,177131,590044,0
2096921,2096921,177045,590187,0
2096921,2096921,177348,590525,0
2096921,2096921,177521,590302,0
2096921,2096921,177482,590743,0
2096921,2096921,177569,590573,0
2096921,2096921,177680,590798,0
2096921,2096921,177607,590776,0
2096921,2096921,177479,590933,0
2096921,2096921,177569,590997,0
2096921,2096921,177494,591275,0
2096921,2096921,177443,591191,0
2096921,2096921,177458,591517,0
2096921,2096921,177787,591454,0
2096921,2096921,177782,591377,0
2096921,2096921,177878,591549,0
2096921,2096921,177966,591780,0
2096921,2096921,178023,591879,0
2096921,2096921,177980,591856,0
2096921,2096921,177671,591561,0
2096921,2096921,177476,591740,0
2096921,2096921,177548,592022,0
2096921,2096921,177651,592274,0
2096921,2096921,177765,591780,0
2096921,2096921,177927,592244,0
2096921,2096921,177928,592172,0
2096921,2096921,178061,592601,0
2096921,2096921,177877,592444,0
2096921,2096921,177783,592253,0
2096921,2096921,177829,592164,0
2096921,2096921,177940,592480,0
2096921,2096921,178197,592589,0
2096921,2096921,178110,592977,0
2096921,2096921,178133,592791,0
2096921,2096921,178122,592749,0
2096921,2096921,178175,592890,0
2096921,2096921,178380,593150,0
2096921,2096921,178238,593222,0
2096921,2096921,178278,593478,0
2096921,2096921,178398,593200,0
2096921,2096921,178146,593452,0
2096921,2096921,178301,593459,0
2096921,2096921,178634,593507,0
2096921,2096921,178765,593235,0
2096921,2096921,178503,593625,0
2096921,2096921,178534,593534,0
2096921,2096921,178797,594013,0
2096921,2096921,178299,594011,0
2096921,2096921,178789,594143,0
2096921,2096921,178910,593908,0
2096921,2096921,178836,593871,0
2096921,2096921,178961,594399,0
2096921,2096921,178689,594246,0
2096921,2096921,178815,594506,0
2096921,2096921,178907,594481,0
2096921,2096921,178600,594471,0
2096921,2096921,178850,594862,0
2096921,2096921,178759,594891,0
2096921,2096921,178908,595056,0
2096921,2096921,179041,594970,0
2096921,2096921,178888,594815,0
2096921,2096921,179201,594892,0
2096921,2096921,179168,595154,0
2096921,2096921,179166,595291,0
2096921,2096921,179100,595183,0
2096921,2096921,179534,595067,0
2096921,2096921,179436,595517,0
2096921,2096921,179389,595701,0
2096921,2096921,179126,595439,0
2096921,2096921,179309,595555,0
2096921,2096921,179235,595662,0
2096921,2096921,179410,595763,0
2096921,2096921,179317,595936,0
2096921,2096921,179213,596198,0
2096921,2096921,179761,596204,0
2096921,2096921,179112,596211,0
2096921,2096921,179558,596526,0
2096921,2096921,179517,596570,0
2096921,2096921,179478,596540,0
2096921,2096921,179444,596507,0
2096921,2096921,179599,596130,0
2096921,2096921,179509,596735,0
2096921,2096921,179492,596898,0
2096921,2096921,179626,596944,0
2096921,2096921,179560,596875,0
2096921,2096921,179549,596979,0
2096921,2096921,179793,597146,0
2096921,2096921,179988,597195,0
2096921,2096921,179897,596935,0
2096921,2096921,179702,597176,0
2096921,2096921,179881,597134,0
2096921,2096921,179848,597154,0
2096921,2096921,179761,597557,0
2096921,2096921,179928,598208,0
2096921,2096921,179895,597768,0
2096921,2096921,179736,597984,0
2096921,2096921,180026,598062,0
2096921,2096921,180167,598338,0
2096921,2096921,180085,597841,0
2096921,2096921,180109,597985,0
2096921,2096921,180031,597862,0
2096921,2096921,179934,598172,0
2096921,2096921,180330,598290,0
2096921,2096921,180137,598407,0
2096921,2096921,179869,598254,0
2096921,2096921,180109,598300,0
2096921,2096921,180587,598592,0
2096921,2096921,180429,598659,0
2096921,2096921,180420,598572,0
2096921,2096921,180368,598887,0
2096921,2096921,180314,598552,0
2096921,2096921,180389,599023,0
2096921,2096921,180159,598937,0
2096921,2096921,180177,599094,0
2096921,2096921,180560,598829,0
2096921,2096921,180357,599275,0
2096921,2096921,180388,599252,0
2096921,2096921,180555,599411,0
2096921,2096921,180817,599391,0
2096921,2096921,180584,599486,0
2096921,2096921,180368,599433,0
2096921,2096921,180285,599481,0
2096921,2096921,180412,599929,0
2096921,2096921,180341,599812,0
2096921,2096921,180655,599689,0
2096921,2096921,180606,599565,0
2096921,2096921,180657,599952,0
2096921,2096921,180648,600058,0
2096921,2096921,180413,600065,0
2096921,2096921,180589,599772,0
2096921,2096921,180437,600014,0
2096921,2096921,180683,600656,0
2096921,2096921,180953,600342,0
2096921,2096921,180881,600211,0
2096921,2096921,180750,600470,0
2096921,2096921,180774,600446,0
2096921,2096921,181085,600178,0
2096921,2096921,181025,600544,0
2096921,2096921,180710,600723,0
2096921,2096921,181189,600655,0
2096921,2096921,180990,600690,0
2096921,2096921,181051,600852,0
2096921,2096921,181073,600931,0
2096921,2096921,180953,600930,0
2096921,2096921,181042,600703,0
2096921,2096921,180976,600687,0
2096921,2096921,180900,601164,0
2096921,2096921,181265,601295,0
2096921,2096921,181157,601224,0
2096921,2096921,181267,600927,0
2096921,2096921,181337,601285,0
2096921,2096921,181273,601491,0
2096921,2096921,181261,601307,0
2096921,2096921,181487,601533,0
2096921,2096921,181396,601597,0
2096921,2096921,181421,601756,0
2096921,2096921,181499,601926,0
2096921,2096921,181442,601826,0
2096921,2096921,181642,601829,0
2096921,2096921,181388,602208,0
2096921,2096921,181472,601995,0
2096921,2096921,181328,602096,0
2096921,2096921,181372,602208,0
2096921,2096921,181381,602304,0
2096921,2096921,181368,602309,0
2096921,2096921,181514,602235,0
2096921,2096921,181649,602556,0
2096921,2096921,181495,602375,0
2096921,2096921,181582,602894,0
2096921,2096921,181278,602519,0
2096921,2096921,181382,602318,0
2096921,2096921,181865,602639,0
2096921,2096921,181769,602804,0
2096921,2096921,181703,602785,0
2096921,2096921,181940,602854,0
2096921,2096921,181590,603367,0
2096921,2096921,182009,603321,0
2096921,2096921,181954,603245,0
2096921,2096921,181858,603342,0
2096921,2096921,181718,603391,0
2096921,2096921,181740,603119,0
2096921,2096921,181913,602903,0
2096921,2096921,181961,603398,0
2096921,2096921,181761,603376,0
2096921,2096921,182219,603896,0
2096921,2096921,181973,603451,0
2096921,2096921,182099,603637,0
2096921,2096921,181932,603993,0
2096921,2096921,182062,604047,0
2096921,2096921,181730,603822,0
2096921,2096921,182115,604019,0
2096921,2096921,182218,603895,0
2096921,2096921,182130,604071,0
2096921,2096921,182031,603999,0
2096921,2096921,182050,604154,0
2096921,2096921,182106,604054,0
2096921,2096921,182343,604505,0
2096921,2096921,182102,604785,0
2096921,2096921,182261,604635,0
2096921,2096921,182052,604578,0
2096921,2096921,181944,604545,0
2096921,2096921,182285,604698,0
2096921,2096921,182603,604644,0
2096921,2096921,182562,604677,0
2096921,2096921,182562,604995,0
2096921,2096921,182509,604923,0
2096921,2096921,182816,605297,0
2096921,2096921,182696,605622,0
2096921,2096921,182638,605053,0
2096921,2096921,182492,604885,0
2096921,2096921,182215,605397,0
2096921,2096921,182507,605279,0
2096921,2096921,182543,605235,0
2096921,2096921,182586,605406,0
2096921,2096921,182470,605633,0
2096921,2096921,182677,605630,0
2096921,2096921,182974,605749,0
2096921,2096921,182395,605677,0
2096921,2096921,182544,605542,0
2096921,2096921,182441,605575,0
2096921,2096921,182504,605565,0
2096921,2096921,182655,605661,0
2096921,2096921,182540,606062,0
2096921,2096921,182863,605737,0
2096921,2096921,182662,605810,0
2096921,2096921,182746,605845,0
2096921,2096921,182702,606381,0
2096921,2096921,182736,606101,0
2096921,2096921,182771,606408,0
2096921,2096921,182530,606344,0
2096921,2096921,182682,606317,0
2096921,2096921,182818,606584,0
2096921,2096921,182798,606564,0
2096921,2096921,182790,606409,0
2096921,2096921,182945,606577,0
2096921,2096921,183066,606738,0
2096921,2096921,183083,606945,0
2096921,2096921,183024,606664,0
2096921,2096921,182988,606962,0
2096921,2096921,182910,607083,0
2096921,2096921,182814,606757,0
2096921,2096921,182768,606941,0
2096921,2096921,182819,606926,0
2096921,2096921,183076,606913,0
2096921,2096921,183288,607262,0
2096921,2096921,183172,607291,0
2096921,2096921,183448,607449,0
2096921,2096921,183213,607698,0
2096921,2096921,183073,607340,0
2096921,2096921,183080,607636,0
2096921,2096921,183191,607070,0
2096921,2096921,183327,607598,0
2096921,2096921,183306,607589,0
2096921,2096921,183101,607738,0
2096921,2096921,183265,607828,0
2096921,2096921,183530,607730,0
2096921,2096921,182996,607144,0
2096921,2096921,183108,607024,0
2096921,2096921,182915,607402,0
2096921,2096921,182968,607108,0
2096921,2096921,182999,607235,0
2096921,2096921,183266,607275,0
2096921,2096921,183037,607008,0
2096921,2096921,183167,607159,0
2096921,2096921,183338,607121,0
2096921,2096921,183031,607212,0
2096921,2096921,182582,606664,0
2096921,2096921,182650,606436,0
2096921,2096921,182624,606311,0
2096921,2096921,182775,606344,0
2096921,2096921,182627,606179,0
2096921,2096921,182474,605544,0
2096921,2096921,182384,605256,0
2096921,2096921,182401,605729,0
2096921,2096921,182111,605416,0
2096921,2096921,182373,605349,0
2096921,2096921,182166,604463,0
2096921,2096921,182036,604153,0
2096921,2096921,181904,604418,0
2096921,2096921,181762,604307,0
2096921,2096921,181743,604714,0
2096921,2096921,181118,602476,0
2096921,2096921,180669,601661,0
2096921,2096921,180625,601604,0
2096921,2096921,180566,601485,0
2096921,2096921,180781,601531,0
2096921,2096921,179808,599320,0
2096921,2096921,179739,598327,0
2096921,2096921,179322,598238,0
2096921,2096921,179625,597885,0
2096921,2096921,179621,597929,0
2096921,2096921,178741,596281,0
2096921,2096921,178719,595621,0
2096921,2096921,178530,595348,0
2096921,2096921,178502,595513,0
2096921,2096921,178579,595505,0
2096921,2096921,178120,594397,0
2096921,2096921,177986,593959,0
2096921,2096921,177819,593843,0
2096921,2096921,177922,593576,0
2096921,2096921,177993,593638,0
2096921,2096921,177212,592605,0
2096921,2096921,177364,592704,0
2096921,2096921,177626,592365,0
2096921,2096921,177580,592597,0
2096921,2096921,177498,592371,0
2096921,2096921,177304,591921,0
2096921,2096921,177302,591547,0
2096921,2096921,177202,591256,0
2096921,2096921,177119,591534,0
2096921,2096921,177026,591439,0
2096921,2096921,176907,591080,0
2096921,2096921,176841,591092,0
2096921,2096921,177109,591114,0
2096921,2096921,176796,591455,0
2096921,2096921,177040,591267,0
2096921,2096921,177015,591045,0
2096921,2096921,176827,590823,0
2096921,2096921,176774,591016,0
2096921,2096921,176995,590950,0
2096921,2096921,176814,590787,0
2096921,2096921,176792,591136,0
2096921,2096921,176463,590724,0
2096921,2096921,176815,590859,0
2096921,2096921,176926,590881,0
2096921,2096921,176808,590876,0
2096921,2096921,177013,591062,0
2096921,2096921,176973,591383,0
2096921,2096921,177080,591457,0
2096921,2096921,177105,591280,0
2096921,2096921,177089,591055,0
2096921,2096921,176949,591895,0
2096921,2096921,177051,591791,0
2096921,2096921,177155,591721,0
2096921,2096921,176959,591690,0
2096921,2096921,177213,591977,0
2096921,2096921,177542,592198,0
2096921,2096921,177165,592395,0
2096921,2096921,177255,592250,0
2096921,2096921,177415,592337,0
2096921,2096921,177257,592492,0
2096921,2096921,177445,592998,0
2096921,2096921,177614,592658,0
2096921,2096921,177304,592640,0
2096921,2096921,177451,592927,0
2096921,2096921,177474,593083,0
2096921,2096921,177966,593435,0
2096921,2096921,177912,593731,0
2096921,2096921,177840,593794,0
2096921,2096921,177765,594024,0
2096921,2096921,177533,593772,0
2096921,2096921,177837,594425,0
2096921,2096921,177541,594665,0
2096921,2096921,177870,594851,0
2096921,2096921,177929,594825,0
2096921,2096921,178360,594824,0
2096921,2096921,178595,595510,0
2096921,2096921,178423,595783,0
2096921,2096921,178481,595659,0
2096921,2096921,178396,595627,0
2096921,2096921,178237,595351,0
2096921,2096921,178598,596078,0
2096921,2096921,178481,596410,0
2096921,2096921,178791,596643,0
2096921,2096921,179084,596694,0
2096921,2096921,178807,596730,0
2096921,2096921,179419,597549,0
2096921,2096921,178994,597699,0
2096921,2096921,179112,597350,0
2096921,2096921,179336,597762,0
2096921,2096921,179142,597809,0
2096921,2096921,179003,598131,0
2096921,2096921,179356,598458,0
2096921,2096921,179349,598441,0
2096921,2096921,179747,598583,0
2096921,2096921,179653,598714,0
2096921,2096921,179802,599391,0
2096921,2096921,179727,599328,0
2096921,2096921,179660,599413,0
2096921,2096921,179729,599426,0
2096921,2096921,179673,599570,0
2096921,2096921,180101,600059,0
2096921,2096921,180091,600329,0
2096921,2096921,180086,600259,0
2096921,2096921,180123,600421,0
2096921,2096921,180234,600748,0
2096921,2096921,180533,601173,0
2096921,2096921,180512,601212,0
2096921,2096921,180704,601600,0
2096921,2096921,180386,601407,0
2096921,2096921,180350,601506,0
2096921,2096921,180687,601883,0
2096921,2096921,180641,602255,0
2096921,2096921,180715,602189,0
2096921,2096921,181163,602532,0
2096921,2096921,180674,602500,0
2096921,2096921,181080,603146,0
2096921,2096921,181137,603340,0
2096921,2096921,181142,603839,0
2096921,2096921,180867,603351,0
2096921,2096921,181131,603424,0
2096921,2096921,181353,604027,0
2096921,2096921,181686,604575,0
2096921,2096921,181751,604579,0
2096921,2096921,181852,604609,0
2096921,2096921,181520,604417,0
2096921,2096921,182000,605145,0
2096921,2096921,181852,605187,0
2096921,2096921,181649,605206,0
2096921,2096921,181724,605094,0
2096921,2096921,181690,605392,0
2096921,2096921,182100,605540,0
2096921,2096921,181972,605932,0
2096921,2096921,182273,606065,0
2096921,2096921,182122,606179,0
2096921,2096921,182240,605970,0
2096921,2096921,182223,606443,0
2096921,2096921,182364,606517,0
2096921,2096921,182371,606560,0
2096921,2096921,182258,606333,0
2096921,2096921,182121,606730,0
2096921,2096921,182324,606868,0
2096921,2096921,182422,607303,0
2096921,2096921,182171,607385,0
2096921,2096921,182232,607337,0
2096921,2096921,182598,607175,0
2096921,2096921,182359,607439,0
2096921,2096921,182474,607205,0
2096921,2096921,182435,607593,0
2096921,2096921,182309,607337,0
2096921,2096921,182314,607681,0
2096921,2096921,182630,608151,0
2096921,2096921,182545,608292,0
2096921,2096921,182863,607971,0
2096921,2096921,182693,607963,0
2096921,2096921,183069,607885,0
2096921,2096921,182852,608356,0
2096921,2096921,182815,608223,0
2096921,2096921,182708,608369,0
2096921,2096921,182631,608150,0
2096921,2096921,182663,608281,0
2096921,2096921,182490,608203,0
2096921,2096921,182613,608108,0
2096921,2096921,182702,608285,0
2096921,2096921,182786,608295,0
2096921,2096921,182625,608175,0
2096921,2096921,182822,608583,0
2096921,2096921,182634,608784,0
2096921,2096921,182866,608645,0
2096921,2096921,182717,608254,0
2096921,2096921,182959,608479,0
2096921,2096921,182555,608374,0
2096921,2096921,182864,608640,0
2096921,2096921,182992,608560,0
2096921,2096921,182896,608646,0
2096921,2096921,183122,608315,0
2096921,2096921,183123,608414,0
2096921,2096921,183105,608330,0
2096921,2096921,182827,608392,0
2096921,2096921,182881,608666,0
2096921,2096921,182896,608268,0
2096921,2096921,182740,608463,0
2096921,2096921,182848,608356,0
2096921,2096921,182657,608364,0
2096921,2096921,182686,608624,0
2096921,2096921,182762,608799,0
2096921,2096921,182871,608537,0
2096921,2096921,182800,608590,0
2096921,2096921,182810,608500,0
2096921,2096921,182552,608356,0
2096921,2096921,182519,608251,0
2096921,2096921,182788,608320,0
2096921,2096921,182780,608504,0
2096921,2096921,182854,608715,0
2096921,2096921,182882,608701,0
2096921,2096921,182903,608744,0
2096921,2096921,182777,609086,0
2096921,2096921,183142,608873,0
2096921,2096921,183080,608973,0
2096921,2096921,182945,609139,0
2096921,2096921,182717,609139,0
2096921,2096921,182860,609022,0
2096921,2096921,183173,609119,0
2096921,2096921,183305,609469,0
2096921,2096921,183073,609619,0
2096921,2096921,182741,609322,0
2096921,2096921,182888,609339,0
2096921,2096921,183173,609641,0
2096921,2096921,183063,609818,0
2096921,2096921,183103,609690,0
2096921,2096921,183121,609859,0
2096921,2096921,183268,610336,0
2096921,2096921,183439,610431,0
2096921,2096921,183338,610365,0
2096921,2096921,183332,610539,0
2096921,2096921,183534,610493,0
2096921,2096921,183715,611145,0
2096921,2096921,183661,611375,0
2096921,2096921,183928,610942,0
2096921,2096921,183947,611508,0
2096921,2096921,183594,611206,0
2096921,2096921,183997,611541,0
2096921,2096921,184077,612180,0
2096921,2096921,184075,612078,0
2096921,2096921,184102,611772,0
2096921,2096921,184148,611960,0
2096921,2096921,184371,612415,0
2096921,2096921,184417,612695,0
2096921,2096921,184234,612585,0
2096921,2096921,184053,612616,0
2096921,2096921,183803,612402,0
2096921,2096921,184272,612880,0
2096921,2096921,184622,612978,0
2096921,2096921,184451,613402,0
2096921,2096921,184453,612902,0
2096921,2096921,184560,613108,0
2096921,2096921,184664,613538,0
2096921,2096921,184528,613514,0
2096921,2096921,184770,613655,0
2096921,2096921,184845,613811,0
2096921,2096921,184805,613677,0
2096921,2096921,185053,614111,0
2096921,2096921,184788,614224,0
2096921,2096921,184588,614110,0
2096921,2096921,185011,614378,0
2096921,2096921,184876,614559,0
2096921,2096921,184949,614654,0
2096921,2096921,184920,614898,0
2096921,2096921,185040,614702,0
2096921,2096921,184927,614865,0
2096921,2096921,184787,614758,0
2096921,2096921,184938,615222,0
2096921,2096921,185194,615432,0
2096921,2096921,185376,615496,0
2096921,2096921,184934,615491,0
2096921,2096921,185223,615714,0
2096921,2096921,185399,616187,0
2096921,2096921,185537,616071,0
2096921,2096921,185693,615761,0
2096921,2096921,185646,615891,0
2096921,2096921,185687,615844,0
2096921,2096921,185622,616351,0
2096921,2096921,185289,616483,0
2096921,2096921,185466,616676,0
2096921,2096921,185645,616681,0
2096921,2096921,185679,616418,0
2096921,2096921,185550,616827,0
2096921,2096921,185810,616880,0
2096921,2096921,185823,616820,0
2096921,2096921,185729,617094,0
2096921,2096921,185548,616959,0
2096921,2096921,185856,617406,0
2096921,2096921,186087,617730,0
2096921,2096921,186066,617812,0
2096921,2096921,185943,617536,0
2096921,2096921,186237,617517,0
2096921,2096921,186229,617741,0
2096921,2096921,186162,618163,0
2096921,2096921,186173,618251,0
2096921,2096921,186231,618137,0
2096921,2096921,186175,617983,0
2096921,2096921,186447,618269,0
2096921,2096921,186375,618643,0
2096921,2096921,186245,618413,0
2096921,2096921,186469,618564,0
2096921,2096921,186327,618449,0
2096921,2096921,186296,619037,0
2096921,2096921,186257,618993,0
2096921,2096921,186547,619257,0
2096921,2096921,186536,618942,0
2096921,2096921,186411,618994,0
2096921,2096921,186844,619273,0
2096921,2096921,186735,619665,0
2096921,2096921,186634,619440,0
2096921,2096921,186806,619891,0
2096921,2096921,186840,619358,0
2096921,2096921,186870,619940,0
2096921,2096921,186805,619739,0
2096921,2096921,186565,620241,0
2096921,2096921,186609,619763,0
2096921,2096921,186929,619714,0
2096921,2096921,186943,620045,0
2096921,2096921,187006,620112,0
2096921,2096921,186928,620072,0
2096921,2096921,186975,620164,0
2096921,2096921,186843,619972,0
2096921,2096921,187229,620419,0
2096921,2096921,187096,620522,0
2096921,2096921,187133,620640,0
2096921,2096921,187172,620487,0
2096921,2096921,186938,620871,0
2096921,2096921,187151,620803,0
2096921,2096921,186992,620991,0
2096921,2096921,187372,620921,0
2096921,2096921,187602,621040,0
2096921,2096921,187438,620900,0
2096921,2096921,187265,621307,0
2096921,2096921,187287,621200,0
2096921,2096921,187562,621315,0
2096921,2096921,187423,621092,0
2096921,2096921,187326,621285,0
2096921,2096921,187130,621438,0
2096921,2096921,187302,621508,0
2096921,2096921,187205,621665,0
2096921,2096921,187419,621506,0
2096921,2096921,187486,621532,0
2096921,2096921,187612,621838,0
2096921,2096921,187366,622092,0
2096921,2096921,187501,622287,0
2096921,2096921,187645,622339,0
2096921,2096921,187534,622289,0
2096921,2096921,187655,622154,0
2096921,2096921,187706,622276,0
2096921,2096921,187496,622323,0
2096921,2096921,187904,622086,0
2096921,2096921,187697,622005,0
2096921,2096921,187782,622483,0
2096921,2096921,187736,622384,0
2096921,2096921,187568,622597,0
2096921,2096921,187793,622343,0
2096921,2096921,187844,622361,0
2096921,2096921,187751,622657,0
2096921,2096921,187851,622576,0
2096921,2096921,187688,622530,0
2096921,2096921,187730,622689,0
2096921,2096921,187841,622692,0
2096921,2096921,187732,622908,0
2096921,2096921,187710,622853,0
2096921,2096921,187814,622716,0
2096921,2096921,187830,622627,0
2096921,2096921,187632,623012,0
2096921,2096921,187719,623253,0
2096921,2096921,187839,623232,0
2096921,2096921,188041,623368,0
2096921,2096921,188005,623314,0
2096921,2096921,188121,623237,0
2096921,2096921,188195,623241,0
2096921,2096921,187957,623533,0
2096921,2096921,187813,623489,0
2096921,2096921,188009,623193,0
2096921,2096921,187998,623037,0
2096921,2096921,188074,623232,0
2096921,2096921,187893,623349,0
2096921,2096921,188119,623302,0
2096921,2096921,187972,623174,0
2096921,2096921,187947,623364,0
2096921,2096921,188006,623695,0
2096921,2096921,188214,623592,0
2096921,2096921,188080,623537,0
2096921,2096921,188073,623319,0
2096921,2096921,188311,623593,0
2096921,2096921,188114,623601,0
2096921,2096921,188050,623453,0
2096921,2096921,187827,623685,0
2096921,2096921,188045,623522,0
2096921,2096921,188016,623713,0
2096921,2096921,188091,623921,0
2096921,2096921,187863,623743,0
2096921,2096921,188445,623639,0
2096921,2096921,188401,623916,0
2096921,2096921,187965,623817,0
2096921,2096921,188091,623913,0
2096921,2096921,188398,623747,0
2096921,2096921,188189,623981,0
2096921,2096921,188426,624005,0
2096921,2096921,188234,623977,0
2096921,2096921,188074,624117,0
2096921,2096921,188257,624228,0
2096921,2096921,188286,624090,0
2096921,2096921,188146,624139,0
2096921,2096921,188112,624290,0
2096921,2096921,188544,624207,0
2096921,2096921,188472,624243,0
2096921,2096921,188355,624140,0
2096921,2096921,188212,624105,0
2096921,2096921,188560,624226,0
2096921,2096921,188338,624236,0
2096921,2096921,188633,624262,0
2096921,2096921,188336,624407,0
2096921,2096921,188511,624156,0
2096921,2096921,188425,624325,0
2096921,2096921,188359,624533,0
2096921,2096921,188223,624417,0
2096921,2096921,188305,624255,0
2096921,2096921,188360,624446,0
2096921,2096921,188284,624580,0
2096921,2096921,188357,624516,0
2096921,2096921,188702,624953,0
2096921,2096921,188515,624658,0
2096921,2096921,188602,624681,0
2096921,2096921,188261,624386,0
2096921,2096921,188611,624531,0
2096921,2096921,188359,624772,0
2096921,2096921,188384,624702,0
2096921,2096921,188448,624637,0
2096921,2096921,188362,624635,0
2096921,2096921,188561,624450,0
2096921,2096921,188443,624884,0
2096921,2096921,188529,624851,0
2096921,2096921,188591,624869,0
2096921,2096921,188560,624669,0
2096921,2096921,188582,624900,0
2096921,2096921,188432,624865,0
2096921,2096921,188534,624835,0
2096921,2096921,188608,624828,0
2096921,2096921,188644,624799,0
2096921,2096921,188798,625130,0
2096921,2096921,188730,625232,0
2096921,2096921,188239,624988,0
2096921,2096921,188365,624735,0
2096921,2096921,188323,624874,0
2096921,2096921,188280,624726,0
2096921,2096921,188514,624678,0
2096921,2096921,188410,624787,0
2096921,2096921,188740,624880,0
2096921,2096921,188620,624839,0
2096921,2096921,188725,625010,0
2096921,2096921,188743,625162,0
2096921,2096921,188460,624988,0
2096921,2096921,188257,624734,0
2096921,2096921,188377,624798,0
2096921,2096921,188263,625008,0
2096921,2096921,188786,624992,0
2096921,2096921,188616,624835,0
2096921,2096921,188672,624882,0
2096921,2096921,188978,624797,0
2096921,2096921,188751,624931,0
2096921,2096921,188746,624832,0
2096921,2096921,188754,624966,0
2096921,2096921,188685,624792,0
2096921,2096921,188416,625094,0
2096921,2096921,188499,624915,0
2096921,2096921,188749,624868,0
2096921,2096921,188715,625019,0
2096921,2096921,188745,625076,0
2096921,2096921,188621,625052,0
2096921,2096921,189013,625039,0
2096921,2096921,188791,624978,0
2096921,2096921,188653,624812,0
2096921,2096921,188543,625016,0
2096921,2096921,188532,624880,0
2096921,2096921,188602,624887,0
2096921,2096921,188797,625003,0
2096921,2096921,188815,624784,0
2096921,2096921,188904,624799,0
2096921,2096921,188771,625089,0
2096921,2096921,188609,625047,0
2096921,2096921,188686,625154,0
2096921,2096921,188977,625050,0
2096921,2096921,188485,624891,0
2096921,2096921,188516,624922,0
2096921,2096921,188738,625126,0
2096921,2096921,188731,624853,0
2096921,2096921,188428,624768,0
2096921,2096921,188743,625057,0
2096921,2096921,188802,625009,0
2096921,2096921,188821,624529,0
2096921,2096921,188486,624362,0
2096921,2096921,188578,624103,0
2096921,2096921,188193,624290,0
2096921,2096921,188197,624460,0
2096921,2096921,187938,624123,0
2096921,2096921,188069,623585,0
2096921,2096921,188114,623569,0
2096921,2096921,188226,623711,0
2096921,2096921,188235,623893,0
2096921,2096921,187827,623023,0
2096921,2096921,188115,622860,0
2096921,2096921,187658,622834,0
2096921,2096921,187679,622497,0
2096921,2096921,187630,622388,0
2096921,2096921,187111,621726,0
2096921,2096921,187329,621687,0
2096921,2096921,187607,621604,0
2096921,2096921,187325,621443,0
2096921,2096921,187390,621222,0
2096921,2096921,187049,620502,0
2096921,2096921,186742,620060,0
2096921,2096921,186603,619942,0
2096921,2096921,186758,619915,0
2096921,2096921,186620,619911,0
2096921,2096921,185691,617723,0
2096921,2096921,185716,616788,0
2096921,2096921,185457,617036,0
2096921,2096921,185546,617084,0
2096921,2096921,185608,617018,0
2096921,2096921,184597,613980,0
2096921,2096921,184206,612965,0
2096921,2096921,184079,612919,0
2096921,2096921,184214,612712,0
2096921,2096921,184062,612790,0
2096921,2096921,183101,610730,0
2096921,2096921,183319,610214,0
2096921,2096921,183203,610043,0
2096921,2096921,183019,609697,0
2096921,2096921,183053,609841,0
2096921,2096921,182280,608432,0
2096921,2096921,182224,608154,0
2096921,2096921,182083,607751,0
2096921,2096921,182010,607728,0
2096921,2096921,181925,607859,0
2096921,2096921,181312,606551,0
2096921,2096921,181648,606044,0
2096921,2096921,181791,605934,0
2096921,2096921,181706,605884,0
