2096921,2096921, 150273, 708115
2096921,2096921, 150100, 708305
2096921,2096921, 150403, 708283
2096921,2096921, 150244, 708339
2096921,2096921, 150505, 708097
2096921,2096921, 150589, 708034
2096921,2096921, 150447, 708217
2096921,2096921, 150511, 708396
2096921,2096921, 150596, 708290
2096921,2096921, 150138, 708112
2096921,2096921, 150255, 708205
2096921,2096921, 150366, 708306
2096921,2096921, 150263, 708492
2096921,2096921, 150397, 708408
2096921,2096921, 150454, 708361
2096921,2096921, 150704, 708328
2096921,2096921, 150361, 708617
2096921,2096921, 150450, 708650
2096921,2096921, 150569, 708563
2096921,2096921, 150493, 708400
2096921,2096921, 150539, 708653
2096921,2096921, 150573, 708650
2096921,2096921, 150120, 708718
2096921,2096921, 150363, 708821
2096921,2096921, 150208, 708473
2096921,2096921, 150627, 708542
2096921,2096921, 150595, 708616
2096921,2096921, 150640, 708779
2096921,2096921, 150805, 708564
2096921,2096921, 150645, 708923
2096921,2096921, 150362, 708602
2096921,2096921, 150357, 708890
2096921,2096921, 150446, 708773
2096921,2096921, 150581, 708747
2096921,2096921, 150522, 708673
2096921,2096921, 150434, 708805
2096921,2096921, 150469, 708680
2096921,2096921, 150719, 708743
2096921,2096921, 150636, 708733
2096921,2096921, 150903, 708930
2096921,2096921, 150610, 709054
2096921,2096921, 150650, 709087
2096921,2096921, 150409, 709055
2096921,2096921, 150460, 709325
2096921,2096921, 150457, 709135
2096921,2096921, 150382, 708991
2096921,2096921, 150414, 709193
2096921,2096921, 150538, 708856
2096921,2096921, 150441, 708844
2096921,2096921, 150555, 708704
2096921,2096921, 150514, 708598
2096921,2096921, 150901, 708984
2096921,2096921, 150737, 709137
2096921,2096921, 150724, 708970
2096921,2096921, 150527, 709095
2096921,2096921, 150784, 708947
2096921,2096921, 150603, 708985
2096921,2096921, 150673, 709110
2096921,2096921, 150537, 709074
2096921,2096921, 150505, 709248
2096921,2096921, 150623, 709075
2096921,2096921, 150869, 709382
2096921,2096921, 150435, 708743
2096921,2096921, 150777, 708906
2096921,2096921, 150734, 709037
2096921,2096921, 150792, 709017
2096921,2096921, 150692, 709105
2096921,2096921, 150604, 708879
2096921,2096921, 150802, 708991
2096921,2096921, 150818, 709083
2096921,2096921, 150311, 709024
2096921,2096921, 150382, 709127
2096921,2096921, 150633, 709371
2096921,2096921, 150543, 708958
2096921,2096921, 150591, 708791
2096921,2096921, 150736, 708874
2096921,2096921, 150256, 708933
2096921,2096921, 150564, 708874
2096921,2096921, 150727, 708888
2096921,2096921, 150707, 708991
2096921,2096921, 150876, 708893
2096921,2096921, 150509, 709022
2096921,2096921, 150562, 709173
2096921,2096921, 150948, 709205
2096921,2096921, 150847, 709051
2096921,2096921, 150576, 709367
2096921,2096921, 150225, 709025
2096921,2096921, 150287, 709462
2096921,2096921, 150343, 709193
2096921,2096921, 150710, 709019
2096921,2096921, 150603, 709042
2096921,2096921, 150580, 709060
2096921,2096921, 150628, 708750
2096921,2096921, 150469, 709263
2096921,2096921, 150658, 709330
2096921,2096921, 150723, 709254
2096921,2096921, 150486, 708957
2096921,2096921, 150494, 709222
2096921,2096921, 150621, 709157
2096921,2096921, 150457, 709277
2096921,2096921, 150535, 709002
2096921,2096921, 150801, 709370
2096921,2096921, 150739, 709023
2096921,2096921, 150793, 709053
2096921,2096921, 150413, 708633
2096921,2096921, 150481, 708544
2096921,2096921, 150532, 708397
2096921,2096921, 150397, 708749
2096921,2096921, 150452, 708450
2096921,2096921, 150504, 708227
2096921,2096921, 150329, 708307
2096921,2096921, 150324, 708284
2096921,2096921, 150257, 708120
2096921,2096921, 150216, 708078
2096921,2096921, 150331, 707466
2096921,2096921, 149907, 707446
2096921,2096921, 150306, 707455
2096921,2096921, 150367, 707411
2096921,2096921, 150189, 707249
2096921,2096921, 149992, 706544
2096921,2096921, 149764, 706509
2096921,2096921, 149770, 706415
2096921,2096921, 149761, 706584
2096921,2096921, 149707, 706363
2096921,2096921, 149566, 705643
2096921,2096921, 149490, 705473
2096921,2096921, 149666, 705512
2096921,2096921, 149550, 705583
2096921,2096921, 149311, 705435
2096921,2096921, 148820, 703324
2096921,2096921, 148827, 702916
2096921,2096921, 148481, 703169
2096921,2096921, 148712, 702946
2096921,2096921, 148677, 703187
2096921,2096921, 148070, 700761
2096921,2096921, 147866, 700263
2096921,2096921, 147899, 700101
2096921,2096921, 147927, 700428
2096921,2096921, 147626, 700301
2096921,2096921, 147277, 698523
2096921,2096921, 147287, 697912
2096921,2096921, 146999, 698018
2096921,2096921, 147321, 697819
2096921,2096921, 147049, 698129
2096921,2096921, 146945, 696521
2096921,2096921, 146767, 696698
2096921,2096921, 146931, 696525
2096921,2096921, 146675, 696531
2096921,2096921, 146478, 696334
2096921,2096921, 146305, 695335
2096921,2096921, 146550, 695405
2096921,2096921, 146358, 695384
2096921,2096921, 146451, 695070
2096921,2096921, 146338, 694997
2096921,2096921, 146230, 694292
2096921,2096921, 145983, 694417
2096921,2096921, 146083, 694103
2096921,2096921, 145892, 694481
2096921,2096921, 146096, 694082
2096921,2096921, 145918, 693693
2096921,2096921, 145978, 693768
2096921,2096921, 146069, 693886
2096921,2096921, 146239, 693810
2096921,2096921, 145980, 693730
2096921,2096921, 145806, 693647
2096921,2096921, 145981, 693329
2096921,2096921, 145944, 693359
2096921,2096921, 145711, 692923
2096921,2096921, 145720, 692943
2096921,2096921, 145888, 693090
2096921,2096921, 145910, 693114
2096921,2096921, 145631, 693307
2096921,2096921, 145562, 693179
2096921,2096921, 145759, 693179
2096921,2096921, 145885, 693213
2096921,2096921, 145664, 693272
2096921,2096921, 145709, 693342
2096921,2096921, 145736, 693139
2096921,2096921, 145844, 693234
2096921,2096921, 145671, 693235
2096921,2096921, 145893, 693353
2096921,2096921, 145999, 693332
2096921,2096921, 145878, 693104
2096921,2096921, 145825, 693563
2096921,2096921, 146092, 693924
2096921,2096921, 145869, 693664
2096921,2096921, 146063, 693428
2096921,2096921, 145882, 693514
2096921,2096921, 146017, 693407
2096921,2096921, 145993, 693784
2096921,2096921, 145980, 693727
2096921,2096921, 146117, 693581
2096921,2096921, 145859, 693708
2096921,2096921, 146081, 693943
2096921,2096921, 146049, 694311
2096921,2096921, 146304, 694335
2096921,2096921, 146313, 694053
2096921,2096921, 146121, 694327
2096921,2096921, 146039, 694454
2096921,2096921, 146047, 694675
2096921,2096921, 146214, 694843
2096921,2096921, 146148, 694536
2096921,2096921, 146133, 694217
2096921,2096921, 146154, 694584
2096921,2096921, 146447, 695189
2096921,2096921, 146508, 695173
2096921,2096921, 146487, 695243
2096921,2096921, 146459, 695047
2096921,2096921, 146640, 695233
2096921,2096921, 146592, 695843
2096921,2096921, 146484, 695776
2096921,2096921, 146550, 695926
2096921,2096921, 146567, 695749
2096921,2096921, 146751, 696137
2096921,2096921, 146929, 696109
2096921,2096921, 146754, 696090
2096921,2096921, 146844, 696235
2096921,2096921, 146936, 696225
2096921,2096921, 146860, 696288
2096921,2096921, 146892, 696457
2096921,2096921, 146869, 696758
2096921,2096921, 146909, 696653
2096921,2096921, 146815, 696792
2096921,2096921, 146573, 696539
2096921,2096921, 147089, 697010
2096921,2096921, 147171, 696863
2096921,2096921, 147287, 697014
2096921,2096921, 146919, 696914
2096921,2096921, 146936, 696902
2096921,2096921, 147157, 697313
2096921,2096921, 146991, 697555
2096921,2096921, 147021, 697619
2096921,2096921, 147208, 697632
2096921,2096921, 147107, 697340
2096921,2096921, 147186, 698137
2096921,2096921, 147308, 698041
2096921,2096921, 147328, 698152
2096921,2096921, 147357, 698130
2096921,2096921, 147220, 698305
2096921,2096921, 147256, 698909
2096921,2096921, 147371, 698711
2096921,2096921, 147296, 698324
2096921,2096921, 147215, 698438
2096921,2096921, 147157, 698574
2096921,2096921, 147620, 698946
2096921,2096921, 147420, 699252
2096921,2096921, 147556, 699063
2096921,2096921, 147662, 698888
2096921,2096921, 147601, 699121
2096921,2096921, 147474, 699503
2096921,2096921, 147715, 699494
2096921,2096921, 147820, 699317
2096921,2096921, 147772, 699577
2096921,2096921, 147703, 699616
2096921,2096921, 147870, 699912
2096921,2096921, 147681, 700040
2096921,2096921, 147759, 700044
2096921,2096921, 147931, 700087
2096921,2096921, 147997, 700000
2096921,2096921, 148281, 700398
2096921,2096921, 148141, 700644
2096921,2096921, 148246, 700571
2096921,2096921, 147991, 700441
2096921,2096921, 148018, 700676
2096921,2096921, 148559, 700843
2096921,2096921, 148264, 700945
2096921,2096921, 148480, 700847
2096921,2096921, 148299, 700897
2096921,2096921, 148300, 700827
2096921,2096921, 148290, 701027
2096921,2096921, 148091, 701246
2096921,2096921, 148308, 701044
2096921,2096921, 148181, 701081
2096921,2096921, 148257, 700577
2096921,2096921, 148209, 701132
2096921,2096921, 148119, 701242
2096921,2096921, 148204, 701249
2096921,2096921, 148195, 701270
2096921,2096921, 148363, 701357
2096921,2096921, 148197, 701192
2096921,2096921, 147863, 701091
2096921,2096921, 147892, 701138
2096921,2096921, 148040, 701195
2096921,2096921, 148251, 701396
2096921,2096921, 148257, 701040
2096921,2096921, 148136, 700975
2096921,2096921, 148345, 701074
2096921,2096921, 148275, 700990
2096921,2096921, 148210, 701019
2096921,2096921, 148146, 701224
2096921,2096921, 148461, 701048
2096921,2096921, 148456, 701046
2096921,2096921, 148138, 701322
2096921,2096921, 148249, 700785
2096921,2096921, 148054, 701217
2096921,2096921, 148072, 700891
2096921,2096921, 147928, 700747
2096921,2096921, 147989, 700730
2096921,2096921, 148432, 700794
2096921,2096921, 148110, 700821
2096921,2096921, 148222, 701046
2096921,2096921, 147973, 700935
2096921,2096921, 147975, 700565
2096921,2096921, 148055, 700529
2096921,2096921, 147796, 700802
2096921,2096921, 148014, 700667
2096921,2096921, 148171, 700575
2096921,2096921, 148110, 700290
2096921,2096921, 148214, 700539
2096921,2096921, 148070, 700405
2096921,2096921, 148126, 700467
2096921,2096921, 147929, 700202
2096921,2096921, 147689, 700690
2096921,2096921, 147677, 700562
2096921,2096921, 148038, 700400
2096921,2096921, 147939, 700245
2096921,2096921, 148075, 700188
2096921,2096921, 148075, 700225
2096921,2096921, 148058, 700122
2096921,2096921, 148012, 700145
2096921,2096921, 147989, 700391
2096921,2096921, 148046, 700253
2096921,2096921, 148074, 700299
2096921,2096921, 147801, 700318
2096921,2096921, 148208, 700323
2096921,2096921, 147850, 700604
2096921,2096921, 148051, 700545
2096921,2096921, 148222, 700331
2096921,2096921, 148022, 700648
2096921,2096921, 148094, 700521
2096921,2096921, 148005, 700409
2096921,2096921, 148037, 700416
2096921,2096921, 147936, 700391
2096921,2096921, 148018, 700608
2096921,2096921, 148246, 700691
2096921,2096921, 148321, 700695
2096921,2096921, 148070, 700672
2096921,2096921, 148209, 700660
2096921,2096921, 148324, 700843
2096921,2096921, 148446, 700710
2096921,2096921, 148329, 701137
2096921,2096921, 148260, 700859
2096921,2096921, 148404, 700963
2096921,2096921, 148492, 700969
2096921,2096921, 148372, 701337
2096921,2096921, 148482, 701146
2096921,2096921, 148413, 701565
2096921,2096921, 148264, 701262
2096921,2096921, 148157, 701605
2096921,2096921, 148268, 701860
2096921,2096921, 148354, 702010
2096921,2096921, 148581, 701788
2096921,2096921, 148508, 701753
2096921,2096921, 148573, 701521
2096921,2096921, 148418, 702014
2096921,2096921, 148409, 702111
2096921,2096921, 148479, 701855
2096921,2096921, 148174, 702002
2096921,2096921, 148378, 702019
2096921,2096921, 148717, 702517
2096921,2096921, 148745, 702286
2096921,2096921, 148612, 702340
2096921,2096921, 148567, 702604
2096921,2096921, 148538, 702280
2096921,2096921, 148653, 702827
2096921,2096921, 148774, 702889
2096921,2096921, 148718, 702638
2096921,2096921, 148744, 702836
2096921,2096921, 148851, 702845
2096921,2096921, 148694, 702653
2096921,2096921, 148637, 703323
2096921,2096921, 148494, 703592
2096921,2096921, 148883, 703049
2096921,2096921, 148902, 702887
2096921,2096921, 148680, 703167
2096921,2096921, 149037, 703441
2096921,2096921, 148861, 703358
2096921,2096921, 149331, 703503
2096921,2096921, 148767, 703426
2096921,2096921, 149026, 703613
2096921,2096921, 149007, 703377
2096921,2096921, 148969, 703210
2096921,2096921, 148914, 703006
2096921,2096921, 149029, 703348
2096921,2096921, 148922, 703818
2096921,2096921, 148961, 703904
2096921,2096921, 149122, 703901
2096921,2096921, 149119, 704009
2096921,2096921, 149063, 703940
2096921,2096921, 149035, 703888
2096921,2096921, 148883, 704392
2096921,2096921, 149069, 704322
2096921,2096921, 149062, 704061
2096921,2096921, 149183, 704244
2096921,2096921, 149328, 704701
2096921,2096921, 149335, 704487
2096921,2096921, 149290, 704476
2096921,2096921, 149203, 704357
2096921,2096921, 149237, 704531
2096921,2096921, 149599, 704794
2096921,2096921, 149652, 704835
2096921,2096921, 149315, 704888
2096921,2096921, 149325, 704552
2096921,2096921, 149133, 704613
2096921,2096921, 149068, 704508
2096921,2096921, 149631, 704574
2096921,2096921, 149652, 704744
2096921,2096921, 149294, 705046
2096921,2096921, 149670, 705049
2096921,2096921, 149676, 705358
2096921,2096921, 149796, 705178
2096921,2096921, 149528, 705238
2096921,2096921, 149614, 705326
2096921,2096921, 149201, 705244
2096921,2096921, 149549, 705490
2096921,2096921, 149600, 705748
2096921,2096921, 149485, 705636
2096921,2096921, 149434, 705477
2096921,2096921, 149694, 705548
2096921,2096921, 149839, 705610
2096921,2096921, 149612, 705561
2096921,2096921, 149657, 705751
2096921,2096921, 149796, 705871
2096921,2096921, 149562, 705799
2096921,2096921, 149589, 706056
2096921,2096921, 149632, 705938
2096921,2096921, 149532, 706038
2096921,2096921, 149668, 705862
2096921,2096921, 149611, 705930
2096921,2096921, 149757, 706170
2096921,2096921, 149594, 706302
2096921,2096921, 150016, 706254
2096921,2096921, 149761, 706151
2096921,2096921, 149768, 706040
2096921,2096921, 149484, 706277
2096921,2096921, 149779, 706289
2096921,2096921, 150005, 706568
2096921,2096921, 150078, 706120
2096921,2096921, 149740, 706275
2096921,2096921, 149830, 706473
2096921,2096921, 149831, 706596
2096921,2096921, 150022, 706660
2096921,2096921, 149846, 706713
2096921,2096921, 149685, 706600
2096921,2096921, 149816, 706871
2096921,2096921, 150015, 706811
2096921,2096921, 150245, 707109
2096921,2096921, 149999, 706939
2096921,2096921, 149777, 706663
2096921,2096921, 150179, 706805
2096921,2096921, 150023, 706835
2096921,2096921, 150053, 707075
2096921,2096921, 150005, 707183
2096921,2096921, 150146, 707241
2096921,2096921, 150344, 707020
2096921,2096921, 150106, 707221
2096921,2096921, 150178, 707206
2096921,2096921, 150181, 707094
2096921,2096921, 150134, 707274
2096921,2096921, 150102, 707126
2096921,2096921, 149936, 706972
2096921,2096921, 149853, 707117
2096921,2096921, 150096, 707105
2096921,2096921, 150105, 707253
2096921,2096921, 150415, 707269
2096921,2096921, 150117, 707286
2096921,2096921, 149912, 707380
2096921,2096921, 150275, 707556
2096921,2096921, 150547, 707262
2096921,2096921, 150245, 707223
2096921,2096921, 150079, 707655
2096921,2096921, 150224, 707550
2096921,2096921, 149840, 707608
2096921,2096921, 150242, 707482
2096921,2096921, 150196, 707854
2096921,2096921, 150377, 707678
2096921,2096921, 150260, 707303
2096921,2096921, 150322, 707551
2096921,2096921, 150267, 707903
2096921,2096921, 149904, 708017
2096921,2096921, 150017, 707904
2096921,2096921, 150155, 707518
2096921,2096921, 150081, 707776
2096921,2096921, 150408, 707864
2096921,2096921, 150481, 707960
2096921,2096921, 150239, 708127
2096921,2096921, 150122, 707900
2096921,2096921, 150098, 707902
2096921,2096921, 150248, 707910
2096921,2096921, 150173, 708269
2096921,2096921, 150732, 708045
2096921,2096921, 150362, 707765
2096921,2096921, 150265, 707645
2096921,2096921, 150458, 708071
2096921,2096921, 150538, 708182
2096921,2096921, 150650, 708191
2096921,2096921, 150518, 708094
2096921,2096921, 150578, 708423
2096921,2096921, 150328, 708146
2096921,2096921, 150342, 708225
2096921,2096921, 150160, 708294
2096921,2096921, 150237, 708474
2096921,2096921, 150051, 708099
2096921,2096921, 150277, 708129
2096921,2096921, 150395, 708266
2096921,2096921, 150403, 708335
2096921,2096921, 150511, 708169
2096921,2096921, 150288, 708550
2096921,2096921, 150608, 708196
2096921,2096921, 150337, 708415
2096921,2096921, 150248, 708262
2096921,2096921, 150521, 708305
2096921,2096921, 150499, 708523
2096921,2096921, 150535, 708313
2096921,2096921, 150145, 708479
2096921,2096921, 150530, 708422
2096921,2096921, 150455, 708592
2096921,2096921, 150385, 708557
2096921,2096921, 150161, 708609
2096921,2096921, 150413, 708725
2096921,2096921, 150454, 708682
2096921,2096921, 150271, 708676
2096921,2096921, 150117, 708465
2096921,2096921, 150326, 708623
2096921,2096921, 150475, 708592
2096921,2096921, 150425, 708679
2096921,2096921, 150466, 708646
2096921,2096921, 150993, 708598
2096921,2096921, 150638, 708584
2096921,2096921, 150435, 708863
2096921,2096921, 150454, 708968
2096921,2096921, 150670, 708834
2096921,2096921, 150467, 708862
2096921,2096921, 150557, 708644
2096921,2096921, 150632, 708814
2096921,2096921, 150520, 708679
2096921,2096921, 150662, 708798
2096921,2096921, 150663, 708693
2096921,2096921, 150307, 708548
2096921,2096921, 150464, 708994
2096921,2096921, 150608, 709042
2096921,2096921, 150614, 709053
2096921,2096921, 150875, 708718
2096921,2096921, 150602, 708745
2096921,2096921, 150512, 709258
2096921,2096921, 150783, 709122
2096921,2096921, 150369, 709013
2096921,2096921, 150360, 709093
2096921,2096921, 150585, 708939
2096921,2096921, 150605, 709129
2096921,2096921, 150687, 708651
2096921,2096921, 150829, 709112
2096921,2096921, 150772, 709135
2096921,2096921, 150980, 708968
2096921,2096921, 150971, 708913
2096921,2096921, 150645, 709279
2096921,2096921, 150622, 709412
2096921,2096921, 150647, 708902
2096921,2096921, 150605, 708983
2096921,2096921, 150571, 709029
2096921,2096921, 150800, 708779
2096921,2096921, 150970, 709139
2096921,2096921, 150692, 709297
2096921,2096921, 150773, 709499
2096921,2096921, 150741, 709265
2096921,2096921, 150548, 709442
2096921,2096921, 150569, 709267
2096921,2096921, 150518, 708815
2096921,2096921, 150393, 708784
2096921,2096921, 150636, 709194
2096921,2096921, 150706, 709131
2096921,2096921, 150670, 709094
2096921,2096921, 150921, 709117
2096921,2096921, 150515, 709019
2096921,2096921, 150651, 709258
2096921,2096921, 150903, 708939
2096921,2096921, 150579, 708964
2096921,2096921, 150576, 709243
2096921,2096921, 150299, 708985
2096921,2096921, 150674, 709011
2096921,2096921, 150526, 708981
2096921,2096921, 150622, 709072
2096921,2096921, 150684, 709192
2096921,2096921, 150715, 709500
2096921,2096921, 150683, 709492
2096921,2096921, 150632, 709475
2096921,2096921, 150834, 709331
2096921,2096921, 150781, 709076
2096921,2096921, 150617, 709450
2096921,2096921, 150540, 709403
2096921,2096921, 150735, 709331
2096921,2096921, 150408, 709336
2096921,2096921, 150714, 708987
2096921,2096921, 150434, 709058
2096921,2096921, 150567, 708913
2096921,2096921, 150531, 709202
2096921,2096921, 150871, 709145
2096921,2096921, 150770, 709207
2096921,2096921, 150924, 709199
2096921,2096921, 150573, 709179
2096921,2096921, 150919, 709301
2096921,2096921, 150529, 709390
2096921,2096921, 150756, 709206
2096921,2096921, 150586, 708987
2096921,2096921, 150594, 708643
2096921,2096921, 150649, 708346
2096921,2096921, 150470, 708489
2096921,2096921, 150451, 708648
2096921,2096921, 150471, 708595
2096921,2096921, 150362, 708424
2096921,2096921, 150221, 708258
2096921,2096921, 150464, 708284
2096921,2096921, 150335, 708403
2096921,2096921, 150245, 708236
2096921,2096921, 150385, 707458
2096921,2096921, 150001, 707075
2096921,2096921, 149946, 707297
2096921,2096921, 150010, 707481
2096921,2096921, 150082, 707442
2096921,2096921, 149959, 706513
2096921,2096921, 150027, 706390
2096921,2096921, 149986, 706582
2096921,2096921, 150073, 706550
2096921,2096921, 149894, 706314
2096921,2096921, 149562, 705610
2096921,2096921, 149525, 705384
2096921,2096921, 149908, 705222
2096921,2096921, 149379, 705505
2096921,2096921, 149431, 705450
2096921,2096921, 148624, 703565
2096921,2096921, 149064, 703236
2096921,2096921, 149034, 703045
2096921,2096921, 148764, 703022
2096921,2096921, 148996, 702955
2096921,2096921, 148041, 700678
2096921,2096921, 147869, 700180
2096921,2096921, 147866, 700364
2096921,2096921, 147805, 700469
2096921,2096921, 147663, 700476
2096921,2096921, 147393, 698853
2096921,2096921, 147368, 698300
2096921,2096921, 147442, 697958
2096921,2096921, 147475, 698365
2096921,2096921, 147199, 698462
2096921,2096921, 146853, 696744
2096921,2096921, 146756, 696427
2096921,2096921, 146799, 696278
2096921,2096921, 146858, 696168
2096921,2096921, 146825, 696494
2096921,2096921, 146483, 695355
2096921,2096921, 146563, 695011
2096921,2096921, 146523, 695167
2096921,2096921, 146552, 695136
2096921,2096921, 146678, 694977
2096921,2096921, 146357, 694315
2096921,2096921, 146065, 694208
2096921,2096921, 146133, 694342
2096921,2096921, 146079, 694611
2096921,2096921, 145897, 694348
2096921,2096921, 145994, 693786
2096921,2096921, 146135, 693793
2096921,2096921, 145771, 693638
2096921,2096921, 145956, 693676
2096921,2096921, 145963, 693619
2096921,2096921, 145809, 693439
2096921,2096921, 146014, 693610
2096921,2096921, 146029, 693151
2096921,2096921, 145863, 693615
2096921,2096921, 145844, 693338
2096921,2096921, 145801, 692989
2096921,2096921, 145887, 693198
2096921,2096921, 145759, 693266
2096921,2096921, 145778, 693324
2096921,2096921, 145698, 693320
2096921,2096921, 145864, 693374
2096921,2096921, 145903, 693285
2096921,2096921, 145699, 693070
2096921,2096921, 145833, 693227
2096921,2096921, 145889, 693422
2096921,2096921, 145895, 693529
2096921,2096921, 145941, 693143
2096921,2096921, 145767, 693423
2096921,2096921, 145914, 693553
2096921,2096921, 145716, 693335
2096921,2096921, 145800, 693677
2096921,2096921, 145984, 693406
2096921,2096921, 146021, 693550
2096921,2096921, 145954, 693427
2096921,2096921, 146213, 693324
2096921,2096921, 145867, 693485
2096921,2096921, 145904, 693814
2096921,2096921, 145990, 693868
2096921,2096921, 145925, 693703
2096921,2096921, 145927, 693893
2096921,2096921, 146283, 693967
2096921,2096921, 146096, 693997
2096921,2096921, 146461, 694235
2096921,2096921, 146020, 694266
2096921,2096921, 146244, 694281
2096921,2096921, 146037, 694539
2096921,2096921, 146267, 694469
2096921,2096921, 146283, 694345
2096921,2096921, 146186, 694712
2096921,2096921, 146243, 694695
2096921,2096921, 146452, 695287
2096921,2096921, 146365, 695170
2096921,2096921, 146333, 695332
2096921,2096921, 146410, 694984
2096921,2096921, 146699, 695171
2096921,2096921, 146647, 694983
2096921,2096921, 146520, 695600
2096921,2096921, 146441, 695682
2096921,2096921, 146561, 695813
2096921,2096921, 146579, 695940
2096921,2096921, 146882, 696052
2096921,2096921, 147034, 696269
2096921,2096921, 147021, 696222
2096921,2096921, 147070, 696241
2096921,2096921, 147056, 696249
2096921,2096921, 146844, 696466
2096921,2096921, 146951, 696873
2096921,2096921, 146965, 696401
2096921,2096921, 146817, 696530
2096921,2096921, 146583, 696350
2096921,2096921, 146926, 696982
2096921,2096921, 146795, 696955
2096921,2096921, 147149, 697098
2096921,2096921, 147186, 697198
2096921,2096921, 147080, 697446
2096921,2096921, 147221, 697651
2096921,2096921, 147405, 697414
2096921,2096921, 147617, 697323
2096921,2096921, 147177, 697806
2096921,2096921, 147226, 697568
2096921,2096921, 147337, 698139
2096921,2096921, 147292, 698086
2096921,2096921, 147528, 698131
2096921,2096921, 147541, 698072
2096921,2096921, 147338, 698318
2096921,2096921, 147556, 698535
2096921,2096921, 147603, 698687
2096921,2096921, 147661, 698658
2096921,2096921, 147503, 698664
2096921,2096921, 147596, 698541
2096921,2096921, 147468, 698828
2096921,2096921, 147602, 698971
2096921,2096921, 147624, 699160
2096921,2096921, 147756, 699120
2096921,2096921, 147460, 699325
2096921,2096921, 147756, 699553
2096921,2096921, 148155, 699829
2096921,2096921, 148065, 699618
2096921,2096921, 148022, 699497
2096921,2096921, 147907, 699511
2096921,2096921, 147885, 700103
2096921,2096921, 148010, 700014
2096921,2096921, 147980, 700136
2096921,2096921, 148074, 700127
2096921,2096921, 147949, 700127
2096921,2096921, 148208, 700468
2096921,2096921, 147985, 700365
2096921,2096921, 147878, 700328
2096921,2096921, 147921, 700386
2096921,2096921, 148081, 700445
2096921,2096921, 148063, 700905
2096921,2096921, 147936, 700686
2096921,2096921, 148072, 700925
2096921,2096921, 148157, 700722
2096921,2096921, 148060, 700870
2096921,2096921, 148231, 701033
2096921,2096921, 148333, 701031
2096921,2096921, 148362, 701017
2096921,2096921, 148250, 700821
2096921,2096921, 148099, 701051
2096921,2096921, 148145, 701172
2096921,2096921, 148056, 701172
2096921,2096921, 148143, 701239
2096921,2096921, 148239, 701355
2096921,2096921, 148115, 701054
2096921,2096921, 148239, 701184
2096921,2096921, 148183, 700915
2096921,2096921, 148373, 701021
2096921,2096921, 148293, 701314
2096921,2096921, 148269, 701337
2096921,2096921, 148315, 701312
2096921,2096921, 147921, 700992
2096921,2096921, 147815, 700908
2096921,2096921, 148069, 701016
2096921,2096921, 148230, 701498
2096921,2096921, 148182, 701295
2096921,2096921, 148173, 701559
2096921,2096921, 148253, 701436
2096921,2096921, 148129, 700935
2096921,2096921, 148339, 700901
2096921,2096921, 148212, 700838
2096921,2096921, 148144, 700679
2096921,2096921, 147846, 700902
2096921,2096921, 147994, 700914
2096921,2096921, 148366, 700728
2096921,2096921, 148325, 700471
2096921,2096921, 148256, 700515
2096921,2096921, 148223, 700638
2096921,2096921, 148140, 700737
2096921,2096921, 148126, 700667
2096921,2096921, 148164, 700626
2096921,2096921, 148026, 700806
2096921,2096921, 148075, 700702
2096921,2096921, 148086, 700340
2096921,2096921, 147985, 700689
2096921,2096921, 147928, 700341
2096921,2096921, 147905, 700565
2096921,2096921, 148011, 700293
2096921,2096921, 148039, 700437
2096921,2096921, 147968, 700378
2096921,2096921, 148074, 700396
2096921,2096921, 148086, 700443
2096921,2096921, 148132, 700343
2096921,2096921, 148031, 700457
2096921,2096921, 147900, 700232
2096921,2096921, 147853, 700224
2096921,2096921, 147859, 700246
2096921,2096921, 147989, 699989
2096921,2096921, 147984, 700332
2096921,2096921, 148052, 700616
2096921,2096921, 147943, 700463
2096921,2096921, 147989, 700536
2096921,2096921, 147929, 700915
2096921,2096921, 148149, 700452
2096921,2096921, 147840, 700404
2096921,2096921, 148028, 700490
2096921,2096921, 148059, 700481
2096921,2096921, 148044, 700401
2096921,2096921, 148232, 700563
2096921,2096921, 148020, 700741
2096921,2096921, 148208, 700658
2096921,2096921, 148004, 700439
2096921,2096921, 148193, 700298
2096921,2096921, 148305, 700506
2096921,2096921, 147967, 700570
2096921,2096921, 147955, 701123
2096921,2096921, 148211, 701008
2096921,2096921, 148189, 700523
2096921,2096921, 148089, 700845
2096921,2096921, 148226, 701142
2096921,2096921, 148372, 701529
2096921,2096921, 148417, 701752
2096921,2096921, 148590, 701490
2096921,2096921, 148497, 701542
2096921,2096921, 148218, 701350
2096921,2096921, 148570, 701602
2096921,2096921, 148342, 701968
2096921,2096921, 148487, 701833
2096921,2096921, 148257, 701877
2096921,2096921, 148263, 701996
2096921,2096921, 148536, 702065
2096921,2096921, 148653, 702197
2096921,2096921, 148604, 702091
2096921,2096921, 148797, 702174
2096921,2096921, 148490, 702122
2096921,2096921, 148689, 702382
2096921,2096921, 148733, 702361
2096921,2096921, 148968, 702516
2096921,2096921, 148942, 702402
2096921,2096921, 148870, 702402
2096921,2096921, 149025, 702498
2096921,2096921, 148800, 702508
2096921,2096921, 148515, 702844
2096921,2096921, 148807, 702911
2096921,2096921, 148520, 702818
2096921,2096921, 148656, 702969
2096921,2096921, 148782, 702992
2096921,2096921, 149019, 703003
2096921,2096921, 149019, 702901
2096921,2096921, 149107, 702726
2096921,2096921, 148904, 703023
2096921,2096921, 148934, 703378
2096921,2096921, 148909, 703123
2096921,2096921, 149050, 703303
2096921,2096921, 149033, 703338
2096921,2096921, 148953, 703598
2096921,2096921, 148854, 703721
2096921,2096921, 149293, 704023
2096921,2096921, 148933, 703471
2096921,2096921, 148847, 703648
2096921,2096921, 149132, 703796
2096921,2096921, 149219, 703615
2096921,2096921, 149457, 703648
2096921,2096921, 149502, 703928
2096921,2096921, 149061, 703871
2096921,2096921, 149122, 704040
2096921,2096921, 149332, 704331
2096921,2096921, 149083, 704430
2096921,2096921, 148932, 704178
2096921,2096921, 149115, 704306
2096921,2096921, 149004, 704437
2096921,2096921, 149396, 704206
2096921,2096921, 149491, 704476
2096921,2096921, 149418, 704419
2096921,2096921, 149083, 704425
2096921,2096921, 149186, 704759
2096921,2096921, 149231, 704465
2096921,2096921, 149399, 704718
2096921,2096921, 149101, 704608
2096921,2096921, 149309, 704620
2096921,2096921, 149315, 704823
2096921,2096921, 149463, 704874
2096921,2096921, 149149, 705040
2096921,2096921, 149322, 705098
2096921,2096921, 149372, 704806
2096921,2096921, 149454, 705114
2096921,2096921, 149611, 705023
2096921,2096921, 149922, 705269
2096921,2096921, 149703, 705540
2096921,2096921, 149393, 705322
2096921,2096921, 149583, 705572
2096921,2096921, 149258, 705476
2096921,2096921, 149885, 705324
2096921,2096921, 149819, 705778
2096921,2096921, 149495, 705440
2096921,2096921, 149571, 705614
2096921,2096921, 149615, 705797
2096921,2096921, 149911, 705975
2096921,2096921, 149745, 705520
2096921,2096921, 149777, 705664
2096921,2096921, 149642, 705671
2096921,2096921, 149834, 705829
2096921,2096921, 149900, 705815
2096921,2096921, 149797, 705775
2096921,2096921, 149652, 705938
2096921,2096921, 149811, 706019
2096921,2096921, 149872, 706035
2096921,2096921, 149730, 706038
2096921,2096921, 149524, 706260
2096921,2096921, 149468, 706208
2096921,2096921, 149759, 706384
2096921,2096921, 149931, 706501
2096921,2096921, 149852, 706300
2096921,2096921, 149731, 706293
2096921,2096921, 149783, 706416
2096921,2096921, 149894, 706653
2096921,2096921, 149909, 706354
2096921,2096921, 149513, 706578
2096921,2096921, 149822, 706541
2096921,2096921, 150103, 706549
2096921,2096921, 150043, 706474
2096921,2096921, 149932, 706862
2096921,2096921, 149984, 706789
2096921,2096921, 149903, 706695
2096921,2096921, 149960, 706707
2096921,2096921, 150021, 706884
2096921,2096921, 149742, 706977
2096921,2096921, 149662, 707026
2096921,2096921, 149733, 706972
2096921,2096921, 149946, 707092
2096921,2096921, 149983, 707175
2096921,2096921, 150032, 707225
2096921,2096921, 150092, 706936
2096921,2096921, 149886, 707333
2096921,2096921, 149948, 707114
2096921,2096921, 150042, 707451
2096921,2096921, 150086, 707404
2096921,2096921, 149991, 707454
2096921,2096921, 150006, 707254
2096921,2096921, 150172, 707040
2096921,2096921, 150202, 707386
2096921,2096921, 150197, 707763
2096921,2096921, 150027, 707610
2096921,2096921, 149938, 707657
2096921,2096921, 150191, 707459
2096921,2096921, 150235, 707641
2096921,2096921, 150121, 707377
2096921,2096921, 150021, 707244
2096921,2096921, 149962, 707440
2096921,2096921, 149850, 707471
2096921,2096921, 150096, 707465
2096921,2096921, 150301, 707760
2096921,2096921, 150482, 707692
2096921,2096921, 150321, 707798
2096921,2096921, 150276, 707797
2096921,2096921, 150341, 707559
2096921,2096921, 150278, 707739
2096921,2096921, 150184, 707828
2096921,2096921, 150364, 708216
2096921,2096921, 150287, 707754
2096921,2096921, 150248, 707773
2096921,2096921, 150522, 707916
2096921,2096921, 150306, 707786
2096921,2096921, 150475, 707781
2096921,2096921, 150430, 707503
2096921,2096921, 150293, 707999
2096921,2096921, 150410, 708199
2096921,2096921, 150274, 708209
2096921,2096921, 150318, 707830
2096921,2096921, 150463, 708049
2096921,2096921, 150321, 708129
2096921,2096921, 150188, 708261
2096921,2096921, 150182, 707832
2096921,2096921, 150163, 708335
2096921,2096921, 150396, 708319
2096921,2096921, 150402, 708010
2096921,2096921, 150286, 708039
2096921,2096921, 150572, 708676
2096921,2096921, 150432, 708293
2096921,2096921, 150232, 708291
2096921,2096921, 150355, 708355
2096921,2096921, 150287, 708296
2096921,2096921, 150414, 708481
2096921,2096921, 150481, 708329
2096921,2096921, 150683, 708027
2096921,2096921, 150555, 708409
2096921,2096921, 150661, 708530
2096921,2096921, 150364, 708619
2096921,2096921, 150705, 708462
2096921,2096921, 150526, 708308
2096921,2096921, 150299, 708495
2096921,2096921, 150697, 708342
2096921,2096921, 150656, 708276
2096921,2096921, 150324, 708352
2096921,2096921, 150357, 708480
2096921,2096921, 150361, 708616
2096921,2096921, 150730, 708755
2096921,2096921, 150588, 708705
2096921,2096921, 150633, 708436
2096921,2096921, 150454, 708576
2096921,2096921, 150372, 708657
2096921,2096921, 150475, 708790
2096921,2096921, 150519, 708603
2096921,2096921, 150590, 708591
2096921,2096921, 150708, 708646
2096921,2096921, 150703, 708762
2096921,2096921, 150674, 708776
2096921,2096921, 150556, 708898
2096921,2096921, 150492, 708879
2096921,2096921, 150608, 708929
2096921,2096921, 150628, 709000
2096921,2096921, 150576, 708611
2096921,2096921, 150653, 708756
2096921,2096921, 150722, 708755
2096921,2096921, 150727, 708630
2096921,2096921, 150518, 709234
2096921,2096921, 150656, 708851
2096921,2096921, 150718, 708956
2096921,2096921, 150455, 709151
2096921,2096921, 150778, 709166
2096921,2096921, 150853, 708850
2096921,2096921, 150634, 709152
2096921,2096921, 150612, 709117
2096921,2096921, 150742, 708924
2096921,2096921, 150732, 709095
2096921,2096921, 150443, 709095
2096921,2096921, 150548, 709238
2096921,2096921, 150679, 708861
2096921,2096921, 150553, 708990
2096921,2096921, 150638, 709062
2096921,2096921, 150551, 708969
2096921,2096921, 150511, 709115
2096921,2096921, 150670, 708893
2096921,2096921, 150488, 709104
2096921,2096921, 150720, 709246
2096921,2096921, 150727, 708698
2096921,2096921, 151230, 709020
2096921,2096921, 150862, 708975
2096921,2096921, 150836, 708935
2096921,2096921, 150876, 708855
2096921,2096921, 150730, 709316
2096921,2096921, 150539, 709511
2096921,2096921, 150922, 709640
2096921,2096921, 150605, 709194
2096921,2096921, 150431, 709028
2096921,2096921, 150542, 708842
2096921,2096921, 150693, 708966
2096921,2096921, 150840, 708812
2096921,2096921, 150891, 708727
2096921,2096921, 150487, 709302
2096921,2096921, 150314, 708774
2096921,2096921, 150467, 709193
2096921,2096921, 150902, 709073
2096921,2096921, 150519, 709089
2096921,2096921, 150621, 709095
2096921,2096921, 150824, 709149
2096921,2096921, 150767, 709061
2096921,2096921, 150836, 709097
2096921,2096921, 150706, 708841
2096921,2096921, 150255, 708941
2096921,2096921, 150740, 708890
2096921,2096921, 150588, 709325
2096921,2096921, 150727, 708929
2096921,2096921, 150383, 709206
2096921,2096921, 151010, 709397
2096921,2096921, 150957, 709265
2096921,2096921, 150467, 708935
2096921,2096921, 150666, 709075
2096921,2096921, 150544, 708959
2096921,2096921, 150384, 708824
2096921,2096921, 150706, 708744
2096921,2096921, 150731, 709070
2096921,2096921, 150661, 709208
2096921,2096921, 150680, 709138
2096921,2096921, 150664, 709392
2096921,2096921, 150861, 709245
2096921,2096921, 150910, 708914
2096921,2096921, 150868, 708986
2096921,2096921, 150776, 708750
2096921,2096921, 150431, 708927
2096921,2096921, 150497, 708555
2096921,2096921, 150397, 708645
2096921,2096921, 150448, 708817
2096921,2096921, 150579, 708473
2096921,2096921, 150608, 708783
2096921,2096921, 150309, 708269
2096921,2096921, 150400, 708179
2096921,2096921, 150574, 708310
2096921,2096921, 150357, 708225
2096921,2096921, 150316, 708326
2096921,2096921, 150165, 707633
2096921,2096921, 150191, 707112
2096921,2096921, 150005, 707539
2096921,2096921, 150215, 707265
2096921,2096921, 150232, 707473
2096921,2096921, 149755, 706578
2096921,2096921, 149880, 706728
2096921,2096921, 149861, 706304
2096921,2096921, 149656, 706701
2096921,2096921, 149919, 706486
2096921,2096921, 149697, 705689
2096921,2096921, 149496, 705304
2096921,2096921, 149501, 705452
2096921,2096921, 149522, 705372
2096921,2096921, 149501, 705371
2096921,2096921, 148800, 703385
2096921,2096921, 148524, 702863
2096921,2096921, 148589, 703202
2096921,2096921, 148729, 703136
2096921,2096921, 148670, 703106
2096921,2096921, 148082, 700763
2096921,2096921, 147995, 700204
2096921,2096921, 148214, 700216
2096921,2096921, 148069, 700134
2096921,2096921, 147776, 700116
2096921,2096921, 146988, 698500
2096921,2096921, 147230, 698217
2096921,2096921, 147772, 697876
2096921,2096921, 147444, 697936
2096921,2096921, 147431, 697981
2096921,2096921, 147003, 696633
2096921,2096921, 146633, 696316
2096921,2096921, 146806, 696296
2096921,2096921, 146628, 696450
2096921,2096921, 146616, 696417
2096921,2096921, 146439, 695588
2096921,2096921, 146398, 695391
2096921,2096921, 146435, 695239
2096921,2096921, 146490, 695200
2096921,2096921, 146495, 695266
2096921,2096921, 146223, 694372
2096921,2096921, 145975, 694341
2096921,2096921, 146073, 694350
2096921,2096921, 145929, 694206
2096921,2096921, 146127, 694262
2096921,2096921, 146057, 693600
2096921,2096921, 146267, 693837
2096921,2096921, 146210, 693805
2096921,2096921, 145959, 693826
2096921,2096921, 146007, 693387
2096921,2096921, 145926, 693684
2096921,2096921, 145906, 693198
2096921,2096921, 145884, 693573
2096921,2096921, 145943, 693406
2096921,2096921, 146210, 693492
2096921,2096921, 145765, 693123
2096921,2096921, 145482, 693351
2096921,2096921, 145853, 693484
2096921,2096921, 145791, 693090
2096921,2096921, 145887, 693012
2096921,2096921, 145904, 693461
2096921,2096921, 145708, 693669
2096921,2096921, 145788, 693301
2096921,2096921, 145889, 693118
2096921,2096921, 145665, 692960
2096921,2096921, 146191, 693345
2096921,2096921, 145958, 693527
2096921,2096921, 145708, 693744
2096921,2096921, 145834, 693765
2096921,2096921, 146182, 693646
2096921,2096921, 146199, 693767
2096921,2096921, 145907, 693637
2096921,2096921, 145876, 693766
2096921,2096921, 146040, 693505
2096921,2096921, 146029, 693711
2096921,2096921, 146104, 693716
2096921,2096921, 145957, 693372
2096921,2096921, 146050, 693571
2096921,2096921, 145984, 693806
2096921,2096921, 145964, 693715
2096921,2096921, 145939, 694197
2096921,2096921, 145969, 694284
2096921,2096921, 146083, 694159
2096921,2096921, 146074, 694367
2096921,2096921, 146144, 694064
2096921,2096921, 146289, 694672
2096921,2096921, 146306, 694958
2096921,2096921, 146164, 694668
2096921,2096921, 146243, 694534
2096921,2096921, 146248, 694829
2096921,2096921, 146202, 695665
2096921,2096921, 146289, 695181
2096921,2096921, 146379, 695293
2096921,2096921, 146281, 695086
2096921,2096921, 146269, 695243
2096921,2096921, 146614, 695675
2096921,2096921, 146541, 695699
2096921,2096921, 146801, 695829
2096921,2096921, 146457, 695814
2096921,2096921, 146576, 695361
2096921,2096921, 146571, 695725
2096921,2096921, 146294, 695953
2096921,2096921, 146587, 696305
2096921,2096921, 146949, 696441
2096921,2096921, 146917, 696368
2096921,2096921, 146996, 696425
2096921,2096921, 146910, 696754
2096921,2096921, 147249, 696668
2096921,2096921, 146833, 696569
2096921,2096921, 146954, 696396
2096921,2096921, 146943, 697157
2096921,2096921, 146927, 697086
2096921,2096921, 146840, 697034
2096921,2096921, 147158, 696956
2096921,2096921, 147154, 696863
2096921,2096921, 147189, 697383
2096921,2096921, 147171, 697655
2096921,2096921, 147255, 697608
2096921,2096921, 147004, 697506
2096921,2096921, 147100, 697353
2096921,2096921, 147270, 697932
2096921,2096921, 147324, 698110
2096921,2096921, 146979, 698075
2096921,2096921, 147289, 698325
2096921,2096921, 147166, 698044
2096921,2096921, 147431, 698414
2096921,2096921, 147532, 698550
2096921,2096921, 147463, 698749
2096921,2096921, 147721, 698501
2096921,2096921, 147668, 698648
2096921,2096921, 147491, 699040
2096921,2096921, 147587, 698860
2096921,2096921, 147558, 698925
2096921,2096921, 147608, 699359
2096921,2096921, 147581, 699004
2096921,2096921, 147876, 699410
2096921,2096921, 147706, 699419
2096921,2096921, 148151, 699658
2096921,2096921, 147972, 699423
2096921,2096921, 147935, 699505
2096921,2096921, 147701, 700122
2096921,2096921, 147975, 699686
2096921,2096921, 147944, 699928
2096921,2096921, 148083, 699981
2096921,2096921, 147968, 699928
2096921,2096921, 147934, 700246
2096921,2096921, 148000, 700553
2096921,2096921, 147793, 700221
2096921,2096921, 148002, 700433
2096921,2096921, 147841, 700564
2096921,2096921, 148180, 700631
2096921,2096921, 148115, 700549
2096921,2096921, 147956, 701041
2096921,2096921, 148250, 700904
2096921,2096921, 147809, 700589
2096921,2096921, 147567, 700932
2096921,2096921, 148074, 700821
2096921,2096921, 147986, 700574
2096921,2096921, 148230, 701069
2096921,2096921, 147775, 700844
2096921,2096921, 148002, 701143
2096921,2096921, 148090, 701053
2096921,2096921, 148117, 701392
2096921,2096921, 148204, 701040
2096921,2096921, 148369, 701141
2096921,2096921, 148420, 701143
2096921,2096921, 147936, 701568
2096921,2096921, 148246, 701033
2096921,2096921, 148093, 700934
2096921,2096921, 148312, 701271
2096921,2096921, 148341, 701034
2096921,2096921, 148235, 700988
2096921,2096921, 148112, 701069
2096921,2096921, 148149, 701170
2096921,2096921, 148486, 701285
2096921,2096921, 148121, 701285
2096921,2096921, 148075, 701122
2096921,2096921, 148548, 701121
2096921,2096921, 148228, 701115
2096921,2096921, 148292, 701160
2096921,2096921, 148065, 700950
2096921,2096921, 148399, 700500
2096921,2096921, 148165, 700791
2096921,2096921, 148168, 700753
2096921,2096921, 148047, 700944
2096921,2096921, 147923, 700544
2096921,2096921, 147908, 700588
2096921,2096921, 147989, 700493
2096921,2096921, 148267, 700384
2096921,2096921, 148143, 700531
2096921,2096921, 147745, 700795
2096921,2096921, 147857, 700492
2096921,2096921, 147823, 700668
2096921,2096921, 148228, 700434
2096921,2096921, 147898, 700631
2096921,2096921, 147865, 700620
2096921,2096921, 148005, 700069
2096921,2096921, 147827, 700308
2096921,2096921, 147774, 700510
2096921,2096921, 148143, 700395
2096921,2096921, 148038, 700309
2096921,2096921, 148065, 700488
2096921,2096921, 148000, 700268
2096921,2096921, 147752, 700472
2096921,2096921, 147984, 700720
2096921,2096921, 147889, 700271
2096921,2096921, 147874, 700058
2096921,2096921, 148109, 700118
2096921,2096921, 147756, 700262
2096921,2096921, 148024, 700347
2096921,2096921, 147737, 700330
2096921,2096921, 148114, 700695
2096921,2096921, 147951, 700574
2096921,2096921, 148091, 700525
2096921,2096921, 147669, 700207
2096921,2096921, 148160, 700386
2096921,2096921, 148007, 700614
2096921,2096921, 147772, 700400
2096921,2096921, 147859, 700725
2096921,2096921, 148051, 700598
2096921,2096921, 148175, 700328
2096921,2096921, 147892, 700647
2096921,2096921, 148266, 700646
2096921,2096921, 148137, 700632
2096921,2096921, 148175, 700540
2096921,2096921, 148366, 701137
2096921,2096921, 148298, 701192
2096921,2096921, 148196, 701134
2096921,2096921, 148208, 701266
2096921,2096921, 147929, 701415
2096921,2096921, 148311, 701249
2096921,2096921, 148660, 701386
2096921,2096921, 148320, 701460
2096921,2096921, 148469, 701592
2096921,2096921, 148233, 701504
2096921,2096921, 148240, 701919
2096921,2096921, 148509, 701639
2096921,2096921, 148895, 701942
2096921,2096921, 148554, 701936
2096921,2096921, 148401, 702053
2096921,2096921, 148403, 702345
2096921,2096921, 148569, 702233
2096921,2096921, 148445, 701894
2096921,2096921, 148651, 702023
2096921,2096921, 148550, 702159
2096921,2096921, 148517, 702672
2096921,2096921, 148550, 702492
2096921,2096921, 148507, 702561
2096921,2096921, 148483, 702463
2096921,2096921, 148722, 702412
2096921,2096921, 148679, 702451
2096921,2096921, 148521, 702792
2096921,2096921, 148409, 702672
2096921,2096921, 148812, 702442
2096921,2096921, 148583, 702430
2096921,2096921, 148643, 702848
2096921,2096921, 148756, 702722
2096921,2096921, 148780, 703005
2096921,2096921, 148979, 703374
2096921,2096921, 148769, 703105
2096921,2096921, 148930, 703136
2096921,2096921, 148893, 703310
2096921,2096921, 149124, 703065
2096921,2096921, 148982, 703478
2096921,2096921, 149094, 703267
2096921,2096921, 149079, 703373
2096921,2096921, 149122, 703527
2096921,2096921, 148956, 703682
2096921,2096921, 149280, 703387
2096921,2096921, 149017, 703675
2096921,2096921, 148943, 703767
2096921,2096921, 149194, 703806
2096921,2096921, 149228, 703905
2096921,2096921, 149245, 703682
2096921,2096921, 149044, 703841
2096921,2096921, 148966, 704114
2096921,2096921, 149052, 704042
2096921,2096921, 149078, 704218
2096921,2096921, 149059, 704225
2096921,2096921, 148985, 704012
2096921,2096921, 149289, 704459
2096921,2096921, 149098, 704511
2096921,2096921, 149365, 704479
2096921,2096921, 149286, 704443
2096921,2096921, 149036, 704610
2096921,2096921, 149348, 704570
2096921,2096921, 149401, 704413
2096921,2096921, 149252, 704822
2096921,2096921, 149359, 704649
2096921,2096921, 149240, 704619
2096921,2096921, 149403, 704894
2096921,2096921, 149317, 705075
2096921,2096921, 149425, 705115
2096921,2096921, 149314, 705084
2096921,2096921, 149382, 705011
2096921,2096921, 149259, 704878
2096921,2096921, 149571, 705098
2096921,2096921, 149531, 705307
2096921,2096921, 149428, 705240
2096921,2096921, 149216, 705297
2096921,2096921, 149468, 705427
2096921,2096921, 149606, 705489
2096921,2096921, 149473, 705352
2096921,2096921, 149626, 705582
2096921,2096921, 149452, 705380
2096921,2096921, 149460, 705774
2096921,2096921, 149680, 705732
2096921,2096921, 149772, 705972
2096921,2096921, 149737, 705885
2096921,2096921, 149615, 705886
2096921,2096921, 149732, 706128
2096921,2096921, 149606, 706021
2096921,2096921, 149548, 705841
2096921,2096921, 149535, 705781
2096921,2096921, 149406, 705917
2096921,2096921, 149764, 706508
2096921,2096921, 149903, 706377
2096921,2096921, 149897, 706223
2096921,2096921, 149949, 706356
2096921,2096921, 149895, 706081
2096921,2096921, 149923, 706451
2096921,2096921, 149909, 706373
2096921,2096921, 150076, 706470
2096921,2096921, 149752, 706458
2096921,2096921, 150001, 706270
2096921,2096921, 149791, 706682
2096921,2096921, 149969, 706648
2096921,2096921, 149719, 706354
2096921,2096921, 149776, 706673
2096921,2096921, 149777, 706724
2096921,2096921, 149857, 706585
2096921,2096921, 149959, 706647
2096921,2096921, 150073, 706850
2096921,2096921, 149851, 706882
2096921,2096921, 149734, 706959
2096921,2096921, 149748, 706890
2096921,2096921, 150228, 706985
2096921,2096921, 149862, 706774
2096921,2096921, 149992, 706836
2096921,2096921, 150095, 707005
2096921,2096921, 150265, 707056
2096921,2096921, 150001, 706968
2096921,2096921, 150100, 706893
2096921,2096921, 150136, 707277
2096921,2096921, 149830, 707178
2096921,2096921, 149668, 707178
2096921,2096921, 150032, 707255
2096921,2096921, 150410, 707169
2096921,2096921, 149947, 707230
2096921,2096921, 149853, 707321
2096921,2096921, 149926, 707347
2096921,2096921, 149651, 707576
2096921,2096921, 149900, 707421
2096921,2096921, 150095, 707582
2096921,2096921, 150057, 707316
2096921,2096921, 150297, 707412
2096921,2096921, 150455, 707640
2096921,2096921, 150361, 707304
2096921,2096921, 150345, 707382
2096921,2096921, 150238, 707397
2096921,2096921, 150180, 707404
2096921,2096921, 150214, 707528
2096921,2096921, 150282, 707538
2096921,2096921, 150323, 707570
2096921,2096921, 150318, 707593
2096921,2096921, 150480, 707655
2096921,2096921, 150407, 707921
2096921,2096921, 150280, 707893
2096921,2096921, 150109, 707918
2096921,2096921, 150047, 707653
2096921,2096921, 150436, 707661
2096921,2096921, 150470, 707585
2096921,2096921, 150286, 707621
2096921,2096921, 150118, 707812
2096921,2096921, 150062, 707760
2096921,2096921, 149912, 707787
2096921,2096921, 150344, 708034
2096921,2096921, 150503, 708208
2096921,2096921, 150300, 708012
2096921,2096921, 150389, 707828
2096921,2096921, 150448, 707873
2096921,2096921, 150258, 707767
2096921,2096921, 150365, 708220
2096921,2096921, 150479, 707865
2096921,2096921, 150340, 707847
2096921,2096921, 150423, 708035
2096921,2096921, 150520, 708124
2096921,2096921, 150691, 708140
2096921,2096921, 150436, 708132
2096921,2096921, 150403, 708363
2096921,2096921, 150622, 708548
2096921,2096921, 150434, 708198
2096921,2096921, 150391, 708285
2096921,2096921, 150128, 708389
2096921,2096921, 150044, 708056
2096921,2096921, 150280, 708016
2096921,2096921, 150226, 708298
2096921,2096921, 150367, 708192
2096921,2096921, 150536, 708592
2096921,2096921, 150401, 708443
2096921,2096921, 150560, 708470
2096921,2096921, 150425, 708199
2096921,2096921, 150606, 708473
2096921,2096921, 150479, 708174
2096921,2096921, 150272, 708175
2096921,2096921, 150469, 708358
2096921,2096921, 150343, 708506
2096921,2096921, 150394, 708426
2096921,2096921, 150472, 708507
2096921,2096921, 150475, 708491
2096921,2096921, 150470, 708661
2096921,2096921, 150346, 708953
2096921,2096921, 150442, 708708
2096921,2096921, 150531, 708533
2096921,2096921, 150447, 708831
2096921,2096921, 150291, 708786
2096921,2096921, 150298, 708767
2096921,2096921, 150621, 708875
2096921,2096921, 150637, 708708
2096921,2096921, 150661, 708599
2096921,2096921, 150551, 708790
2096921,2096921, 150420, 708959
2096921,2096921, 150550, 708983
2096921,2096921, 150674, 708768
2096921,2096921, 150536, 708790
2096921,2096921, 150778, 708523
2096921,2096921, 150372, 708788
2096921,2096921, 150801, 709035
2096921,2096921, 150738, 708619
2096921,2096921, 150564, 708793
2096921,2096921, 150352, 708874
2096921,2096921, 150500, 708753
2096921,2096921, 150528, 708947
2096921,2096921, 150371, 708880
2096921,2096921, 150502, 708815
2096921,2096921, 150642, 708622
2096921,2096921, 150619, 708908
2096921,2096921, 150247, 708657
2096921,2096921, 149971, 708811
2096921,2096921, 150526, 708837
2096921,2096921, 150428, 708994
2096921,2096921, 150681, 708705
2096921,2096921, 150719, 709020
2096921,2096921, 150692, 709092
2096921,2096921, 150483, 709110
2096921,2096921, 150631, 708920
2096921,2096921, 150341, 709233
2096921,2096921, 150753, 708922
2096921,2096921, 150713, 709022
2096921,2096921, 150698, 708975
2096921,2096921, 150534, 709004
2096921,2096921, 150721, 708923
2096921,2096921, 150559, 709164
2096921,2096921, 150191, 709335
2096921,2096921, 150362, 709311
2096921,2096921, 150508, 709351
2096921,2096921, 150474, 709242
2096921,2096921, 150513, 709002
2096921,2096921, 150426, 709038
2096921,2096921, 150566, 708729
2096921,2096921, 150754, 709255
2096921,2096921, 150692, 709028
2096921,2096921, 150517, 709342
2096921,2096921, 150476, 708880
2096921,2096921, 150346, 709137
2096921,2096921, 150696, 709251
2096921,2096921, 150777, 708933
2096921,2096921, 150709, 708880
2096921,2096921, 150478, 708818
2096921,2096921, 150771, 708820
2096921,2096921, 150411, 708951
2096921,2096921, 150838, 708848
2096921,2096921, 150917, 709084
2096921,2096921, 151099, 708867
2096921,2096921, 150841, 709032
2096921,2096921, 150818, 708917
2096921,2096921, 150742, 709012
2096921,2096921, 150579, 709176
2096921,2096921, 150345, 709518
2096921,2096921, 150342, 709206
2096921,2096921, 150262, 708811
2096921,2096921, 150481, 708653
2096921,2096921, 150143, 709103
2096921,2096921, 150501, 708913
2096921,2096921, 150733, 709045
2096921,2096921, 150843, 708872
2096921,2096921, 150761, 709231
2096921,2096921, 150703, 709245
2096921,2096921, 150745, 709176
2096921,2096921, 150654, 709019
2096921,2096921, 150692, 708786
2096921,2096921, 150617, 708633
2096921,2096921, 150233, 708631
2096921,2096921, 150561, 708403
2096921,2096921, 150192, 708260
2096921,2096921, 150099, 707984
2096921,2096921, 150377, 707893
2096921,2096921, 150215, 708102
2096921,2096921, 150441, 708034
2096921,2096921, 150346, 708197
2096921,2096921, 149735, 707572
2096921,2096921, 149829, 707350
2096921,2096921, 150132, 707337
2096921,2096921, 150292, 707151
2096921,2096921, 150077, 707225
2096921,2096921, 150263, 706633
2096921,2096921, 149956, 706216
2096921,2096921, 149828, 706205
2096921,2096921, 149866, 706429
2096921,2096921, 149868, 706417
2096921,2096921, 149642, 705409
2096921,2096921, 149679, 705117
2096921,2096921, 149475, 705432
2096921,2096921, 149679, 705182
2096921,2096921, 149389, 705227
2096921,2096921, 148938, 703530
2096921,2096921, 148582, 703214
2096921,2096921, 148746, 703053
2096921,2096921, 148691, 702890
2096921,2096921, 148961, 703049
2096921,2096921, 147877, 700849
2096921,2096921, 147744, 700484
2096921,2096921, 147914, 700139
2096921,2096921, 148019, 700028
2096921,2096921, 148105, 700238
2096921,2096921, 147259, 698313
2096921,2096921, 147354, 698219
2096921,2096921, 147525, 698131
2096921,2096921, 147374, 697797
2096921,2096921, 147438, 697975
2096921,2096921, 146947, 696855
2096921,2096921, 146783, 696288
2096921,2096921, 146805, 696505
2096921,2096921, 146661, 696288
2096921,2096921, 146698, 696489
2096921,2096921, 146593, 695557
2096921,2096921, 146369, 695165
2096921,2096921, 146126, 695038
2096921,2096921, 146235, 694974
2096921,2096921, 146466, 695053
2096921,2096921, 146166, 694428
2096921,2096921, 146276, 694423
2096921,2096921, 146276, 694041
2096921,2096921, 146032, 694212
2096921,2096921, 146244, 694500
2096921,2096921, 145748, 694000
2096921,2096921, 145793, 693788
2096921,2096921, 146022, 693620
2096921,2096921, 145769, 693337
2096921,2096921, 145756, 693435
2096921,2096921, 145665, 693277
2096921,2096921, 145733, 693463
2096921,2096921, 145831, 693321
2096921,2096921, 145828, 693356
2096921,2096921, 146110, 693422
2096921,2096921, 145904, 693404
2096921,2096921, 145790, 693344
2096921,2096921, 145504, 693206
2096921,2096921, 145660, 693218
2096921,2096921, 145566, 693395
2096921,2096921, 145585, 693191
2096921,2096921, 145708, 693308
2096921,2096921, 145885, 692982
2096921,2096921, 145975, 693249
2096921,2096921, 145862, 693059
2096921,2096921, 145857, 693505
2096921,2096921, 145813, 693268
2096921,2096921, 145872, 693336
2096921,2096921, 146015, 693141
2096921,2096921, 145926, 693411
2096921,2096921, 145635, 693189
2096921,2096921, 146020, 693415
2096921,2096921, 145785, 693698
2096921,2096921, 145930, 693615
2096921,2096921, 145882, 693666
2096921,2096921, 146046, 693834
2096921,2096921, 146206, 694057
2096921,2096921, 146018, 693465
2096921,2096921, 145864, 693451
2096921,2096921, 145783, 693463
2096921,2096921, 145887, 694030
2096921,2096921, 146181, 693985
2096921,2096921, 145978, 694212
2096921,2096921, 146030, 694263
2096921,2096921, 146176, 694092
2096921,2096921, 146320, 694448
2096921,2096921, 146442, 694745
2096921,2096921, 146294, 694669
2096921,2096921, 146155, 694753
2096921,2096921, 146288, 695097
2096921,2096921, 146479, 694775
2096921,2096921, 146271, 694831
2096921,2096921, 146477, 695068
2096921,2096921, 146345, 694775
2096921,2096921, 146538, 695118
2096921,2096921, 146558, 695728
2096921,2096921, 146495, 696094
2096921,2096921, 146647, 696004
2096921,2096921, 146455, 695802
2096921,2096921, 146589, 695662
2096921,2096921, 146846, 695960
2096921,2096921, 146783, 696352
2096921,2096921, 146737, 695971
2096921,2096921, 146666, 696202
2096921,2096921, 146472, 695990
2096921,2096921, 146982, 696327
2096921,2096921, 146997, 696516
2096921,2096921, 146746, 696476
2096921,2096921, 146817, 696974
2096921,2096921, 146861, 696610
2096921,2096921, 147084, 697041
2096921,2096921, 147106, 697232
2096921,2096921, 147005, 697318
2096921,2096921, 146967, 696804
2096921,2096921, 147008, 697084
2096921,2096921, 147141, 697541
2096921,2096921, 147076, 697603
2096921,2096921, 147172, 697447
2096921,2096921, 146943, 697516
2096921,2096921, 147020, 697353
2096921,2096921, 147503, 697826
2096921,2096921, 147192, 698167
2096921,2096921, 147621, 697798
2096921,2096921, 147205, 697839
2096921,2096921, 147260, 697840
2096921,2096921, 147354, 698409
2096921,2096921, 147702, 698549
2096921,2096921, 147207, 698592
2096921,2096921, 147211, 698595
2096921,2096921, 147548, 698364
2096921,2096921, 147473, 699069
2096921,2096921, 147619, 699132
2096921,2096921, 147669, 699295
2096921,2096921, 147372, 699417
2096921,2096921, 147463, 699161
2096921,2096921, 147867, 699326
2096921,2096921, 147937, 699581
2096921,2096921, 147680, 699661
2096921,2096921, 147909, 699733
2096921,2096921, 147889, 699533
2096921,2096921, 147851, 699862
2096921,2096921, 147876, 700221
2096921,2096921, 148122, 700023
2096921,2096921, 148041, 699962
2096921,2096921, 148079, 699827
2096921,2096921, 148087, 700476
2096921,2096921, 148138, 700486
2096921,2096921, 147939, 700399
2096921,2096921, 147934, 700385
2096921,2096921, 147822, 700434
2096921,2096921, 148455, 700730
2096921,2096921, 147988, 700844
2096921,2096921, 148247, 700814
2096921,2096921, 148017, 700771
2096921,2096921, 148196, 700910
2096921,2096921, 148060, 701033
2096921,2096921, 148051, 701163
2096921,2096921, 147842, 700848
2096921,2096921, 148287, 700780
2096921,2096921, 148280, 700674
2096921,2096921, 148128, 700999
2096921,2096921, 148371, 700762
2096921,2096921, 148385, 701325
2096921,2096921, 148116, 701505
2096921,2096921, 148137, 701469
2096921,2096921, 148257, 701304
2096921,2096921, 148324, 701260
2096921,2096921, 148182, 701107
2096921,2096921, 148174, 701168
2096921,2096921, 148175, 700641
2096921,2096921, 148230, 701077
2096921,2096921, 148279, 701191
2096921,2096921, 148133, 701060
2096921,2096921, 148427, 700991
2096921,2096921, 148516, 701058
2096921,2096921, 148429, 701140
2096921,2096921, 148401, 701038
2096921,2096921, 148236, 701027
2096921,2096921, 148426, 701265
2096921,2096921, 148284, 701085
2096921,2096921, 148060, 700673
2096921,2096921, 148032, 700515
2096921,2096921, 148259, 700693
2096921,2096921, 148230, 700989
2096921,2096921, 148402, 700888
2096921,2096921, 148138, 700821
2096921,2096921, 148061, 700820
2096921,2096921, 147873, 700647
2096921,2096921, 148114, 700810
2096921,2096921, 148219, 700801
2096921,2096921, 148139, 700224
2096921,2096921, 148165, 700270
2096921,2096921, 148048, 700249
2096921,2096921, 147809, 700355
2096921,2096921, 147887, 700509
2096921,2096921, 147910, 700014
2096921,2096921, 148128, 700402
2096921,2096921, 148035, 700334
2096921,2096921, 148165, 700430
2096921,2096921, 147835, 700364
2096921,2096921, 147921, 700188
2096921,2096921, 147864, 700180
2096921,2096921, 147847, 700076
2096921,2096921, 147874, 700237
2096921,2096921, 148038, 700375
2096921,2096921, 147931, 700103
2096921,2096921, 147907, 700311
2096921,2096921, 148058, 700224
2096921,2096921, 148024, 700316
2096921,2096921, 147793, 700311
2096921,2096921, 147925, 700272
2096921,2096921, 147874, 700241
2096921,2096921, 148200, 700213
2096921,2096921, 148198, 700169
2096921,2096921, 147919, 700276
2096921,2096921, 147897, 700331
2096921,2096921, 147972, 700461
2096921,2096921, 147878, 700164
2096921,2096921, 147929, 700622
2096921,2096921, 148182, 700256
2096921,2096921, 148085, 700453
2096921,2096921, 148133, 700604
2096921,2096921, 148071, 700770
2096921,2096921, 148315, 700640
2096921,2096921, 148070, 700661
2096921,2096921, 148159, 700913
2096921,2096921, 148180, 701038
2096921,2096921, 148122, 701009
2096921,2096921, 148249, 700975
2096921,2096921, 148231, 700697
2096921,2096921, 148155, 701325
2096921,2096921, 148184, 701524
2096921,2096921, 148243, 701672
2096921,2096921, 148514, 701326
2096921,2096921, 148229, 701255
2096921,2096921, 148451, 701503
2096921,2096921, 148535, 701710
2096921,2096921, 148440, 701596
2096921,2096921, 148572, 701688
2096921,2096921, 148284, 701747
2096921,2096921, 148487, 702142
2096921,2096921, 148346, 702115
2096921,2096921, 148517, 702040
2096921,2096921, 148765, 701890
2096921,2096921, 148700, 702448
2096921,2096921, 148626, 702417
2096921,2096921, 148567, 702350
2096921,2096921, 148516, 702500
2096921,2096921, 148747, 702476
2096921,2096921, 148907, 702343
2096921,2096921, 148611, 702941
2096921,2096921, 148477, 702704
2096921,2096921, 149001, 702882
2096921,2096921, 148394, 702607
2096921,2096921, 148414, 702790
2096921,2096921, 148853, 702832
2096921,2096921, 148969, 702969
2096921,2096921, 148595, 702976
2096921,2096921, 148985, 702832
2096921,2096921, 148945, 703002
2096921,2096921, 148998, 703139
2096921,2096921, 148663, 703334
2096921,2096921, 148775, 703194
2096921,2096921, 148720, 703006
2096921,2096921, 148947, 703271
2096921,2096921, 149018, 703506
2096921,2096921, 148799, 703678
2096921,2096921, 149037, 703540
2096921,2096921, 148962, 703971
2096921,2096921, 149070, 703613
2096921,2096921, 149059, 703917
2096921,2096921, 149071, 703680
2096921,2096921, 149293, 704002
2096921,2096921, 149291, 703800
2096921,2096921, 149126, 703530
2096921,2096921, 149473, 703952
2096921,2096921, 149046, 704160
2096921,2096921, 149031, 704268
2096921,2096921, 149042, 704091
2096921,2096921, 149325, 704248
2096921,2096921, 149180, 704149
2096921,2096921, 149353, 704211
2096921,2096921, 149222, 704286
2096921,2096921, 149107, 704436
2096921,2096921, 149280, 704628
2096921,2096921, 149216, 704389
2096921,2096921, 149195, 704619
2096921,2096921, 149499, 704572
2096921,2096921, 149348, 704830
2096921,2096921, 149417, 704498
2096921,2096921, 149367, 704734
2096921,2096921, 149375, 704820
2096921,2096921, 149211, 704914
2096921,2096921, 149485, 704945
2096921,2096921, 149163, 705019
2096921,2096921, 149468, 704930
2096921,2096921, 149617, 705074
2096921,2096921, 149497, 704955
2096921,2096921, 149436, 705186
2096921,2096921, 149542, 705096
2096921,2096921, 149490, 705334
2096921,2096921, 149424, 705463
2096921,2096921, 149468, 705338
2096921,2096921, 149494, 705137
2096921,2096921, 149544, 705150
2096921,2096921, 149809, 705605
2096921,2096921, 149470, 705637
2096921,2096921, 149874, 705825
2096921,2096921, 149672, 705810
2096921,2096921, 149699, 705735
2096921,2096921, 149503, 706093
2096921,2096921, 149575, 706106
2096921,2096921, 149537, 705868
2096921,2096921, 149683, 705698
2096921,2096921, 149390, 705767
2096921,2096921, 149782, 705946
2096921,2096921, 149899, 706171
2096921,2096921, 149835, 705980
2096921,2096921, 149971, 705998
2096921,2096921, 149997, 705933
2096921,2096921, 149607, 706347
2096921,2096921, 149527, 706246
2096921,2096921, 149567, 706436
2096921,2096921, 149788, 706547
2096921,2096921, 149767, 706190
2096921,2096921, 149814, 706438
2096921,2096921, 149711, 706669
2096921,2096921, 150035, 706913
2096921,2096921, 149920, 706658
2096921,2096921, 150070, 706447
2096921,2096921, 149923, 706654
2096921,2096921, 150184, 706645
2096921,2096921, 149963, 706633
2096921,2096921, 150208, 706622
2096921,2096921, 150070, 706849
2096921,2096921, 149896, 706962
2096921,2096921, 149892, 707157
2096921,2096921, 150067, 707019
2096921,2096921, 150141, 707117
2096921,2096921, 150317, 707123
2096921,2096921, 150282, 706814
2096921,2096921, 150218, 706969
2096921,2096921, 150193, 707149
2096921,2096921, 150150, 706984
2096921,2096921, 149846, 707301
2096921,2096921, 149926, 707378
2096921,2096921, 150081, 707199
2096921,2096921, 149982, 707356
2096921,2096921, 150031, 707128
2096921,2096921, 149635, 707306
2096921,2096921, 150278, 707568
2096921,2096921, 150265, 707710
2096921,2096921, 150512, 707629
2096921,2096921, 150197, 707488
2096921,2096921, 150228, 707329
2096921,2096921, 150095, 707485
2096921,2096921, 150254, 707152
2096921,2096921, 150174, 708001
2096921,2096921, 150282, 707296
2096921,2096921, 150066, 707547
2096921,2096921, 149813, 707401
2096921,2096921, 150192, 707534
2096921,2096921, 150220, 707855
2096921,2096921, 150026, 707824
2096921,2096921, 150182, 707593
2096921,2096921, 149935, 707558
2096921,2096921, 150463, 707761
2096921,2096921, 150363, 707627
2096921,2096921, 150258, 707737
2096921,2096921, 150226, 707618
2096921,2096921, 150096, 707565
2096921,2096921, 150587, 707861
2096921,2096921, 150469, 707981
2096921,2096921, 150661, 708185
2096921,2096921, 150551, 707948
2096921,2096921, 150295, 708008
2096921,2096921, 150299, 708209
2096921,2096921, 150156, 708107
2096921,2096921, 150481, 708055
2096921,2096921, 150278, 708017
2096921,2096921, 150547, 708146
2096921,2096921, 150352, 708066
2096921,2096921, 150290, 708010
2096921,2096921, 150531, 708407
2096921,2096921, 150441, 708138
2096921,2096921, 150159, 708368
2096921,2096921, 150614, 708022
2096921,2096921, 150581, 708173
2096921,2096921, 150588, 708248
2096921,2096921, 150426, 708352
2096921,2096921, 150554, 708122
2096921,2096921, 150513, 708121
2096921,2096921, 150308, 708504
2096921,2096921, 150176, 708406
2096921,2096921, 150393, 708321
2096921,2096921, 150525, 708129
2096921,2096921, 150598, 708396
2096921,2096921, 150502, 708228
2096921,2096921, 150610, 708342
2096921,2096921, 150405, 708291
2096921,2096921, 150499, 708302
2096921,2096921, 150403, 708447
2096921,2096921, 150510, 708350
2096921,2096921, 150610, 708403
2096921,2096921, 150617, 708778
2096921,2096921, 150718, 708507
2096921,2096921, 150590, 708779
2096921,2096921, 150504, 708602
2096921,2096921, 150475, 708454
2096921,2096921, 150462, 708575
2096921,2096921, 150698, 708317
2096921,2096921, 150731, 708681
2096921,2096921, 150714, 708530
2096921,2096921, 150321, 708506
2096921,2096921, 150349, 708895
2096921,2096921, 150445, 708750
2096921,2096921, 150309, 708991
2096921,2096921, 150280, 709104
2096921,2096921, 150883, 708771
2096921,2096921, 150602, 708610
2096921,2096921, 150792, 708891
2096921,2096921, 150548, 708969
2096921,2096921, 150580, 708988
2096921,2096921, 150601, 709126
2096921,2096921, 150880, 708900
2096921,2096921, 150497, 708901
2096921,2096921, 150833, 709007
2096921,2096921, 150460, 708918
2096921,2096921, 150534, 708777
2096921,2096921, 150498, 708882
2096921,2096921, 150599, 709182
2096921,2096921, 150309, 709051
2096921,2096921, 150481, 709299
2096921,2096921, 150449, 708871
2096921,2096921, 150622, 708912
2096921,2096921, 150415, 709164
2096921,2096921, 150621, 709042
2096921,2096921, 150756, 709110
2096921,2096921, 150701, 708856
2096921,2096921, 150412, 708985
2096921,2096921, 150587, 709135
2096921,2096921, 150437, 709300
2096921,2096921, 150590, 709384
2096921,2096921, 150502, 709115
2096921,2096921, 150764, 708929
2096921,2096921, 150890, 709077
2096921,2096921, 150656, 708976
2096921,2096921, 150466, 708939
2096921,2096921, 150579, 709051
2096921,2096921, 150611, 709042
2096921,2096921, 150832, 709085
2096921,2096921, 150773, 709051
2096921,2096921, 150857, 709168
2096921,2096921, 150720, 709066
2096921,2096921, 150875, 708836
2096921,2096921, 150463, 708919
2096921,2096921, 150821, 709043
2096921,2096921, 150704, 708943
2096921,2096921, 150644, 709080
2096921,2096921, 150555, 709036
2096921,2096921, 150903, 709161
2096921,2096921, 150589, 709274
2096921,2096921, 150777, 709098
2096921,2096921, 150742, 709273
2096921,2096921, 150411, 709220
2096921,2096921, 150591, 709134
2096921,2096921, 150474, 709227
2096921,2096921, 150292, 708984
2096921,2096921, 150659, 709172
2096921,2096921, 150859, 709220
2096921,2096921, 150784, 709239
2096921,2096921, 150711, 709041
2096921,2096921, 150987, 709300
2096921,2096921, 150688, 709216
2096921,2096921, 150815, 709158
2096921,2096921, 150834, 708902
2096921,2096921, 150718, 708953
2096921,2096921, 150684, 708791
2096921,2096921, 150540, 708643
2096921,2096921, 150576, 708986
2096921,2096921, 150493, 709029
2096921,2096921, 150450, 709246
2096921,2096921, 150743, 709249
2096921,2096921, 150675, 709073
2096921,2096921, 150601, 708816
2096921,2096921, 150810, 709018
2096921,2096921, 150669, 708981
2096921,2096921, 150560, 708923
2096921,2096921, 150731, 708919
2096921,2096921, 150539, 709062
2096921,2096921, 150701, 708675
2096921,2096921, 150620, 708429
2096921,2096921, 150603, 708563
2096921,2096921, 150519, 708738
2096921,2096921, 150557, 708637
2096921,2096921, 150629, 708174
2096921,2096921, 150466, 708123
2096921,2096921, 150277, 708201
2096921,2096921, 150126, 708239
2096921,2096921, 150172, 708016
2096921,2096921, 150296, 707481
2096921,2096921, 150117, 707022
2096921,2096921, 150172, 707100
2096921,2096921, 150116, 707025
2096921,2096921, 150156, 707263
2096921,2096921, 149759, 706722
2096921,2096921, 150052, 706774
2096921,2096921, 149827, 706430
2096921,2096921, 150152, 706273
2096921,2096921, 149791, 706531
2096921,2096921, 149349, 705715
2096921,2096921, 149254, 705319
2096921,2096921, 149284, 705403
2096921,2096921, 149441, 705418
2096921,2096921, 149417, 705453
2096921,2096921, 149168, 703371
2096921,2096921, 149079, 702931
2096921,2096921, 148828, 702833
2096921,2096921, 149079, 702958
2096921,2096921, 148964, 703306
2096921,2096921, 148196, 700694
2096921,2096921, 147780, 700221
2096921,2096921, 147829, 700325
2096921,2096921, 147925, 699955
2096921,2096921, 147970, 700266
2096921,2096921, 147297, 698608
2096921,2096921, 147257, 698434
2096921,2096921, 147320, 697959
2096921,2096921, 147097, 698151
2096921,2096921, 147110, 698018
2096921,2096921, 146937, 696761
2096921,2096921, 146823, 696438
2096921,2096921, 147046, 696420
2096921,2096921, 146986, 696597
2096921,2096921, 146674, 696623
2096921,2096921, 146441, 695445
2096921,2096921, 146591, 695314
2096921,2096921, 146440, 694978
2096921,2096921, 146181, 695070
2096921,2096921, 146351, 694719
2096921,2096921, 145897, 693992
2096921,2096921, 146435, 694180
2096921,2096921, 145914, 694548
2096921,2096921, 146321, 694610
2096921,2096921, 146485, 694287
2096921,2096921, 145892, 693515
2096921,2096921, 146039, 693676
2096921,2096921, 146061, 693449
2096921,2096921, 146004, 693847
2096921,2096921, 146116, 693839
2096921,2096921, 145696, 693475
2096921,2096921, 145656, 693326
2096921,2096921, 145993, 693394
2096921,2096921, 145938, 693428
2096921,2096921, 145975, 693242
2096921,2096921, 145669, 693329
2096921,2096921, 145609, 693503
2096921,2096921, 145543, 693539
2096921,2096921, 145557, 693126
2096921,2096921, 145824, 693107
2096921,2096921, 145911, 693292
2096921,2096921, 146126, 693157
2096921,2096921, 145908, 693051
2096921,2096921, 145837, 693318
2096921,2096921, 145954, 693185
2096921,2096921, 146163, 693123
2096921,2096921, 145960, 693582
2096921,2096921, 145916, 693482
2096921,2096921, 145878, 693489
2096921,2096921, 145858, 693478
2096921,2096921, 146010, 693748
2096921,2096921, 145907, 693577
2096921,2096921, 146016, 693599
2096921,2096921, 145965, 693636
2096921,2096921, 146059, 693464
2096921,2096921, 146116, 693775
2096921,2096921, 146090, 693588
2096921,2096921, 145939, 693763
2096921,2096921, 145801, 693725
2096921,2096921, 145688, 693686
2096921,2096921, 145757, 694031
2096921,2096921, 146127, 694112
2096921,2096921, 145927, 694161
2096921,2096921, 146192, 694315
2096921,2096921, 146222, 694446
2096921,2096921, 146242, 694390
2096921,2096921, 146424, 694808
2096921,2096921, 146175, 694814
2096921,2096921, 146485, 694865
2096921,2096921, 146384, 694802
2096921,2096921, 146660, 695121
2096921,2096921, 146610, 695303
2096921,2096921, 146578, 695379
2096921,2096921, 146476, 695265
2096921,2096921, 146352, 694943
2096921,2096921, 146632, 695318
2096921,2096921, 146278, 695900
2096921,2096921, 146769, 695797
2096921,2096921, 146448, 695788
2096921,2096921, 146456, 695680
2096921,2096921, 146706, 696304
2096921,2096921, 146616, 696194
2096921,2096921, 146486, 696230
2096921,2096921, 146830, 696160
2096921,2096921, 146578, 696127
2096921,2096921, 146828, 696533
2096921,2096921, 146894, 696388
2096921,2096921, 146962, 696824
2096921,2096921, 146846, 696509
2096921,2096921, 146959, 696633
2096921,2096921, 146947, 696785
2096921,2096921, 147216, 696978
2096921,2096921, 146906, 697332
2096921,2096921, 146883, 697149
2096921,2096921, 147186, 697266
2096921,2096921, 147170, 697435
2096921,2096921, 147032, 697695
2096921,2096921, 147121, 697617
2096921,2096921, 147018, 697570
2096921,2096921, 147262, 697456
2096921,2096921, 147012, 697741
2096921,2096921, 147255, 697968
2096921,2096921, 147255, 698079
2096921,2096921, 147240, 698185
2096921,2096921, 147205, 698149
2096921,2096921, 147204, 698577
2096921,2096921, 147545, 698422
2096921,2096921, 147433, 698484
2096921,2096921, 147155, 698667
2096921,2096921, 147457, 698711
2096921,2096921, 147808, 699038
2096921,2096921, 148051, 699309
2096921,2096921, 147684, 699389
2096921,2096921, 147951, 699295
2096921,2096921, 147833, 699210
2096921,2096921, 147806, 699620
2096921,2096921, 147977, 699762
2096921,2096921, 147665, 699807
2096921,2096921, 147796, 699731
2096921,2096921, 147987, 699802
2096921,2096921, 147615, 700048
2096921,2096921, 147737, 700058
2096921,2096921, 148125, 699863
2096921,2096921, 147975, 700311
2096921,2096921, 148036, 699980
2096921,2096921, 148160, 700350
2096921,2096921, 147803, 700542
2096921,2096921, 148090, 700621
2096921,2096921, 148204, 700471
2096921,2096921, 148082, 700612
2096921,2096921, 147998, 700680
2096921,2096921, 148041, 700763
2096921,2096921, 147905, 700839
2096921,2096921, 147962, 700879
2096921,2096921, 148094, 700901
2096921,2096921, 148224, 700896
2096921,2096921, 148268, 700932
2096921,2096921, 148384, 700989
2096921,2096921, 148198, 701320
2096921,2096921, 148028, 701202
2096921,2096921, 148591, 701247
2096921,2096921, 148293, 701236
2096921,2096921, 148060, 701183
2096921,2096921, 148229, 701046
2096921,2096921, 148140, 701175
2096921,2096921, 148415, 700934
2096921,2096921, 148087, 700920
2096921,2096921, 148180, 701089
2096921,2096921, 148034, 700885
2096921,2096921, 148065, 701009
2096921,2096921, 148128, 701238
2096921,2096921, 148521, 700891
2096921,2096921, 148339, 700812
2096921,2096921, 148049, 701094
2096921,2096921, 148141, 700771
2096921,2096921, 148062, 700866
2096921,2096921, 148276, 701005
2096921,2096921, 148250, 700940
2096921,2096921, 148301, 701210
2096921,2096921, 148400, 700879
2096921,2096921, 148048, 700811
2096921,2096921, 148188, 700885
2096921,2096921, 148173, 701056
2096921,2096921, 148235, 701001
2096921,2096921, 148280, 700916
2096921,2096921, 147793, 700870
2096921,2096921, 147803, 700736
2096921,2096921, 148150, 700803
2096921,2096921, 148034, 700375
2096921,2096921, 148046, 700532
2096921,2096921, 148114, 700460
2096921,2096921, 148107, 700761
2096921,2096921, 148107, 700545
2096921,2096921, 148103, 700515
2096921,2096921, 148091, 700605
2096921,2096921, 147854, 700407
2096921,2096921, 147851, 700111
2096921,2096921, 148038, 700186
2096921,2096921, 148176, 700264
2096921,2096921, 148193, 700656
2096921,2096921, 147993, 700728
2096921,2096921, 147914, 700831
2096921,2096921, 148061, 700393
2096921,2096921, 148087, 700215
2096921,2096921, 147867, 700029
2096921,2096921, 147769, 700162
2096921,2096921, 147851, 700546
2096921,2096921, 147946, 700216
2096921,2096921, 148044, 700235
2096921,2096921, 148039, 700490
2096921,2096921, 148295, 700053
2096921,2096921, 148151, 700332
2096921,2096921, 148094, 700582
2096921,2096921, 148283, 700289
2096921,2096921, 148087, 700430
2096921,2096921, 147782, 700554
2096921,2096921, 147701, 700399
2096921,2096921, 147849, 700496
2096921,2096921, 148042, 700511
2096921,2096921, 148071, 700384
2096921,2096921, 148156, 700570
2096921,2096921, 148028, 700729
2096921,2096921, 148062, 700913
2096921,2096921, 147813, 700567
2096921,2096921, 148256, 701056
2096921,2096921, 148049, 701036
2096921,2096921, 148093, 701142
2096921,2096921, 148132, 700864
2096921,2096921, 147977, 701072
2096921,2096921, 147944, 701107
2096921,2096921, 148172, 701469
2096921,2096921, 148338, 701393
2096921,2096921, 148246, 701509
2096921,2096921, 148068, 701406
2096921,2096921, 148535, 701323
2096921,2096921, 148516, 701935
2096921,2096921, 148619, 701889
2096921,2096921, 148548, 701774
2096921,2096921, 148713, 701793
2096921,2096921, 148661, 701900
2096921,2096921, 148582, 702127
2096921,2096921, 148610, 701959
2096921,2096921, 148600, 701907
2096921,2096921, 148298, 702003
2096921,2096921, 148568, 702234
2096921,2096921, 148565, 702662
2096921,2096921, 148608, 702305
2096921,2096921, 148748, 702529
2096921,2096921, 148462, 702606
2096921,2096921, 148682, 702559
2096921,2096921, 148924, 702676
2096921,2096921, 148523, 702506
2096921,2096921, 148786, 702572
2096921,2096921, 148520, 702715
2096921,2096921, 148597, 702620
2096921,2096921, 148794, 702917
2096921,2096921, 148977, 703139
2096921,2096921, 148600, 703033
2096921,2096921, 148846, 702656
2096921,2096921, 148788, 702780
2096921,2096921, 149066, 703241
2096921,2096921, 148669, 703238
2096921,2096921, 148927, 703012
2096921,2096921, 149086, 703150
2096921,2096921, 149183, 702895
2096921,2096921, 148872, 703428
2096921,2096921, 148948, 703604
2096921,2096921, 149000, 703521
2096921,2096921, 149124, 703543
2096921,2096921, 148810, 703637
2096921,2096921, 149138, 703805
2096921,2096921, 149070, 703867
2096921,2096921, 149037, 703825
2096921,2096921, 149134, 703731
2096921,2096921, 149374, 703863
2096921,2096921, 149397, 704108
2096921,2096921, 149413, 704007
2096921,2096921, 149131, 704231
2096921,2096921, 149362, 704276
2096921,2096921, 149357, 704330
2096921,2096921, 149361, 704414
2096921,2096921, 149285, 704320
2096921,2096921, 149468, 704406
2096921,2096921, 149158, 704346
2096921,2096921, 149158, 704306
2096921,2096921, 149063, 704591
2096921,2096921, 149255, 704792
2096921,2096921, 149158, 704894
2096921,2096921, 149328, 704835
2096921,2096921, 149586, 704481
2096921,2096921, 149494, 705128
2096921,2096921, 149380, 704818
2096921,2096921, 149515, 705049
2096921,2096921, 149376, 705122
2096921,2096921, 149265, 705052
2096921,2096921, 149305, 705118
2096921,2096921, 149454, 705446
2096921,2096921, 149241, 705312
2096921,2096921, 149522, 705298
2096921,2096921, 149458, 705119
2096921,2096921, 149382, 705481
2096921,2096921, 149757, 705456
2096921,2096921, 149680, 705733
2096921,2096921, 149749, 705262
2096921,2096921, 149728, 705610
2096921,2096921, 149577, 705683
2096921,2096921, 149542, 705708
2096921,2096921, 149530, 705502
2096921,2096921, 149574, 705726
2096921,2096921, 149522, 705967
2096921,2096921, 149623, 706134
2096921,2096921, 149845, 706035
2096921,2096921, 149857, 706192
2096921,2096921, 149905, 706226
2096921,2096921, 149830, 706169
2096921,2096921, 149456, 706031
2096921,2096921, 149693, 706063
2096921,2096921, 149792, 706095
2096921,2096921, 149831, 706134
2096921,2096921, 149808, 706090
2096921,2096921, 149872, 706366
2096921,2096921, 149796, 705953
2096921,2096921, 150064, 706582
2096921,2096921, 149815, 706539
2096921,2096921, 149708, 706456
2096921,2096921, 149883, 706476
2096921,2096921, 149778, 706534
2096921,2096921, 149881, 706576
2096921,2096921, 150099, 706706
2096921,2096921, 149937, 706597
2096921,2096921, 150093, 706846
2096921,2096921, 149838, 706950
2096921,2096921, 150003, 706922
2096921,2096921, 150057, 706631
2096921,2096921, 149900, 706921
2096921,2096921, 149984, 707004
2096921,2096921, 150181, 707041
2096921,2096921, 150164, 707019
2096921,2096921, 150056, 707348
2096921,2096921, 150040, 707234
2096921,2096921, 150070, 707031
2096921,2096921, 149950, 707082
2096921,2096921, 150015, 707166
2096921,2096921, 150195, 707006
2096921,2096921, 149973, 707055
2096921,2096921, 149860, 707077
2096921,2096921, 150150, 707165
2096921,2096921, 149943, 706951
2096921,2096921, 150014, 707110
2096921,2096921, 150275, 706849
2096921,2096921, 150085, 707170
2096921,2096921, 150099, 707549
2096921,2096921, 149906, 707482
2096921,2096921, 149987, 707413
2096921,2096921, 149987, 707599
2096921,2096921, 150402, 707625
2096921,2096921, 150409, 707933
2096921,2096921, 150381, 707181
2096921,2096921, 149987, 707399
2096921,2096921, 150087, 707430
2096921,2096921, 150053, 707263
2096921,2096921, 150147, 707651
2096921,2096921, 149955, 707594
2096921,2096921, 150458, 707750
2096921,2096921, 150324, 707630
2096921,2096921, 150415, 707722
2096921,2096921, 150351, 707812
2096921,2096921, 150337, 707777
2096921,2096921, 150174, 708013
2096921,2096921, 150085, 707848
2096921,2096921, 150075, 707861
2096921,2096921, 150104, 707896
2096921,2096921, 150175, 707968
2096921,2096921, 150262, 707912
2096921,2096921, 150169, 707765
2096921,2096921, 150536, 707729
2096921,2096921, 150365, 708039
2096921,2096921, 150453, 708115
2096921,2096921, 150419, 708064
2096921,2096921, 150377, 708135
2096921,2096921, 150169, 708185
2096921,2096921, 150273, 707986
2096921,2096921, 150517, 707951
2096921,2096921, 150437, 707747
2096921,2096921, 150187, 707759
2096921,2096921, 150366, 708238
2096921,2096921, 150428, 708225
2096921,2096921, 150597, 708011
2096921,2096921, 150417, 708062
2096921,2096921, 150463, 708256
2096921,2096921, 150620, 708253
2096921,2096921, 150462, 707908
2096921,2096921, 150288, 708179
2096921,2096921, 150315, 708013
2096921,2096921, 150178, 708196
2096921,2096921, 150587, 707891
2096921,2096921, 150342, 707729
2096921,2096921, 150462, 708347
2096921,2096921, 150460, 708285
2096921,2096921, 150531, 708515
2096921,2096921, 150479, 708598
2096921,2096921, 150526, 708835
2096921,2096921, 150260, 708727
2096921,2096921, 150455, 708554
2096921,2096921, 150406, 708450
2096921,2096921, 150877, 708371
2096921,2096921, 150493, 708438
2096921,2096921, 150556, 708300
2096921,2096921, 150582, 708337
2096921,2096921, 150496, 708676
2096921,2096921, 150380, 708578
2096921,2096921, 150613, 708673
2096921,2096921, 150408, 708755
2096921,2096921, 150604, 708556
2096921,2096921, 150447, 708682
2096921,2096921, 150530, 708766
2096921,2096921, 150505, 708685
2096921,2096921, 150636, 708642
2096921,2096921, 150588, 708787
2096921,2096921, 150548, 708886
2096921,2096921, 150725, 708750
2096921,2096921, 150926, 709096
2096921,2096921, 150630, 708670
2096921,2096921, 150595, 708811
2096921,2096921, 150527, 708692
2096921,2096921, 150738, 708734
2096921,2096921, 150744, 709102
2096921,2096921, 150526, 708929
2096921,2096921, 150412, 708935
2096921,2096921, 150579, 708720
2096921,2096921, 150555, 708923
2096921,2096921, 150528, 708830
2096921,2096921, 150667, 708896
2096921,2096921, 150719, 709174
2096921,2096921, 150808, 709026
2096921,2096921, 150725, 709063
2096921,2096921, 150732, 708926
2096921,2096921, 150563, 708793
2096921,2096921, 150468, 708953
2096921,2096921, 150415, 708847
2096921,2096921, 150641, 708849
2096921,2096921, 150749, 708861
2096921,2096921, 150745, 709119
2096921,2096921, 150534, 709180
2096921,2096921, 150741, 709433
2096921,2096921, 150714, 709373
2096921,2096921, 150310, 709054
2096921,2096921, 150649, 708818
2096921,2096921, 150620, 708965
2096921,2096921, 150557, 709008
2096921,2096921, 150634, 709207
2096921,2096921, 150840, 708996
2096921,2096921, 150619, 709118
2096921,2096921, 150824, 708974
2096921,2096921, 150655, 709096
2096921,2096921, 150540, 709319
2096921,2096921, 150627, 709149
2096921,2096921, 150600, 709149
2096921,2096921, 150588, 709152
2096921,2096921, 150604, 709077
2096921,2096921, 150619, 709112
2096921,2096921, 150931, 708971
2096921,2096921, 150681, 709084
2096921,2096921, 150676, 709026
2096921,2096921, 150581, 709072
2096921,2096921, 150426, 709258
2096921,2096921, 150554, 709042
2096921,2096921, 150662, 709179
2096921,2096921, 150443, 708891
2096921,2096921, 150888, 709248
2096921,2096921, 150823, 708969
2096921,2096921, 150811, 708944
2096921,2096921, 150944, 709073
2096921,2096921, 150625, 709119
2096921,2096921, 150843, 708857
2096921,2096921, 150737, 709036
2096921,2096921, 150624, 709195
2096921,2096921, 150805, 709012
2096921,2096921, 150767, 709042
2096921,2096921, 151041, 709162
2096921,2096921, 150727, 709043
2096921,2096921, 150621, 709449
2096921,2096921, 150621, 709204
2096921,2096921, 150587, 709354
2096921,2096921, 150928, 709161
2096921,2096921, 150584, 709161
2096921,2096921, 150503, 708984
2096921,2096921, 150716, 709180
2096921,2096921, 150678, 709178
2096921,2096921, 150504, 709038
2096921,2096921, 150449, 708368
2096921,2096921, 150577, 708429
2096921,2096921, 150744, 708338
2096921,2096921, 150125, 708312
2096921,2096921, 150446, 708542
2096921,2096921, 150465, 708414
2096921,2096921, 150412, 708225
2096921,2096921, 150298, 708245
2096921,2096921, 150051, 708090
2096921,2096921, 150322, 708220
2096921,2096921, 150086, 707447
2096921,2096921, 150229, 707567
2096921,2096921, 150189, 707532
2096921,2096921, 150019, 707861
2096921,2096921, 149947, 707329
2096921,2096921, 149645, 706349
2096921,2096921, 149834, 706559
2096921,2096921, 149714, 706500
2096921,2096921, 149770, 706414
2096921,2096921, 149789, 706891
2096921,2096921, 149610, 705740
2096921,2096921, 149533, 705699
2096921,2096921, 149777, 705552
2096921,2096921, 149510, 705419
2096921,2096921, 149758, 704998
2096921,2096921, 149059, 703529
2096921,2096921, 148807, 703157
2096921,2096921, 149055, 703143
2096921,2096921, 148904, 703198
2096921,2096921, 148914, 703309
2096921,2096921, 148226, 700882
2096921,2096921, 148109, 700201
2096921,2096921, 148049, 700273
2096921,2096921, 148001, 700046
2096921,2096921, 148001, 699985
2096921,2096921, 147381, 698289
2096921,2096921, 147291, 698101
2096921,2096921, 147088, 697995
2096921,2096921, 147371, 698184
2096921,2096921, 147121, 698156
2096921,2096921, 147154, 696716
2096921,2096921, 146829, 696428
2096921,2096921, 146737, 696618
2096921,2096921, 146676, 696533
2096921,2096921, 146738, 696474
2096921,2096921, 146410, 695408
2096921,2096921, 146547, 694982
2096921,2096921, 146431, 695038
2096921,2096921, 146534, 695196
2096921,2096921, 146386, 695030
2096921,2096921, 146249, 694632
2096921,2096921, 146417, 694403
2096921,2096921, 146310, 694349
2096921,2096921, 145994, 694054
2096921,2096921, 146231, 694195
2096921,2096921, 146131, 693815
2096921,2096921, 146136, 693516
2096921,2096921, 145887, 693312
2096921,2096921, 146102, 693665
2096921,2096921, 146369, 693654
2096921,2096921, 145903, 693506
2096921,2096921, 145854, 693535
2096921,2096921, 146101, 693335
2096921,2096921, 145949, 693459
2096921,2096921, 146018, 693379
2096921,2096921, 145768, 693306
2096921,2096921, 145908, 693124
2096921,2096921, 145748, 692878
2096921,2096921, 145973, 693016
2096921,2096921, 145953, 692940
2096921,2096921, 145793, 693038
2096921,2096921, 145611, 693290
2096921,2096921, 145536, 693499
2096921,2096921, 145718, 693151
2096921,2096921, 145630, 692939
2096921,2096921, 145794, 693292
2096921,2096921, 145773, 693330
2096921,2096921, 145545, 693502
2096921,2096921, 145684, 693659
2096921,2096921, 145664, 693463
2096921,2096921, 145979, 693578
2096921,2096921, 146130, 693501
2096921,2096921, 146043, 693569
2096921,2096921, 145982, 693655
2096921,2096921, 145928, 693557
2096921,2096921, 145948, 693505
2096921,2096921, 146057, 693808
2096921,2096921, 146072, 693636
2096921,2096921, 146104, 693815
2096921,2096921, 145987, 693934
2096921,2096921, 146297, 694336
2096921,2096921, 146365, 694302
2096921,2096921, 146482, 694290
2096921,2096921, 146199, 694179
2096921,2096921, 146318, 694397
2096921,2096921, 146592, 694308
2096921,2096921, 146127, 694660
2096921,2096921, 146409, 694260
2096921,2096921, 146389, 694386
2096921,2096921, 146383, 694352
2096921,2096921, 146394, 695177
2096921,2096921, 146442, 695192
2096921,2096921, 146431, 695388
2096921,2096921, 146112, 695169
2096921,2096921, 146325, 695216
2096921,2096921, 146422, 695388
2096921,2096921, 146691, 695728
2096921,2096921, 146360, 695450
2096921,2096921, 146072, 695796
2096921,2096921, 146415, 695690
2096921,2096921, 146401, 696209
2096921,2096921, 146823, 695766
2096921,2096921, 146665, 695989
2096921,2096921, 146749, 695691
2096921,2096921, 146723, 696207
2096921,2096921, 146816, 696434
2096921,2096921, 146917, 696759
2096921,2096921, 146825, 696598
2096921,2096921, 146647, 696734
2096921,2096921, 146979, 696612
2096921,2096921, 146869, 696774
2096921,2096921, 146796, 696969
2096921,2096921, 146829, 696979
2096921,2096921, 146994, 697136
2096921,2096921, 146846, 697302
2096921,2096921, 146906, 697476
2096921,2096921, 146953, 697487
2096921,2096921, 146851, 697597
2096921,2096921, 147088, 697502
2096921,2096921, 146930, 697600
2096921,2096921, 147024, 698266
2096921,2096921, 147324, 698067
2096921,2096921, 147339, 698317
2096921,2096921, 147219, 698430
2096921,2096921, 147219, 698052
2096921,2096921, 147505, 698599
2096921,2096921, 147400, 698668
2096921,2096921, 147464, 698666
2096921,2096921, 147325, 698692
2096921,2096921, 147293, 698428
2096921,2096921, 147250, 698949
2096921,2096921, 147723, 699090
2096921,2096921, 147730, 699358
2096921,2096921, 147476, 699118
2096921,2096921, 147437, 699262
2096921,2096921, 147759, 699406
2096921,2096921, 147703, 699747
2096921,2096921, 147467, 699921
2096921,2096921, 147842, 699974
2096921,2096921, 147615, 699889
2096921,2096921, 148029, 700023
2096921,2096921, 148117, 700024
2096921,2096921, 148207, 700110
2096921,2096921, 148298, 700150
2096921,2096921, 148166, 700391
2096921,2096921, 147996, 700206
2096921,2096921, 148062, 700600
2096921,2096921, 148095, 700524
2096921,2096921, 148206, 700656
2096921,2096921, 148184, 700874
2096921,2096921, 148353, 700971
2096921,2096921, 148256, 700731
2096921,2096921, 148102, 700788
2096921,2096921, 148320, 700514
2096921,2096921, 148231, 700818
2096921,2096921, 148355, 700660
2096921,2096921, 148086, 700814
2096921,2096921, 148435, 701144
2096921,2096921, 148217, 701078
2096921,2096921, 148011, 701141
2096921,2096921, 148142, 701471
2096921,2096921, 148337, 701038
2096921,2096921, 148189, 701271
2096921,2096921, 148261, 700997
2096921,2096921, 148296, 701295
2096921,2096921, 148293, 701338
2096921,2096921, 148282, 701070
2096921,2096921, 148142, 700952
2096921,2096921, 148078, 701085
2096921,2096921, 148444, 701162
2096921,2096921, 148366, 701312
2096921,2096921, 148627, 701098
2096921,2096921, 148586, 701090
2096921,2096921, 148358, 701312
2096921,2096921, 148103, 701270
2096921,2096921, 148191, 700881
2096921,2096921, 148104, 700583
2096921,2096921, 148138, 701149
2096921,2096921, 148154, 701022
2096921,2096921, 147911, 700893
2096921,2096921, 147923, 700884
2096921,2096921, 148156, 700749
2096921,2096921, 148201, 700935
2096921,2096921, 148165, 700809
2096921,2096921, 148260, 700873
2096921,2096921, 148279, 700737
2096921,2096921, 148020, 700918
2096921,2096921, 148042, 700765
2096921,2096921, 147996, 700740
2096921,2096921, 147933, 700976
2096921,2096921, 148052, 700578
2096921,2096921, 147942, 700638
2096921,2096921, 148019, 700529
2096921,2096921, 147758, 700503
2096921,2096921, 147970, 700518
2096921,2096921, 148178, 700488
2096921,2096921, 148053, 700318
2096921,2096921, 148007, 700241
2096921,2096921, 148005, 700370
2096921,2096921, 148007, 700314
2096921,2096921, 148075, 700421
2096921,2096921, 148092, 700009
2096921,2096921, 147912, 700423
2096921,2096921, 147935, 700594
2096921,2096921, 147853, 700641
2096921,2096921, 148198, 700490
2096921,2096921, 147972, 700101
2096921,2096921, 148102, 700521
2096921,2096921, 148108, 700283
2096921,2096921, 148245, 700503
2096921,2096921, 148172, 700339
2096921,2096921, 148529, 700727
2096921,2096921, 148185, 700507
2096921,2096921, 148114, 700210
2096921,2096921, 147897, 700314
2096921,2096921, 147856, 700421
2096921,2096921, 147579, 700595
2096921,2096921, 148097, 700590
2096921,2096921, 148248, 700642
2096921,2096921, 148226, 700374
2096921,2096921, 147931, 700383
2096921,2096921, 148337, 700509
2096921,2096921, 147977, 700423
2096921,2096921, 148200, 700311
2096921,2096921, 147941, 700833
2096921,2096921, 147956, 701144
2096921,2096921, 148070, 701134
2096921,2096921, 148478, 701132
2096921,2096921, 148260, 701274
2096921,2096921, 148295, 700897
2096921,2096921, 148448, 701457
2096921,2096921, 148603, 701374
2096921,2096921, 148798, 701465
2096921,2096921, 148275, 701406
2096921,2096921, 148193, 701431
2096921,2096921, 148651, 701820
2096921,2096921, 148684, 701525
2096921,2096921, 148475, 701962
2096921,2096921, 148465, 701590
2096921,2096921, 148339, 701664
2096921,2096921, 148492, 702012
2096921,2096921, 148791, 702186
2096921,2096921, 148543, 702378
2096921,2096921, 148529, 702010
2096921,2096921, 148483, 702087
2096921,2096921, 149040, 702298
2096921,2096921, 148897, 702444
2096921,2096921, 148718, 702420
2096921,2096921, 148754, 702101
2096921,2096921, 148635, 702235
2096921,2096921, 148472, 702748
2096921,2096921, 148755, 702835
2096921,2096921, 148432, 702549
2096921,2096921, 148526, 702968
2096921,2096921, 148542, 702695
2096921,2096921, 148989, 702753
2096921,2096921, 148884, 702835
2096921,2096921, 148995, 703035
2096921,2096921, 148793, 702846
2096921,2096921, 148996, 702910
2096921,2096921, 149003, 703092
2096921,2096921, 148861, 703429
2096921,2096921, 148845, 703250
2096921,2096921, 148639, 703321
2096921,2096921, 148750, 703081
2096921,2096921, 148987, 703441
2096921,2096921, 148754, 703455
2096921,2096921, 148910, 703708
2096921,2096921, 149055, 703612
2096921,2096921, 148867, 704147
2096921,2096921, 149247, 704174
2096921,2096921, 148918, 704225
2096921,2096921, 149216, 704005
2096921,2096921, 149164, 704043
2096921,2096921, 148930, 703811
2096921,2096921, 149170, 704203
2096921,2096921, 149068, 704116
2096921,2096921, 149192, 704213
2096921,2096921, 148960, 704181
2096921,2096921, 149289, 704451
2096921,2096921, 149403, 704607
2096921,2096921, 149382, 704521
2096921,2096921, 149489, 704467
2096921,2096921, 149530, 704307
2096921,2096921, 149402, 704360
2096921,2096921, 149225, 704597
2096921,2096921, 149220, 704740
2096921,2096921, 149220, 704725
2096921,2096921, 149407, 704789
2096921,2096921, 149300, 704456
2096921,2096921, 149586, 704891
2096921,2096921, 149380, 704811
2096921,2096921, 149474, 705153
2096921,2096921, 149711, 705102
2096921,2096921, 149285, 705018
2096921,2096921, 149485, 705257
2096921,2096921, 149552, 705020
2096921,2096921, 149248, 705375
2096921,2096921, 149324, 705082
2096921,2096921, 149235, 705242
2096921,2096921, 149427, 705317
2096921,2096921, 149608, 705531
2096921,2096921, 149717, 705568
2096921,2096921, 149648, 705385
2096921,2096921, 149622, 705426
2096921,2096921, 149881, 705828
2096921,2096921, 149690, 705689
2096921,2096921, 149493, 705660
2096921,2096921, 149630, 705761
2096921,2096921, 149495, 705802
2096921,2096921, 149745, 705880
2096921,2096921, 149577, 705852
2096921,2096921, 149565, 705978
2096921,2096921, 150009, 706032
2096921,2096921, 149871, 705781
2096921,2096921, 149857, 706185
2096921,2096921, 149634, 706071
2096921,2096921, 149636, 706251
2096921,2096921, 149753, 706063
2096921,2096921, 149932, 706155
2096921,2096921, 150073, 706390
2096921,2096921, 150011, 706833
2096921,2096921, 149946, 706182
2096921,2096921, 149687, 706327
2096921,2096921, 149861, 706084
2096921,2096921, 150151, 706494
2096921,2096921, 149939, 706814
2096921,2096921, 149988, 706785
2096921,2096921, 149852, 706504
2096921,2096921, 149973, 706316
2096921,2096921, 150117, 706507
2096921,2096921, 150311, 706818
2096921,2096921, 149818, 706958
2096921,2096921, 149888, 707117
2096921,2096921, 149866, 706783
2096921,2096921, 149969, 706940
2096921,2096921, 150111, 706875
2096921,2096921, 149918, 706988
2096921,2096921, 150033, 707185
2096921,2096921, 149953, 706988
2096921,2096921, 149926, 707057
2096921,2096921, 150056, 707351
2096921,2096921, 150213, 706921
2096921,2096921, 150350, 707244
2096921,2096921, 150284, 707287
2096921,2096921, 149751, 707540
2096921,2096921, 150133, 707346
2096921,2096921, 150007, 707080
2096921,2096921, 150349, 707124
2096921,2096921, 150491, 707187
2096921,2096921, 150375, 707550
2096921,2096921, 150079, 707417
2096921,2096921, 150310, 707184
2096921,2096921, 150284, 707451
2096921,2096921, 149956, 707471
2096921,2096921, 150196, 707789
2096921,2096921, 149985, 707695
2096921,2096921, 150174, 707485
2096921,2096921, 150132, 707535
2096921,2096921, 150057, 707630
2096921,2096921, 150311, 707493
2096921,2096921, 150222, 707621
2096921,2096921, 150050, 707538
2096921,2096921, 150132, 707504
2096921,2096921, 150160, 707712
2096921,2096921, 150191, 707797
2096921,2096921, 150169, 707838
2096921,2096921, 150051, 707536
2096921,2096921, 150621, 707775
2096921,2096921, 150287, 707927
2096921,2096921, 150328, 707687
2096921,2096921, 150301, 707909
2096921,2096921, 150488, 707778
2096921,2096921, 150542, 708016
2096921,2096921, 150570, 707974
2096921,2096921, 150178, 707916
2096921,2096921, 150393, 708050
2096921,2096921, 150325, 707892
2096921,2096921, 150317, 708324
2096921,2096921, 150279, 708035
2096921,2096921, 150384, 708123
2096921,2096921, 150215, 708220
2096921,2096921, 150207, 708294
2096921,2096921, 150205, 707902
2096921,2096921, 150485, 707807
2096921,2096921, 150332, 707945
2096921,2096921, 150187, 707984
2096921,2096921, 150357, 708253
2096921,2096921, 150606, 708284
2096921,2096921, 150242, 708218
2096921,2096921, 150498, 708147
2096921,2096921, 150612, 708340
2096921,2096921, 150646, 708329
2096921,2096921, 150112, 708192
2096921,2096921, 150534, 708077
2096921,2096921, 150569, 708388
2096921,2096921, 150347, 708547
2096921,2096921, 150432, 708340
2096921,2096921, 150394, 708415
2096921,2096921, 150209, 708376
2096921,2096921, 150218, 708484
2096921,2096921, 150496, 708528
2096921,2096921, 150460, 708651
2096921,2096921, 150182, 708533
2096921,2096921, 150560, 708702
2096921,2096921, 150512, 708513
2096921,2096921, 150509, 708640
2096921,2096921, 150565, 708422
2096921,2096921, 150598, 708606
2096921,2096921, 150627, 708481
2096921,2096921, 150705, 708969
2096921,2096921, 150515, 708687
2096921,2096921, 150510, 708804
2096921,2096921, 150313, 708658
2096921,2096921, 150778, 708948
2096921,2096921, 150620, 708601
2096921,2096921, 150532, 708910
2096921,2096921, 150453, 708749
2096921,2096921, 150654, 709086
2096921,2096921, 150265, 709013
2096921,2096921, 150196, 709094
2096921,2096921, 150740, 708998
2096921,2096921, 150717, 709018
2096921,2096921, 150521, 708601
2096921,2096921, 150493, 708653
2096921,2096921, 150452, 708946
2096921,2096921, 150593, 709039
2096921,2096921, 150410, 708727
2096921,2096921, 150461, 708902
2096921,2096921, 150596, 708968
2096921,2096921, 150674, 709078
2096921,2096921, 150856, 708918
2096921,2096921, 150778, 709075
2096921,2096921, 150574, 709077
2096921,2096921, 150399, 709040
2096921,2096921, 150649, 709188
2096921,2096921, 150828, 709177
2096921,2096921, 150674, 709103
2096921,2096921, 150925, 709296
2096921,2096921, 150593, 709164
2096921,2096921, 150761, 708869
2096921,2096921, 150717, 708812
2096921,2096921, 150697, 709124
2096921,2096921, 150745, 709188
2096921,2096921, 150641, 709076
2096921,2096921, 150661, 709229
2096921,2096921, 150616, 709241
2096921,2096921, 150672, 709174
2096921,2096921, 150665, 709231
2096921,2096921, 150750, 709079
2096921,2096921, 150608, 709027
2096921,2096921, 150638, 709010
2096921,2096921, 150738, 709500
2096921,2096921, 150652, 709075
2096921,2096921, 150697, 709219
2096921,2096921, 150600, 708910
2096921,2096921, 150858, 709108
2096921,2096921, 150587, 709281
2096921,2096921, 150529, 709388
2096921,2096921, 150721, 709232
2096921,2096921, 150918, 709178
2096921,2096921, 150803, 709121
2096921,2096921, 150655, 709407
2096921,2096921, 150692, 709226
2096921,2096921, 150566, 709221
2096921,2096921, 150752, 709112
2096921,2096921, 150405, 709163
2096921,2096921, 150586, 709182
2096921,2096921, 150742, 709243
2096921,2096921, 150895, 709439
2096921,2096921, 150931, 709484
2096921,2096921, 150772, 709529
2096921,2096921, 150655, 709473
2096921,2096921, 150528, 709164
2096921,2096921, 150383, 708889
2096921,2096921, 150372, 708913
2096921,2096921, 150545, 708977
2096921,2096921, 150855, 708937
2096921,2096921, 150849, 709033
2096921,2096921, 150753, 708947
2096921,2096921, 151068, 709078
2096921,2096921, 150841, 709156
2096921,2096921, 150769, 709281
2096921,2096921, 150703, 709021
2096921,2096921, 150869, 709190
2096921,2096921, 150836, 709268
2096921,2096921, 150623, 709339
2096921,2096921, 150824, 708821
2096921,2096921, 150627, 709061
2096921,2096921, 150654, 709306
2096921,2096921, 150499, 708543
2096921,2096921, 150360, 708663
2096921,2096921, 150401, 708582
2096921,2096921, 150730, 708927
2096921,2096921, 150532, 708696
2096921,2096921, 150491, 708405
2096921,2096921, 150134, 708516
2096921,2096921, 150163, 708328
2096921,2096921, 150296, 708308
2096921,2096921, 150289, 708089
2096921,2096921, 150096, 707843
2096921,2096921, 150175, 707600
2096921,2096921, 149977, 707360
2096921,2096921, 150126, 707528
2096921,2096921, 150059, 707428
2096921,2096921, 149997, 706530
2096921,2096921, 149949, 706347
2096921,2096921, 149973, 706651
2096921,2096921, 150208, 706487
2096921,2096921, 150026, 706653
2096921,2096921, 149698, 705897
2096921,2096921, 149571, 705535
2096921,2096921, 149759, 705412
2096921,2096921, 149934, 705190
2096921,2096921, 149796, 705427
2096921,2096921, 148840, 703830
2096921,2096921, 148983, 703372
2096921,2096921, 149058, 703328
2096921,2096921, 148701, 703301
2096921,2096921, 148900, 703494
2096921,2096921, 148022, 700842
2096921,2096921, 148185, 700532
2096921,2096921, 147949, 700367
2096921,2096921, 148150, 700117
2096921,2096921, 147898, 700169
2096921,2096921, 147537, 698650
2096921,2096921, 147134, 698190
2096921,2096921, 147246, 698019
2096921,2096921, 147313, 697980
2096921,2096921, 147392, 697983
2096921,2096921, 147065, 696691
2096921,2096921, 146761, 696551
2096921,2096921, 146851, 696485
2096921,2096921, 147010, 696449
2096921,2096921, 146704, 696503
2096921,2096921, 146810, 695296
2096921,2096921, 146674, 695165
2096921,2096921, 146543, 695352
2096921,2096921, 146659, 694983
2096921,2096921, 146276, 695463
2096921,2096921, 146165, 694879
2096921,2096921, 146443, 694310
2096921,2096921, 146222, 694343
2096921,2096921, 146290, 694369
2096921,2096921, 146524, 694206
2096921,2096921, 146346, 693983
2096921,2096921, 145828, 693884
2096921,2096921, 145837, 693780
2096921,2096921, 145791, 694004
2096921,2096921, 146180, 693795
2096921,2096921, 146100, 693508
2096921,2096921, 145884, 693473
2096921,2096921, 146107, 693324
2096921,2096921, 145899, 693510
2096921,2096921, 145853, 693546
2096921,2096921, 146040, 693271
2096921,2096921, 145958, 693321
2096921,2096921, 145752, 693285
2096921,2096921, 146081, 693304
2096921,2096921, 145924, 693081
2096921,2096921, 145547, 693040
2096921,2096921, 145931, 693045
2096921,2096921, 145711, 693540
2096921,2096921, 145658, 693318
2096921,2096921, 145890, 693202
2096921,2096921, 145736, 693326
2096921,2096921, 146069, 693325
2096921,2096921, 146018, 693394
2096921,2096921, 146112, 693382
2096921,2096921, 146049, 693500
2096921,2096921, 145793, 693719
2096921,2096921, 146110, 693744
2096921,2096921, 146092, 693337
2096921,2096921, 146104, 693500
2096921,2096921, 145973, 693553
2096921,2096921, 145857, 693887
2096921,2096921, 145983, 693822
2096921,2096921, 146069, 694137
2096921,2096921, 145932, 693881
2096921,2096921, 146094, 693917
2096921,2096921, 146377, 694211
2096921,2096921, 146040, 694185
2096921,2096921, 146096, 694116
2096921,2096921, 146120, 694367
2096921,2096921, 146112, 694057
2096921,2096921, 146297, 694812
2096921,2096921, 146383, 694829
2096921,2096921, 146311, 694689
2096921,2096921, 146575, 694626
2096921,2096921, 146350, 694970
2096921,2096921, 146556, 695223
2096921,2096921, 146418, 695485
2096921,2096921, 146269, 695481
2096921,2096921, 146282, 695639
2096921,2096921, 146491, 695345
2096921,2096921, 146622, 695699
2096921,2096921, 146362, 695729
2096921,2096921, 146536, 695762
2096921,2096921, 146680, 695848
2096921,2096921, 146808, 695789
2096921,2096921, 147000, 696129
2096921,2096921, 146973, 696608
2096921,2096921, 146957, 696323
2096921,2096921, 146888, 696470
2096921,2096921, 147079, 696510
2096921,2096921, 147036, 696788
2096921,2096921, 146740, 696737
2096921,2096921, 147056, 696587
2096921,2096921, 146697, 696631
2096921,2096921, 146982, 696667
2096921,2096921, 147002, 696948
2096921,2096921, 146908, 697129
2096921,2096921, 147014, 697167
2096921,2096921, 146898, 697230
2096921,2096921, 146931, 697219
2096921,2096921, 147242, 697563
2096921,2096921, 147140, 697732
2096921,2096921, 147221, 697643
2096921,2096921, 147193, 697482
2096921,2096921, 147170, 697837
2096921,2096921, 147512, 698226
2096921,2096921, 147279, 698297
2096921,2096921, 147403, 698014
2096921,2096921, 147217, 698087
2096921,2096921, 147259, 698039
2096921,2096921, 147451, 698352
2096921,2096921, 147329, 698409
2096921,2096921, 147354, 698641
2096921,2096921, 147512, 698767
2096921,2096921, 147503, 698678
2096921,2096921, 147537, 699150
2096921,2096921, 147776, 698911
2096921,2096921, 147797, 698977
2096921,2096921, 147722, 699033
2096921,2096921, 147736, 699333
2096921,2096921, 148053, 699580
2096921,2096921, 148024, 699847
2096921,2096921, 147654, 699996
2096921,2096921, 147785, 699975
2096921,2096921, 147940, 699865
2096921,2096921, 147842, 700003
2096921,2096921, 148213, 700201
2096921,2096921, 148263, 700031
2096921,2096921, 147959, 700108
2096921,2096921, 147934, 700298
2096921,2096921, 147859, 700515
2096921,2096921, 148170, 700407
2096921,2096921, 148074, 700503
2096921,2096921, 147813, 700524
2096921,2096921, 147895, 700485
2096921,2096921, 148187, 700951
2096921,2096921, 148002, 700976
2096921,2096921, 148435, 700968
2096921,2096921, 147990, 700695
2096921,2096921, 148168, 700679
2096921,2096921, 148313, 701091
2096921,2096921, 148202, 701141
2096921,2096921, 148137, 700922
2096921,2096921, 148083, 701031
2096921,2096921, 148181, 700996
2096921,2096921, 148309, 701232
2096921,2096921, 148431, 700883
2096921,2096921, 148150, 700874
2096921,2096921, 148090, 701171
2096921,2096921, 148300, 700923
2096921,2096921, 148330, 700989
2096921,2096921, 148413, 701229
2096921,2096921, 148099, 701017
2096921,2096921, 148092, 701110
2096921,2096921, 148090, 701096
2096921,2096921, 148423, 701144
2096921,2096921, 148563, 701272
2096921,2096921, 148434, 701208
2096921,2096921, 148133, 701123
2096921,2096921, 148193, 701020
2096921,2096921, 148453, 701163
2096921,2096921, 148543, 701124
2096921,2096921, 148338, 701218
2096921,2096921, 148443, 700889
2096921,2096921, 148161, 701156
2096921,2096921, 148457, 700868
2096921,2096921, 148069, 700936
2096921,2096921, 148321, 700672
2096921,2096921, 148320, 701071
2096921,2096921, 148379, 700948
2096921,2096921, 148226, 700758
2096921,2096921, 148383, 700863
2096921,2096921, 148192, 700660
2096921,2096921, 148329, 701007
2096921,2096921, 147922, 700860
2096921,2096921, 148168, 700804
2096921,2096921, 147991, 700550
2096921,2096921, 148273, 700552
2096921,2096921, 147901, 700729
2096921,2096921, 148120, 700359
2096921,2096921, 148191, 700573
2096921,2096921, 147737, 700628
2096921,2096921, 147933, 700572
2096921,2096921, 148304, 700487
2096921,2096921, 147918, 700443
2096921,2096921, 148107, 700137
2096921,2096921, 147810, 700143
2096921,2096921, 148003, 700432
2096921,2096921, 147860, 700350
2096921,2096921, 148144, 700247
2096921,2096921, 148244, 700174
2096921,2096921, 148300, 700198
2096921,2096921, 148140, 700480
2096921,2096921, 147795, 700567
2096921,2096921, 147914, 700358
2096921,2096921, 147630, 700648
2096921,2096921, 147958, 700538
2096921,2096921, 147939, 700305
2096921,2096921, 148058, 700433
2096921,2096921, 147978, 700174
2096921,2096921, 148014, 700235
2096921,2096921, 148232, 700569
2096921,2096921, 147992, 700776
2096921,2096921, 148156, 700808
2096921,2096921, 148122, 700596
2096921,2096921, 148167, 700722
2096921,2096921, 148144, 700785
2096921,2096921, 147702, 700945
2096921,2096921, 147967, 700367
2096921,2096921, 148190, 700791
2096921,2096921, 147992, 701089
2096921,2096921, 147900, 701420
2096921,2096921, 148256, 701111
2096921,2096921, 148418, 701239
2096921,2096921, 148504, 701467
2096921,2096921, 148455, 702019
2096921,2096921, 148571, 701525
2096921,2096921, 148353, 701772
2096921,2096921, 148159, 701485
2096921,2096921, 148259, 701558
2096921,2096921, 148366, 701648
2096921,2096921, 148394, 701741
2096921,2096921, 148563, 701715
2096921,2096921, 148492, 702013
2096921,2096921, 148641, 701818
2096921,2096921, 148525, 702098
2096921,2096921, 148643, 702467
2096921,2096921, 148745, 702351
2096921,2096921, 148571, 702139
2096921,2096921, 148928, 702036
2096921,2096921, 148797, 702267
2096921,2096921, 148744, 702503
2096921,2096921, 148389, 702458
2096921,2096921, 148750, 702675
2096921,2096921, 148551, 702482
2096921,2096921, 148788, 703128
2096921,2096921, 148867, 702684
2096921,2096921, 148893, 702692
2096921,2096921, 148460, 702525
2096921,2096921, 148648, 702923
2096921,2096921, 148531, 702975
2096921,2096921, 148684, 703213
2096921,2096921, 148916, 703128
2096921,2096921, 148725, 703213
2096921,2096921, 148819, 702932
2096921,2096921, 149077, 703259
2096921,2096921, 148868, 703302
2096921,2096921, 148810, 703693
2096921,2096921, 148895, 703644
2096921,2096921, 148857, 703674
2096921,2096921, 148816, 703408
2096921,2096921, 148929, 703511
2096921,2096921, 149059, 703490
2096921,2096921, 149127, 703677
2096921,2096921, 148822, 703672
2096921,2096921, 149151, 704212
2096921,2096921, 149358, 704238
2096921,2096921, 149082, 704169
2096921,2096921, 149046, 703952
2096921,2096921, 149094, 704348
2096921,2096921, 149160, 703968
2096921,2096921, 149102, 704285
2096921,2096921, 149199, 703933
2096921,2096921, 148989, 704213
2096921,2096921, 149041, 704344
2096921,2096921, 149214, 704497
2096921,2096921, 149099, 704447
2096921,2096921, 149112, 704648
2096921,2096921, 149221, 704519
2096921,2096921, 149111, 704501
2096921,2096921, 149161, 704685
2096921,2096921, 149070, 704691
2096921,2096921, 149301, 704917
2096921,2096921, 149126, 704623
2096921,2096921, 148947, 704733
2096921,2096921, 149249, 704848
2096921,2096921, 149508, 704838
2096921,2096921, 149446, 704878
2096921,2096921, 149601, 704913
2096921,2096921, 149623, 704767
2096921,2096921, 149366, 705165
2096921,2096921, 149659, 705300
2096921,2096921, 149594, 705216
2096921,2096921, 149610, 705570
2096921,2096921, 149532, 705011
2096921,2096921, 149659, 705240
2096921,2096921, 150050, 705206
2096921,2096921, 149878, 705887
2096921,2096921, 149442, 705423
2096921,2096921, 149473, 705700
2096921,2096921, 149479, 705555
2096921,2096921, 149574, 705572
2096921,2096921, 149702, 705380
2096921,2096921, 149538, 705770
2096921,2096921, 149610, 705837
2096921,2096921, 149683, 705412
2096921,2096921, 149655, 705631
2096921,2096921, 149606, 705943
2096921,2096921, 149624, 705615
2096921,2096921, 149774, 705973
2096921,2096921, 149778, 706330
2096921,2096921, 149822, 706094
2096921,2096921, 149713, 706430
2096921,2096921, 149629, 706441
2096921,2096921, 149837, 706201
2096921,2096921, 150069, 706392
2096921,2096921, 149964, 706305
2096921,2096921, 149822, 706312
2096921,2096921, 149788, 706361
2096921,2096921, 149662, 706360
2096921,2096921, 149749, 706295
2096921,2096921, 149814, 706879
2096921,2096921, 149919, 706480
2096921,2096921, 149713, 706538
2096921,2096921, 149821, 706602
2096921,2096921, 150032, 707055
2096921,2096921, 150000, 706760
2096921,2096921, 149988, 706946
2096921,2096921, 149954, 707061
2096921,2096921, 149842, 706767
2096921,2096921, 150118, 706821
2096921,2096921, 150045, 707178
2096921,2096921, 150013, 707092
2096921,2096921, 150155, 707175
2096921,2096921, 149908, 707283
2096921,2096921, 149991, 707482
2096921,2096921, 149963, 707305
2096921,2096921, 149955, 707336
2096921,2096921, 150116, 706982
2096921,2096921, 150006, 707071
2096921,2096921, 149942, 707482
2096921,2096921, 149703, 707595
2096921,2096921, 150141, 707416
2096921,2096921, 150048, 707411
2096921,2096921, 150090, 707385
2096921,2096921, 150124, 707576
2096921,2096921, 150349, 707293
2096921,2096921, 150221, 707390
2096921,2096921, 150248, 707474
2096921,2096921, 150009, 707265
2096921,2096921, 150009, 707485
2096921,2096921, 150195, 707603
2096921,2096921, 150018, 707494
2096921,2096921, 150098, 707718
2096921,2096921, 150320, 707405
2096921,2096921, 150501, 707520
2096921,2096921, 150546, 707694
2096921,2096921, 150499, 708197
2096921,2096921, 150206, 707719
2096921,2096921, 150250, 707764
2096921,2096921, 150344, 708101
2096921,2096921, 150051, 708033
2096921,2096921, 150269, 707689
2096921,2096921, 150401, 707797
2096921,2096921, 150376, 707892
2096921,2096921, 150238, 707979
2096921,2096921, 150574, 707861
2096921,2096921, 150198, 708064
2096921,2096921, 150151, 708011
2096921,2096921, 150555, 707901
2096921,2096921, 150530, 707885
2096921,2096921, 150652, 707815
2096921,2096921, 150417, 708094
2096921,2096921, 150512, 707952
2096921,2096921, 150162, 707959
2096921,2096921, 150284, 708043
2096921,2096921, 150469, 708129
2096921,2096921, 150615, 708056
2096921,2096921, 150280, 708526
2096921,2096921, 150445, 708054
2096921,2096921, 150435, 708292
2096921,2096921, 150341, 708336
2096921,2096921, 150267, 708534
2096921,2096921, 150384, 708241
2096921,2096921, 150355, 708270
2096921,2096921, 150271, 708179
2096921,2096921, 150453, 708360
2096921,2096921, 150314, 708483
2096921,2096921, 150261, 708334
2096921,2096921, 150587, 708614
2096921,2096921, 150293, 708326
2096921,2096921, 150519, 708393
2096921,2096921, 150688, 708237
2096921,2096921, 150463, 708425
2096921,2096921, 150401, 708290
2096921,2096921, 150734, 708323
2096921,2096921, 150487, 708274
2096921,2096921, 150495, 708234
2096921,2096921, 150371, 708814
2096921,2096921, 150429, 708710
2096921,2096921, 150293, 708697
2096921,2096921, 150394, 708783
2096921,2096921, 150498, 708684
2096921,2096921, 150530, 708601
2096921,2096921, 150427, 708559
2096921,2096921, 150433, 708680
2096921,2096921, 150595, 708757
2096921,2096921, 150803, 708827
2096921,2096921, 150577, 708847
2096921,2096921, 150498, 708537
2096921,2096921, 150591, 708596
2096921,2096921, 150654, 708593
2096921,2096921, 150408, 708934
2096921,2096921, 150472, 708634
2096921,2096921, 150583, 708968
2096921,2096921, 150452, 708867
2096921,2096921, 150483, 708715
2096921,2096921, 150587, 708859
2096921,2096921, 150438, 708648
2096921,2096921, 150667, 708864
2096921,2096921, 150904, 708940
2096921,2096921, 150973, 708838
2096921,2096921, 150781, 708805
2096921,2096921, 150591, 708845
2096921,2096921, 150445, 709050
2096921,2096921, 150628, 708955
2096921,2096921, 150641, 708996
2096921,2096921, 150992, 708934
2096921,2096921, 150705, 708774
2096921,2096921, 150689, 708714
2096921,2096921, 150870, 709008
2096921,2096921, 150907, 709131
2096921,2096921, 150725, 709131
2096921,2096921, 150730, 709011
2096921,2096921, 150830, 709368
2096921,2096921, 150891, 709056
2096921,2096921, 150785, 709028
2096921,2096921, 150378, 709005
2096921,2096921, 150352, 709234
2096921,2096921, 150286, 709220
2096921,2096921, 150495, 708909
2096921,2096921, 150635, 709228
2096921,2096921, 150491, 709166
2096921,2096921, 150802, 709159
2096921,2096921, 150738, 709358
2096921,2096921, 150810, 709286
2096921,2096921, 150783, 709271
2096921,2096921, 150651, 709061
2096921,2096921, 150633, 709158
2096921,2096921, 150334, 708999
2096921,2096921, 150095, 709394
2096921,2096921, 150596, 709089
2096921,2096921, 150647, 708949
2096921,2096921, 150873, 709112
2096921,2096921, 150617, 709154
2096921,2096921, 150494, 709210
2096921,2096921, 150632, 709399
2096921,2096921, 151083, 709230
2096921,2096921, 150481, 709124
2096921,2096921, 150641, 708940
2096921,2096921, 150522, 709231
2096921,2096921, 150798, 709264
2096921,2096921, 150539, 709171
2096921,2096921, 150914, 709126
2096921,2096921, 150647, 709175
2096921,2096921, 150637, 709010
2096921,2096921, 150365, 709134
2096921,2096921, 150614, 709152
2096921,2096921, 150789, 708858
2096921,2096921, 151013, 709084
2096921,2096921, 150874, 709062
2096921,2096921, 150945, 709394
2096921,2096921, 150631, 708922
2096921,2096921, 150800, 709151
2096921,2096921, 150664, 709246
2096921,2096921, 150640, 708933
2096921,2096921, 150520, 708881
2096921,2096921, 150654, 709156
2096921,2096921, 150620, 708906
2096921,2096921, 150706, 709145
2096921,2096921, 150813, 709281
2096921,2096921, 150655, 709204
2096921,2096921, 150497, 709064
2096921,2096921, 150868, 709402
2096921,2096921, 150806, 709223
2096921,2096921, 150664, 708618
2096921,2096921, 150529, 708419
2096921,2096921, 150565, 708659
2096921,2096921, 150506, 708764
2096921,2096921, 150362, 708454
2096921,2096921, 150358, 708106
2096921,2096921, 150599, 708167
2096921,2096921, 150395, 708088
2096921,2096921, 150513, 708213
2096921,2096921, 150403, 708034
2096921,2096921, 150155, 707515
2096921,2096921, 150195, 707451
2096921,2096921, 150152, 707464
2096921,2096921, 150282, 707221
2096921,2096921, 150184, 707230
2096921,2096921, 149894, 706696
2096921,2096921, 149941, 706536
2096921,2096921, 150024, 706487
2096921,2096921, 150112, 706483
2096921,2096921, 149954, 706472
2096921,2096921, 149679, 705939
2096921,2096921, 149555, 705523
2096921,2096921, 149763, 705274
2096921,2096921, 149336, 705350
2096921,2096921, 149589, 705530
2096921,2096921, 149174, 703532
2096921,2096921, 148648, 703078
2096921,2096921, 148750, 703536
2096921,2096921, 148653, 703385
2096921,2096921, 148826, 703444
2096921,2096921, 148233, 701004
2096921,2096921, 148134, 700523
