2096921,2096921,310390,451845
2096921,2096921,310383,452058
2096921,2096921,310590,452117
2096921,2096921,310873,452674
2096921,2096921,310856,452590
2096921,2096921,310751,452184
2096921,2096921,310609,452249
2096921,2096921,310548,452364
2096921,2096921,310695,452717
2096921,2096921,310696,452844
2096921,2096921,310995,452737
2096921,2096921,311060,452762
2096921,2096921,310882,452866
2096921,2096921,311233,452938
2096921,2096921,311295,453262
2096921,2096921,311503,453091
2096921,2096921,311225,453064
2096921,2096921,311049,453133
2096921,2096921,311449,453274
2096921,2096921,311395,453447
2096921,2096921,311173,453256
2096921,2096921,311283,453496
2096921,2096921,311580,453308
2096921,2096921,311471,453714
2096921,2096921,311373,453461
2096921,2096921,311739,453573
2096921,2096921,311693,453640
2096921,2096921,311745,453676
2096921,2096921,312025,453982
2096921,2096921,311993,454111
2096921,2096921,311726,453951
2096921,2096921,312113,454121
2096921,2096921,311776,453731
2096921,2096921,312278,454196
2096921,2096921,311963,454255
2096921,2096921,312084,454166
2096921,2096921,312043,454455
2096921,2096921,312167,454131
2096921,2096921,312264,454351
2096921,2096921,312149,454282
2096921,2096921,312253,454250
2096921,2096921,312371,454259
2096921,2096921,312261,454376
2096921,2096921,312409,454540
2096921,2096921,312677,454582
2096921,2096921,312404,454532
2096921,2096921,312300,454605
2096921,2096921,312509,454764
2096921,2096921,312497,455046
2096921,2096921,312495,455116
2096921,2096921,312696,455318
2096921,2096921,312969,455053
2096921,2096921,312672,455029
2096921,2096921,312999,455060
2096921,2096921,312796,454917
2096921,2096921,312724,455093
2096921,2096921,312631,454732
2096921,2096921,312651,454985
2096921,2096921,312743,455102
2096921,2096921,312715,455284
2096921,2096921,312997,455432
2096921,2096921,313022,455140
2096921,2096921,312742,455515
2096921,2096921,313086,455587
2096921,2096921,313199,455449
2096921,2096921,312717,455327
2096921,2096921,313206,455191
2096921,2096921,313166,455364
2096921,2096921,313201,455638
2096921,2096921,313141,455655
2096921,2096921,313238,455576
2096921,2096921,313119,455502
2096921,2096921,313322,455476
2096921,2096921,313299,456178
2096921,2096921,313168,455883
2096921,2096921,313304,456007
2096921,2096921,313409,455818
2096921,2096921,313227,455802
2096921,2096921,313451,455610
2096921,2096921,313552,456150
2096921,2096921,313394,455915
2096921,2096921,313610,455688
2096921,2096921,313511,455884
2096921,2096921,313470,456224
2096921,2096921,313391,456047
2096921,2096921,313562,455915
2096921,2096921,313512,455886
2096921,2096921,313704,456089
2096921,2096921,313601,455846
2096921,2096921,313617,456336
2096921,2096921,313333,456371
2096921,2096921,313708,456120
2096921,2096921,313632,456337
2096921,2096921,313716,456196
2096921,2096921,313553,456595
2096921,2096921,313694,456049
2096921,2096921,313668,456249
2096921,2096921,313733,456171
2096921,2096921,313587,456598
2096921,2096921,313848,456332
2096921,2096921,313898,456516
2096921,2096921,313789,456384
2096921,2096921,313694,456510
2096921,2096921,313861,456527
2096921,2096921,313848,456533
2096921,2096921,313915,456620
2096921,2096921,314189,456573
2096921,2096921,313981,456631
2096921,2096921,314069,456836
2096921,2096921,313767,456899
2096921,2096921,313924,456884
2096921,2096921,314057,456870
2096921,2096921,314074,456643
2096921,2096921,313917,456681
2096921,2096921,314011,456961
2096921,2096921,313908,457156
2096921,2096921,313935,456995
2096921,2096921,313935,456636
2096921,2096921,314195,456899
2096921,2096921,314193,456892
2096921,2096921,314139,456937
2096921,2096921,314098,457077
2096921,2096921,314328,456948
2096921,2096921,314475,457014
2096921,2096921,314063,457083
2096921,2096921,314274,456767
2096921,2096921,314203,456816
2096921,2096921,314154,457058
2096921,2096921,314479,456995
2096921,2096921,314498,457275
2096921,2096921,314571,457355
2096921,2096921,314568,457127
2096921,2096921,314369,457158
2096921,2096921,314609,457305
2096921,2096921,314504,457260
2096921,2096921,314248,457335
2096921,2096921,314385,457259
2096921,2096921,314613,457286
2096921,2096921,314566,457184
2096921,2096921,314524,457315
2096921,2096921,314788,457235
2096921,2096921,314703,457183
2096921,2096921,314644,457405
2096921,2096921,314613,457465
2096921,2096921,314508,457568
2096921,2096921,314588,457361
2096921,2096921,314517,457387
2096921,2096921,314754,456888
2096921,2096921,314882,457218
2096921,2096921,314689,457801
2096921,2096921,314607,457631
2096921,2096921,314913,457627
2096921,2096921,314708,457766
2096921,2096921,314575,457604
2096921,2096921,314714,457749
2096921,2096921,314649,457525
2096921,2096921,314507,457232
2096921,2096921,314677,457343
2096921,2096921,314714,457388
2096921,2096921,314551,457646
2096921,2096921,314609,457600
2096921,2096921,314585,457924
2096921,2096921,314753,457916
2096921,2096921,314691,457592
2096921,2096921,314850,457690
2096921,2096921,314813,457586
2096921,2096921,314562,457710
2096921,2096921,314436,457450
2096921,2096921,314535,457405
2096921,2096921,314308,457382
2096921,2096921,314416,457464
2096921,2096921,314636,457663
2096921,2096921,314658,457906
2096921,2096921,314501,457646
2096921,2096921,314822,457417
2096921,2096921,314593,457314
2096921,2096921,314537,457409
2096921,2096921,314641,457554
2096921,2096921,314808,457417
2096921,2096921,314806,457514
2096921,2096921,314859,457535
2096921,2096921,314586,457704
2096921,2096921,314516,457690
2096921,2096921,314463,457475
2096921,2096921,314602,457424
2096921,2096921,314604,457603
2096921,2096921,314412,457631
2096921,2096921,314598,457457
2096921,2096921,314410,457438
2096921,2096921,314387,457354
2096921,2096921,314722,457285
2096921,2096921,314868,457681
2096921,2096921,314840,457481
2096921,2096921,314528,457479
2096921,2096921,314581,457600
2096921,2096921,314555,457477
2096921,2096921,314390,457511
2096921,2096921,314457,457349
2096921,2096921,314056,456784
2096921,2096921,314369,456520
2096921,2096921,313941,456891
2096921,2096921,314225,456924
2096921,2096921,314066,457115
2096921,2096921,313903,456370
2096921,2096921,313653,456224
2096921,2096921,313889,456404
2096921,2096921,313610,456053
2096921,2096921,313603,456059
2096921,2096921,313228,455419
2096921,2096921,313058,455179
2096921,2096921,313073,455236
2096921,2096921,312793,455241
2096921,2096921,313072,455461
2096921,2096921,312326,454468
2096921,2096921,311934,453958
2096921,2096921,311904,453836
2096921,2096921,312000,454074
2096921,2096921,311951,454153
2096921,2096921,311078,453276
2096921,2096921,310854,453120
2096921,2096921,311067,452698
2096921,2096921,310943,452740
2096921,2096921,310944,452776
2096921,2096921,308914,450000
2096921,2096921,308635,449533
2096921,2096921,308170,449601
2096921,2096921,308290,449344
2096921,2096921,308257,449443
2096921,2096921,306129,446924
2096921,2096921,305340,446225
2096921,2096921,305740,446122
2096921,2096921,305263,446151
2096921,2096921,305672,445991
2096921,2096921,303759,443774
2096921,2096921,303168,443098
2096921,2096921,303101,442718
2096921,2096921,303208,442893
2096921,2096921,303120,443119
2096921,2096921,301894,441266
2096921,2096921,301861,441086
2096921,2096921,301842,440889
2096921,2096921,301805,440665
2096921,2096921,301741,440665
2096921,2096921,300841,439773
2096921,2096921,300320,439405
2096921,2096921,300295,439501
2096921,2096921,300293,439517
2096921,2096921,300177,439182
2096921,2096921,299794,438189
2096921,2096921,299656,438114
2096921,2096921,299455,438350
2096921,2096921,299658,438217
2096921,2096921,299523,438028
2096921,2096921,299209,437375
2096921,2096921,298856,437091
2096921,2096921,299008,437256
2096921,2096921,298800,437654
2096921,2096921,298706,437325
2096921,2096921,298350,437103
2096921,2096921,298468,437080
2096921,2096921,298761,437131
2096921,2096921,298747,436947
2096921,2096921,298773,437130
2096921,2096921,298722,436872
2096921,2096921,298339,436490
2096921,2096921,298263,436459
2096921,2096921,298438,436920
2096921,2096921,298228,436767
2096921,2096921,298252,436706
2096921,2096921,298231,436632
2096921,2096921,298743,436682
2096921,2096921,298656,436635
2096921,2096921,298822,436665
2096921,2096921,298730,436941
2096921,2096921,298352,436936
2096921,2096921,298620,436774
2096921,2096921,298679,436660
2096921,2096921,298474,437109
2096921,2096921,298559,437077
2096921,2096921,298535,437418
2096921,2096921,299072,437200
2096921,2096921,298940,437190
2096921,2096921,298614,437127
2096921,2096921,299142,437590
2096921,2096921,299012,437568
2096921,2096921,298909,437419
2096921,2096921,299043,437238
2096921,2096921,298993,437524
2096921,2096921,299395,437497
2096921,2096921,299437,437769
2096921,2096921,299350,437887
2096921,2096921,299498,438354
2096921,2096921,299330,437852
2096921,2096921,299717,438401
2096921,2096921,299950,438477
2096921,2096921,299864,438724
2096921,2096921,299814,438585
2096921,2096921,299926,438404
2096921,2096921,300375,438833
2096921,2096921,300433,439006
2096921,2096921,300284,439185
2096921,2096921,300105,439090
2096921,2096921,300225,439379
2096921,2096921,300738,439960
2096921,2096921,300893,439949
2096921,2096921,300851,439772
2096921,2096921,300483,439945
2096921,2096921,300874,439880
2096921,2096921,301295,440316
2096921,2096921,301488,440524
2096921,2096921,301665,440652
2096921,2096921,301575,440975
2096921,2096921,301626,440930
2096921,2096921,302008,441240
2096921,2096921,301843,441056
2096921,2096921,301926,441223
2096921,2096921,301927,440878
2096921,2096921,301991,441026
2096921,2096921,302358,441771
2096921,2096921,302377,441690
2096921,2096921,302361,442021
2096921,2096921,302395,441836
2096921,2096921,302533,441816
2096921,2096921,302761,442377
2096921,2096921,302963,442553
2096921,2096921,302979,442693
2096921,2096921,302710,442441
2096921,2096921,302937,442285
2096921,2096921,303443,442792
2096921,2096921,303383,442987
2096921,2096921,303593,443161
2096921,2096921,303678,443303
2096921,2096921,303719,443249
2096921,2096921,304303,443781
2096921,2096921,304040,443916
2096921,2096921,303792,443686
2096921,2096921,303736,443759
2096921,2096921,303829,443975
2096921,2096921,304402,444546
2096921,2096921,304390,444601
2096921,2096921,304561,444399
2096921,2096921,304478,444533
2096921,2096921,304328,444557
2096921,2096921,304912,445288
2096921,2096921,305029,445283
2096921,2096921,305115,445061
2096921,2096921,305125,445086
2096921,2096921,305094,445260
2096921,2096921,305196,445575
2096921,2096921,305280,445846
2096921,2096921,305220,445968
2096921,2096921,305169,445701
2096921,2096921,305482,445647
2096921,2096921,305815,446037
2096921,2096921,305573,446028
2096921,2096921,305811,446444
2096921,2096921,305823,446209
2096921,2096921,305870,446305
2096921,2096921,305950,446547
2096921,2096921,305905,446482
2096921,2096921,306400,446654
2096921,2096921,306268,446869
2096921,2096921,305948,446859
2096921,2096921,306607,446752
2096921,2096921,306508,446692
2096921,2096921,306521,446725
2096921,2096921,306324,446815
2096921,2096921,306435,446946
2096921,2096921,306208,447293
2096921,2096921,306726,447376
2096921,2096921,306500,447365
2096921,2096921,306871,447472
2096921,2096921,306678,447060
2096921,2096921,306504,447031
2096921,2096921,306752,447251
2096921,2096921,306648,447116
2096921,2096921,306651,447028
2096921,2096921,306392,446957
2096921,2096921,306389,446840
2096921,2096921,306422,447005
2096921,2096921,306609,447151
2096921,2096921,306809,447115
2096921,2096921,306634,447203
2096921,2096921,306317,447103
2096921,2096921,306419,447374
2096921,2096921,306476,446976
2096921,2096921,306723,446975
2096921,2096921,306300,446787
2096921,2096921,306396,446663
2096921,2096921,306342,446569
2096921,2096921,306621,446816
2096921,2096921,306282,446776
2096921,2096921,306554,446834
2096921,2096921,306408,446565
2096921,2096921,306025,446546
2096921,2096921,305986,446770
2096921,2096921,305990,446489
2096921,2096921,305838,446621
2096921,2096921,306181,446384
2096921,2096921,306096,446316
2096921,2096921,305930,446306
2096921,2096921,306067,446619
2096921,2096921,305974,446428
2096921,2096921,305829,446175
2096921,2096921,305753,445889
2096921,2096921,305567,446176
2096921,2096921,305867,446381
2096921,2096921,305756,446072
2096921,2096921,305783,446016
2096921,2096921,305777,445867
2096921,2096921,305764,446188
2096921,2096921,305496,446094
2096921,2096921,305978,446185
2096921,2096921,305826,446045
2096921,2096921,305629,445999
2096921,2096921,305714,445924
2096921,2096921,305525,446049
2096921,2096921,305819,446110
2096921,2096921,305907,446093
2096921,2096921,305851,446360
2096921,2096921,305934,446433
2096921,2096921,305841,446505
2096921,2096921,305872,446101
2096921,2096921,306075,446216
2096921,2096921,305816,446696
2096921,2096921,305748,446214
2096921,2096921,305747,446314
2096921,2096921,305794,446247
2096921,2096921,305856,446527
2096921,2096921,306256,446340
2096921,2096921,305971,446605
2096921,2096921,305851,446642
2096921,2096921,306298,446948
2096921,2096921,306525,447246
2096921,2096921,306537,446983
2096921,2096921,306249,446860
2096921,2096921,306223,446801
2096921,2096921,306421,446855
2096921,2096921,306821,447137
2096921,2096921,306760,447318
2096921,2096921,306721,447654
2096921,2096921,306852,447679
2096921,2096921,307120,447558
2096921,2096921,307258,448267
2096921,2096921,307318,448232
2096921,2096921,307420,447857
2096921,2096921,307177,448045
2096921,2096921,307029,447722
2096921,2096921,307813,448051
2096921,2096921,307813,448184
2096921,2096921,307642,448313
2096921,2096921,307528,448559
2096921,2096921,307341,448351
2096921,2096921,307697,448468
2096921,2096921,307883,448634
2096921,2096921,307778,448748
2096921,2096921,307858,448662
2096921,2096921,307919,449025
2096921,2096921,308138,449253
2096921,2096921,308072,449416
2096921,2096921,308237,449025
2096921,2096921,308372,449348
2096921,2096921,307946,449036
2096921,2096921,308272,449627
2096921,2096921,308469,449280
2096921,2096921,308240,449606
2096921,2096921,308210,449207
2096921,2096921,308474,449609
2096921,2096921,308935,450162
2096921,2096921,308760,449976
2096921,2096921,308786,449946
2096921,2096921,308628,449907
2096921,2096921,308552,449809
2096921,2096921,308901,450401
2096921,2096921,308876,450499
2096921,2096921,309032,450354
2096921,2096921,309027,450313
2096921,2096921,308850,450236
2096921,2096921,309238,450403
2096921,2096921,309505,450727
2096921,2096921,309420,451009
2096921,2096921,309351,451170
2096921,2096921,309203,450740
2096921,2096921,309606,450989
2096921,2096921,309537,450946
2096921,2096921,309405,451041
2096921,2096921,309392,450853
2096921,2096921,309514,450865
2096921,2096921,309959,451418
2096921,2096921,309983,451347
2096921,2096921,310049,451317
2096921,2096921,309916,451482
2096921,2096921,309789,451536
2096921,2096921,310125,452057
2096921,2096921,309926,451952
2096921,2096921,309946,451730
2096921,2096921,310277,451663
2096921,2096921,310177,451596
2096921,2096921,310295,451771
2096921,2096921,310473,452024
2096921,2096921,310259,452073
2096921,2096921,310352,452392
2096921,2096921,310527,452523
2096921,2096921,310433,452554
2096921,2096921,310450,452497
2096921,2096921,310472,452332
2096921,2096921,310551,451995
2096921,2096921,310259,452289
2096921,2096921,310802,452648
2096921,2096921,310810,452800
2096921,2096921,310736,452571
2096921,2096921,310930,452862
2096921,2096921,310915,452668
2096921,2096921,311071,453211
2096921,2096921,311209,453112
2096921,2096921,311366,453266
2096921,2096921,311557,453138
2096921,2096921,311017,453119
2096921,2096921,311412,453546
2096921,2096921,311228,453647
2096921,2096921,311243,453586
2096921,2096921,311189,453531
2096921,2096921,311351,453320
2096921,2096921,311618,453591
2096921,2096921,311733,453719
2096921,2096921,311973,453728
2096921,2096921,311561,453797
2096921,2096921,311832,453731
2096921,2096921,312002,453740
2096921,2096921,311865,453888
2096921,2096921,311831,454123
2096921,2096921,311824,453865
2096921,2096921,311719,453990
2096921,2096921,312009,453926
2096921,2096921,312001,454104
2096921,2096921,311911,453978
2096921,2096921,311761,453933
2096921,2096921,312337,454209
2096921,2096921,312180,454346
2096921,2096921,312146,454386
2096921,2096921,312324,454417
2096921,2096921,312333,454347
2096921,2096921,312321,454318
2096921,2096921,312619,454710
2096921,2096921,312490,455013
2096921,2096921,312469,454952
2096921,2096921,312563,454763
2096921,2096921,312732,454656
2096921,2096921,312503,454901
2096921,2096921,312702,454713
2096921,2096921,312659,455252
2096921,2096921,312821,455331
2096921,2096921,312634,455049
2096921,2096921,312545,455186
2096921,2096921,312983,455181
2096921,2096921,312643,455152
2096921,2096921,312885,454821
2096921,2096921,312872,455148
2096921,2096921,312809,455375
2096921,2096921,312899,455261
2096921,2096921,312937,455378
2096921,2096921,313180,455458
2096921,2096921,313032,455221
2096921,2096921,313050,455317
2096921,2096921,313056,455709
2096921,2096921,312824,455319
2096921,2096921,312878,455103
2096921,2096921,312799,455467
2096921,2096921,313214,455356
2096921,2096921,313397,455543
2096921,2096921,313586,455873
2096921,2096921,313197,455781
2096921,2096921,313544,455747
2096921,2096921,313306,455997
2096921,2096921,313037,455416
2096921,2096921,313267,455403
2096921,2096921,313188,455538
2096921,2096921,313051,455894
2096921,2096921,313523,455782
2096921,2096921,313365,455847
2096921,2096921,313567,455733
2096921,2096921,313414,456106
2096921,2096921,313566,455975
2096921,2096921,313689,456108
2096921,2096921,313610,456093
2096921,2096921,313659,456013
2096921,2096921,313784,455890
2096921,2096921,313617,456133
2096921,2096921,313324,456112
2096921,2096921,313619,456081
2096921,2096921,313599,456256
2096921,2096921,313790,456102
2096921,2096921,313648,456204
2096921,2096921,313704,456238
2096921,2096921,314011,456298
2096921,2096921,313588,456438
2096921,2096921,313525,456402
2096921,2096921,313535,456131
2096921,2096921,313759,456619
2096921,2096921,313723,456435
2096921,2096921,313836,456598
2096921,2096921,314036,456465
2096921,2096921,314040,456495
2096921,2096921,313920,456465
2096921,2096921,314054,456725
2096921,2096921,313859,456749
2096921,2096921,313557,456440
2096921,2096921,313544,456365
2096921,2096921,313603,456471
2096921,2096921,313917,456460
2096921,2096921,313861,456776
2096921,2096921,314283,456757
2096921,2096921,314002,456404
2096921,2096921,314176,456841
2096921,2096921,314319,456873
2096921,2096921,314033,457079
2096921,2096921,314139,457156
2096921,2096921,314070,456928
2096921,2096921,314333,456904
2096921,2096921,314275,457065
2096921,2096921,314231,456922
2096921,2096921,314121,456761
2096921,2096921,314355,456930
2096921,2096921,314291,456972
2096921,2096921,314593,457051
2096921,2096921,314515,457093
2096921,2096921,314379,457048
2096921,2096921,314258,457179
2096921,2096921,314258,457343
2096921,2096921,314400,457366
2096921,2096921,314380,457112
2096921,2096921,314388,457204
2096921,2096921,314336,457251
2096921,2096921,314362,457648
2096921,2096921,314608,457176
2096921,2096921,314637,457246
2096921,2096921,314414,457077
2096921,2096921,314551,457300
2096921,2096921,314133,457482
2096921,2096921,314565,457324
2096921,2096921,314639,457315
2096921,2096921,314622,457589
2096921,2096921,314570,457395
2096921,2096921,314711,457668
2096921,2096921,314393,457363
2096921,2096921,314310,457241
2096921,2096921,314709,457504
2096921,2096921,314849,457475
2096921,2096921,314382,457518
2096921,2096921,314900,457538
2096921,2096921,314456,457402
2096921,2096921,314754,457484
2096921,2096921,314696,457633
2096921,2096921,314856,457690
2096921,2096921,314718,457413
2096921,2096921,314581,457249
2096921,2096921,314730,457627
2096921,2096921,314793,457462
2096921,2096921,314761,457271
2096921,2096921,314161,457420
2096921,2096921,314363,457692
2096921,2096921,314727,457566
2096921,2096921,314618,457449
2096921,2096921,314479,457572
2096921,2096921,314778,457697
2096921,2096921,314673,457872
2096921,2096921,314501,457582
2096921,2096921,314637,457555
2096921,2096921,314700,457336
2096921,2096921,314694,457711
2096921,2096921,314573,457348
2096921,2096921,314718,457416
2096921,2096921,314815,457411
2096921,2096921,314745,457862
2096921,2096921,314688,457689
2096921,2096921,314475,457301
2096921,2096921,314633,457452
2096921,2096921,314496,457356
2096921,2096921,314379,457714
2096921,2096921,314715,457706
2096921,2096921,314573,457346
2096921,2096921,314481,457732
2096921,2096921,314637,457527
2096921,2096921,314894,457563
2096921,2096921,314830,457490
2096921,2096921,314626,457491
2096921,2096921,314723,457467
2096921,2096921,314670,457434
2096921,2096921,314478,457505
2096921,2096921,314765,457609
2096921,2096921,314525,457367
2096921,2096921,314695,457350
2096921,2096921,314581,457166
2096921,2096921,314634,457577
2096921,2096921,314547,457474
2096921,2096921,314323,457400
2096921,2096921,314586,457366
2096921,2096921,314666,457568
2096921,2096921,314276,457184
2096921,2096921,314215,457071
2096921,2096921,314238,457055
2096921,2096921,314161,456919
2096921,2096921,314095,456985
2096921,2096921,313821,456309
2096921,2096921,313589,456192
2096921,2096921,313918,455880
2096921,2096921,313740,456326
2096921,2096921,313496,456205
2096921,2096921,313284,455403
2096921,2096921,312971,455137
2096921,2096921,312810,455457
2096921,2096921,312779,455514
2096921,2096921,312901,455264
2096921,2096921,312238,454409
2096921,2096921,311941,454047
2096921,2096921,311798,453916
2096921,2096921,311862,454166
2096921,2096921,311562,454043
2096921,2096921,310956,453139
2096921,2096921,311106,452886
2096921,2096921,310918,452852
2096921,2096921,311300,452774
2096921,2096921,311036,452653
2096921,2096921,308893,450314
2096921,2096921,308652,449951
2096921,2096921,308495,449515
2096921,2096921,308508,449517
2096921,2096921,308457,449563
2096921,2096921,306237,446372
2096921,2096921,305410,445709
2096921,2096921,305720,445736
2096921,2096921,305692,445900
2096921,2096921,305785,445616
2096921,2096921,303895,443556
2096921,2096921,303405,443269
2096921,2096921,303204,443084
2096921,2096921,303012,443073
2096921,2096921,302853,443101
2096921,2096921,301750,441340
2096921,2096921,301600,441260
2096921,2096921,301604,441000
2096921,2096921,301676,440665
2096921,2096921,301697,440987
2096921,2096921,300573,439442
2096921,2096921,300439,439258
2096921,2096921,300534,439364
2096921,2096921,300202,439159
2096921,2096921,300314,439388
2096921,2096921,299926,438716
2096921,2096921,299808,437795
2096921,2096921,299570,438070
2096921,2096921,299683,438135
2096921,2096921,299347,438245
2096921,2096921,299158,437538
2096921,2096921,299077,437186
2096921,2096921,298850,437118
2096921,2096921,298748,437520
2096921,2096921,298875,437471
2096921,2096921,298784,436810
2096921,2096921,298613,436723
2096921,2096921,298766,436749
2096921,2096921,298551,436921
2096921,2096921,298344,437267
2096921,2096921,298443,436650
2096921,2096921,298202,436800
2096921,2096921,298572,436562
2096921,2096921,298253,436678
2096921,2096921,298161,436551
2096921,2096921,298437,436617
2096921,2096921,298512,436376
2096921,2096921,298581,436454
2096921,2096921,298420,436495
2096921,2096921,298343,436961
2096921,2096921,298589,437059
2096921,2096921,298504,437239
2096921,2096921,298673,436954
2096921,2096921,298676,436759
2096921,2096921,298796,436707
2096921,2096921,298641,436748
2096921,2096921,298596,437125
2096921,2096921,298622,437194
2096921,2096921,298883,437016
2096921,2096921,298936,437081
2096921,2096921,299021,437194
2096921,2096921,299086,437459
2096921,2096921,298770,437676
2096921,2096921,298979,437297
2096921,2096921,298822,437285
2096921,2096921,299230,437753
2096921,2096921,299397,438020
2096921,2096921,299263,437886
2096921,2096921,299550,437723
2096921,2096921,299498,437984
2096921,2096921,299721,438719
2096921,2096921,299876,438373
2096921,2096921,300069,438789
2096921,2096921,299954,438714
2096921,2096921,300007,438794
2096921,2096921,300231,439154
2096921,2096921,300447,439388
2096921,2096921,300344,439448
2096921,2096921,300303,439433
2096921,2096921,300382,439270
2096921,2096921,300949,439611
2096921,2096921,301036,439852
2096921,2096921,301226,439852
2096921,2096921,301023,439932
2096921,2096921,301119,439863
2096921,2096921,301431,440267
2096921,2096921,301317,440840
2096921,2096921,301574,440763
2096921,2096921,301679,440889
2096921,2096921,301632,440554
2096921,2096921,302281,441295
2096921,2096921,301802,440951
2096921,2096921,301809,441028
2096921,2096921,301844,441461
2096921,2096921,302023,440879
2096921,2096921,302277,441727
2096921,2096921,302308,442027
2096921,2096921,302620,442129
2096921,2096921,302494,442048
2096921,2096921,302350,442085
2096921,2096921,302781,442432
2096921,2096921,302914,442749
2096921,2096921,302736,442152
2096921,2096921,302753,442694
2096921,2096921,302688,442253
2096921,2096921,303361,443169
2096921,2096921,303672,443138
2096921,2096921,303669,443354
2096921,2096921,303524,443179
2096921,2096921,303681,442849
2096921,2096921,303917,443576
2096921,2096921,304119,443995
2096921,2096921,303857,443826
2096921,2096921,303948,443650
2096921,2096921,303906,443782
2096921,2096921,304552,444053
2096921,2096921,304730,444405
2096921,2096921,304449,444895
2096921,2096921,304296,444483
2096921,2096921,304760,444549
2096921,2096921,305103,445166
2096921,2096921,305235,445372
2096921,2096921,305112,444968
2096921,2096921,305106,445041
2096921,2096921,305274,445254
2096921,2096921,305304,445379
2096921,2096921,305541,445626
2096921,2096921,305661,445719
2096921,2096921,305610,446040
2096921,2096921,305467,445935
2096921,2096921,305948,446327
2096921,2096921,305853,446236
2096921,2096921,306039,446281
2096921,2096921,305918,446284
2096921,2096921,306101,446175
2096921,2096921,306007,446647
2096921,2096921,306121,446730
2096921,2096921,305871,446794
2096921,2096921,306175,446784
2096921,2096921,306023,446836
2096921,2096921,306196,446805
2096921,2096921,306352,446910
2096921,2096921,306566,446839
2096921,2096921,306504,446681
2096921,2096921,306485,446901
2096921,2096921,306605,446948
2096921,2096921,306576,447166
2096921,2096921,306457,447444
2096921,2096921,306518,447158
2096921,2096921,306588,447163
2096921,2096921,306556,447015
2096921,2096921,306541,447028
2096921,2096921,306409,447336
2096921,2096921,306518,447320
2096921,2096921,306469,447130
2096921,2096921,306589,447264
2096921,2096921,306581,447201
2096921,2096921,306519,447130
2096921,2096921,306469,447093
2096921,2096921,306669,447150
2096921,2096921,306617,446783
2096921,2096921,306330,446752
2096921,2096921,306111,446851
2096921,2096921,306111,446740
2096921,2096921,306249,446716
2096921,2096921,306391,446648
2096921,2096921,306256,447108
2096921,2096921,306176,447066
2096921,2096921,306209,446864
2096921,2096921,306496,446737
2096921,2096921,306272,446563
2096921,2096921,306265,446317
2096921,2096921,306132,446220
2096921,2096921,306109,446423
2096921,2096921,306107,446822
2096921,2096921,306057,446407
2096921,2096921,305979,446338
2096921,2096921,306099,446569
2096921,2096921,305795,446455
2096921,2096921,306035,446283
2096921,2096921,305655,446376
2096921,2096921,305756,446060
2096921,2096921,305539,446154
2096921,2096921,305715,446010
2096921,2096921,305796,446061
2096921,2096921,305508,446090
2096921,2096921,305866,446016
2096921,2096921,306155,446036
2096921,2096921,305760,446332
2096921,2096921,305925,445962
2096921,2096921,305637,446228
2096921,2096921,305812,445943
2096921,2096921,305849,446290
2096921,2096921,305584,446013
2096921,2096921,305659,445940
2096921,2096921,305632,446163
2096921,2096921,305634,446290
2096921,2096921,305751,446169
2096921,2096921,305876,446281
2096921,2096921,305778,446137
2096921,2096921,306095,446356
2096921,2096921,305638,446340
2096921,2096921,305884,446272
2096921,2096921,305842,446199
2096921,2096921,305670,445997
2096921,2096921,305993,446542
2096921,2096921,306303,446495
2096921,2096921,306087,446534
2096921,2096921,306161,446488
2096921,2096921,306341,446656
2096921,2096921,306493,447101
2096921,2096921,306495,447345
2096921,2096921,306215,447016
2096921,2096921,306536,447137
2096921,2096921,306541,446991
2096921,2096921,306867,447533
2096921,2096921,306783,447424
2096921,2096921,306733,447273
2096921,2096921,306772,447563
2096921,2096921,306917,447494
2096921,2096921,307186,447688
2096921,2096921,307432,447771
2096921,2096921,307133,447955
2096921,2096921,307327,448048
2096921,2096921,306996,448002
2096921,2096921,307447,448205
2096921,2096921,307532,448164
2096921,2096921,307733,448474
2096921,2096921,307559,448588
2096921,2096921,307690,448669
2096921,2096921,307740,448866
2096921,2096921,307797,448754
2096921,2096921,308018,448784
2096921,2096921,307846,448992
2096921,2096921,307768,448943
2096921,2096921,308149,449046
2096921,2096921,307937,449230
2096921,2096921,308101,449261
2096921,2096921,308259,449547
2096921,2096921,308160,449277
2096921,2096921,308394,449632
2096921,2096921,308512,449566
2096921,2096921,308266,449830
2096921,2096921,308481,449534
2096921,2096921,308346,449520
2096921,2096921,309032,449757
2096921,2096921,308655,450031
2096921,2096921,308715,449938
2096921,2096921,308858,449777
2096921,2096921,308838,449889
2096921,2096921,309417,450400
2096921,2096921,309158,450239
2096921,2096921,308843,450179
2096921,2096921,309084,450409
2096921,2096921,309348,450326
2096921,2096921,309383,450897
2096921,2096921,309192,450839
2096921,2096921,309374,450743
2096921,2096921,309465,451106
2096921,2096921,309341,450733
2096921,2096921,309852,451041
2096921,2096921,309740,451218
2096921,2096921,309727,450831
2096921,2096921,309696,450980
2096921,2096921,309669,451143
2096921,2096921,309608,451473
2096921,2096921,309738,451573
2096921,2096921,310021,451682
2096921,2096921,309869,451644
2096921,2096921,309947,451733
2096921,2096921,310121,452258
2096921,2096921,309959,451901
2096921,2096921,310343,451513
2096921,2096921,310306,451460
2096921,2096921,310057,451613
2096921,2096921,310330,452085
2096921,2096921,310418,451791
2096921,2096921,310231,451955
2096921,2096921,310265,452231
2096921,2096921,310463,452242
2096921,2096921,310786,452665
2096921,2096921,310801,452337
2096921,2096921,310711,452315
2096921,2096921,310555,452606
2096921,2096921,310350,452262
2096921,2096921,310847,452779
2096921,2096921,310898,452841
2096921,2096921,311112,453050
2096921,2096921,311076,453046
2096921,2096921,311143,452835
2096921,2096921,311178,453293
2096921,2096921,311002,452864
2096921,2096921,310930,453369
2096921,2096921,311538,452976
2096921,2096921,311272,453169
2096921,2096921,311157,453415
2096921,2096921,311168,453256
2096921,2096921,311186,453272
2096921,2096921,311352,453439
2096921,2096921,311438,453404
2096921,2096921,311599,453403
2096921,2096921,311703,453461
2096921,2096921,311539,453838
2096921,2096921,311459,453708
2096921,2096921,311663,453657
2096921,2096921,311760,454014
2096921,2096921,312109,453898
2096921,2096921,311863,453546
2096921,2096921,311860,453903
2096921,2096921,311865,454002
2096921,2096921,311810,454048
2096921,2096921,311720,454375
2096921,2096921,311763,454215
2096921,2096921,311972,454281
2096921,2096921,311889,454120
2096921,2096921,312249,454366
2096921,2096921,312262,454211
2096921,2096921,312237,454409
2096921,2096921,312228,454447
2096921,2096921,312261,454448
2096921,2096921,312490,454497
2096921,2096921,312471,454510
2096921,2096921,312408,454634
2096921,2096921,312323,454881
2096921,2096921,312152,454431
2096921,2096921,312747,454891
2096921,2096921,312672,455022
2096921,2096921,312401,454925
2096921,2096921,312590,455030
2096921,2096921,312831,455039
2096921,2096921,312861,455340
2096921,2096921,312835,455245
2096921,2096921,312394,454988
2096921,2096921,312651,455155
2096921,2096921,312696,455106
2096921,2096921,313120,455102
2096921,2096921,312898,455322
2096921,2096921,312917,455500
2096921,2096921,312971,455507
2096921,2096921,313146,455553
2096921,2096921,313372,455498
2096921,2096921,313030,455556
2096921,2096921,313066,455468
2096921,2096921,312975,455419
2096921,2096921,312892,455298
2096921,2096921,312863,455407
2096921,2096921,313063,455320
2096921,2096921,313110,455559
2096921,2096921,313264,455742
2096921,2096921,313464,455894
2096921,2096921,313427,455991
2096921,2096921,313343,455768
2096921,2096921,313516,455816
2096921,2096921,313447,455939
2096921,2096921,313189,455662
2096921,2096921,313408,455695
2096921,2096921,313318,455947
2096921,2096921,313161,456013
2096921,2096921,313480,456260
2096921,2096921,313358,456128
2096921,2096921,313711,456189
2096921,2096921,313324,456038
2096921,2096921,313618,456154
2096921,2096921,313389,456100
2096921,2096921,313510,456143
2096921,2096921,313532,456272
2096921,2096921,313521,456411
2096921,2096921,313636,456272
2096921,2096921,313609,456214
2096921,2096921,313990,456510
2096921,2096921,313756,456755
2096921,2096921,313656,456724
2096921,2096921,313512,456392
2096921,2096921,313772,456530
2096921,2096921,313753,456405
2096921,2096921,313753,456441
2096921,2096921,313653,456486
2096921,2096921,313851,456204
2096921,2096921,314219,456368
2096921,2096921,313951,456558
2096921,2096921,314130,456669
2096921,2096921,314314,456821
2096921,2096921,314134,456684
2096921,2096921,314083,456771
2096921,2096921,313970,456749
2096921,2096921,314254,456584
2096921,2096921,314045,456612
2096921,2096921,313935,456701
2096921,2096921,313910,456818
2096921,2096921,313996,456528
2096921,2096921,314254,456838
2096921,2096921,314300,456854
2096921,2096921,313718,456998
2096921,2096921,314298,457108
2096921,2096921,314110,457091
2096921,2096921,314301,457207
2096921,2096921,314333,457099
2096921,2096921,314617,457076
2096921,2096921,314520,457295
2096921,2096921,314039,457022
2096921,2096921,314485,457126
2096921,2096921,314497,456923
2096921,2096921,314395,457078
2096921,2096921,314371,457061
2096921,2096921,314243,457278
2096921,2096921,314111,457365
2096921,2096921,314459,457532
2096921,2096921,314172,457258
2096921,2096921,314238,457261
2096921,2096921,314579,457420
2096921,2096921,314318,457245
2096921,2096921,314457,457288
2096921,2096921,314355,457361
2096921,2096921,314596,457467
2096921,2096921,314531,457550
2096921,2096921,314415,457406
2096921,2096921,314549,457511
2096921,2096921,314561,457275
2096921,2096921,314538,457206
2096921,2096921,314590,457228
2096921,2096921,314526,457591
2096921,2096921,314722,457675
2096921,2096921,314547,457658
2096921,2096921,314689,457551
2096921,2096921,314607,457394
2096921,2096921,314601,457173
2096921,2096921,314708,457217
2096921,2096921,314821,457687
2096921,2096921,314782,457337
2096921,2096921,314693,457270
2096921,2096921,314903,457258
2096921,2096921,314610,457405
2096921,2096921,315089,457640
2096921,2096921,314619,457618
2096921,2096921,314773,457258
2096921,2096921,314567,457516
2096921,2096921,314691,457584
2096921,2096921,314600,457654
2096921,2096921,314823,457591
2096921,2096921,314615,457657
2096921,2096921,314523,457441
2096921,2096921,314539,457745
2096921,2096921,314440,457545
2096921,2096921,314668,457500
2096921,2096921,314440,457572
2096921,2096921,314568,457472
2096921,2096921,314776,457617
2096921,2096921,314975,457407
2096921,2096921,314338,457480
2096921,2096921,314609,457405
2096921,2096921,314753,457501
2096921,2096921,314636,457485
2096921,2096921,314508,457925
2096921,2096921,314697,457459
2096921,2096921,314435,457601
2096921,2096921,314660,457742
2096921,2096921,314722,457430
2096921,2096921,314710,457287
2096921,2096921,314894,457350
2096921,2096921,314701,457389
2096921,2096921,314734,457502
2096921,2096921,314731,457471
2096921,2096921,314577,457776
2096921,2096921,314609,457474
2096921,2096921,314556,457416
2096921,2096921,314537,457453
2096921,2096921,314876,457436
2096921,2096921,314486,457426
2096921,2096921,314624,457369
2096921,2096921,314317,457626
2096921,2096921,314572,457491
2096921,2096921,314533,457400
2096921,2096921,314479,457543
2096921,2096921,314500,457484
2096921,2096921,314599,457333
2096921,2096921,314338,456956
2096921,2096921,314067,456945
2096921,2096921,314148,457146
2096921,2096921,314042,457116
2096921,2096921,314066,456939
2096921,2096921,313912,456350
2096921,2096921,313816,456237
2096921,2096921,313509,455920
2096921,2096921,313786,456131
2096921,2096921,313794,456133
2096921,2096921,313206,455205
2096921,2096921,313241,455305
2096921,2096921,312888,455480
2096921,2096921,313137,455356
2096921,2096921,313007,455288
2096921,2096921,311989,454468
2096921,2096921,311936,454058
2096921,2096921,311861,454223
2096921,2096921,311977,453763
2096921,2096921,311684,453841
2096921,2096921,311263,452829
2096921,2096921,311045,452556
2096921,2096921,311233,452437
2096921,2096921,311043,452728
2096921,2096921,310782,453083
2096921,2096921,308951,450237
2096921,2096921,308732,449615
2096921,2096921,308586,449789
2096921,2096921,308287,449355
2096921,2096921,307968,449415
2096921,2096921,305860,446750
2096921,2096921,305696,446011
2096921,2096921,305865,445738
2096921,2096921,305550,445868
2096921,2096921,304884,445608
2096921,2096921,303862,443657
2096921,2096921,303594,443063
2096921,2096921,303222,443033
2096921,2096921,303381,442849
2096921,2096921,302844,443148
2096921,2096921,301856,441114
2096921,2096921,301753,440766
2096921,2096921,301690,440641
2096921,2096921,301806,441040
2096921,2096921,301615,440982
2096921,2096921,300655,439826
2096921,2096921,300530,439154
2096921,2096921,300428,439463
2096921,2096921,300210,439345
2096921,2096921,300415,439212
2096921,2096921,299674,438196
2096921,2096921,299858,437926
2096921,2096921,299632,437779
2096921,2096921,299581,438101
2096921,2096921,299513,437854
2096921,2096921,299226,437552
2096921,2096921,298776,437417
2096921,2096921,298850,437069
2096921,2096921,298699,437255
2096921,2096921,298745,437277
2096921,2096921,298424,436909
2096921,2096921,298620,436667
2096921,2096921,298586,437153
2096921,2096921,298469,436892
2096921,2096921,298496,436946
2096921,2096921,298482,436779
2096921,2096921,298465,436793
2096921,2096921,298520,436509
2096921,2096921,298010,436572
2096921,2096921,298314,436308
2096921,2096921,298182,436537
2096921,2096921,298263,436381
2096921,2096921,298284,436654
2096921,2096921,298570,436445
2096921,2096921,298662,436758
2096921,2096921,298301,436975
2096921,2096921,298588,436835
2096921,2096921,298812,436775
2096921,2096921,298564,436937
2096921,2096921,298381,436984
2096921,2096921,298647,436942
2096921,2096921,298623,437013
2096921,2096921,298693,437156
2096921,2096921,298759,437038
2096921,2096921,298713,436983
2096921,2096921,298898,437391
2096921,2096921,299031,437305
2096921,2096921,298859,437381
2096921,2096921,298738,437268
2096921,2096921,298829,437383
2096921,2096921,299425,438002
2096921,2096921,299522,438257
2096921,2096921,299331,438063
2096921,2096921,299209,438042
2096921,2096921,299160,437766
2096921,2096921,299713,438548
2096921,2096921,299775,438378
2096921,2096921,299720,438535
2096921,2096921,299800,438891
2096921,2096921,300166,438685
2096921,2096921,300170,438918
2096921,2096921,300485,439284
2096921,2096921,300593,439347
2096921,2096921,300647,439435
2096921,2096921,300592,439330
2096921,2096921,301058,439811
2096921,2096921,300864,439717
2096921,2096921,300730,439916
2096921,2096921,300815,439662
2096921,2096921,300677,439791
2096921,2096921,301086,440466
2096921,2096921,301414,440645
2096921,2096921,301901,440662
2096921,2096921,301539,440841
2096921,2096921,301368,440888
2096921,2096921,301890,441504
2096921,2096921,301903,441357
2096921,2096921,301735,441397
2096921,2096921,301861,441093
2096921,2096921,302011,440997
2096921,2096921,302086,441868
2096921,2096921,302412,441850
2096921,2096921,302377,441945
2096921,2096921,302297,441857
2096921,2096921,302347,441956
2096921,2096921,302591,442419
2096921,2096921,303057,442535
2096921,2096921,303022,442450
2096921,2096921,302947,442384
2096921,2096921,302764,442475
2096921,2096921,303224,443114
2096921,2096921,303415,443010
2096921,2096921,303682,443235
2096921,2096921,303537,443557
2096921,2096921,303789,443389
2096921,2096921,304011,443796
2096921,2096921,303949,443688
2096921,2096921,303753,443867
2096921,2096921,303961,443734
2096921,2096921,304067,443808
2096921,2096921,304115,444288
2096921,2096921,304555,444347
2096921,2096921,304562,444397
2096921,2096921,304476,444601
2096921,2096921,304508,444600
2096921,2096921,305080,445110
2096921,2096921,304897,445140
2096921,2096921,304912,445037
2096921,2096921,304949,445101
2096921,2096921,305018,445158
2096921,2096921,305488,445420
2096921,2096921,305446,445606
2096921,2096921,305652,445692
2096921,2096921,305266,445424
2096921,2096921,305381,445766
2096921,2096921,305970,446133
2096921,2096921,305969,446173
2096921,2096921,306272,446244
2096921,2096921,305900,446090
2096921,2096921,305965,446172
2096921,2096921,306245,446774
2096921,2096921,306289,446832
2096921,2096921,305831,446574
2096921,2096921,306090,446682
2096921,2096921,306160,446580
2096921,2096921,306273,447164
2096921,2096921,306129,447066
2096921,2096921,306126,446667
2096921,2096921,306229,446819
2096921,2096921,306176,446810
2096921,2096921,306482,447041
2096921,2096921,306188,447174
2096921,2096921,306432,447336
2096921,2096921,306687,446860
2096921,2096921,306566,447215
2096921,2096921,306386,446989
2096921,2096921,306476,447113
2096921,2096921,306300,446839
2096921,2096921,306415,447040
2096921,2096921,306279,446880
2096921,2096921,306282,446955
2096921,2096921,306439,446949
2096921,2096921,306541,447042
2096921,2096921,306642,447175
2096921,2096921,306946,447355
2096921,2096921,306389,447004
2096921,2096921,306397,446748
2096921,2096921,306191,446825
2096921,2096921,306122,446911
2096921,2096921,306216,446773
2096921,2096921,306211,446689
2096921,2096921,306477,446822
2096921,2096921,306345,446498
2096921,2096921,306267,446505
2096921,2096921,306313,446854
2096921,2096921,306276,446587
2096921,2096921,305809,446547
2096921,2096921,305871,446710
2096921,2096921,305942,446294
2096921,2096921,305753,446341
2096921,2096921,305557,446078
2096921,2096921,305818,446165
2096921,2096921,305955,446238
2096921,2096921,306193,446379
2096921,2096921,306232,446160
2096921,2096921,305917,446043
2096921,2096921,305483,446126
2096921,2096921,305646,446070
2096921,2096921,305797,445988
2096921,2096921,305604,445814
2096921,2096921,305509,445908
2096921,2096921,305745,445960
2096921,2096921,305750,445940
2096921,2096921,305821,445938
2096921,2096921,305995,445990
2096921,2096921,305815,446026
2096921,2096921,305693,446002
2096921,2096921,305323,445952
2096921,2096921,305363,446026
2096921,2096921,305524,445977
2096921,2096921,305550,446137
2096921,2096921,305859,446059
2096921,2096921,305507,446178
2096921,2096921,305874,446277
2096921,2096921,305855,446137
2096921,2096921,305847,446418
2096921,2096921,305935,446229
2096921,2096921,305755,446311
2096921,2096921,305530,446282
2096921,2096921,305613,446243
2096921,2096921,306054,446545
2096921,2096921,306192,446403
2096921,2096921,306044,446564
2096921,2096921,306228,446527
2096921,2096921,306309,446677
2096921,2096921,306452,446867
2096921,2096921,306284,446850
2096921,2096921,306471,446883
2096921,2096921,306434,446880
2096921,2096921,306108,447058
2096921,2096921,306803,447313
2096921,2096921,306863,447571
2096921,2096921,306797,447536
2096921,2096921,306743,447655
2096921,2096921,306963,447520
2096921,2096921,307275,447762
2096921,2096921,307210,447556
2096921,2096921,307186,447707
2096921,2096921,307203,448012
2096921,2096921,307070,448050
2096921,2096921,307157,448194
2096921,2096921,307574,448462
2096921,2096921,307536,448357
2096921,2096921,307619,448385
2096921,2096921,307304,448194
2096921,2096921,307824,448790
2096921,2096921,307930,448942
2096921,2096921,307536,448836
2096921,2096921,307973,448730
2096921,2096921,307887,448709
2096921,2096921,308150,448907
2096921,2096921,307927,449173
2096921,2096921,308236,449283
2096921,2096921,308212,449149
2096921,2096921,308000,449238
2096921,2096921,308309,449499
2096921,2096921,308350,449441
2096921,2096921,308260,449312
2096921,2096921,308232,449419
2096921,2096921,308423,449385
2096921,2096921,308679,449717
2096921,2096921,308619,449944
2096921,2096921,308612,449878
2096921,2096921,308661,449833
2096921,2096921,308681,449673
2096921,2096921,309060,450009
2096921,2096921,309102,450223
2096921,2096921,308618,450257
2096921,2096921,308957,450266
2096921,2096921,309074,450234
2096921,2096921,309265,450458
2096921,2096921,309237,450672
2096921,2096921,309419,450612
2096921,2096921,309284,450520
2096921,2096921,309474,450713
2096921,2096921,309713,450840
2096921,2096921,309482,451112
2096921,2096921,309595,450802
2096921,2096921,309532,450890
2096921,2096921,309406,450759
2096921,2096921,310029,451235
2096921,2096921,310122,451243
2096921,2096921,309669,451179
2096921,2096921,309690,451206
2096921,2096921,309952,451450
2096921,2096921,310185,451897
2096921,2096921,310114,451781
2096921,2096921,310156,451674
2096921,2096921,309857,451737
2096921,2096921,309961,451675
2096921,2096921,310316,452042
2096921,2096921,310121,451829
2096921,2096921,310340,451763
2096921,2096921,310633,451973
2096921,2096921,310407,451922
2096921,2096921,310630,452527
2096921,2096921,310609,452664
2096921,2096921,310557,452550
2096921,2096921,310545,452463
2096921,2096921,310431,452402
2096921,2096921,310943,452592
2096921,2096921,311033,452880
2096921,2096921,311079,452773
2096921,2096921,310931,452729
2096921,2096921,311136,452617
2096921,2096921,311130,453182
2096921,2096921,311301,453244
2096921,2096921,311252,453436
2096921,2096921,311200,453105
2096921,2096921,311105,452902
2096921,2096921,311110,453238
2096921,2096921,311462,453391
2096921,2096921,311250,453429
2096921,2096921,311447,453388
2096921,2096921,311286,453365
2096921,2096921,311673,453716
2096921,2096921,311750,453625
2096921,2096921,311674,453566
2096921,2096921,311639,453708
2096921,2096921,311814,453555
2096921,2096921,311888,453798
2096921,2096921,311793,453945
2096921,2096921,311718,454164
2096921,2096921,311720,453955
2096921,2096921,311717,453981
2096921,2096921,311786,454025
2096921,2096921,311846,453973
2096921,2096921,311953,454094
2096921,2096921,311903,453953
2096921,2096921,312017,454035
2096921,2096921,312296,454502
2096921,2096921,312432,454347
2096921,2096921,312339,454225
2096921,2096921,312445,454079
2096921,2096921,312319,454266
2096921,2096921,312487,454639
2096921,2096921,312246,454786
2096921,2096921,312290,454858
2096921,2096921,312425,454858
2096921,2096921,312402,454694
2096921,2096921,312576,454603
2096921,2096921,312416,455092
2096921,2096921,312701,455097
2096921,2096921,312639,455134
2096921,2096921,312868,454984
2096921,2096921,312902,455039
2096921,2096921,312929,454965
2096921,2096921,312708,455044
2096921,2096921,312884,454786
2096921,2096921,312730,454906
2096921,2096921,312671,455139
2096921,2096921,312792,455110
2096921,2096921,312815,455383
2096921,2096921,312691,455405
2096921,2096921,313146,455617
2096921,2096921,313111,455289
2096921,2096921,313053,455450
2096921,2096921,312916,455630
2096921,2096921,312859,455095
2096921,2096921,312725,455527
2096921,2096921,313085,455610
2096921,2096921,313212,455581
2096921,2096921,313360,455671
2096921,2096921,313651,455870
2096921,2096921,313048,455828
2096921,2096921,313417,455887
2096921,2096921,313391,455676
2096921,2096921,313484,455744
2096921,2096921,312904,455780
2096921,2096921,313102,455573
2096921,2096921,313125,455810
2096921,2096921,313361,455620
2096921,2096921,313459,455863
2096921,2096921,313763,455963
2096921,2096921,313492,455883
2096921,2096921,313512,455846
2096921,2096921,313785,456225
2096921,2096921,313438,455853
2096921,2096921,313572,456325
2096921,2096921,313370,455947
2096921,2096921,313629,456121
2096921,2096921,313782,455980
2096921,2096921,313514,456019
2096921,2096921,313593,456055
2096921,2096921,313659,456223
2096921,2096921,313718,456325
2096921,2096921,313582,456541
2096921,2096921,313592,456423
2096921,2096921,313561,456495
2096921,2096921,313405,456189
2096921,2096921,313917,456098
2096921,2096921,313937,456424
2096921,2096921,313831,456337
2096921,2096921,313776,456532
2096921,2096921,313964,456407
2096921,2096921,313860,456259
2096921,2096921,314166,456421
2096921,2096921,313886,456607
2096921,2096921,313721,456371
2096921,2096921,313600,456388
2096921,2096921,313930,456561
2096921,2096921,314145,456682
2096921,2096921,313992,456781
2096921,2096921,314114,456791
2096921,2096921,314086,456886
2096921,2096921,314134,456747
2096921,2096921,314046,456844
2096921,2096921,313989,456919
2096921,2096921,314191,456501
2096921,2096921,314006,456672
2096921,2096921,314456,456637
2096921,2096921,314084,456698
2096921,2096921,314186,457031
2096921,2096921,314150,457011
2096921,2096921,314353,456956
2096921,2096921,314408,457164
2096921,2096921,314584,456910
2096921,2096921,314459,456789
2096921,2096921,314216,456906
2096921,2096921,314504,457187
2096921,2096921,314184,456889
2096921,2096921,314532,457213
2096921,2096921,314350,457172
2096921,2096921,314378,457090
2096921,2096921,314596,457109
2096921,2096921,314676,457572
2096921,2096921,314349,457459
2096921,2096921,314139,457593
2096921,2096921,314515,457484
2096921,2096921,314284,457148
2096921,2096921,314094,457369
2096921,2096921,314455,457281
2096921,2096921,314459,457365
2096921,2096921,314629,457442
2096921,2096921,314410,457464
2096921,2096921,314617,457472
2096921,2096921,314686,457569
2096921,2096921,314482,457370
2096921,2096921,314340,457575
2096921,2096921,314525,457057
2096921,2096921,314730,457384
2096921,2096921,314634,457304
2096921,2096921,314613,457681
2096921,2096921,314626,457351
2096921,2096921,314672,457609
2096921,2096921,314880,457661
2096921,2096921,314786,457470
2096921,2096921,314528,457511
2096921,2096921,315009,457520
2096921,2096921,314596,457534
2096921,2096921,314476,457711
2096921,2096921,314585,457565
2096921,2096921,314784,457473
2096921,2096921,314572,457618
2096921,2096921,314499,457722
2096921,2096921,314695,457784
2096921,2096921,314701,457779
2096921,2096921,314509,457786
2096921,2096921,314455,457488
2096921,2096921,314457,457456
2096921,2096921,314323,457269
2096921,2096921,314751,457363
2096921,2096921,314591,457351
2096921,2096921,314828,457452
2096921,2096921,314788,457771
2096921,2096921,314630,457690
2096921,2096921,314610,457417
2096921,2096921,314668,457572
2096921,2096921,314453,457324
2096921,2096921,314497,457556
2096921,2096921,314613,457464
2096921,2096921,314571,457693
2096921,2096921,314415,457602
2096921,2096921,314566,457891
2096921,2096921,314681,457767
2096921,2096921,314759,457747
2096921,2096921,314636,457675
2096921,2096921,314779,457377
2096921,2096921,314206,457750
2096921,2096921,314498,457629
2096921,2096921,314252,457438
2096921,2096921,314568,457499
2096921,2096921,314739,457449
2096921,2096921,314457,457770
2096921,2096921,314774,457791
2096921,2096921,314944,457485
2096921,2096921,315037,457638
2096921,2096921,314676,457728
2096921,2096921,314633,457695
2096921,2096921,314340,457270
2096921,2096921,314126,457056
2096921,2096921,314228,457043
2096921,2096921,314224,456965
2096921,2096921,313873,457040
2096921,2096921,314094,456919
2096921,2096921,313662,456357
2096921,2096921,313644,456376
2096921,2096921,313656,456241
2096921,2096921,313655,456035
2096921,2096921,313401,456302
2096921,2096921,313050,455467
2096921,2096921,312923,455233
2096921,2096921,313119,455449
2096921,2096921,312977,455493
2096921,2096921,312548,455186
2096921,2096921,312023,454173
2096921,2096921,311885,454378
2096921,2096921,311944,453746
2096921,2096921,311920,454125
2096921,2096921,311604,453868
2096921,2096921,311085,452899
2096921,2096921,310783,452773
2096921,2096921,310930,452586
2096921,2096921,310781,452831
2096921,2096921,310361,452804
2096921,2096921,308753,450245
2096921,2096921,308336,449661
2096921,2096921,308468,449291
2096921,2096921,308405,449346
2096921,2096921,307809,449906
2096921,2096921,306125,446682
2096921,2096921,305782,446117
2096921,2096921,305615,445820
2096921,2096921,305558,445974
2096921,2096921,305261,446073
2096921,2096921,303684,443652
2096921,2096921,303171,443108
2096921,2096921,303211,443196
2096921,2096921,303542,443099
2096921,2096921,303220,442936
2096921,2096921,301785,441074
2096921,2096921,301620,441141
2096921,2096921,301935,440995
2096921,2096921,301773,441274
2096921,2096921,301556,441290
2096921,2096921,300857,440015
2096921,2096921,300526,439338
2096921,2096921,300557,438953
2096921,2096921,300249,439278
2096921,2096921,300194,439130
2096921,2096921,299819,438589
2096921,2096921,299873,438034
2096921,2096921,299743,438562
2096921,2096921,299744,438124
2096921,2096921,299623,438189
2096921,2096921,299000,437837
2096921,2096921,298946,437503
2096921,2096921,298737,437258
2096921,2096921,298926,437300
2096921,2096921,298826,437410
2096921,2096921,298571,436930
2096921,2096921,298591,436813
2096921,2096921,298519,436838
2096921,2096921,298546,436447
2096921,2096921,298553,436746
2096921,2096921,298479,436793
2096921,2096921,298195,436708
2096921,2096921,298286,436455
2096921,2096921,298436,436432
2096921,2096921,298483,436653
2096921,2096921,298389,436583
2096921,2096921,298404,436656
2096921,2096921,298408,436364
2096921,2096921,298210,436497
2096921,2096921,298538,436745
2096921,2096921,298397,436959
2096921,2096921,298531,436792
2096921,2096921,298402,436979
2096921,2096921,298647,436861
2096921,2096921,298812,436954
2096921,2096921,298620,437031
2096921,2096921,298867,437360
2096921,2096921,298895,437233
2096921,2096921,298792,437201
2096921,2096921,298939,437138
2096921,2096921,299001,437524
2096921,2096921,298652,437458
2096921,2096921,298740,437615
2096921,2096921,298585,437522
2096921,2096921,298654,437369
2096921,2096921,299223,437845
2096921,2096921,299440,437859
2096921,2096921,299457,438040
2096921,2096921,299885,438238
2096921,2096921,299658,438111
2096921,2096921,299942,438390
2096921,2096921,300086,438438
2096921,2096921,300042,438417
2096921,2096921,299914,438386
2096921,2096921,300061,438579
2096921,2096921,300263,439404
2096921,2096921,300792,439083
2096921,2096921,300335,439363
2096921,2096921,300561,439252
2096921,2096921,300874,439447
2096921,2096921,301008,439912
2096921,2096921,300974,440234
2096921,2096921,301054,440249
2096921,2096921,300993,440125
2096921,2096921,301190,440253
2096921,2096921,301422,440645
2096921,2096921,301224,440634
2096921,2096921,301697,440822
2096921,2096921,301638,440666
2096921,2096921,301775,440851
2096921,2096921,301938,441094
2096921,2096921,301912,441284
2096921,2096921,301852,441147
2096921,2096921,302105,441104
2096921,2096921,302132,441287
2096921,2096921,302650,441592
2096921,2096921,302466,442168
2096921,2096921,302252,441882
2096921,2096921,302257,441879
2096921,2096921,302519,441803
2096921,2096921,302605,442303
2096921,2096921,302899,442441
2096921,2096921,302939,442347
2096921,2096921,303075,442339
2096921,2096921,303086,442665
2096921,2096921,303279,443173
2096921,2096921,303202,443511
2096921,2096921,303478,443520
2096921,2096921,303395,443523
2096921,2096921,303402,443301
2096921,2096921,304145,443996
2096921,2096921,304151,443724
2096921,2096921,303970,443922
2096921,2096921,303797,443650
2096921,2096921,303920,443864
2096921,2096921,304303,444441
2096921,2096921,304623,444873
2096921,2096921,304456,444851
2096921,2096921,304947,444612
2096921,2096921,304758,444573
2096921,2096921,304737,445010
2096921,2096921,304961,445174
2096921,2096921,304700,445215
2096921,2096921,304761,445249
2096921,2096921,305163,445291
2096921,2096921,305461,445326
2096921,2096921,305444,445760
2096921,2096921,305623,445956
2096921,2096921,305652,445921
2096921,2096921,305744,445850
2096921,2096921,306135,446341
2096921,2096921,305751,446437
2096921,2096921,305832,446257
2096921,2096921,305872,446352
2096921,2096921,305757,446219
2096921,2096921,306047,446665
2096921,2096921,306054,446463
2096921,2096921,306098,446554
2096921,2096921,306470,446413
2096921,2096921,306542,446687
2096921,2096921,306485,446916
2096921,2096921,306406,446941
2096921,2096921,306223,447233
2096921,2096921,306613,447117
2096921,2096921,306546,446828
2096921,2096921,306636,447037
2096921,2096921,306555,446700
2096921,2096921,306367,446847
2096921,2096921,306604,447169
2096921,2096921,306700,447491
2096921,2096921,306818,447246
2096921,2096921,306498,447176
2096921,2096921,306336,446989
2096921,2096921,306412,447265
2096921,2096921,306225,447064
2096921,2096921,306349,447233
2096921,2096921,306403,447017
2096921,2096921,306771,446901
2096921,2096921,306544,447108
2096921,2096921,306090,447008
2096921,2096921,306272,446904
2096921,2096921,306239,446935
2096921,2096921,306349,447278
2096921,2096921,306537,447031
2096921,2096921,306320,447220
2096921,2096921,306299,446859
2096921,2096921,306435,446826
2096921,2096921,306226,446758
2096921,2096921,306370,446798
2096921,2096921,306186,446696
2096921,2096921,306039,446747
2096921,2096921,306087,446723
2096921,2096921,305951,446486
2096921,2096921,306175,446557
2096921,2096921,306286,446445
2096921,2096921,306065,446433
2096921,2096921,305896,446418
2096921,2096921,305862,446381
2096921,2096921,306173,446252
2096921,2096921,306165,446339
2096921,2096921,305753,446366
2096921,2096921,305565,446090
2096921,2096921,305431,445992
2096921,2096921,305632,446220
2096921,2096921,305854,446124
2096921,2096921,305715,445873
2096921,2096921,305714,446062
2096921,2096921,305610,445967
2096921,2096921,305723,446241
2096921,2096921,305833,446351
2096921,2096921,305649,446009
2096921,2096921,305576,446267
2096921,2096921,305502,446099
2096921,2096921,305700,446099
2096921,2096921,305582,446075
2096921,2096921,305714,446108
2096921,2096921,305819,446176
2096921,2096921,306020,446283
2096921,2096921,305988,446089
2096921,2096921,306046,446250
2096921,2096921,305922,446622
2096921,2096921,306115,446349
2096921,2096921,305838,446325
2096921,2096921,305974,445989
2096921,2096921,306095,446100
2096921,2096921,306063,446426
2096921,2096921,306145,446238
2096921,2096921,305953,446683
2096921,2096921,306145,446548
2096921,2096921,306010,446581
2096921,2096921,306382,446798
2096921,2096921,306476,446941
2096921,2096921,306317,447110
2096921,2096921,306203,446905
2096921,2096921,306364,446966
2096921,2096921,306878,447311
2096921,2096921,307083,447404
2096921,2096921,307086,447248
2096921,2096921,306942,447350
2096921,2096921,307035,447294
2096921,2096921,307255,447928
2096921,2096921,307087,447922
2096921,2096921,307181,448041
2096921,2096921,307455,448040
2096921,2096921,307206,447952
2096921,2096921,307440,447967
2096921,2096921,307530,448432
2096921,2096921,307715,448462
2096921,2096921,307856,448710
2096921,2096921,307843,448577
2096921,2096921,307792,448755
2096921,2096921,307869,448848
2096921,2096921,307728,448985
2096921,2096921,307647,448680
2096921,2096921,307902,448815
2096921,2096921,308005,448800
2096921,2096921,308037,449103
2096921,2096921,307981,449179
2096921,2096921,308377,449355
2096921,2096921,308242,449314
2096921,2096921,308212,449453
2096921,2096921,308630,449270
2096921,2096921,308245,449420
2096921,2096921,308260,449632
2096921,2096921,308331,449520
2096921,2096921,308618,449651
2096921,2096921,308447,450045
2096921,2096921,308737,449890
2096921,2096921,308677,450044
2096921,2096921,308828,449873
2096921,2096921,309027,450383
2096921,2096921,308906,450332
2096921,2096921,309263,450268
2096921,2096921,309201,450362
2096921,2096921,308981,450394
2096921,2096921,309152,450723
2096921,2096921,309657,450845
2096921,2096921,309380,450900
2096921,2096921,309327,450934
2096921,2096921,309485,451013
2096921,2096921,309621,451234
2096921,2096921,309822,450993
2096921,2096921,309616,450953
2096921,2096921,309808,451190
2096921,2096921,309437,451120
2096921,2096921,309750,451451
2096921,2096921,309626,451378
2096921,2096921,309762,451440
2096921,2096921,309959,451386
2096921,2096921,309837,451347
2096921,2096921,309967,451780
2096921,2096921,309954,451794
2096921,2096921,310069,451572
2096921,2096921,310085,451602
2096921,2096921,310264,451715
2096921,2096921,310491,452227
2096921,2096921,310257,452518
2096921,2096921,310472,452105
2096921,2096921,310386,452260
2096921,2096921,310455,452283
2096921,2096921,310436,452228
2096921,2096921,310977,452561
2096921,2096921,310492,452484
2096921,2096921,310521,452384
2096921,2096921,310569,452278
2096921,2096921,311026,452613
2096921,2096921,311047,453030
2096921,2096921,311062,453113
2096921,2096921,311017,453301
2096921,2096921,311131,453004
2096921,2096921,311085,452902
2096921,2096921,310910,452917
2096921,2096921,311246,453063
2096921,2096921,311071,453028
2096921,2096921,311142,452770
2096921,2096921,310881,453472
2096921,2096921,311464,453475
2096921,2096921,311277,453252
2096921,2096921,311391,453342
2096921,2096921,311485,453459
2096921,2096921,311780,453821
2096921,2096921,311572,453750
2096921,2096921,311279,453761
2096921,2096921,311418,453361
2096921,2096921,312015,453492
2096921,2096921,311852,453677
2096921,2096921,311885,453737
2096921,2096921,311848,453815
2096921,2096921,311742,453809
2096921,2096921,312007,454244
2096921,2096921,312235,454111
2096921,2096921,312170,454200
2096921,2096921,312114,454141
2096921,2096921,312010,454318
2096921,2096921,311987,453966
2096921,2096921,312273,454499
2096921,2096921,312402,454555
2096921,2096921,312528,454571
2096921,2096921,312348,454601
2096921,2096921,312463,454533
2096921,2096921,312255,454702
2096921,2096921,312312,454570
2096921,2096921,312297,454655
2096921,2096921,312634,454971
2096921,2096921,312629,455106
2096921,2096921,312538,454947
2096921,2096921,312630,455291
2096921,2096921,312677,455027
2096921,2096921,312677,454969
2096921,2096921,312627,455019
2096921,2096921,312503,455202
2096921,2096921,312548,455154
2096921,2096921,312733,455135
2096921,2096921,312671,455026
2096921,2096921,313009,455265
2096921,2096921,313007,455358
2096921,2096921,313086,455133
2096921,2096921,313006,455347
2096921,2096921,313169,455349
2096921,2096921,313065,455586
2096921,2096921,313016,455630
2096921,2096921,312907,455462
2096921,2096921,312872,455580
2096921,2096921,312900,455384
2096921,2096921,313021,455797
2096921,2096921,313090,455986
2096921,2096921,313138,455656
2096921,2096921,313149,455974
2096921,2096921,313182,455642
2096921,2096921,313446,455768
2096921,2096921,313695,455851
2096921,2096921,313297,455729
2096921,2096921,313115,455780
2096921,2096921,313299,455453
2096921,2096921,313401,455866
2096921,2096921,313626,456364
2096921,2096921,313798,456086
2096921,2096921,313731,455921
2096921,2096921,313627,455797
2096921,2096921,313655,455946
2096921,2096921,313543,456162
2096921,2096921,313796,456171
2096921,2096921,313253,456188
2096921,2096921,313799,456036
2096921,2096921,313780,455868
2096921,2096921,313716,456013
2096921,2096921,313901,456044
2096921,2096921,313666,456192
2096921,2096921,313642,456214
2096921,2096921,313722,456311
2096921,2096921,313892,456314
2096921,2096921,313747,456390
2096921,2096921,313585,456295
2096921,2096921,313614,456172
2096921,2096921,313442,456338
2096921,2096921,313440,456429
2096921,2096921,313520,456421
2096921,2096921,313619,456575
2096921,2096921,313773,456656
2096921,2096921,313683,456573
2096921,2096921,313702,456975
2096921,2096921,313825,456389
2096921,2096921,313904,456781
2096921,2096921,313986,456563
2096921,2096921,313864,456731
2096921,2096921,314366,456892
2096921,2096921,314203,457073
2096921,2096921,314208,456653
2096921,2096921,314276,457009
2096921,2096921,313946,456939
2096921,2096921,313979,456887
2096921,2096921,314154,456759
2096921,2096921,314296,456912
2096921,2096921,314311,456836
2096921,2096921,314159,456671
2096921,2096921,314233,456885
2096921,2096921,314288,456926
2096921,2096921,314304,456926
2096921,2096921,314459,457290
2096921,2096921,314205,457187
2096921,2096921,314468,457277
2096921,2096921,314213,457143
2096921,2096921,314145,457065
2096921,2096921,314325,456699
2096921,2096921,314231,456887
2096921,2096921,314258,456955
2096921,2096921,314213,457217
2096921,2096921,314538,457306
2096921,2096921,314710,457173
2096921,2096921,314524,457324
2096921,2096921,314467,457370
2096921,2096921,314485,457074
2096921,2096921,314291,457005
2096921,2096921,314342,457346
2096921,2096921,314400,457195
2096921,2096921,314701,457096
2096921,2096921,314488,457260
2096921,2096921,314467,457531
2096921,2096921,314441,457357
2096921,2096921,314674,457506
2096921,2096921,314466,457433
2096921,2096921,314395,457292
2096921,2096921,314549,457446
2096921,2096921,314374,457400
2096921,2096921,314517,457650
2096921,2096921,314775,457506
2096921,2096921,314549,457374
2096921,2096921,314714,457505
2096921,2096921,314731,457443
2096921,2096921,314630,457706
2096921,2096921,314594,457395
2096921,2096921,314656,457193
2096921,2096921,314617,457330
2096921,2096921,314649,457526
2096921,2096921,314539,457530
2096921,2096921,314464,457183
2096921,2096921,314755,457257
2096921,2096921,314522,457641
2096921,2096921,314673,457260
2096921,2096921,314486,457307
2096921,2096921,314722,457656
2096921,2096921,314634,457408
2096921,2096921,314496,457396
2096921,2096921,314663,457532
2096921,2096921,314447,457419
2096921,2096921,314723,457316
2096921,2096921,314718,457470
2096921,2096921,314803,457602
2096921,2096921,314895,457575
2096921,2096921,314660,457621
2096921,2096921,314629,457382
2096921,2096921,314321,457480
2096921,2096921,314547,457545
2096921,2096921,314499,457157
2096921,2096921,314484,457575
2096921,2096921,314730,457710
2096921,2096921,314673,457866
2096921,2096921,314872,457544
2096921,2096921,314706,457368
2096921,2096921,314832,457748
2096921,2096921,314487,457795
2096921,2096921,314552,457447
2096921,2096921,314931,457519
2096921,2096921,314520,457445
2096921,2096921,314753,457537
2096921,2096921,314608,457639
2096921,2096921,314885,457328
2096921,2096921,314731,457572
2096921,2096921,314712,457707
2096921,2096921,314708,457537
2096921,2096921,314649,457653
2096921,2096921,314555,457443
2096921,2096921,314434,457105
2096921,2096921,314681,457181
2096921,2096921,314402,457130
2096921,2096921,314198,456972
2096921,2096921,313873,456941
2096921,2096921,314287,456978
2096921,2096921,314007,457096
2096921,2096921,313998,456928
2096921,2096921,313612,456602
2096921,2096921,313635,456204
2096921,2096921,313435,455958
2096921,2096921,313615,456076
2096921,2096921,313323,456118
2096921,2096921,313118,455153
2096921,2096921,313048,455211
2096921,2096921,313051,455257
2096921,2096921,313091,455422
2096921,2096921,312733,455222
2096921,2096921,312454,454533
2096921,2096921,311908,454090
2096921,2096921,312077,454163
2096921,2096921,312077,453719
2096921,2096921,311512,453934
2096921,2096921,310925,452909
2096921,2096921,310924,452744
2096921,2096921,310969,452616
2096921,2096921,311456,452853
2096921,2096921,310287,452579
2096921,2096921,308734,450115
2096921,2096921,308491,449573
2096921,2096921,308224,449584
2096921,2096921,308291,449591
2096921,2096921,307778,449324
2096921,2096921,305771,446338
2096921,2096921,305760,445649
2096921,2096921,305355,445720
2096921,2096921,305323,445618
2096921,2096921,304897,445681
2096921,2096921,303947,443698
2096921,2096921,303369,443168
2096921,2096921,302979,442927
2096921,2096921,303115,442903
2096921,2096921,302737,442986
2096921,2096921,301909,441084
2096921,2096921,301820,440915
2096921,2096921,301678,440744
2096921,2096921,301758,440561
2096921,2096921,301399,440877
2096921,2096921,300672,439740
2096921,2096921,300501,439286
2096921,2096921,300407,439319
2096921,2096921,300716,439340
2096921,2096921,300360,439176
2096921,2096921,299518,438255
2096921,2096921,299389,438099
2096921,2096921,299619,437903
2096921,2096921,299533,438080
2096921,2096921,299442,437896
2096921,2096921,298817,437409
2096921,2096921,298802,437425
2096921,2096921,298888,437253
2096921,2096921,298819,437132
2096921,2096921,299027,437424
2096921,2096921,298781,436992
2096921,2096921,298573,436893
2096921,2096921,298667,436766
2096921,2096921,298693,436786
2096921,2096921,298724,436789
2096921,2096921,298561,437057
2096921,2096921,298346,436596
2096921,2096921,298264,436544
2096921,2096921,298428,436502
2096921,2096921,298206,436510
2096921,2096921,298529,436405
2096921,2096921,298554,436735
2096921,2096921,298379,436852
2096921,2096921,298245,436891
2096921,2096921,298656,436880
2096921,2096921,298664,437147
2096921,2096921,298454,437286
2096921,2096921,298697,436936
2096921,2096921,298286,436832
2096921,2096921,298511,436667
2096921,2096921,298682,436891
2096921,2096921,298686,436792
2096921,2096921,298629,436843
2096921,2096921,298837,436888
2096921,2096921,298947,437223
2096921,2096921,299347,437398
2096921,2096921,298786,437267
2096921,2096921,298857,437530
2096921,2096921,299074,437258
2096921,2096921,298889,437450
2096921,2096921,299333,437721
2096921,2096921,299384,438048
2096921,2096921,299726,438090
2096921,2096921,299460,437733
2096921,2096921,299575,438182
2096921,2096921,299835,438582
2096921,2096921,299793,438668
2096921,2096921,299892,438574
2096921,2096921,299930,438650
2096921,2096921,299990,438586
2096921,2096921,300372,439048
2096921,2096921,300465,439280
2096921,2096921,300444,439166
2096921,2096921,300496,439062
2096921,2096921,300741,439214
2096921,2096921,300851,439674
2096921,2096921,300850,440120
2096921,2096921,301039,440017
2096921,2096921,301081,440024
2096921,2096921,300993,440287
2096921,2096921,301719,440536
2096921,2096921,301511,440508
2096921,2096921,301499,440366
2096921,2096921,301426,440462
2096921,2096921,301606,440722
2096921,2096921,301863,440961
2096921,2096921,301641,441122
2096921,2096921,301627,441163
2096921,2096921,301589,441055
2096921,2096921,302115,441415
2096921,2096921,302299,441549
2096921,2096921,302544,441870
2096921,2096921,302737,441812
2096921,2096921,302480,441867
2096921,2096921,302510,441557
2096921,2096921,302736,442269
2096921,2096921,302548,442153
2096921,2096921,302834,442245
2096921,2096921,302758,442202
2096921,2096921,302903,442347
2096921,2096921,303360,442961
2096921,2096921,303710,443198
2096921,2096921,303543,443312
2096921,2096921,303376,443247
2096921,2096921,303697,443236
2096921,2096921,304116,443655
2096921,2096921,304134,443702
2096921,2096921,304279,443649
2096921,2096921,303873,443700
2096921,2096921,304133,443323
2096921,2096921,304584,444275
2096921,2096921,304470,444486
2096921,2096921,304554,444386
2096921,2096921,304397,444530
2096921,2096921,304739,444666
2096921,2096921,304933,445192
2096921,2096921,305105,445009
2096921,2096921,305220,444952
2096921,2096921,305048,445150
2096921,2096921,305203,445161
2096921,2096921,305443,445587
2096921,2096921,305437,445470
2096921,2096921,305487,445305
2096921,2096921,305408,445730
2096921,2096921,305820,445696
2096921,2096921,305645,446083
2096921,2096921,305885,446220
2096921,2096921,305699,445896
2096921,2096921,305786,446274
2096921,2096921,305522,445933
2096921,2096921,305797,446189
2096921,2096921,305951,446529
2096921,2096921,306245,446604
2096921,2096921,306051,446740
2096921,2096921,306419,446603
2096921,2096921,306271,446870
2096921,2096921,306194,446823
2096921,2096921,306429,446784
2096921,2096921,306113,446830
2096921,2096921,306246,446920
2096921,2096921,306393,447017
2096921,2096921,306622,447196
2096921,2096921,306450,446981
2096921,2096921,306572,447049
2096921,2096921,306428,446952
2096921,2096921,306411,447150
2096921,2096921,306388,447030
2096921,2096921,306585,446810
2096921,2096921,306244,446973
2096921,2096921,306488,447170
2096921,2096921,306272,447030
2096921,2096921,306532,447059
2096921,2096921,306391,447074
2096921,2096921,306879,447118
2096921,2096921,306591,446979
2096921,2096921,306206,447056
2096921,2096921,306470,446998
2096921,2096921,306533,446963
2096921,2096921,306227,446784
2096921,2096921,306480,446731
2096921,2096921,306124,446645
2096921,2096921,306172,446444
2096921,2096921,306171,446582
2096921,2096921,306374,446254
2096921,2096921,306160,446431
2096921,2096921,306019,446720
2096921,2096921,305780,446227
2096921,2096921,305957,446180
2096921,2096921,305733,446535
2096921,2096921,305757,446378
2096921,2096921,306128,446025
2096921,2096921,305920,446023
2096921,2096921,305811,446344
2096921,2096921,305807,446324
2096921,2096921,305872,446247
2096921,2096921,305764,446032
2096921,2096921,305378,446076
2096921,2096921,305336,445802
2096921,2096921,305601,446150
2096921,2096921,305752,445914
2096921,2096921,305483,446022
2096921,2096921,305880,445720
2096921,2096921,305607,445852
2096921,2096921,305905,446123
2096921,2096921,305819,445947
2096921,2096921,305680,445884
2096921,2096921,305618,445958
2096921,2096921,305499,445694
2096921,2096921,305661,445764
2096921,2096921,305581,445892
2096921,2096921,305491,446044
2096921,2096921,305270,446201
2096921,2096921,305926,446102
2096921,2096921,305863,445972
2096921,2096921,305718,446041
2096921,2096921,305813,446573
2096921,2096921,305942,446379
2096921,2096921,305824,446555
2096921,2096921,305714,446143
2096921,2096921,305771,446303
2096921,2096921,305775,446350
2096921,2096921,305996,446452
2096921,2096921,306224,446571
2096921,2096921,305998,446720
2096921,2096921,306239,446392
2096921,2096921,306677,446572
2096921,2096921,306118,446871
2096921,2096921,306271,446794
2096921,2096921,306311,446768
2096921,2096921,306413,446664
2096921,2096921,306368,446947
2096921,2096921,306469,447226
2096921,2096921,306962,447183
2096921,2096921,307222,447384
2096921,2096921,306775,447630
2096921,2096921,307076,448020
2096921,2096921,307304,448033
2096921,2096921,307077,447925
2096921,2096921,307115,447806
2096921,2096921,307203,447887
2096921,2096921,307163,447876
2096921,2096921,307304,447822
2096921,2096921,307432,448010
2096921,2096921,307616,448152
2096921,2096921,307526,448308
2096921,2096921,307991,448791
2096921,2096921,307648,448953
2096921,2096921,307484,448575
2096921,2096921,307715,448867
2096921,2096921,307995,448456
2096921,2096921,308135,449088
2096921,2096921,308134,448974
2096921,2096921,308156,449059
2096921,2096921,308071,448903
2096921,2096921,308232,449224
2096921,2096921,308517,449440
2096921,2096921,308354,449469
2096921,2096921,308325,449485
2096921,2096921,308204,449127
2096921,2096921,308438,449292
2096921,2096921,308396,449507
2096921,2096921,308685,449964
2096921,2096921,308631,449754
2096921,2096921,308504,449654
2096921,2096921,308828,449745
2096921,2096921,308911,449974
2096921,2096921,309015,450300
2096921,2096921,308926,450137
2096921,2096921,309066,449994
2096921,2096921,309029,450428
2096921,2096921,309168,450492
2096921,2096921,309110,451102
2096921,2096921,309036,450682
2096921,2096921,309381,450787
2096921,2096921,309288,450439
2096921,2096921,309816,451284
2096921,2096921,309464,450965
2096921,2096921,309343,451007
2096921,2096921,309487,450861
2096921,2096921,309794,451146
2096921,2096921,309879,451402
2096921,2096921,310113,451428
2096921,2096921,309803,451409
2096921,2096921,310020,451409
2096921,2096921,309957,451181
2096921,2096921,310247,451436
2096921,2096921,310094,451802
2096921,2096921,309962,451722
2096921,2096921,309999,451709
2096921,2096921,310576,451772
2096921,2096921,310324,451939
2096921,2096921,310521,452048
2096921,2096921,310512,451990
2096921,2096921,310323,452096
2096921,2096921,310292,452198
2096921,2096921,310596,452361
2096921,2096921,310859,452316
2096921,2096921,310544,452336
2096921,2096921,310765,452314
2096921,2096921,310769,452405
2096921,2096921,310748,452811
2096921,2096921,310955,453004
2096921,2096921,310933,452907
2096921,2096921,310840,452833
2096921,2096921,311143,452964
2096921,2096921,311493,453143
2096921,2096921,311130,453145
2096921,2096921,311256,453072
2096921,2096921,311178,452822
2096921,2096921,311207,452994
2096921,2096921,311585,453357
2096921,2096921,311531,453113
2096921,2096921,311655,453115
2096921,2096921,311757,453555
2096921,2096921,311548,453254
2096921,2096921,311522,453640
2096921,2096921,311665,453681
2096921,2096921,311449,453532
2096921,2096921,311601,453226
2096921,2096921,311362,453357
2096921,2096921,311480,453512
2096921,2096921,311744,454189
2096921,2096921,311775,454121
2096921,2096921,311919,454108
2096921,2096921,312016,454019
2096921,2096921,312036,454344
2096921,2096921,312058,454180
2096921,2096921,311895,454345
2096921,2096921,312125,454067
2096921,2096921,311822,454203
2096921,2096921,312093,454442
2096921,2096921,312173,454602
2096921,2096921,312127,454468
2096921,2096921,312086,454393
2096921,2096921,312616,454355
2096921,2096921,312501,454657
2096921,2096921,312694,454758
2096921,2096921,312671,454642
2096921,2096921,312575,454411
2096921,2096921,312505,454527
2096921,2096921,312487,454804
2096921,2096921,312689,454906
2096921,2096921,312646,454847
2096921,2096921,312538,454669
2096921,2096921,312543,454840
2096921,2096921,312954,454839
2096921,2096921,312735,455075
2096921,2096921,312682,455372
2096921,2096921,312664,455342
2096921,2096921,312939,455444
2096921,2096921,312831,455649
2096921,2096921,312832,455302
2096921,2096921,312683,455354
2096921,2096921,312930,455416
2096921,2096921,313040,455318
2096921,2096921,313323,455426
2096921,2096921,312931,455304
2096921,2096921,313178,455254
2096921,2096921,312962,455280
2096921,2096921,313090,455403
2096921,2096921,313077,455407
2096921,2096921,313254,455449
2096921,2096921,313377,455542
2096921,2096921,313327,455581
2096921,2096921,313430,455405
2096921,2096921,313212,455868
2096921,2096921,313342,455946
2096921,2096921,313186,455632
2096921,2096921,313438,455684
2096921,2096921,313378,455679
2096921,2096921,313575,455900
2096921,2096921,313521,455769
2096921,2096921,313302,455825
2096921,2096921,313452,455919
2096921,2096921,313480,456033
2096921,2096921,313502,455681
2096921,2096921,313596,455860
2096921,2096921,313337,456167
2096921,2096921,313645,456140
2096921,2096921,313277,456161
2096921,2096921,313370,456087
2096921,2096921,313580,456093
2096921,2096921,313734,455894
2096921,2096921,313469,456354
2096921,2096921,313472,456133
2096921,2096921,313833,456408
2096921,2096921,313670,456333
2096921,2096921,313708,456331
2096921,2096921,313889,456484
2096921,2096921,313834,456458
2096921,2096921,314055,455980
2096921,2096921,313944,456365
2096921,2096921,314026,456333
2096921,2096921,314061,456217
2096921,2096921,313630,456499
2096921,2096921,313800,456542
2096921,2096921,313637,456226
2096921,2096921,313790,456631
2096921,2096921,313791,456471
2096921,2096921,313542,456491
2096921,2096921,313825,456680
2096921,2096921,313820,456624
2096921,2096921,313995,456702
2096921,2096921,314216,456799
2096921,2096921,313976,456545
2096921,2096921,314047,456927
2096921,2096921,313720,456879
2096921,2096921,313921,456317
2096921,2096921,314099,456855
2096921,2096921,314066,457017
2096921,2096921,313984,456838
2096921,2096921,314117,456723
2096921,2096921,314306,456835
2096921,2096921,314303,456769
2096921,2096921,314094,456928
2096921,2096921,314060,457148
2096921,2096921,314319,457126
2096921,2096921,314250,456997
2096921,2096921,314340,457206
2096921,2096921,314278,456902
2096921,2096921,314779,457085
2096921,2096921,314026,457039
2096921,2096921,314415,456952
2096921,2096921,314228,457126
2096921,2096921,314528,457288
2096921,2096921,314155,457235
2096921,2096921,314487,457285
2096921,2096921,314424,457178
2096921,2096921,314612,457115
2096921,2096921,314520,457275
2096921,2096921,314824,457668
2096921,2096921,314734,457284
2096921,2096921,314557,457224
2096921,2096921,314694,457413
2096921,2096921,314376,457460
2096921,2096921,314475,457532
2096921,2096921,314771,457345
2096921,2096921,314737,457388
2096921,2096921,314676,457164
2096921,2096921,314796,457228
2096921,2096921,314542,457257
2096921,2096921,314693,457497
2096921,2096921,314535,457448
2096921,2096921,314461,457460
2096921,2096921,314766,457182
2096921,2096921,314317,457379
2096921,2096921,314582,457517
2096921,2096921,314592,457596
2096921,2096921,314779,457699
2096921,2096921,314700,457665
2096921,2096921,314594,457402
2096921,2096921,314739,457641
2096921,2096921,314448,457604
2096921,2096921,314549,457472
2096921,2096921,314713,457448
2096921,2096921,314707,457532
2096921,2096921,314492,457518
2096921,2096921,314471,457725
2096921,2096921,314385,457440
2096921,2096921,314240,457708
2096921,2096921,314408,457627
2096921,2096921,314685,457678
2096921,2096921,314281,457611
2096921,2096921,314635,457535
2096921,2096921,314644,457718
2096921,2096921,314483,457635
2096921,2096921,314507,457839
2096921,2096921,314325,457467
2096921,2096921,314384,457163
2096921,2096921,314758,457306
2096921,2096921,314424,457783
2096921,2096921,314740,457831
2096921,2096921,314566,457614
2096921,2096921,314300,457330
2096921,2096921,314684,457414
2096921,2096921,314712,457613
2096921,2096921,314603,457477
2096921,2096921,314671,457719
2096921,2096921,314611,457471
2096921,2096921,314420,457386
2096921,2096921,314593,457597
2096921,2096921,314567,457379
2096921,2096921,314452,457224
2096921,2096921,314726,457488
2096921,2096921,314703,457562
2096921,2096921,314277,457555
2096921,2096921,314396,457298
2096921,2096921,314504,457503
2096921,2096921,314772,457169
2096921,2096921,314841,457271
2096921,2096921,314112,456786
2096921,2096921,313960,457051
2096921,2096921,314156,457072
2096921,2096921,314127,457071
2096921,2096921,313619,456752
2096921,2096921,313833,456493
2096921,2096921,313699,456349
2096921,2096921,313673,456191
2096921,2096921,313806,456057
2096921,2096921,313450,456376
2096921,2096921,313008,455500
2096921,2096921,313239,455330
2096921,2096921,312971,455483
2096921,2096921,312804,455065
2096921,2096921,312493,455278
2096921,2096921,311831,454444
2096921,2096921,311734,454177
2096921,2096921,311903,453972
2096921,2096921,311762,454043
2096921,2096921,311344,453848
2096921,2096921,310943,452876
2096921,2096921,311093,452947
2096921,2096921,310972,452840
2096921,2096921,310909,452552
2096921,2096921,309896,452742
2096921,2096921,308620,450288
2096921,2096921,308470,449626
2096921,2096921,308585,449623
2096921,2096921,308143,449781
2096921,2096921,307383,449423
2096921,2096921,305967,446991
2096921,2096921,305547,446193
2096921,2096921,305769,445922
2096921,2096921,305424,446000
2096921,2096921,304634,446017
2096921,2096921,303525,443537
2096921,2096921,303454,443459
2096921,2096921,303388,443120
2096921,2096921,303347,442967
2096921,2096921,302528,442936
2096921,2096921,301859,441326
2096921,2096921,301679,440942
2096921,2096921,301801,440941
2096921,2096921,301858,440875
2096921,2096921,301402,440748
2096921,2096921,300587,439439
2096921,2096921,300429,439569
2096921,2096921,300159,439219
2096921,2096921,300440,439302
2096921,2096921,299833,439106
2096921,2096921,299620,438252
2096921,2096921,299649,438119
2096921,2096921,299560,437965
2096921,2096921,299366,438137
2096921,2096921,299408,438041
2096921,2096921,299055,437552
2096921,2096921,298895,437453
2096921,2096921,299171,437059
2096921,2096921,298847,437177
2096921,2096921,298834,437014
2096921,2096921,298846,436684
2096921,2096921,298810,436765
2096921,2096921,298637,436782
2096921,2096921,298362,436775
2096921,2096921,298218,436896
2096921,2096921,298453,436596
2096921,2096921,298107,436462
2096921,2096921,298380,436343
2096921,2096921,298311,436623
2096921,2096921,298549,436626
2096921,2096921,298509,436804
2096921,2096921,298867,436490
2096921,2096921,298613,436754
2096921,2096921,298467,436624
2096921,2096921,298509,436225
2096921,2096921,298665,436556
2096921,2096921,298314,436669
2096921,2096921,298791,436678
2096921,2096921,298701,436504
2096921,2096921,298596,437027
2096921,2096921,298504,437048
2096921,2096921,298641,436819
2096921,2096921,298833,437323
2096921,2096921,298897,437146
2096921,2096921,298845,437580
2096921,2096921,298747,437598
2096921,2096921,298816,437098
2096921,2096921,298764,437409
2096921,2096921,298710,437273
2096921,2096921,299063,437296
2096921,2096921,299055,437847
2096921,2096921,299468,437808
2096921,2096921,299585,437995
2096921,2096921,299429,437847
2096921,2096921,299391,437858
2096921,2096921,299685,438511
2096921,2096921,299685,438655
2096921,2096921,299680,438445
2096921,2096921,299891,438609
2096921,2096921,299781,438923
2096921,2096921,300279,438912
2096921,2096921,300375,439010
2096921,2096921,300497,439180
2096921,2096921,300460,439184
2096921,2096921,300823,439182
2096921,2096921,300738,439700
2096921,2096921,301286,439730
2096921,2096921,301053,439863
2096921,2096921,300899,439896
2096921,2096921,301068,439779
2096921,2096921,301219,440208
2096921,2096921,301456,440373
2096921,2096921,301368,440768
2096921,2096921,301481,440707
2096921,2096921,301622,440745
2096921,2096921,302024,441069
2096921,2096921,301512,440953
2096921,2096921,301778,441178
2096921,2096921,301928,441295
2096921,2096921,301929,441010
2096921,2096921,302250,441876
2096921,2096921,302715,441837
2096921,2096921,302511,441933
2096921,2096921,302870,441962
2096921,2096921,302863,441588
2096921,2096921,303089,442066
2096921,2096921,302701,442161
2096921,2096921,302846,442572
2096921,2096921,302834,442370
2096921,2096921,303042,442133
2096921,2096921,303151,442847
2096921,2096921,303614,443092
2096921,2096921,303511,443397
2096921,2096921,303869,443107
2096921,2096921,303995,443213
2096921,2096921,304175,443688
2096921,2096921,304054,443755
2096921,2096921,303831,443452
2096921,2096921,303782,443819
2096921,2096921,303845,443827
2096921,2096921,304109,444375
2096921,2096921,304383,444491
2096921,2096921,304673,444400
2096921,2096921,304779,444703
2096921,2096921,304797,445041
2096921,2096921,304970,445356
2096921,2096921,305173,445240
2096921,2096921,304927,445118
2096921,2096921,305228,444771
2096921,2096921,304899,445140
2096921,2096921,305586,445759
2096921,2096921,305782,445904
2096921,2096921,305688,445918
2096921,2096921,305502,445818
2096921,2096921,305648,445935
2096921,2096921,305770,446347
2096921,2096921,305835,446209
2096921,2096921,305538,446355
2096921,2096921,305743,446270
2096921,2096921,305787,446204
2096921,2096921,306067,446718
2096921,2096921,306038,446942
2096921,2096921,306149,446706
2096921,2096921,306350,446688
2096921,2096921,306402,446344
2096921,2096921,306382,446736
2096921,2096921,306156,446710
2096921,2096921,306367,446816
2096921,2096921,306361,447107
2096921,2096921,306421,447204
2096921,2096921,306540,446927
2096921,2096921,306559,447123
2096921,2096921,306384,447035
2096921,2096921,306559,447064
2096921,2096921,306627,447146
2096921,2096921,306433,447122
2096921,2096921,306312,447179
2096921,2096921,306535,446820
2096921,2096921,306255,446752
2096921,2096921,306479,446866
2096921,2096921,306099,446989
2096921,2096921,306773,447072
2096921,2096921,306691,447250
2096921,2096921,306789,447158
2096921,2096921,306357,447188
2096921,2096921,306195,446965
2096921,2096921,306473,447039
2096921,2096921,306250,446675
2096921,2096921,306205,446866
2096921,2096921,306040,446658
2096921,2096921,306033,446517
2096921,2096921,305962,446493
2096921,2096921,306073,446704
2096921,2096921,306342,446765
2096921,2096921,306220,446664
2096921,2096921,306143,446461
2096921,2096921,306282,446653
2096921,2096921,306209,446496
2096921,2096921,306211,446707
2096921,2096921,305779,446438
2096921,2096921,306023,446330
2096921,2096921,305863,446549
2096921,2096921,305750,446245
2096921,2096921,305872,446083
2096921,2096921,306018,446290
2096921,2096921,305659,446141
2096921,2096921,305770,445883
2096921,2096921,305954,445715
2096921,2096921,305727,446188
2096921,2096921,305796,446167
2096921,2096921,306029,446330
2096921,2096921,306091,446142
2096921,2096921,305767,446291
2096921,2096921,305644,446004
2096921,2096921,305474,446236
2096921,2096921,305539,445864
2096921,2096921,305922,445793
2096921,2096921,305632,445985
2096921,2096921,305692,446145
2096921,2096921,305918,445985
2096921,2096921,305699,446261
2096921,2096921,305839,446333
2096921,2096921,305633,446290
2096921,2096921,305879,446246
2096921,2096921,305770,446049
2096921,2096921,305826,446111
2096921,2096921,305892,446085
2096921,2096921,305735,446298
2096921,2096921,305706,446164
2096921,2096921,305801,446061
2096921,2096921,305910,446368
2096921,2096921,305941,446548
2096921,2096921,306025,446290
2096921,2096921,306204,446511
2096921,2096921,306324,446616
2096921,2096921,306841,447269
2096921,2096921,306274,447101
2096921,2096921,306409,447015
2096921,2096921,306405,446912
2096921,2096921,306165,446662
2096921,2096921,306454,447362
2096921,2096921,306739,447712
2096921,2096921,306882,447534
2096921,2096921,306753,447337
2096921,2096921,306935,447590
2096921,2096921,307126,447842
2096921,2096921,306910,447941
2096921,2096921,307039,447686
2096921,2096921,307266,447915
2096921,2096921,307227,448003
2096921,2096921,307639,448193
2096921,2096921,307286,448223
2096921,2096921,307613,448439
2096921,2096921,307392,448451
2096921,2096921,307735,448673
2096921,2096921,307722,448834
2096921,2096921,307933,448595
2096921,2096921,307648,448917
2096921,2096921,307811,448643
2096921,2096921,307930,448881
2096921,2096921,308408,449182
2096921,2096921,308354,449289
2096921,2096921,308293,449112
2096921,2096921,308340,449269
2096921,2096921,308584,449285
2096921,2096921,308556,449677
2096921,2096921,308477,449566
2096921,2096921,308639,449330
2096921,2096921,308499,449644
2096921,2096921,308712,449726
2096921,2096921,308738,449975
2096921,2096921,308713,450142
2096921,2096921,308771,449973
2096921,2096921,308707,449938
2096921,2096921,308958,449836
2096921,2096921,309304,450212
2096921,2096921,309156,450042
2096921,2096921,309140,450384
2096921,2096921,309045,450324
2096921,2096921,309106,450384
2096921,2096921,309184,450566
2096921,2096921,309453,450728
2096921,2096921,309305,450683
2096921,2096921,309533,450634
2096921,2096921,309386,450701
2096921,2096921,309910,451056
2096921,2096921,309673,451308
2096921,2096921,309913,450888
2096921,2096921,309568,450963
2096921,2096921,309930,450946
2096921,2096921,309869,451125
2096921,2096921,309907,451440
2096921,2096921,309959,451563
2096921,2096921,309965,451392
2096921,2096921,310079,451314
2096921,2096921,310429,451871
2096921,2096921,310019,451978
2096921,2096921,310309,452200
2096921,2096921,310294,452015
2096921,2096921,310466,451601
2096921,2096921,310479,452296
2096921,2096921,310448,452127
2096921,2096921,310588,452208
2096921,2096921,310510,452258
2096921,2096921,310520,452219
2096921,2096921,310749,452222
2096921,2096921,310691,452386
2096921,2096921,310559,452234
2096921,2096921,310825,452421
2096921,2096921,310979,452321
2096921,2096921,311055,452647
2096921,2096921,311103,452691
2096921,2096921,310881,452683
2096921,2096921,310938,452807
2096921,2096921,311361,452945
2096921,2096921,311053,452822
2096921,2096921,311084,453080
2096921,2096921,310940,453191
2096921,2096921,311004,453275
2096921,2096921,311475,453313
2096921,2096921,311405,453726
2096921,2096921,311565,453617
2096921,2096921,311302,453521
2096921,2096921,311586,453564
2096921,2096921,311561,453403
2096921,2096921,311800,453730
2096921,2096921,311573,453693
2096921,2096921,311506,453562
2096921,2096921,311729,453658
2096921,2096921,311436,453513
2096921,2096921,311827,453682
2096921,2096921,311398,454107
2096921,2096921,312058,453940
2096921,2096921,312183,454178
2096921,2096921,311924,454178
2096921,2096921,312062,454138
2096921,2096921,311948,454158
2096921,2096921,311951,454136
2096921,2096921,312134,454097
2096921,2096921,312138,454281
2096921,2096921,312253,454276
2096921,2096921,312349,454573
2096921,2096921,312301,454622
2096921,2096921,312450,454778
2096921,2096921,312185,454490
2096921,2096921,312377,454772
2096921,2096921,312317,454733
2096921,2096921,312258,455040
2096921,2096921,312394,455003
2096921,2096921,312517,454604
2096921,2096921,312819,454860
2096921,2096921,312622,454862
2096921,2096921,312620,454808
2096921,2096921,312666,454997
2096921,2096921,312828,454955
2096921,2096921,312791,455172
2096921,2096921,312563,455247
2096921,2096921,312710,455042
2096921,2096921,312660,455133
2096921,2096921,312434,455067
2096921,2096921,313022,455181
2096921,2096921,312999,455385
2096921,2096921,313380,455519
2096921,2096921,313037,455625
2096921,2096921,313240,455372
2096921,2096921,312932,455674
2096921,2096921,313240,455205
2096921,2096921,313043,455309
2096921,2096921,313262,455512
2096921,2096921,312995,455369
2096921,2096921,313404,455650
2096921,2096921,313295,456027
2096921,2096921,312962,455646
2096921,2096921,313034,455607
2096921,2096921,313256,455870
2096921,2096921,313347,456132
2096921,2096921,313137,456104
2096921,2096921,313135,455838
2096921,2096921,313438,455793
2096921,2096921,313400,456033
2096921,2096921,313443,455630
2096921,2096921,313421,455903
2096921,2096921,313329,455923
2096921,2096921,313493,456031
2096921,2096921,313175,456223
2096921,2096921,313551,456111
2096921,2096921,313514,456238
2096921,2096921,313520,456110
2096921,2096921,313423,456148
2096921,2096921,313669,456064
2096921,2096921,313550,456065
2096921,2096921,313534,456145
2096921,2096921,313673,456374
2096921,2096921,314086,456393
2096921,2096921,313720,456542
2096921,2096921,313953,456435
2096921,2096921,313839,456357
2096921,2096921,313764,456274
2096921,2096921,313756,456427
2096921,2096921,313729,456640
2096921,2096921,313615,456471
2096921,2096921,313776,456620
2096921,2096921,313664,456616
2096921,2096921,313946,456537
2096921,2096921,314058,456699
2096921,2096921,313961,456694
2096921,2096921,313985,456790
2096921,2096921,314062,456599
2096921,2096921,314003,456624
2096921,2096921,313962,456396
2096921,2096921,314044,456493
2096921,2096921,313994,456612
2096921,2096921,313824,456575
2096921,2096921,314022,456690
2096921,2096921,314094,456670
2096921,2096921,314192,456666
2096921,2096921,314092,456717
2096921,2096921,314025,456893
2096921,2096921,314190,457029
2096921,2096921,313935,456766
2096921,2096921,314095,456846
2096921,2096921,314190,457100
2096921,2096921,314238,457136
2096921,2096921,314326,457025
2096921,2096921,314329,457141
2096921,2096921,314308,457186
2096921,2096921,314294,457024
2096921,2096921,314107,456961
2096921,2096921,314120,456742
2096921,2096921,314163,456888
2096921,2096921,314552,457040
2096921,2096921,314473,457415
2096921,2096921,314550,457610
2096921,2096921,314624,457356
2096921,2096921,314471,457268
2096921,2096921,314598,457231
2096921,2096921,314468,457267
2096921,2096921,314337,457131
2096921,2096921,314541,457179
2096921,2096921,314620,457229
2096921,2096921,314283,457527
2096921,2096921,314601,457519
2096921,2096921,314557,457202
2096921,2096921,314842,457565
2096921,2096921,314558,457506
2096921,2096921,314732,457560
2096921,2096921,314560,457302
2096921,2096921,314480,457506
2096921,2096921,314423,457409
2096921,2096921,314956,457293
2096921,2096921,314595,457504
2096921,2096921,314606,457594
2096921,2096921,314462,457431
2096921,2096921,314572,457521
2096921,2096921,314535,458099
2096921,2096921,314417,457710
2096921,2096921,314476,457528
2096921,2096921,314444,457302
2096921,2096921,314531,457223
2096921,2096921,314435,457142
2096921,2096921,314734,457232
2096921,2096921,314796,457270
2096921,2096921,314693,457523
2096921,2096921,314814,457395
2096921,2096921,314571,457341
2096921,2096921,314462,457469
2096921,2096921,314673,457426
2096921,2096921,314272,457428
2096921,2096921,314504,457358
2096921,2096921,314493,457642
2096921,2096921,314588,457497
2096921,2096921,314479,457549
2096921,2096921,314903,457510
2096921,2096921,314877,457404
2096921,2096921,314698,457678
2096921,2096921,314739,457725
2096921,2096921,314509,457629
2096921,2096921,314520,457524
2096921,2096921,314588,457505
2096921,2096921,314565,457275
2096921,2096921,314518,457594
2096921,2096921,314589,457625
2096921,2096921,314744,457682
2096921,2096921,314536,457526
2096921,2096921,314553,457626
2096921,2096921,314557,457510
2096921,2096921,314709,457314
2096921,2096921,314758,457483
2096921,2096921,314659,457635
2096921,2096921,314550,457743
2096921,2096921,314484,457640
2096921,2096921,314630,457800
2096921,2096921,314784,457694
2096921,2096921,314622,457640
2096921,2096921,314886,457852
2096921,2096921,314549,457757
2096921,2096921,314638,457475
2096921,2096921,314651,457612
2096921,2096921,314370,457625
2096921,2096921,314386,457377
2096921,2096921,314251,456649
2096921,2096921,313932,456999
2096921,2096921,314161,456850
2096921,2096921,313938,456703
2096921,2096921,313930,456909
2096921,2096921,313680,456449
2096921,2096921,313450,456321
2096921,2096921,313702,456279
2096921,2096921,313765,456446
2096921,2096921,313515,456281
2096921,2096921,312963,455507
2096921,2096921,312956,455494
2096921,2096921,313240,455511
2096921,2096921,313045,455478
2096921,2096921,312613,455359
2096921,2096921,312343,454096
2096921,2096921,311987,454245
2096921,2096921,311786,454252
2096921,2096921,311562,454080
2096921,2096921,311623,454128
2096921,2096921,311225,453122
2096921,2096921,310968,452755
2096921,2096921,311192,452865
2096921,2096921,310740,452950
2096921,2096921,310039,452742
2096921,2096921,308911,450133
2096921,2096921,308490,449833
2096921,2096921,308332,449729
2096921,2096921,308451,449566
2096921,2096921,307293,449624
2096921,2096921,305870,446551
2096921,2096921,305563,446007
2096921,2096921,305523,445860
2096921,2096921,305532,445789
2096921,2096921,304924,445804
2096921,2096921,303591,443451
2096921,2096921,303447,443266
2096921,2096921,303067,442926
2096921,2096921,303466,442955
2096921,2096921,302660,442979
2096921,2096921,301530,441273
2096921,2096921,301619,440886
2096921,2096921,301790,440922
2096921,2096921,301787,440910
2096921,2096921,301191,440974
2096921,2096921,300707,439745
2096921,2096921,300530,439285
2096921,2096921,300397,439516
2096921,2096921,300603,439193
2096921,2096921,300033,439442
2096921,2096921,299542,438593
2096921,2096921,299382,437964
2096921,2096921,299468,438173
2096921,2096921,299665,437945
2096921,2096921,299498,437796
2096921,2096921,299162,437487
2096921,2096921,298866,437368
2096921,2096921,298743,437355
2096921,2096921,298834,437291
2096921,2096921,298789,437426
2096921,2096921,298117,436777
2096921,2096921,298286,436883
2096921,2096921,298462,436724
2096921,2096921,298731,436978
2096921,2096921,298607,437211
2096921,2096921,298447,436925
2096921,2096921,298093,436556
2096921,2096921,298257,436690
2096921,2096921,298160,436458
2096921,2096921,298074,436551
2096921,2096921,298283,436837
2096921,2096921,298361,436567
2096921,2096921,298569,436905
2096921,2096921,298317,436737
2096921,2096921,298318,436811
2096921,2096921,298499,436745
2096921,2096921,298804,437036
2096921,2096921,298449,436866
2096921,2096921,298582,437024
2096921,2096921,298663,436763
2096921,2096921,298493,436938
2096921,2096921,299060,437350
2096921,2096921,298884,437211
2096921,2096921,298825,437194
2096921,2096921,298962,437406
2096921,2096921,298793,437456
2096921,2096921,298938,437421
2096921,2096921,298773,437477
2096921,2096921,298758,437182
2096921,2096921,299056,437267
2096921,2096921,299284,437605
2096921,2096921,299714,437949
2096921,2096921,299520,438130
2096921,2096921,299511,438032
2096921,2096921,299513,438442
2096921,2096921,299756,438747
2096921,2096921,299842,438708
2096921,2096921,299851,438831
2096921,2096921,299744,438519
2096921,2096921,299943,438353
2096921,2096921,300560,438927
2096921,2096921,300524,439245
2096921,2096921,300526,439447
2096921,2096921,300451,439428
2096921,2096921,300772,439152
2096921,2096921,300679,439946
2096921,2096921,300760,440012
2096921,2096921,301010,439998
2096921,2096921,300892,439900
2096921,2096921,301380,439951
2096921,2096921,301236,440414
2096921,2096921,301346,440536
2096921,2096921,301281,440594
2096921,2096921,301642,440807
2096921,2096921,301785,440992
2096921,2096921,301940,441123
2096921,2096921,301881,441000
2096921,2096921,301635,441387
2096921,2096921,301550,441467
2096921,2096921,301880,441425
2096921,2096921,302249,441983
2096921,2096921,302428,441751
2096921,2096921,302330,441691
2096921,2096921,302518,441739
2096921,2096921,302976,441865
2096921,2096921,302876,442409
2096921,2096921,303041,442295
2096921,2096921,302957,442257
2096921,2096921,303101,442458
2096921,2096921,303246,442358
2096921,2096921,303690,442794
2096921,2096921,303590,442871
2096921,2096921,303499,443038
2096921,2096921,303430,443291
2096921,2096921,303799,443455
2096921,2096921,303907,444043
2096921,2096921,304076,444210
2096921,2096921,303940,444010
2096921,2096921,303854,443775
2096921,2096921,303968,443506
2096921,2096921,304377,444231
2096921,2096921,304483,444313
2096921,2096921,304469,444257
2096921,2096921,304652,444769
2096921,2096921,304704,444373
2096921,2096921,304931,445138
2096921,2096921,304948,445474
2096921,2096921,304901,445208
2096921,2096921,305084,445168
2096921,2096921,304948,445199
2096921,2096921,305164,445198
2096921,2096921,305241,445700
2096921,2096921,305183,445608
2096921,2096921,305526,445338
2096921,2096921,305637,445651
2096921,2096921,305744,445890
2096921,2096921,305738,446190
2096921,2096921,305909,446312
2096921,2096921,305699,446155
2096921,2096921,305706,446377
2096921,2096921,306016,446522
2096921,2096921,306071,446482
2096921,2096921,306276,446519
2096921,2096921,306216,446385
2096921,2096921,306077,446599
2096921,2096921,306261,446886
2096921,2096921,306240,446673
2096921,2096921,306378,446693
2096921,2096921,306146,446694
2096921,2096921,306327,446836
2096921,2096921,306442,447045
2096921,2096921,306609,447004
2096921,2096921,306682,447085
2096921,2096921,306667,447259
2096921,2096921,306454,447142
2096921,2096921,306501,447052
2096921,2096921,306562,447066
2096921,2096921,306624,447094
2096921,2096921,306530,447058
2096921,2096921,306518,447040
2096921,2096921,306630,447112
2096921,2096921,306462,446964
2096921,2096921,306623,447005
2096921,2096921,306730,447015
2096921,2096921,306786,447109
2096921,2096921,306482,447191
2096921,2096921,306071,447199
2096921,2096921,306265,446808
2096921,2096921,306143,446897
2096921,2096921,306084,446672
2096921,2096921,306030,446398
2096921,2096921,305961,446483
2096921,2096921,306127,446669
2096921,2096921,306278,446709
2096921,2096921,306383,446532
2096921,2096921,306099,446189
2096921,2096921,305824,446100
2096921,2096921,305905,446105
2096921,2096921,305892,446425
2096921,2096921,305805,446278
2096921,2096921,305882,446296
2096921,2096921,305772,446526
2096921,2096921,305818,446391
2096921,2096921,306038,446244
2096921,2096921,305839,446146
2096921,2096921,305444,446191
2096921,2096921,305561,446120
2096921,2096921,305974,446386
2096921,2096921,305681,446197
2096921,2096921,305550,445970
2096921,2096921,305594,445730
2096921,2096921,305495,445951
2096921,2096921,305853,445945
2096921,2096921,306022,446084
2096921,2096921,305876,446011
2096921,2096921,306029,446001
2096921,2096921,305611,445989
2096921,2096921,305820,445875
2096921,2096921,305815,446236
2096921,2096921,305881,446221
2096921,2096921,305587,446061
2096921,2096921,305790,446031
2096921,2096921,305700,446199
2096921,2096921,305812,446131
2096921,2096921,305471,446286
2096921,2096921,305685,446376
2096921,2096921,305731,446243
2096921,2096921,305949,446201
2096921,2096921,305927,446390
2096921,2096921,306093,446147
2096921,2096921,306140,446475
2096921,2096921,305967,446398
2096921,2096921,306290,446701
2096921,2096921,305988,446586
2096921,2096921,306291,446512
2096921,2096921,306402,446861
2096921,2096921,306602,446992
2096921,2096921,306220,446643
2096921,2096921,306244,446717
2096921,2096921,306392,446428
2096921,2096921,306660,447417
2096921,2096921,306898,447448
2096921,2096921,306899,447652
2096921,2096921,307259,447462
2096921,2096921,307152,447536
2096921,2096921,307343,448080
2096921,2096921,307375,448023
2096921,2096921,307087,448150
2096921,2096921,307276,447942
2096921,2096921,307262,447681
2096921,2096921,307338,448241
2096921,2096921,307504,448258
2096921,2096921,307593,448579
2096921,2096921,307528,448562
2096921,2096921,307552,448653
2096921,2096921,307824,448819
2096921,2096921,307895,449022
2096921,2096921,307811,448719
2096921,2096921,307730,448667
2096921,2096921,308373,448909
2096921,2096921,308167,449079
2096921,2096921,307914,448922
2096921,2096921,307718,448829
2096921,2096921,307964,449428
2096921,2096921,308138,449106
2096921,2096921,308249,449430
2096921,2096921,308363,449333
2096921,2096921,308337,449439
2096921,2096921,308258,449351
2096921,2096921,308259,449701
2096921,2096921,308843,449905
2096921,2096921,308942,449883
2096921,2096921,308590,450174
2096921,2096921,308777,449835
2096921,2096921,308979,449962
2096921,2096921,308747,450045
2096921,2096921,308784,450316
2096921,2096921,308892,450401
2096921,2096921,308678,450126
2096921,2096921,309170,449832
2096921,2096921,309158,450463
2096921,2096921,309401,450577
2096921,2096921,309121,450702
2096921,2096921,309361,450823
2096921,2096921,309592,450876
2096921,2096921,309494,451172
2096921,2096921,309400,451053
2096921,2096921,309452,450848
2096921,2096921,309327,450921
2096921,2096921,309626,451050
2096921,2096921,309656,451128
2096921,2096921,309831,451122
2096921,2096921,310054,451314
2096921,2096921,309980,451220
2096921,2096921,310281,451429
2096921,2096921,310343,451567
2096921,2096921,310121,451761
2096921,2096921,310159,451640
2096921,2096921,310160,452228
2096921,2096921,310344,451601
2096921,2096921,310306,451832
2096921,2096921,310437,452178
2096921,2096921,310522,452075
2096921,2096921,310447,451964
2096921,2096921,310763,452248
2096921,2096921,310819,452495
2096921,2096921,310648,452602
2096921,2096921,310354,452293
2096921,2096921,310657,452375
2096921,2096921,310568,452426
2096921,2096921,310912,452686
2096921,2096921,311105,452668
2096921,2096921,311059,452477
2096921,2096921,310976,452488
2096921,2096921,311095,452727
2096921,2096921,311242,452865
2096921,2096921,311213,452946
2096921,2096921,311098,453167
2096921,2096921,311279,453287
2096921,2096921,311314,453163
2096921,2096921,311316,453214
2096921,2096921,311499,453316
2096921,2096921,311667,453507
2096921,2096921,311378,453563
2096921,2096921,311415,453525
2096921,2096921,311470,453731
2096921,2096921,311331,453533
2096921,2096921,311239,453538
2096921,2096921,311397,453564
2096921,2096921,311672,453645
2096921,2096921,311663,453552
2096921,2096921,311829,453987
2096921,2096921,311796,453994
2096921,2096921,311460,453875
2096921,2096921,311666,453984
2096921,2096921,311658,454016
2096921,2096921,312039,453872
2096921,2096921,312008,454160
2096921,2096921,311959,454060
2096921,2096921,312016,453850
2096921,2096921,312130,454143
2096921,2096921,312139,454445
2096921,2096921,312164,454389
2096921,2096921,312376,454385
2096921,2096921,312411,454523
2096921,2096921,312399,454457
2096921,2096921,312605,454420
2096921,2096921,312423,454669
2096921,2096921,312320,454627
2096921,2096921,312351,454532
2096921,2096921,312477,454586
2096921,2096921,312773,454844
2096921,2096921,312400,455111
2096921,2096921,312679,454966
2096921,2096921,312545,454939
2096921,2096921,312602,455037
2096921,2096921,312937,454934
2096921,2096921,312675,454901
2096921,2096921,312732,455183
2096921,2096921,312463,455013
2096921,2096921,312790,455149
2096921,2096921,312875,455180
2096921,2096921,312718,455173
2096921,2096921,312892,455266
2096921,2096921,313000,455197
2096921,2096921,313019,455296
2096921,2096921,313221,455153
2096921,2096921,313344,455228
2096921,2096921,313015,455172
2096921,2096921,313124,455500
2096921,2096921,313218,455685
2096921,2096921,313157,455691
2096921,2096921,313534,455692
2096921,2096921,313288,455998
2096921,2096921,313169,455625
2096921,2096921,313366,455718
2096921,2096921,312893,455572
2096921,2096921,313144,455744
2096921,2096921,313244,455801
2096921,2096921,313288,455791
2096921,2096921,313445,455563
2096921,2096921,313660,455797
2096921,2096921,313469,455769
2096921,2096921,313565,456039
2096921,2096921,313442,455882
2096921,2096921,313442,456020
2096921,2096921,313512,456038
2096921,2096921,313439,456074
2096921,2096921,313331,456051
2096921,2096921,313636,456123
2096921,2096921,313869,456347
2096921,2096921,313655,456190
2096921,2096921,313724,456120
2096921,2096921,313857,456293
2096921,2096921,313788,456297
2096921,2096921,313961,456298
2096921,2096921,313883,456418
2096921,2096921,313848,456527
2096921,2096921,313679,456365
2096921,2096921,313549,456241
2096921,2096921,313834,456332
2096921,2096921,313816,456560
2096921,2096921,313911,456408
2096921,2096921,313647,456117
2096921,2096921,313719,456652
2096921,2096921,313901,456536
2096921,2096921,313837,456867
2096921,2096921,313736,456356
2096921,2096921,313932,456463
2096921,2096921,313825,456696
2096921,2096921,313878,456843
2096921,2096921,313909,456678
2096921,2096921,314050,456760
2096921,2096921,314128,456887
2096921,2096921,314157,456875
2096921,2096921,314403,456709
2096921,2096921,313979,456678
2096921,2096921,313988,456701
2096921,2096921,314137,456714
2096921,2096921,314150,456578
2096921,2096921,314080,456980
2096921,2096921,314253,456939
2096921,2096921,314357,457075
2096921,2096921,314471,457429
2096921,2096921,314322,456842
2096921,2096921,314388,456933
2096921,2096921,314226,457021
2096921,2096921,314367,457136
2096921,2096921,314029,457074
2096921,2096921,314171,457243
2096921,2096921,314365,457278
2096921,2096921,314326,457219
2096921,2096921,314022,457189
2096921,2096921,314213,457110
2096921,2096921,314410,457195
2096921,2096921,314302,457134
2096921,2096921,314268,456974
2096921,2096921,314654,457195
2096921,2096921,314291,457217
2096921,2096921,314089,457051
2096921,2096921,314364,457056
2096921,2096921,314441,457452
2096921,2096921,314378,457400
2096921,2096921,314596,457437
2096921,2096921,314496,457426
2096921,2096921,314516,457543
2096921,2096921,314528,457328
2096921,2096921,314516,457293
2096921,2096921,314421,457054
2096921,2096921,314519,457756
2096921,2096921,314548,457396
2096921,2096921,314509,457243
2096921,2096921,314347,457799
2096921,2096921,314888,457629
2096921,2096921,314866,457707
2096921,2096921,314661,457415
2096921,2096921,314482,457363
2096921,2096921,314784,457453
2096921,2096921,314806,457416
2096921,2096921,314731,457302
2096921,2096921,314538,457620
2096921,2096921,314575,457370
2096921,2096921,314647,457585
2096921,2096921,314513,457747
2096921,2096921,314521,457488
2096921,2096921,314412,457544
2096921,2096921,314661,457525
2096921,2096921,314581,457316
2096921,2096921,314584,457355
2096921,2096921,314729,457361
2096921,2096921,314680,457344
2096921,2096921,314549,457454
2096921,2096921,314553,457477
2096921,2096921,314423,457766
2096921,2096921,314435,457430
2096921,2096921,314402,457491
2096921,2096921,314452,457347
2096921,2096921,314365,457671
2096921,2096921,314354,457421
2096921,2096921,314734,457568
2096921,2096921,315018,457408
2096921,2096921,314611,457643
2096921,2096921,314532,457299
2096921,2096921,314652,457483
2096921,2096921,314557,457804
2096921,2096921,314654,457697
2096921,2096921,314646,457674
2096921,2096921,314639,457267
2096921,2096921,314583,457330
2096921,2096921,314601,457625
2096921,2096921,314854,457324
2096921,2096921,315116,457280
2096921,2096921,315066,457286
2096921,2096921,314711,457303
2096921,2096921,314916,457344
2096921,2096921,314587,457150
2096921,2096921,314626,457295
2096921,2096921,314586,457344
2096921,2096921,314618,457327
2096921,2096921,314321,457253
2096921,2096921,314147,456886
2096921,2096921,313982,457090
2096921,2096921,314030,456984
2096921,2096921,314016,457201
2096921,2096921,313638,456987
2096921,2096921,313683,456349
2096921,2096921,313399,456396
2096921,2096921,313629,455965
2096921,2096921,313774,456223
2096921,2096921,313349,455914
2096921,2096921,312975,455445
2096921,2096921,312708,455194
2096921,2096921,312927,455251
2096921,2096921,312990,455207
2096921,2096921,312664,455280
2096921,2096921,312028,454248
2096921,2096921,312063,453883
2096921,2096921,311787,454001
2096921,2096921,311786,454046
2096921,2096921,311222,454094
2096921,2096921,311012,452845
2096921,2096921,310643,452472
2096921,2096921,311027,452812
2096921,2096921,310845,453109
2096921,2096921,309971,452808
2096921,2096921,308878,450115
2096921,2096921,308385,449552
2096921,2096921,308366,449450
2096921,2096921,308378,449483
2096921,2096921,307025,449585
2096921,2096921,305795,446667
2096921,2096921,305517,446220
2096921,2096921,305369,445976
2096921,2096921,305589,445796
2096921,2096921,304753,445855
2096921,2096921,303479,443858
2096921,2096921,303316,443198
2096921,2096921,303443,442930
2096921,2096921,303309,443056
2096921,2096921,302651,442989
2096921,2096921,301823,441163
2096921,2096921,301625,441191
2096921,2096921,301525,440608
2096921,2096921,301786,440667
2096921,2096921,301119,440795
2096921,2096921,300625,439373
2096921,2096921,300341,439260
2096921,2096921,300330,439188
2096921,2096921,300385,439472
2096921,2096921,300217,439165
2096921,2096921,299786,438389
2096921,2096921,299652,438255
2096921,2096921,299563,438365
2096921,2096921,299762,438180
2096921,2096921,299037,438105
2096921,2096921,299176,437432
2096921,2096921,298827,437476
2096921,2096921,298940,437153
2096921,2096921,299114,437136
2096921,2096921,298553,437425
2096921,2096921,298568,436996
2096921,2096921,298751,436973
2096921,2096921,298554,437198
2096921,2096921,298596,436939
2096921,2096921,298419,436984
2096921,2096921,298403,436668
2096921,2096921,298385,436576
2096921,2096921,298369,436516
2096921,2096921,298396,436881
2096921,2096921,298466,436647
2096921,2096921,298278,436345
2096921,2096921,298386,436634
2096921,2096921,298628,436866
2096921,2096921,298421,436470
2096921,2096921,298535,436775
2096921,2096921,298652,436820
2096921,2096921,298491,436961
2096921,2096921,298492,436957
2096921,2096921,298515,436957
2096921,2096921,298359,436942
2096921,2096921,298739,436968
2096921,2096921,298632,437168
2096921,2096921,298939,437160
2096921,2096921,298738,437090
2096921,2096921,299054,437238
2096921,2096921,298902,437195
2096921,2096921,298757,437471
2096921,2096921,298822,437525
2096921,2096921,298751,437105
2096921,2096921,298980,437556
2096921,2096921,299202,437810
2096921,2096921,299273,437774
2096921,2096921,299344,438021
2096921,2096921,299668,438114
2096921,2096921,299731,438216
2096921,2096921,300030,438821
2096921,2096921,299751,438632
2096921,2096921,299910,438536
2096921,2096921,299883,438396
2096921,2096921,300003,438399
2096921,2096921,300167,439015
2096921,2096921,300314,439143
2096921,2096921,300439,439267
2096921,2096921,300517,439131
2096921,2096921,300607,439345
2096921,2096921,300663,439773
2096921,2096921,300802,439970
2096921,2096921,300807,439797
2096921,2096921,300874,439776
2096921,2096921,301068,439495
2096921,2096921,301342,440291
2096921,2096921,301543,440440
2096921,2096921,301387,440405
2096921,2096921,301469,440614
2096921,2096921,301784,440561
2096921,2096921,301790,441067
2096921,2096921,301956,440995
2096921,2096921,301767,440949
2096921,2096921,301852,441028
2096921,2096921,301832,441174
2096921,2096921,302103,441618
2096921,2096921,302327,441732
2096921,2096921,302340,442000
2096921,2096921,302255,441782
2096921,2096921,302579,441750
2096921,2096921,302889,442168
2096921,2096921,303000,442475
2096921,2096921,302889,442428
2096921,2096921,303066,442538
2096921,2096921,303282,442721
2096921,2096921,303443,443188
2096921,2096921,303468,443126
2096921,2096921,303322,443165
2096921,2096921,303352,442891
2096921,2096921,303717,443328
2096921,2096921,304022,443325
2096921,2096921,304038,443793
2096921,2096921,303973,443712
2096921,2096921,303993,443616
2096921,2096921,304083,443670
2096921,2096921,304214,444467
2096921,2096921,304418,444629
2096921,2096921,304399,444671
2096921,2096921,304447,444851
2096921,2096921,304715,444441
2096921,2096921,304844,444936
2096921,2096921,304816,445183
2096921,2096921,304909,445282
2096921,2096921,304925,445075
2096921,2096921,305111,445121
2096921,2096921,305263,445572
2096921,2096921,305674,445457
2096921,2096921,305642,445690
2096921,2096921,305805,445585
2096921,2096921,305966,445896
2096921,2096921,305968,446150
2096921,2096921,305841,446258
2096921,2096921,305546,445939
2096921,2096921,305472,446362
2096921,2096921,305783,446144
2096921,2096921,306041,446135
2096921,2096921,306243,446527
2096921,2096921,306007,446466
2096921,2096921,306065,446603
2096921,2096921,306076,446630
2096921,2096921,306562,446891
2096921,2096921,306448,446866
2096921,2096921,306244,446774
2096921,2096921,306350,446672
2096921,2096921,306628,446680
2096921,2096921,306445,446710
2096921,2096921,306223,446786
2096921,2096921,306210,446845
2096921,2096921,306405,446884
2096921,2096921,306398,447200
2096921,2096921,306655,446936
2096921,2096921,306584,447243
2096921,2096921,306675,447209
2096921,2096921,306510,447130
2096921,2096921,306525,446932
2096921,2096921,306406,447359
2096921,2096921,306451,447222
2096921,2096921,306698,447336
2096921,2096921,306752,447069
2096921,2096921,306225,447249
2096921,2096921,306293,446735
2096921,2096921,306110,446845
2096921,2096921,306154,446779
2096921,2096921,306311,446578
2096921,2096921,306176,447001
2096921,2096921,306260,446527
2096921,2096921,306255,446864
2096921,2096921,306414,446343
2096921,2096921,306260,446615
2096921,2096921,306286,446543
2096921,2096921,306107,446665
2096921,2096921,305855,446416
2096921,2096921,305879,446356
2096921,2096921,306002,446004
2096921,2096921,305684,446176
2096921,2096921,305573,446246
2096921,2096921,305791,446265
2096921,2096921,305826,446243
2096921,2096921,306103,446347
2096921,2096921,306010,446415
2096921,2096921,305807,446105
2096921,2096921,305877,445925
2096921,2096921,305976,445796
2096921,2096921,305823,445657
2096921,2096921,305828,445952
2096921,2096921,305624,446163
2096921,2096921,305547,446207
2096921,2096921,305506,446211
2096921,2096921,305459,446161
2096921,2096921,305799,445765
2096921,2096921,305751,445863
2096921,2096921,305765,446026
2096921,2096921,305652,446077
2096921,2096921,305565,446139
2096921,2096921,305748,446089
2096921,2096921,305596,446250
2096921,2096921,305752,446123
2096921,2096921,305903,445866
2096921,2096921,306016,446177
2096921,2096921,305812,446138
2096921,2096921,305828,446156
2096921,2096921,305806,446214
2096921,2096921,305928,445839
2096921,2096921,305578,446416
2096921,2096921,305855,446477
2096921,2096921,306125,446554
2096921,2096921,306182,446326
2096921,2096921,305981,446527
2096921,2096921,305880,446562
2096921,2096921,306142,446566
2096921,2096921,306436,446716
2096921,2096921,306333,446803
2096921,2096921,306427,446889
2096921,2096921,306417,446928
2096921,2096921,306398,446748
2096921,2096921,306455,447648
2096921,2096921,306898,447550
2096921,2096921,306854,447416
2096921,2096921,306971,447195
2096921,2096921,306926,447361
2096921,2096921,307233,447853
2096921,2096921,307282,447841
2096921,2096921,306761,447866
2096921,2096921,307107,447869
2096921,2096921,307080,448028
2096921,2096921,307169,448381
2096921,2096921,307622,448270
2096921,2096921,307553,448241
2096921,2096921,307479,448224
2096921,2096921,307663,448141
2096921,2096921,307534,448594
2096921,2096921,307743,448529
2096921,2096921,307700,448641
2096921,2096921,307741,448837
2096921,2096921,307761,448813
2096921,2096921,308379,449277
2096921,2096921,308380,449134
2096921,2096921,308023,449020
2096921,2096921,307923,449071
2096921,2096921,308260,449160
2096921,2096921,308527,449457
2096921,2096921,308249,448976
2096921,2096921,308261,449591
2096921,2096921,308286,449585
2096921,2096921,308634,449658
2096921,2096921,308609,449909
2096921,2096921,308687,449979
2096921,2096921,308306,449852
2096921,2096921,308843,449952
2096921,2096921,308904,449981
2096921,2096921,308998,450381
2096921,2096921,309009,450072
2096921,2096921,309021,450121
2096921,2096921,308720,450304
2096921,2096921,309231,450100
2096921,2096921,309125,450546
2096921,2096921,309418,450780
2096921,2096921,309510,450700
2096921,2096921,309525,450683
2096921,2096921,309658,450885
2096921,2096921,309754,450835
2096921,2096921,309500,451138
2096921,2096921,309587,450852
2096921,2096921,309681,450715
2096921,2096921,309549,450862
2096921,2096921,309735,451132
2096921,2096921,309671,451189
2096921,2096921,309926,451415
2096921,2096921,309765,451435
2096921,2096921,310190,451389
2096921,2096921,310062,451897
2096921,2096921,310284,451653
2096921,2096921,310203,451556
2096921,2096921,310232,451513
2096921,2096921,310187,451397
2096921,2096921,309978,452164
2096921,2096921,310284,451971
