2096921,2096921,181676,625952,0
2096921,2096921,181685,625981,0
2096921,2096921,181771,626342,0
2096921,2096921,181537,626023,0
2096921,2096921,181711,626302,0
2096921,2096921,181709,625964,0
2096921,2096921,181790,626255,0
2096921,2096921,181518,626415,0
2096921,2096921,181794,626024,0
2096921,2096921,181710,626250,0
2096921,2096921,181915,626513,0
2096921,2096921,181720,626285,0
2096921,2096921,181626,626096,0
2096921,2096921,181581,626213,0
2096921,2096921,181659,626231,0
2096921,2096921,181811,626309,0
2096921,2096921,181608,626196,0
2096921,2096921,181658,626421,0
2096921,2096921,181676,626245,0
2096921,2096921,181677,626227,0
2096921,2096921,181505,626343,0
2096921,2096921,181725,626419,0
2096921,2096921,181598,626689,0
2096921,2096921,181696,626070,0
2096921,2096921,181760,626384,0
2096921,2096921,181700,626057,0
2096921,2096921,181716,626156,0
2096921,2096921,181332,626263,0
2096921,2096921,181552,626084,0
2096921,2096921,181451,626253,0
2096921,2096921,181598,626350,0
2096921,2096921,181676,626519,0
2096921,2096921,181625,626342,0
2096921,2096921,181521,626868,0
2096921,2096921,181518,626498,0
2096921,2096921,181295,626335,0
2096921,2096921,181609,626387,0
2096921,2096921,181744,626254,0
2096921,2096921,181410,626293,0
2096921,2096921,181338,626309,0
2096921,2096921,181541,626058,0
2096921,2096921,181597,626409,0
2096921,2096921,181695,626421,0
2096921,2096921,181508,626524,0
2096921,2096921,181494,626276,0
2096921,2096921,181695,626328,0
2096921,2096921,181711,626500,0
2096921,2096921,181398,626445,0
2096921,2096921,181404,626332,0
2096921,2096921,181696,626423,0
2096921,2096921,181525,626460,0
2096921,2096921,181516,626369,0
2096921,2096921,181825,626464,0
2096921,2096921,181610,626552,0
2096921,2096921,181715,626530,0
2096921,2096921,181486,626618,0
2096921,2096921,181658,626817,0
2096921,2096921,181414,626535,0
2096921,2096921,181760,626525,0
2096921,2096921,181803,626840,0
2096921,2096921,181884,626633,0
2096921,2096921,181883,626725,0
2096921,2096921,181955,626437,0
2096921,2096921,181836,626766,0
2096921,2096921,181934,626734,0
2096921,2096921,181853,626586,0
2096921,2096921,181694,626521,0
2096921,2096921,181788,626905,0
2096921,2096921,181649,626894,0
2096921,2096921,181694,626727,0
2096921,2096921,181659,626864,0
2096921,2096921,181699,626835,0
2096921,2096921,181877,626980,0
2096921,2096921,181732,626950,0
2096921,2096921,181835,627194,0
2096921,2096921,181499,626764,0
2096921,2096921,181768,627389,0
2096921,2096921,181830,626935,0
2096921,2096921,181652,627018,0
2096921,2096921,181854,627009,0
2096921,2096921,181684,627247,0
2096921,2096921,182106,627440,0
2096921,2096921,181903,627410,0
2096921,2096921,182066,627201,0
2096921,2096921,182052,627364,0
2096921,2096921,182120,627427,0
2096921,2096921,182170,627464,0
2096921,2096921,182105,627442,0
2096921,2096921,182073,627359,0
2096921,2096921,182188,627544,0
2096921,2096921,182242,627652,0
2096921,2096921,182577,627610,0
2096921,2096921,182168,627584,0
2096921,2096921,182267,627720,0
2096921,2096921,182201,627586,0
2096921,2096921,182067,627673,0
2096921,2096921,182188,627671,0
2096921,2096921,182063,627707,0
2096921,2096921,182143,627606,0
2096921,2096921,182083,627897,0
2096921,2096921,182375,627928,0
2096921,2096921,181869,627783,0
2096921,2096921,182118,627704,0
2096921,2096921,182387,628056,0
2096921,2096921,182551,627997,0
2096921,2096921,182440,627952,0
2096921,2096921,182202,628054,0
2096921,2096921,182241,628191,0
2096921,2096921,182315,627990,0
2096921,2096921,182560,628478,0
2096921,2096921,182625,628048,0
2096921,2096921,182506,628170,0
2096921,2096921,182241,628163,0
2096921,2096921,182246,628560,0
2096921,2096921,182386,627900,0
2096921,2096921,182335,627905,0
2096921,2096921,182036,628351,0
2096921,2096921,182508,628314,0
2096921,2096921,182469,628341,0
2096921,2096921,182445,628398,0
2096921,2096921,182509,628293,0
2096921,2096921,182447,628486,0
2096921,2096921,182612,628522,0
2096921,2096921,182452,628647,0
2096921,2096921,182289,628371,0
2096921,2096921,182473,628382,0
2096921,2096921,182539,628386,0
2096921,2096921,182437,628583,0
2096921,2096921,182726,628343,0
2096921,2096921,182523,628268,0
2096921,2096921,182237,628662,0
2096921,2096921,182558,628719,0
2096921,2096921,182726,628706,0
2096921,2096921,182859,628858,0
2096921,2096921,182598,628567,0
2096921,2096921,182627,628686,0
2096921,2096921,182625,628969,0
2096921,2096921,182659,628749,0
2096921,2096921,182522,628323,0
2096921,2096921,182646,628701,0
2096921,2096921,182766,628931,0
2096921,2096921,182673,628850,0
2096921,2096921,182561,628804,0
2096921,2096921,182707,628996,0
2096921,2096921,182622,629187,0
2096921,2096921,182725,629078,0
2096921,2096921,182799,628979,0
2096921,2096921,182876,628959,0
2096921,2096921,183008,629184,0
2096921,2096921,182464,629282,0
2096921,2096921,182975,628948,0
2096921,2096921,182634,629049,0
2096921,2096921,182576,628816,0
2096921,2096921,182725,629244,0
2096921,2096921,182991,629180,0
2096921,2096921,182799,628744,0
2096921,2096921,183036,628840,0
2096921,2096921,182814,629169,0
2096921,2096921,182708,629080,0
2096921,2096921,182945,629244,0
2096921,2096921,182828,629000,0
2096921,2096921,182940,629335,0
2096921,2096921,182978,629512,0
2096921,2096921,182884,629215,0
2096921,2096921,182581,629250,0
2096921,2096921,182732,629189,0
2096921,2096921,182953,629221,0
2096921,2096921,182924,629271,0
2096921,2096921,182964,629351,0
2096921,2096921,182993,629352,0
2096921,2096921,183026,629464,0
2096921,2096921,183364,629385,0
2096921,2096921,183146,629418,0
2096921,2096921,182852,629445,0
2096921,2096921,183192,629480,0
2096921,2096921,183030,629294,0
2096921,2096921,183109,629647,0
2096921,2096921,183094,629589,0
2096921,2096921,182887,629471,0
2096921,2096921,183065,629481,0
2096921,2096921,183218,629458,0
2096921,2096921,183036,629312,0
2096921,2096921,183036,629733,0
2096921,2096921,183039,629633,0
2096921,2096921,182627,629435,0
2096921,2096921,183060,629549,0
2096921,2096921,182907,629457,0
2096921,2096921,183015,629547,0
2096921,2096921,182782,629727,0
2096921,2096921,183020,629828,0
2096921,2096921,183001,629868,0
2096921,2096921,183466,629672,0
2096921,2096921,183191,629525,0
2096921,2096921,182867,629679,0
2096921,2096921,183151,629884,0
2096921,2096921,183159,629717,0
2096921,2096921,183066,629589,0
2096921,2096921,183127,629472,0
2096921,2096921,183212,629941,0
2096921,2096921,183277,629722,0
2096921,2096921,183107,629616,0
2096921,2096921,183225,629821,0
2096921,2096921,182936,629663,0
2096921,2096921,183138,629705,0
2096921,2096921,183314,629766,0
2096921,2096921,183315,629937,0
2096921,2096921,183469,629685,0
2096921,2096921,183222,629764,0
2096921,2096921,183123,629739,0
2096921,2096921,183026,629812,0
2096921,2096921,182997,629695,0
2096921,2096921,183202,629672,0
2096921,2096921,183048,629886,0
2096921,2096921,183156,629906,0
2096921,2096921,182998,629695,0
2096921,2096921,183370,629715,0
2096921,2096921,183057,629729,0
2096921,2096921,183248,629801,0
2096921,2096921,183261,629886,0
2096921,2096921,182990,629736,0
2096921,2096921,183111,629932,0
2096921,2096921,183339,629959,0
2096921,2096921,183242,630144,0
2096921,2096921,183160,630139,0
2096921,2096921,183107,630052,0
2096921,2096921,183383,630052,0
2096921,2096921,183149,629968,0
2096921,2096921,183116,630080,0
2096921,2096921,182905,629796,0
2096921,2096921,183316,630068,0
2096921,2096921,182947,630051,0
2096921,2096921,183275,629914,0
2096921,2096921,183159,630027,0
2096921,2096921,183336,630213,0
2096921,2096921,182972,630328,0
2096921,2096921,183161,630033,0
2096921,2096921,183162,630187,0
2096921,2096921,183220,630129,0
2096921,2096921,183156,630056,0
2096921,2096921,183008,629937,0
2096921,2096921,183138,630073,0
2096921,2096921,183461,630085,0
2096921,2096921,183429,630073,0
2096921,2096921,183176,629965,0
2096921,2096921,183249,630057,0
2096921,2096921,183122,630112,0
2096921,2096921,183188,629941,0
2096921,2096921,183034,629950,0
2096921,2096921,182901,630006,0
2096921,2096921,183324,630142,0
2096921,2096921,183231,630222,0
2096921,2096921,183150,629868,0
2096921,2096921,183452,629872,0
2096921,2096921,183247,630292,0
2096921,2096921,183364,630243,0
2096921,2096921,183399,629793,0
2096921,2096921,183088,629999,0
2096921,2096921,183086,630000,0
2096921,2096921,183105,630218,0
2096921,2096921,183167,630127,0
2096921,2096921,183375,629839,0
2096921,2096921,183313,630019,0
2096921,2096921,183313,630021,0
2096921,2096921,183157,630097,0
2096921,2096921,183201,630241,0
2096921,2096921,183402,630025,0
2096921,2096921,183205,630093,0
2096921,2096921,183090,630051,0
2096921,2096921,183247,630027,0
2096921,2096921,182972,630113,0
2096921,2096921,183180,630087,0
2096921,2096921,183379,630081,0
2096921,2096921,183368,630120,0
2096921,2096921,183263,630042,0
2096921,2096921,183324,629798,0
2096921,2096921,183268,630106,0
2096921,2096921,182987,630126,0
2096921,2096921,183176,629943,0
2096921,2096921,183275,630234,0
2096921,2096921,183501,629955,0
2096921,2096921,183582,630353,0
2096921,2096921,183288,630049,0
2096921,2096921,183307,630221,0
2096921,2096921,183291,630245,0
2096921,2096921,183444,630514,0
2096921,2096921,182911,630293,0
2096921,2096921,183380,630052,0
2096921,2096921,183323,629992,0
2096921,2096921,183299,630022,0
2096921,2096921,183122,630023,0
2096921,2096921,183211,630235,0
2096921,2096921,183239,629904,0
2096921,2096921,183173,630136,0
2096921,2096921,183390,630195,0
2096921,2096921,183370,630227,0
2096921,2096921,183363,629917,0
2096921,2096921,183295,630296,0
2096921,2096921,183283,630186,0
2096921,2096921,183291,630313,0
2096921,2096921,183447,630376,0
2096921,2096921,183407,630491,0
2096921,2096921,183423,630214,0
2096921,2096921,183558,630282,0
2096921,2096921,183402,630268,0
2096921,2096921,183412,630266,0
2096921,2096921,183328,630251,0
2096921,2096921,183376,630227,0
2096921,2096921,183271,630156,0
2096921,2096921,183288,630150,0
2096921,2096921,183379,630165,0
2096921,2096921,183498,630074,0
2096921,2096921,183333,629958,0
2096921,2096921,183392,630250,0
2096921,2096921,183330,630347,0
2096921,2096921,183261,630396,0
2096921,2096921,183374,630160,0
2096921,2096921,183336,630046,0
2096921,2096921,183354,629935,0
2096921,2096921,183320,630198,0
2096921,2096921,183615,630146,0
2096921,2096921,183696,630021,0
2096921,2096921,183224,630060,0
2096921,2096921,183219,630228,0
2096921,2096921,183430,630264,0
2096921,2096921,183526,630239,0
2096921,2096921,183290,629832,0
2096921,2096921,183183,629950,0
2096921,2096921,183258,630278,0
2096921,2096921,183546,630166,0
2096921,2096921,183205,630133,0
2096921,2096921,183464,630179,0
2096921,2096921,183201,630114,0
2096921,2096921,183430,629779,0
2096921,2096921,183336,629892,0
2096921,2096921,183427,629881,0
2096921,2096921,183125,629922,0
2096921,2096921,183272,629552,0
2096921,2096921,183150,629935,0
2096921,2096921,183269,629899,0
2096921,2096921,183349,629856,0
2096921,2096921,183222,629894,0
2096921,2096921,182777,629838,0
2096921,2096921,182951,629904,0
2096921,2096921,183004,629567,0
2096921,2096921,182965,629672,0
2096921,2096921,183067,629544,0
2096921,2096921,182885,629392,0
2096921,2096921,182981,629293,0
2096921,2096921,182804,629285,0
2096921,2096921,182564,629619,0
2096921,2096921,182906,629552,0
2096921,2096921,182933,629385,0
2096921,2096921,183165,629085,0
2096921,2096921,182762,629113,0
2096921,2096921,182730,629090,0
2096921,2096921,182507,628967,0
2096921,2096921,182400,628141,0
2096921,2096921,181858,627964,0
2096921,2096921,182508,628142,0
2096921,2096921,182170,628160,0
2096921,2096921,182486,628292,0
2096921,2096921,182010,627563,0
2096921,2096921,182049,627162,0
2096921,2096921,181801,627135,0
2096921,2096921,182063,627111,0
2096921,2096921,181836,627432,0
2096921,2096921,181672,626683,0
2096921,2096921,181375,626692,0
2096921,2096921,181375,626840,0
2096921,2096921,181365,626672,0
2096921,2096921,181510,626554,0
2096921,2096921,181418,626050,0
2096921,2096921,181162,626161,0
2096921,2096921,181090,626150,0
2096921,2096921,181391,626033,0
2096921,2096921,180770,625973,0
2096921,2096921,181128,625670,0
2096921,2096921,180901,625478,0
2096921,2096921,180937,625496,0
2096921,2096921,180842,625371,0
2096921,2096921,181019,625616,0
2096921,2096921,180862,625610,0
2096921,2096921,181283,625263,0
2096921,2096921,180898,625216,0
2096921,2096921,180967,625265,0
2096921,2096921,180713,625485,0
2096921,2096921,180583,625053,0
2096921,2096921,180354,624903,0
2096921,2096921,180728,624676,0
2096921,2096921,180750,624932,0
2096921,2096921,180820,625045,0
2096921,2096921,180655,625087,0
2096921,2096921,180865,624893,0
2096921,2096921,180621,624692,0
2096921,2096921,180769,625038,0
2096921,2096921,180663,624953,0
2096921,2096921,180649,624653,0
2096921,2096921,180515,624186,0
2096921,2096921,180679,624462,0
2096921,2096921,180668,624718,0
2096921,2096921,180760,624859,0
2096921,2096921,180693,624677,0
2096921,2096921,180445,624683,0
2096921,2096921,180467,624754,0
2096921,2096921,180418,624912,0
2096921,2096921,180505,624542,0
2096921,2096921,180703,624996,0
2096921,2096921,180923,624889,0
2096921,2096921,180862,624627,0
2096921,2096921,180625,624615,0
2096921,2096921,180797,624717,0
2096921,2096921,180573,624578,0
2096921,2096921,180657,624775,0
2096921,2096921,180374,625036,0
2096921,2096921,180449,624830,0
2096921,2096921,180689,624970,0
2096921,2096921,180361,624543,0
2096921,2096921,180641,624673,0
2096921,2096921,180812,624701,0
2096921,2096921,180739,624938,0
2096921,2096921,180756,624909,0
2096921,2096921,180755,625059,0
2096921,2096921,180931,625206,0
2096921,2096921,180590,625050,0
2096921,2096921,180624,625093,0
2096921,2096921,180446,624949,0
2096921,2096921,180843,624957,0
2096921,2096921,180889,624771,0
2096921,2096921,180858,624849,0
2096921,2096921,180753,625106,0
2096921,2096921,180869,624988,0
2096921,2096921,180723,625306,0
2096921,2096921,180784,624961,0
2096921,2096921,180766,625116,0
2096921,2096921,180940,625227,0
2096921,2096921,180924,625144,0
2096921,2096921,180862,625268,0
2096921,2096921,180970,625387,0
2096921,2096921,181058,624957,0
2096921,2096921,180957,625335,0
2096921,2096921,181003,625235,0
2096921,2096921,180877,625639,0
2096921,2096921,180907,625489,0
2096921,2096921,181209,625501,0
2096921,2096921,180937,625497,0
2096921,2096921,180959,625294,0
2096921,2096921,181067,625360,0
2096921,2096921,181175,625694,0
2096921,2096921,181264,625282,0
2096921,2096921,181030,625445,0
2096921,2096921,181018,625570,0
2096921,2096921,181090,625400,0
2096921,2096921,181247,625530,0
2096921,2096921,181254,625884,0
2096921,2096921,181138,625833,0
2096921,2096921,181123,625469,0
2096921,2096921,181192,625742,0
2096921,2096921,181216,626072,0
2096921,2096921,181377,625806,0
2096921,2096921,181059,626162,0
2096921,2096921,181213,625840,0
2096921,2096921,181035,626149,0
2096921,2096921,181383,626229,0
2096921,2096921,181641,626207,0
2096921,2096921,181416,625802,0
2096921,2096921,181081,626103,0
2096921,2096921,181071,625903,0
2096921,2096921,181427,625807,0
2096921,2096921,181327,625856,0
2096921,2096921,181461,626337,0
2096921,2096921,181636,626161,0
2096921,2096921,181664,626259,0
2096921,2096921,181606,626402,0
2096921,2096921,181457,626216,0
2096921,2096921,181528,626369,0
2096921,2096921,181241,626341,0
2096921,2096921,181268,626376,0
2096921,2096921,181292,626347,0
2096921,2096921,181485,625741,0
2096921,2096921,181607,625989,0
2096921,2096921,181712,626288,0
2096921,2096921,181558,626348,0
2096921,2096921,181677,626420,0
2096921,2096921,181452,626696,0
2096921,2096921,181750,626537,0
2096921,2096921,181931,626610,0
2096921,2096921,181694,626453,0
2096921,2096921,181700,626703,0
2096921,2096921,181560,626258,0
2096921,2096921,181535,626291,0
2096921,2096921,181433,626398,0
2096921,2096921,181676,626328,0
2096921,2096921,181540,626154,0
2096921,2096921,181552,626725,0
2096921,2096921,181535,626668,0
2096921,2096921,181877,626455,0
2096921,2096921,181532,626433,0
2096921,2096921,181502,626665,0
2096921,2096921,181495,626481,0
2096921,2096921,181555,626461,0
2096921,2096921,181930,626351,0
2096921,2096921,181908,626365,0
2096921,2096921,181584,626784,0
2096921,2096921,181698,626712,0
2096921,2096921,181463,626643,0
2096921,2096921,181213,626475,0
2096921,2096921,181632,626315,0
2096921,2096921,181656,626406,0
2096921,2096921,181401,626574,0
2096921,2096921,181778,626582,0
2096921,2096921,181915,626561,0
2096921,2096921,181747,626416,0
2096921,2096921,181867,626327,0
2096921,2096921,181517,626767,0
2096921,2096921,181504,626432,0
2096921,2096921,181617,626269,0
2096921,2096921,181592,626365,0
2096921,2096921,181370,626384,0
2096921,2096921,181330,626038,0
2096921,2096921,181586,626144,0
2096921,2096921,181326,626191,0
2096921,2096921,181575,626275,0
2096921,2096921,181694,626325,0
2096921,2096921,181498,626180,0
2096921,2096921,181617,626077,0
2096921,2096921,181862,626059,0
2096921,2096921,181552,626093,0
2096921,2096921,181392,625742,0
2096921,2096921,181315,625945,0
2096921,2096921,181067,625895,0
2096921,2096921,181333,626003,0
2096921,2096921,181365,626148,0
2096921,2096921,181361,625888,0
2096921,2096921,181605,625867,0
2096921,2096921,181529,626026,0
2096921,2096921,181607,625991,0
2096921,2096921,181280,625896,0
2096921,2096921,181444,625724,0
2096921,2096921,181304,625717,0
2096921,2096921,181235,625921,0
2096921,2096921,181328,625883,0
2096921,2096921,181606,625733,0
2096921,2096921,181530,625785,0
2096921,2096921,181429,625700,0
2096921,2096921,181615,625724,0
2096921,2096921,181406,625588,0
2096921,2096921,181368,625652,0
2096921,2096921,181092,625444,0
2096921,2096921,181300,625479,0
2096921,2096921,181344,625382,0
2096921,2096921,181377,625329,0
2096921,2096921,181455,625457,0
2096921,2096921,181559,625606,0
2096921,2096921,181355,625647,0
2096921,2096921,181183,625567,0
2096921,2096921,181481,625581,0
2096921,2096921,181125,625362,0
2096921,2096921,181182,625483,0
2096921,2096921,181193,625644,0
2096921,2096921,181379,625748,0
2096921,2096921,181460,625742,0
2096921,2096921,181391,625518,0
2096921,2096921,181474,625384,0
2096921,2096921,181396,625548,0
2096921,2096921,181256,625400,0
2096921,2096921,181259,625420,0
2096921,2096921,181226,625225,0
2096921,2096921,181259,625235,0
2096921,2096921,181176,625659,0
2096921,2096921,181453,625460,0
2096921,2096921,181286,625534,0
2096921,2096921,181376,625725,0
2096921,2096921,181412,625799,0
2096921,2096921,181378,625644,0
2096921,2096921,181213,625526,0
2096921,2096921,181482,625444,0
2096921,2096921,181344,625416,0
2096921,2096921,181093,625608,0
2096921,2096921,181196,625291,0
2096921,2096921,181349,625450,0
2096921,2096921,181609,625312,0
2096921,2096921,181470,625609,0
2096921,2096921,181689,625512,0
2096921,2096921,181494,625667,0
2096921,2096921,181433,625491,0
2096921,2096921,181473,625401,0
2096921,2096921,181233,625638,0
2096921,2096921,181571,625678,0
2096921,2096921,181319,625864,0
2096921,2096921,181515,625699,0
2096921,2096921,181378,625836,0
2096921,2096921,181520,625708,0
2096921,2096921,181397,625523,0
2096921,2096921,181546,625651,0
2096921,2096921,181622,625707,0
2096921,2096921,181421,625474,0
2096921,2096921,181671,625603,0
2096921,2096921,181260,625540,0
2096921,2096921,181501,625756,0
2096921,2096921,181481,625328,0
2096921,2096921,181786,625616,0
2096921,2096921,181454,625576,0
2096921,2096921,181568,625735,0
2096921,2096921,181797,625940,0
2096921,2096921,181479,625960,0
2096921,2096921,181570,625745,0
2096921,2096921,181488,625813,0
2096921,2096921,181571,626015,0
2096921,2096921,181262,625793,0
2096921,2096921,181682,625643,0
2096921,2096921,181660,625951,0
2096921,2096921,181696,625563,0
2096921,2096921,181796,625557,0
2096921,2096921,181677,625585,0
2096921,2096921,181675,625617,0
2096921,2096921,181495,625579,0
2096921,2096921,181751,625910,0
2096921,2096921,181564,625854,0
2096921,2096921,181630,625844,0
2096921,2096921,181605,625623,0
2096921,2096921,181860,625847,0
2096921,2096921,181904,625861,0
2096921,2096921,181692,625815,0
2096921,2096921,181745,625932,0
2096921,2096921,181754,625945,0
2096921,2096921,181702,625627,0
2096921,2096921,181788,625757,0
2096921,2096921,181622,625761,0
2096921,2096921,181676,625532,0
2096921,2096921,181739,625939,0
2096921,2096921,181660,625880,0
2096921,2096921,181773,625929,0
2096921,2096921,181654,625771,0
2096921,2096921,181974,625906,0
2096921,2096921,181683,625805,0
2096921,2096921,181694,625616,0
2096921,2096921,181777,625957,0
2096921,2096921,181754,625652,0
2096921,2096921,181725,625856,0
2096921,2096921,181759,625926,0
2096921,2096921,181542,626216,0
2096921,2096921,181742,626063,0
2096921,2096921,181989,626283,0
2096921,2096921,182128,626188,0
2096921,2096921,182254,625949,0
2096921,2096921,181841,625642,0
2096921,2096921,181988,625778,0
2096921,2096921,181683,625812,0
2096921,2096921,181489,626027,0
2096921,2096921,181798,626104,0
2096921,2096921,181705,625916,0
2096921,2096921,181770,625963,0
2096921,2096921,181859,625825,0
2096921,2096921,181894,626026,0
2096921,2096921,181912,625726,0
2096921,2096921,181734,625584,0
2096921,2096921,181594,625626,0
2096921,2096921,181701,626006,0
2096921,2096921,181588,625619,0
2096921,2096921,181824,625615,0
2096921,2096921,181739,625791,0
2096921,2096921,181838,625702,0
2096921,2096921,181747,625733,0
2096921,2096921,181994,625678,0
2096921,2096921,181546,625930,0
2096921,2096921,181705,625792,0
2096921,2096921,181811,625854,0
2096921,2096921,181849,625770,0
2096921,2096921,181724,625653,0
2096921,2096921,181783,625775,0
2096921,2096921,181609,626030,0
2096921,2096921,181654,625881,0
2096921,2096921,181787,626055,0
2096921,2096921,181908,625599,0
2096921,2096921,181830,625918,0
2096921,2096921,181886,625667,0
2096921,2096921,181705,625603,0
2096921,2096921,182121,625743,0
2096921,2096921,181899,625379,0
2096921,2096921,181720,625560,0
2096921,2096921,181807,625554,0
2096921,2096921,181669,625529,0
2096921,2096921,181949,625700,0
2096921,2096921,181828,625633,0
2096921,2096921,181659,625452,0
2096921,2096921,181962,625974,0
2096921,2096921,181683,625562,0
2096921,2096921,181956,625481,0
2096921,2096921,181767,625682,0
2096921,2096921,181711,625665,0
2096921,2096921,182083,625650,0
2096921,2096921,181969,625676,0
2096921,2096921,181955,625702,0
2096921,2096921,181776,625587,0
2096921,2096921,181795,625755,0
2096921,2096921,181435,625489,0
2096921,2096921,182011,625340,0
2096921,2096921,181828,625723,0
2096921,2096921,182016,625577,0
2096921,2096921,181661,625600,0
2096921,2096921,181855,625563,0
2096921,2096921,181844,625676,0
2096921,2096921,181911,625901,0
2096921,2096921,182156,625870,0
2096921,2096921,181681,625537,0
2096921,2096921,181840,625499,0
2096921,2096921,181909,625492,0
2096921,2096921,181661,625495,0
2096921,2096921,181776,625208,0
2096921,2096921,182030,625457,0
2096921,2096921,181933,625338,0
2096921,2096921,181979,625942,0
2096921,2096921,181891,625723,0
2096921,2096921,181613,625806,0
2096921,2096921,182085,625482,0
2096921,2096921,182032,625575,0
2096921,2096921,181955,625485,0
2096921,2096921,181831,625388,0
2096921,2096921,181998,625370,0
2096921,2096921,181971,625543,0
2096921,2096921,181658,625550,0
2096921,2096921,181794,625157,0
2096921,2096921,181784,625331,0
2096921,2096921,181967,625467,0
2096921,2096921,181665,625463,0
2096921,2096921,181590,625473,0
2096921,2096921,181745,625383,0
2096921,2096921,181742,625112,0
2096921,2096921,181863,625371,0
2096921,2096921,181864,625548,0
2096921,2096921,182035,625219,0
2096921,2096921,181742,625278,0
2096921,2096921,181789,625324,0
2096921,2096921,181911,625685,0
2096921,2096921,181849,625313,0
2096921,2096921,181773,624970,0
2096921,2096921,181521,625110,0
2096921,2096921,181624,624974,0
2096921,2096921,181802,625110,0
2096921,2096921,181826,625306,0
2096921,2096921,181935,625414,0
2096921,2096921,182117,625194,0
2096921,2096921,182023,625538,0
2096921,2096921,182129,625593,0
2096921,2096921,182096,625550,0
2096921,2096921,181876,625028,0
2096921,2096921,181925,625173,0
2096921,2096921,181669,625042,0
2096921,2096921,181638,625155,0
2096921,2096921,181790,625057,0
2096921,2096921,181801,625343,0
2096921,2096921,181793,625381,0
2096921,2096921,182212,625428,0
2096921,2096921,181991,625469,0
2096921,2096921,181913,625255,0
2096921,2096921,181773,625246,0
2096921,2096921,181873,625125,0
2096921,2096921,181833,625234,0
2096921,2096921,181907,625125,0
2096921,2096921,182022,625097,0
2096921,2096921,181876,625028,0
2096921,2096921,182046,625156,0
2096921,2096921,181759,625231,0
2096921,2096921,181749,624829,0
2096921,2096921,181808,625312,0
2096921,2096921,181833,625057,0
2096921,2096921,181705,625232,0
2096921,2096921,181720,625128,0
2096921,2096921,181882,625208,0
2096921,2096921,181980,625080,0
2096921,2096921,181815,625116,0
2096921,2096921,181686,625108,0
2096921,2096921,182034,625236,0
2096921,2096921,181927,625180,0
2096921,2096921,181777,625099,0
2096921,2096921,181794,625294,0
2096921,2096921,181791,624952,0
2096921,2096921,181626,625241,0
2096921,2096921,181525,624840,0
2096921,2096921,181661,625471,0
2096921,2096921,181806,625035,0
2096921,2096921,181699,624999,0
2096921,2096921,181849,624416,0
2096921,2096921,181635,625120,0
2096921,2096921,181682,625119,0
2096921,2096921,181580,625332,0
2096921,2096921,181621,624765,0
2096921,2096921,181634,624720,0
2096921,2096921,181650,624733,0
2096921,2096921,181711,625044,0
2096921,2096921,181702,624980,0
2096921,2096921,181950,624574,0
2096921,2096921,181741,624851,0
2096921,2096921,181743,625036,0
2096921,2096921,181774,624892,0
2096921,2096921,181414,624720,0
2096921,2096921,181850,624521,0
2096921,2096921,181744,624703,0
2096921,2096921,181625,624497,0
2096921,2096921,181483,624578,0
2096921,2096921,181665,624455,0
2096921,2096921,181811,624589,0
2096921,2096921,181683,624358,0
2096921,2096921,181840,624565,0
2096921,2096921,181926,624618,0
2096921,2096921,181962,624996,0
2096921,2096921,181803,624579,0
2096921,2096921,181606,624604,0
2096921,2096921,181513,624207,0
2096921,2096921,181581,624577,0
2096921,2096921,181513,624512,0
2096921,2096921,181340,624420,0
2096921,2096921,181467,624461,0
2096921,2096921,181769,624519,0
2096921,2096921,181712,624644,0
2096921,2096921,181594,624738,0
2096921,2096921,181601,624491,0
2096921,2096921,181548,624634,0
2096921,2096921,181625,624375,0
2096921,2096921,181625,624557,0
2096921,2096921,181695,624464,0
2096921,2096921,181974,624761,0
2096921,2096921,181655,624480,0
2096921,2096921,181730,624650,0
2096921,2096921,181563,624705,0
2096921,2096921,181643,624939,0
2096921,2096921,181601,624499,0
2096921,2096921,181412,624416,0
2096921,2096921,181608,624290,0
2096921,2096921,181755,624487,0
2096921,2096921,181555,624577,0
2096921,2096921,181827,624562,0
2096921,2096921,181617,624297,0
2096921,2096921,181566,624497,0
2096921,2096921,181344,624354,0
2096921,2096921,181553,624309,0
2096921,2096921,181637,623765,0
2096921,2096921,181470,623982,0
2096921,2096921,181512,623896,0
2096921,2096921,181510,624236,0
2096921,2096921,181804,624249,0
2096921,2096921,181618,623745,0
2096921,2096921,181364,623830,0
2096921,2096921,181396,623648,0
2096921,2096921,181511,623526,0
2096921,2096921,181108,623825,0
2096921,2096921,180911,623588,0
2096921,2096921,180969,623485,0
2096921,2096921,181133,623532,0
2096921,2096921,181030,623640,0
2096921,2096921,181081,623510,0
2096921,2096921,181038,623397,0
2096921,2096921,181065,623143,0
2096921,2096921,180985,623372,0
2096921,2096921,180949,623174,0
2096921,2096921,180800,623170,0
2096921,2096921,180362,622510,0
2096921,2096921,180511,622301,0
2096921,2096921,180686,622019,0
2096921,2096921,180446,622325,0
2096921,2096921,180877,622211,0
2096921,2096921,180318,621372,0
2096921,2096921,180006,621472,0
2096921,2096921,180172,621172,0
2096921,2096921,179821,621349,0
2096921,2096921,179572,621196,0
2096921,2096921,179774,620684,0
2096921,2096921,179818,620480,0
2096921,2096921,179485,620308,0
2096921,2096921,179531,620388,0
2096921,2096921,179964,620685,0
2096921,2096921,179730,619933,0
2096921,2096921,179654,619923,0
2096921,2096921,179616,620112,0
2096921,2096921,179328,620138,0
2096921,2096921,179327,620003,0
2096921,2096921,179181,619897,0
2096921,2096921,178938,619771,0
2096921,2096921,179179,619500,0
2096921,2096921,179653,619377,0
2096921,2096921,179280,619539,0
2096921,2096921,179071,619451,0
2096921,2096921,179148,619318,0
2096921,2096921,179075,619229,0
2096921,2096921,178758,619232,0
2096921,2096921,179021,619243,0
2096921,2096921,178597,618934,0
2096921,2096921,178787,619012,0
2096921,2096921,178923,619239,0
2096921,2096921,179218,618969,0
2096921,2096921,178727,619078,0
2096921,2096921,178849,619118,0
2096921,2096921,179151,618841,0
2096921,2096921,179154,619055,0
2096921,2096921,178654,619054,0
2096921,2096921,178922,618912,0
2096921,2096921,178735,618816,0
2096921,2096921,178842,618626,0
2096921,2096921,178749,618914,0
2096921,2096921,178720,618851,0
2096921,2096921,178734,619139,0
2096921,2096921,178980,618860,0
2096921,2096921,178746,618901,0
2096921,2096921,178825,618810,0
2096921,2096921,178995,618834,0
2096921,2096921,178484,618879,0
2096921,2096921,178749,618873,0
2096921,2096921,178780,618530,0
2096921,2096921,178741,618449,0
2096921,2096921,178806,618823,0
2096921,2096921,178663,618959,0
2096921,2096921,179070,618960,0
2096921,2096921,179007,619358,0
2096921,2096921,179105,619159,0
2096921,2096921,179148,619089,0
2096921,2096921,178987,619085,0
2096921,2096921,178682,618848,0
2096921,2096921,178802,618998,0
2096921,2096921,178752,618976,0
2096921,2096921,178789,619183,0
2096921,2096921,178724,619028,0
2096921,2096921,179083,619175,0
2096921,2096921,179118,618937,0
2096921,2096921,179131,619169,0
2096921,2096921,178679,619117,0
2096921,2096921,178883,619030,0
2096921,2096921,178780,618751,0
2096921,2096921,179039,619093,0
2096921,2096921,178758,619344,0
2096921,2096921,178968,619138,0
2096921,2096921,179134,619152,0
2096921,2096921,179126,619051,0
2096921,2096921,178960,619168,0
2096921,2096921,179352,619545,0
2096921,2096921,179197,619177,0
2096921,2096921,178944,619254,0
2096921,2096921,178998,619533,0
2096921,2096921,179063,619561,0
2096921,2096921,179215,619548,0
2096921,2096921,179363,619454,0
2096921,2096921,179258,619643,0
2096921,2096921,179199,619591,0
2096921,2096921,179297,619921,0
2096921,2096921,179321,619846,0
2096921,2096921,179501,619744,0
2096921,2096921,179195,619666,0
2096921,2096921,179173,619752,0
2096921,2096921,179188,619899,0
2096921,2096921,179304,619721,0
2096921,2096921,179403,619756,0
2096921,2096921,179188,619977,0
2096921,2096921,179396,619968,0
2096921,2096921,179595,619958,0
2096921,2096921,179457,619863,0
2096921,2096921,179396,619980,0
2096921,2096921,179443,619866,0
2096921,2096921,179447,620128,0
2096921,2096921,179105,619829,0
2096921,2096921,179300,620097,0
2096921,2096921,179498,619989,0
2096921,2096921,179481,620253,0
2096921,2096921,179475,620388,0
2096921,2096921,179771,620337,0
2096921,2096921,179738,620523,0
2096921,2096921,179725,620409,0
2096921,2096921,179350,620218,0
2096921,2096921,179316,620716,0
2096921,2096921,179415,620412,0
2096921,2096921,179444,620315,0
2096921,2096921,179518,620585,0
2096921,2096921,179779,620428,0
2096921,2096921,179572,620460,0
2096921,2096921,179912,620951,0
2096921,2096921,179903,620929,0
2096921,2096921,179845,620807,0
2096921,2096921,179726,620899,0
2096921,2096921,179596,620645,0
2096921,2096921,179529,620794,0
2096921,2096921,179736,620866,0
2096921,2096921,179989,620719,0
2096921,2096921,179790,620654,0
2096921,2096921,179945,620843,0
2096921,2096921,179998,620996,0
2096921,2096921,180160,621020,0
2096921,2096921,180091,621123,0
2096921,2096921,180070,620814,0
2096921,2096921,180033,620824,0
2096921,2096921,179919,620928,0
2096921,2096921,179839,620976,0
2096921,2096921,179753,621184,0
2096921,2096921,179921,621024,0
2096921,2096921,179942,621190,0
2096921,2096921,180442,621046,0
2096921,2096921,179916,621340,0
2096921,2096921,179985,621403,0
2096921,2096921,180115,621171,0
2096921,2096921,180098,621235,0
2096921,2096921,179841,620821,0
2096921,2096921,180011,620976,0
2096921,2096921,180115,621214,0
2096921,2096921,179995,621423,0
2096921,2096921,180088,621307,0
2096921,2096921,180074,621239,0
2096921,2096921,180153,621285,0
2096921,2096921,180190,621601,0
2096921,2096921,180002,621653,0
2096921,2096921,180460,621407,0
2096921,2096921,180050,621416,0
2096921,2096921,179962,621188,0
2096921,2096921,179920,621001,0
2096921,2096921,180385,621552,0
2096921,2096921,180330,621288,0
2096921,2096921,179958,621247,0
2096921,2096921,179989,621282,0
2096921,2096921,179865,621305,0
2096921,2096921,179866,620990,0
2096921,2096921,180031,620894,0
2096921,2096921,180124,621280,0
2096921,2096921,180343,621205,0
2096921,2096921,180103,621279,0
2096921,2096921,180374,621462,0
2096921,2096921,179815,621367,0
2096921,2096921,180049,621434,0
2096921,2096921,180013,621042,0
2096921,2096921,179953,621237,0
2096921,2096921,179758,621162,0
2096921,2096921,180020,621144,0
2096921,2096921,180122,621254,0
2096921,2096921,179832,621121,0
2096921,2096921,180043,620904,0
2096921,2096921,179802,621021,0
2096921,2096921,179993,621120,0
2096921,2096921,180188,621128,0
2096921,2096921,180284,621075,0
2096921,2096921,179956,621007,0
2096921,2096921,179804,621130,0
2096921,2096921,180060,621003,0
2096921,2096921,180165,620973,0
2096921,2096921,180324,621101,0
2096921,2096921,180033,620899,0
2096921,2096921,180049,621270,0
2096921,2096921,179997,620975,0
2096921,2096921,179914,621087,0
2096921,2096921,179846,621120,0
2096921,2096921,179795,621272,0
2096921,2096921,179742,621116,0
2096921,2096921,179737,620975,0
2096921,2096921,179935,621038,0
2096921,2096921,179948,620995,0
2096921,2096921,180283,620938,0
2096921,2096921,180172,620951,0
2096921,2096921,179716,620985,0
2096921,2096921,179873,621109,0
2096921,2096921,180038,621015,0
2096921,2096921,180053,621397,0
2096921,2096921,179810,621124,0
2096921,2096921,179927,620990,0
2096921,2096921,180369,621144,0
2096921,2096921,180148,621090,0
2096921,2096921,179897,620930,0
2096921,2096921,179898,621279,0
2096921,2096921,179938,621013,0
2096921,2096921,180095,621218,0
2096921,2096921,180187,621336,0
2096921,2096921,179916,621221,0
2096921,2096921,180147,621293,0
2096921,2096921,180088,621414,0
2096921,2096921,179890,621175,0
2096921,2096921,179992,621348,0
2096921,2096921,180011,621114,0
2096921,2096921,180226,620976,0
2096921,2096921,180164,621104,0
2096921,2096921,180333,621319,0
2096921,2096921,180101,621526,0
2096921,2096921,180138,621365,0
2096921,2096921,180017,621241,0
2096921,2096921,180117,621481,0
2096921,2096921,180171,621467,0
2096921,2096921,180073,621606,0
2096921,2096921,180128,621704,0
2096921,2096921,180288,621388,0
2096921,2096921,180246,621701,0
2096921,2096921,180429,621731,0
2096921,2096921,180141,621678,0
2096921,2096921,180316,621379,0
2096921,2096921,180253,621761,0
2096921,2096921,180273,621775,0
2096921,2096921,180287,621516,0
2096921,2096921,180319,621594,0
2096921,2096921,180330,621743,0
2096921,2096921,180535,621615,0
2096921,2096921,180360,621736,0
2096921,2096921,180483,622307,0
2096921,2096921,180239,621663,0
2096921,2096921,180363,621779,0
2096921,2096921,180429,621557,0
2096921,2096921,180430,621784,0
2096921,2096921,180476,621817,0
2096921,2096921,180523,621883,0
2096921,2096921,180177,621925,0
2096921,2096921,180398,621992,0
2096921,2096921,180402,621877,0
2096921,2096921,180426,621831,0
2096921,2096921,180497,622022,0
2096921,2096921,180336,621876,0
2096921,2096921,180255,622142,0
2096921,2096921,180533,622130,0
2096921,2096921,180766,621862,0
2096921,2096921,180527,622031,0
2096921,2096921,180328,622100,0
2096921,2096921,180237,622196,0
2096921,2096921,180761,622221,0
2096921,2096921,180500,622048,0
2096921,2096921,180593,622505,0
2096921,2096921,180441,622041,0
2096921,2096921,180679,622098,0
2096921,2096921,180517,622184,0
2096921,2096921,180762,622310,0
2096921,2096921,180604,622354,0
2096921,2096921,180666,622305,0
2096921,2096921,180740,622195,0
2096921,2096921,180950,622377,0
2096921,2096921,180818,622366,0
2096921,2096921,180709,622579,0
2096921,2096921,180848,622419,0
2096921,2096921,180536,622311,0
2096921,2096921,180653,622448,0
2096921,2096921,180518,622416,0
2096921,2096921,180608,622281,0
2096921,2096921,180426,622720,0
2096921,2096921,180910,622513,0
2096921,2096921,180735,622526,0
2096921,2096921,180630,622656,0
2096921,2096921,180662,622840,0
2096921,2096921,180723,622545,0
2096921,2096921,180910,622902,0
2096921,2096921,180432,622623,0
2096921,2096921,180710,622825,0
2096921,2096921,180719,622665,0
2096921,2096921,180856,622773,0
2096921,2096921,180884,622453,0
2096921,2096921,180991,622722,0
2096921,2096921,180778,622716,0
2096921,2096921,180737,622877,0
2096921,2096921,181037,623063,0
2096921,2096921,180760,622705,0
2096921,2096921,180779,622753,0
2096921,2096921,180853,622597,0
2096921,2096921,180804,622971,0
2096921,2096921,180908,623123,0
2096921,2096921,180914,622930,0
2096921,2096921,180885,622807,0
2096921,2096921,180875,622864,0
2096921,2096921,180732,623165,0
2096921,2096921,181354,622878,0
2096921,2096921,180986,623095,0
2096921,2096921,180953,622901,0
2096921,2096921,180869,623346,0
2096921,2096921,180981,623169,0
2096921,2096921,180961,623156,0
2096921,2096921,180911,622907,0
2096921,2096921,181157,623353,0
2096921,2096921,180956,623526,0
2096921,2096921,181098,623603,0
2096921,2096921,181003,623151,0
2096921,2096921,181189,623519,0
2096921,2096921,181323,623310,0
2096921,2096921,181290,623081,0
2096921,2096921,181138,623135,0
2096921,2096921,181057,623174,0
2096921,2096921,181046,623381,0
2096921,2096921,181367,623779,0
2096921,2096921,181024,623563,0
2096921,2096921,181195,623652,0
2096921,2096921,181075,623606,0
2096921,2096921,180987,623538,0
2096921,2096921,180966,623655,0
2096921,2096921,181145,623354,0
2096921,2096921,181172,623480,0
2096921,2096921,181026,623485,0
2096921,2096921,181121,623294,0
2096921,2096921,181190,623542,0
2096921,2096921,181297,623645,0
2096921,2096921,181262,624019,0
2096921,2096921,181217,623546,0
2096921,2096921,181053,623658,0
2096921,2096921,181378,623536,0
2096921,2096921,181157,623653,0
2096921,2096921,181176,623611,0
2096921,2096921,181130,623719,0
2096921,2096921,181159,623863,0
2096921,2096921,181380,623600,0
2096921,2096921,181603,623547,0
2096921,2096921,181823,623762,0
2096921,2096921,181344,623854,0
2096921,2096921,181705,623790,0
2096921,2096921,181511,623797,0
2096921,2096921,181432,623902,0
2096921,2096921,181099,623967,0
2096921,2096921,181394,623954,0
2096921,2096921,181327,624112,0
2096921,2096921,181519,624156,0
2096921,2096921,181405,624174,0
2096921,2096921,181459,623996,0
2096921,2096921,181484,624201,0
2096921,2096921,181328,623860,0
2096921,2096921,181282,623908,0
2096921,2096921,181707,624136,0
2096921,2096921,181472,624084,0
2096921,2096921,181354,624362,0
2096921,2096921,181323,624178,0
2096921,2096921,181602,623983,0
2096921,2096921,181350,624242,0
2096921,2096921,181577,624370,0
2096921,2096921,181018,624147,0
2096921,2096921,181455,624364,0
2096921,2096921,181592,624257,0
2096921,2096921,181364,624274,0
2096921,2096921,181014,624328,0
2096921,2096921,181769,624420,0
2096921,2096921,181412,624161,0
2096921,2096921,181613,624596,0
2096921,2096921,181343,624282,0
2096921,2096921,181615,624272,0
2096921,2096921,181716,624167,0
2096921,2096921,181395,624265,0
2096921,2096921,181275,624443,0
2096921,2096921,181690,624209,0
2096921,2096921,181404,624171,0
2096921,2096921,181531,624400,0
2096921,2096921,181433,624427,0
2096921,2096921,181549,624641,0
2096921,2096921,181564,624733,0
2096921,2096921,181525,624806,0
2096921,2096921,181537,624465,0
2096921,2096921,181786,624530,0
2096921,2096921,181727,624551,0
2096921,2096921,181745,624757,0
2096921,2096921,181575,624559,0
2096921,2096921,181598,624595,0
2096921,2096921,181679,624338,0
2096921,2096921,181573,624497,0
2096921,2096921,181699,624830,0
2096921,2096921,181861,624973,0
2096921,2096921,181672,624801,0
2096921,2096921,181621,624902,0
2096921,2096921,181436,624944,0
2096921,2096921,182030,624598,0
2096921,2096921,181843,624566,0
2096921,2096921,181707,624576,0
2096921,2096921,181696,624560,0
2096921,2096921,181842,624993,0
2096921,2096921,181991,625006,0
2096921,2096921,182001,625340,0
2096921,2096921,181411,625212,0
2096921,2096921,181732,625247,0
2096921,2096921,181699,625057,0
2096921,2096921,181589,624974,0
2096921,2096921,181637,624573,0
2096921,2096921,181811,624935,0
2096921,2096921,181584,625111,0
2096921,2096921,181830,625045,0
2096921,2096921,181921,625270,0
2096921,2096921,181713,625216,0
2096921,2096921,181621,624866,0
2096921,2096921,181939,624960,0
2096921,2096921,181871,625232,0
2096921,2096921,181895,625027,0
2096921,2096921,181934,625103,0
2096921,2096921,181930,625224,0
2096921,2096921,181793,625034,0
2096921,2096921,182029,625264,0
2096921,2096921,181725,625637,0
2096921,2096921,181846,625205,0
2096921,2096921,182078,625440,0
2096921,2096921,181842,625295,0
2096921,2096921,181807,625040,0
2096921,2096921,181791,625194,0
2096921,2096921,181879,625379,0
2096921,2096921,181774,625141,0
2096921,2096921,181884,625320,0
2096921,2096921,181891,625542,0
2096921,2096921,181980,625417,0
2096921,2096921,182187,625573,0
2096921,2096921,181933,625626,0
2096921,2096921,181914,625425,0
2096921,2096921,181870,625777,0
2096921,2096921,181602,625360,0
2096921,2096921,181901,625190,0
2096921,2096921,181915,625072,0
2096921,2096921,181866,625477,0
2096921,2096921,182007,625589,0
2096921,2096921,182093,625719,0
2096921,2096921,181918,625328,0
2096921,2096921,181695,625315,0
2096921,2096921,181918,625536,0
2096921,2096921,182009,625591,0
2096921,2096921,181804,625478,0
2096921,2096921,181974,625568,0
2096921,2096921,181975,625755,0
2096921,2096921,181758,626015,0
2096921,2096921,181879,625699,0
2096921,2096921,182108,625901,0
2096921,2096921,181948,625857,0
2096921,2096921,182129,625773,0
2096921,2096921,182079,625430,0
2096921,2096921,181860,625304,0
2096921,2096921,182303,625619,0
2096921,2096921,181978,625691,0
2096921,2096921,181957,625788,0
2096921,2096921,181786,626019,0
2096921,2096921,182229,625859,0
2096921,2096921,181929,625910,0
2096921,2096921,182212,625870,0
2096921,2096921,182231,625458,0
2096921,2096921,182207,625615,0
2096921,2096921,182147,626297,0
2096921,2096921,182155,625965,0
2096921,2096921,182207,626008,0
2096921,2096921,181855,625693,0
2096921,2096921,182171,625613,0
2096921,2096921,182261,625956,0
2096921,2096921,182134,626064,0
2096921,2096921,182352,626129,0
2096921,2096921,182379,626078,0
2096921,2096921,181975,625926,0
2096921,2096921,182035,625769,0
2096921,2096921,182214,625701,0
2096921,2096921,181744,626167,0
2096921,2096921,181839,626130,0
2096921,2096921,181871,625944,0
2096921,2096921,182125,625950,0
2096921,2096921,182257,625999,0
2096921,2096921,182116,625894,0
2096921,2096921,182149,625787,0
2096921,2096921,182259,625792,0
2096921,2096921,181952,625505,0
2096921,2096921,181990,625585,0
2096921,2096921,181883,625690,0
2096921,2096921,182019,625667,0
2096921,2096921,182062,626051,0
2096921,2096921,182162,625617,0
2096921,2096921,181755,625752,0
2096921,2096921,181776,625668,0
2096921,2096921,182012,625672,0
2096921,2096921,181812,625691,0
2096921,2096921,181744,625408,0
2096921,2096921,181632,625495,0
2096921,2096921,181890,625333,0
2096921,2096921,181795,625196,0
2096921,2096921,181950,625427,0
2096921,2096921,181473,624796,0
2096921,2096921,181528,624898,0
2096921,2096921,181295,625256,0
2096921,2096921,181640,625325,0
2096921,2096921,181858,625177,0
2096921,2096921,181600,624515,0
2096921,2096921,181354,624289,0
2096921,2096921,181139,624613,0
2096921,2096921,181009,624633,0
2096921,2096921,181551,624375,0
2096921,2096921,180813,623848,0
2096921,2096921,180732,623514,0
2096921,2096921,180692,623700,0
2096921,2096921,180567,623695,0
2096921,2096921,180603,623649,0
2096921,2096921,180323,622872,0
2096921,2096921,180376,623045,0
2096921,2096921,180392,622777,0
2096921,2096921,180440,623142,0
2096921,2096921,180255,623105,0
2096921,2096921,180365,622878,0
2096921,2096921,180447,622624,0
2096921,2096921,180229,622481,0
2096921,2096921,180171,622936,0
2096921,2096921,180163,622506,0
2096921,2096921,180143,622240,0
2096921,2096921,180084,622277,0
2096921,2096921,180019,621715,0
2096921,2096921,179964,621982,0
2096921,2096921,180033,622144,0
2096921,2096921,179951,622004,0
2096921,2096921,180051,622079,0
2096921,2096921,179994,622062,0
2096921,2096921,180033,622083,0
2096921,2096921,179743,622086,0
2096921,2096921,179886,621946,0
2096921,2096921,179597,621959,0
2096921,2096921,179886,621707,0
2096921,2096921,179649,621552,0
2096921,2096921,179908,621678,0
2096921,2096921,179662,621811,0
2096921,2096921,179676,621747,0
2096921,2096921,179893,621814,0
2096921,2096921,180001,621926,0
2096921,2096921,179849,621761,0
2096921,2096921,179770,621584,0
2096921,2096921,179619,621699,0
2096921,2096921,179627,621714,0
2096921,2096921,179414,621757,0
2096921,2096921,179765,621933,0
2096921,2096921,179917,622329,0
2096921,2096921,179920,622027,0
2096921,2096921,179802,621959,0
2096921,2096921,179810,621817,0
2096921,2096921,179635,621804,0
2096921,2096921,179630,621973,0
2096921,2096921,179362,622062,0
2096921,2096921,179705,622398,0
2096921,2096921,179863,622244,0
2096921,2096921,179967,622409,0
2096921,2096921,180114,622480,0
2096921,2096921,179938,622172,0
2096921,2096921,179927,622225,0
2096921,2096921,179988,622391,0
2096921,2096921,179783,622476,0
2096921,2096921,179660,622437,0
2096921,2096921,179892,622410,0
2096921,2096921,179916,622153,0
2096921,2096921,179782,622403,0
2096921,2096921,180043,622343,0
2096921,2096921,180278,622191,0
2096921,2096921,180057,622100,0
2096921,2096921,180057,622550,0
2096921,2096921,180114,622782,0
2096921,2096921,179939,622443,0
2096921,2096921,180299,622577,0
2096921,2096921,180039,622750,0
2096921,2096921,180153,622572,0
2096921,2096921,180034,622717,0
2096921,2096921,180055,622810,0
2096921,2096921,180305,622879,0
2096921,2096921,180043,622772,0
2096921,2096921,180101,623224,0
2096921,2096921,180368,623109,0
2096921,2096921,180151,623296,0
2096921,2096921,180162,622968,0
2096921,2096921,180498,623031,0
2096921,2096921,180533,623383,0
2096921,2096921,180440,623301,0
2096921,2096921,180302,623270,0
2096921,2096921,180335,623234,0
2096921,2096921,180259,623404,0
2096921,2096921,180357,623567,0
2096921,2096921,180375,623323,0
2096921,2096921,180245,623813,0
2096921,2096921,180392,623418,0
2096921,2096921,180246,623550,0
2096921,2096921,180354,623430,0
2096921,2096921,180468,623962,0
2096921,2096921,180427,623755,0
2096921,2096921,180780,624002,0
2096921,2096921,180710,623905,0
2096921,2096921,180691,624006,0
2096921,2096921,180567,623885,0
2096921,2096921,180847,624010,0
2096921,2096921,180749,624068,0
2096921,2096921,180665,624075,0
2096921,2096921,180786,624085,0
2096921,2096921,180754,624049,0
2096921,2096921,180521,623837,0
2096921,2096921,180522,624092,0
2096921,2096921,180862,624726,0
2096921,2096921,181046,624671,0
2096921,2096921,180937,624437,0
2096921,2096921,180751,624415,0
2096921,2096921,180691,624891,0
2096921,2096921,180979,624624,0
2096921,2096921,180972,624470,0
2096921,2096921,180683,624822,0
2096921,2096921,180876,624494,0
2096921,2096921,181027,625131,0
2096921,2096921,181171,625020,0
2096921,2096921,181075,624958,0
2096921,2096921,181404,624892,0
2096921,2096921,181154,625183,0
2096921,2096921,181102,625030,0
2096921,2096921,181244,624982,0
2096921,2096921,181272,625167,0
2096921,2096921,181212,625143,0
2096921,2096921,181251,625216,0
2096921,2096921,181443,625417,0
2096921,2096921,181324,625327,0
2096921,2096921,181179,625720,0
2096921,2096921,181190,625474,0
2096921,2096921,181157,625549,0
2096921,2096921,181284,625440,0
2096921,2096921,181124,625306,0
2096921,2096921,181279,625304,0
2096921,2096921,180981,625541,0
2096921,2096921,181559,625609,0
2096921,2096921,181524,625630,0
2096921,2096921,181545,625659,0
2096921,2096921,181608,625881,0
2096921,2096921,181621,625874,0
2096921,2096921,181536,625996,0
2096921,2096921,181473,625893,0
2096921,2096921,181368,626252,0
2096921,2096921,181586,625966,0
2096921,2096921,181435,626197,0
2096921,2096921,181420,625795,0
2096921,2096921,181306,625862,0
2096921,2096921,181285,625900,0
2096921,2096921,181447,625978,0
2096921,2096921,181532,625915,0
2096921,2096921,181360,625926,0
2096921,2096921,181330,625955,0
2096921,2096921,181654,625861,0
2096921,2096921,181628,625855,0
2096921,2096921,181695,625964,0
2096921,2096921,181463,626057,0
2096921,2096921,181671,625989,0
2096921,2096921,181531,626182,0
2096921,2096921,181402,626149,0
2096921,2096921,181655,626113,0
2096921,2096921,181348,625950,0
2096921,2096921,181387,625918,0
2096921,2096921,181468,626508,0
2096921,2096921,181631,626106,0
2096921,2096921,181795,626176,0
2096921,2096921,181707,626286,0
2096921,2096921,181786,626447,0
2096921,2096921,181710,625973,0
2096921,2096921,181593,626425,0
2096921,2096921,181351,626531,0
2096921,2096921,181650,626266,0
2096921,2096921,181573,626286,0
2096921,2096921,181719,626085,0
2096921,2096921,181539,625874,0
2096921,2096921,181732,626233,0
2096921,2096921,181628,626139,0
2096921,2096921,181505,626274,0
2096921,2096921,181486,626236,0
2096921,2096921,181542,626284,0
2096921,2096921,181532,626579,0
2096921,2096921,181480,626132,0
2096921,2096921,181688,626221,0
2096921,2096921,181369,626294,0
2096921,2096921,181316,626045,0
2096921,2096921,181405,626253,0
2096921,2096921,181450,626228,0
2096921,2096921,181222,626072,0
2096921,2096921,181695,626151,0
2096921,2096921,181788,626270,0
2096921,2096921,181397,626319,0
2096921,2096921,181522,626199,0
2096921,2096921,181447,626248,0
2096921,2096921,181384,626422,0
2096921,2096921,181327,626182,0
2096921,2096921,181523,626384,0
2096921,2096921,181186,626389,0
2096921,2096921,181738,626464,0
2096921,2096921,181724,626464,0
2096921,2096921,181828,626569,0
2096921,2096921,181708,626662,0
2096921,2096921,181807,626379,0
2096921,2096921,181445,626352,0
2096921,2096921,181672,626353,0
2096921,2096921,181569,626335,0
2096921,2096921,181547,626357,0
2096921,2096921,181551,626600,0
2096921,2096921,181718,626882,0
2096921,2096921,181668,626632,0
2096921,2096921,181857,626618,0
2096921,2096921,181504,626694,0
2096921,2096921,181598,626539,0
2096921,2096921,181516,626162,0
2096921,2096921,181726,626503,0
2096921,2096921,181530,626479,0
2096921,2096921,181747,626866,0
2096921,2096921,181600,626624,0
2096921,2096921,182223,626983,0
2096921,2096921,181927,627164,0
2096921,2096921,182032,626881,0
2096921,2096921,182027,626870,0
2096921,2096921,182416,627163,0
2096921,2096921,181742,626997,0
2096921,2096921,181831,627180,0
2096921,2096921,181750,627046,0
2096921,2096921,181669,627088,0
2096921,2096921,181940,627119,0
2096921,2096921,182046,627258,0
2096921,2096921,182114,627411,0
2096921,2096921,182106,627208,0
2096921,2096921,181941,627116,0
2096921,2096921,182086,627205,0
2096921,2096921,182140,627452,0
2096921,2096921,181943,627360,0
2096921,2096921,181803,627285,0
2096921,2096921,181992,627197,0
2096921,2096921,182110,627210,0
2096921,2096921,182212,627856,0
2096921,2096921,182082,627657,0
2096921,2096921,182273,627647,0
2096921,2096921,181967,627692,0
2096921,2096921,182101,627518,0
2096921,2096921,181997,627696,0
2096921,2096921,182097,627913,0
2096921,2096921,182064,627953,0
2096921,2096921,182412,627759,0
2096921,2096921,182249,627571,0
2096921,2096921,182336,627926,0
2096921,2096921,182187,627663,0
2096921,2096921,182236,628025,0
2096921,2096921,182095,627724,0
2096921,2096921,182259,627946,0
2096921,2096921,182210,627976,0
2096921,2096921,182346,627804,0
2096921,2096921,182257,627887,0
2096921,2096921,182318,628059,0
2096921,2096921,182656,628047,0
2096921,2096921,182324,628101,0
2096921,2096921,182293,627860,0
2096921,2096921,182428,628303,0
2096921,2096921,182412,628187,0
2096921,2096921,182272,627888,0
2096921,2096921,182509,627994,0
2096921,2096921,182396,628537,0
2096921,2096921,182351,628395,0
2096921,2096921,182364,628434,0
2096921,2096921,182487,628412,0
2096921,2096921,182590,628186,0
2096921,2096921,182251,628323,0
2096921,2096921,182386,628024,0
2096921,2096921,182703,628369,0
2096921,2096921,182739,628352,0
2096921,2096921,182749,628449,0
2096921,2096921,182551,628165,0
2096921,2096921,182648,628724,0
2096921,2096921,182480,628405,0
2096921,2096921,182435,628454,0
2096921,2096921,182573,628458,0
2096921,2096921,182668,628687,0
2096921,2096921,182471,628800,0
2096921,2096921,182626,628805,0
2096921,2096921,182602,628744,0
2096921,2096921,182546,628838,0
2096921,2096921,182526,628738,0
2096921,2096921,182759,628806,0
2096921,2096921,182469,628263,0
2096921,2096921,182697,628582,0
2096921,2096921,182722,628643,0
2096921,2096921,182719,628782,0
2096921,2096921,182758,628596,0
2096921,2096921,182669,629050,0
2096921,2096921,182543,628864,0
2096921,2096921,182537,628944,0
2096921,2096921,182684,628992,0
2096921,2096921,182669,628962,0
2096921,2096921,182710,628729,0
2096921,2096921,182701,629043,0
2096921,2096921,182989,628947,0
2096921,2096921,183144,629257,0
2096921,2096921,183025,629313,0
2096921,2096921,182939,629028,0
2096921,2096921,182593,628999,0
2096921,2096921,182647,629232,0
2096921,2096921,182912,628919,0
2096921,2096921,182836,628928,0
2096921,2096921,182697,628970,0
2096921,2096921,182860,628989,0
2096921,2096921,182796,629265,0
2096921,2096921,182712,629242,0
2096921,2096921,182893,629199,0
2096921,2096921,182711,629221,0
2096921,2096921,182617,629071,0
2096921,2096921,182729,629091,0
2096921,2096921,182631,629279,0
2096921,2096921,182611,629233,0
2096921,2096921,182732,629026,0
2096921,2096921,182706,629079,0
2096921,2096921,182626,629170,0
2096921,2096921,182921,629387,0
2096921,2096921,182761,629290,0
2096921,2096921,182627,629456,0
2096921,2096921,182887,629318,0
2096921,2096921,182932,629560,0
2096921,2096921,182822,629644,0
2096921,2096921,182661,629247,0
2096921,2096921,182828,629016,0
2096921,2096921,182974,629363,0
2096921,2096921,182915,629442,0
2096921,2096921,183015,629450,0
2096921,2096921,183056,629583,0
2096921,2096921,183000,629531,0
2096921,2096921,182963,629531,0
2096921,2096921,183000,629455,0
2096921,2096921,182856,629452,0
2096921,2096921,182979,629500,0
2096921,2096921,182873,629297,0
2096921,2096921,183018,629540,0
2096921,2096921,183078,629570,0
2096921,2096921,183167,629531,0
2096921,2096921,183040,629648,0
2096921,2096921,183030,629760,0
2096921,2096921,182829,629565,0
2096921,2096921,182817,629825,0
2096921,2096921,183068,629743,0
2096921,2096921,182893,629710,0
2096921,2096921,182863,629418,0
2096921,2096921,182848,629402,0
2096921,2096921,182853,629529,0
2096921,2096921,183173,629815,0
2096921,2096921,183273,629780,0
2096921,2096921,183261,629873,0
2096921,2096921,183248,629733,0
2096921,2096921,182912,629835,0
2096921,2096921,182828,629750,0
2096921,2096921,182941,629811,0
2096921,2096921,183184,629865,0
2096921,2096921,183370,629803,0
2096921,2096921,183381,629737,0
2096921,2096921,183055,629491,0
2096921,2096921,183137,629733,0
2096921,2096921,183117,629766,0
2096921,2096921,183180,629838,0
2096921,2096921,183064,629653,0
2096921,2096921,182951,629881,0
2096921,2096921,183242,629858,0
2096921,2096921,183038,629825,0
2096921,2096921,183097,629697,0
2096921,2096921,183217,629928,0
2096921,2096921,183281,629974,0
2096921,2096921,183127,630147,0
2096921,2096921,183195,630282,0
2096921,2096921,182995,630118,0
2096921,2096921,183143,629841,0
2096921,2096921,183184,629858,0
2096921,2096921,183240,629981,0
2096921,2096921,182980,629944,0
2096921,2096921,183345,629746,0
2096921,2096921,183261,630027,0
2096921,2096921,183316,629901,0
2096921,2096921,183165,630006,0
2096921,2096921,183348,629796,0
2096921,2096921,183271,629801,0
2096921,2096921,182975,629978,0
2096921,2096921,183129,629657,0
2096921,2096921,183242,629686,0
2096921,2096921,183253,629628,0
2096921,2096921,183206,629838,0
2096921,2096921,182983,629761,0
2096921,2096921,183179,630020,0
2096921,2096921,183093,629839,0
2096921,2096921,183405,629953,0
2096921,2096921,183186,629932,0
2096921,2096921,183280,629991,0
2096921,2096921,182989,629720,0
2096921,2096921,183281,629955,0
2096921,2096921,183081,630008,0
2096921,2096921,183146,629995,0
2096921,2096921,183051,630132,0
2096921,2096921,183153,629995,0
2096921,2096921,183154,630182,0
2096921,2096921,183149,630106,0
2096921,2096921,183376,630258,0
2096921,2096921,183263,630120,0
2096921,2096921,183359,630229,0
2096921,2096921,183268,630336,0
2096921,2096921,183192,630166,0
2096921,2096921,183311,629931,0
2096921,2096921,183431,629859,0
2096921,2096921,183331,630028,0
2096921,2096921,183152,630207,0
2096921,2096921,183708,630138,0
2096921,2096921,183278,629933,0
2096921,2096921,183451,629787,0
2096921,2096921,183266,629905,0
2096921,2096921,183256,629840,0
2096921,2096921,183122,629851,0
2096921,2096921,183273,630161,0
2096921,2096921,183462,630109,0
2096921,2096921,183246,630079,0
2096921,2096921,183325,630276,0
2096921,2096921,183224,630195,0
2096921,2096921,183054,630386,0
2096921,2096921,183191,630145,0
2096921,2096921,183324,630107,0
2096921,2096921,183350,630251,0
2096921,2096921,183274,629892,0
2096921,2096921,183373,629885,0
2096921,2096921,183388,630041,0
2096921,2096921,183392,630376,0
2096921,2096921,183328,630318,0
2096921,2096921,183641,630247,0
2096921,2096921,183087,630436,0
2096921,2096921,183150,630024,0
2096921,2096921,183040,630125,0
2096921,2096921,183328,630187,0
2096921,2096921,183373,630118,0
2096921,2096921,183297,630152,0
2096921,2096921,183421,630489,0
2096921,2096921,183497,630278,0
2096921,2096921,183272,630105,0
2096921,2096921,183211,630033,0
2096921,2096921,183397,630372,0
2096921,2096921,183292,629967,0
2096921,2096921,183288,630055,0
2096921,2096921,183280,630113,0
2096921,2096921,183296,629955,0
2096921,2096921,183290,629992,0
2096921,2096921,183328,630436,0
2096921,2096921,183361,630144,0
2096921,2096921,183322,630108,0
2096921,2096921,183528,630109,0
2096921,2096921,183102,630119,0
2096921,2096921,183201,630088,0
2096921,2096921,182956,630173,0
2096921,2096921,183188,629908,0
2096921,2096921,183245,630056,0
2096921,2096921,183517,629958,0
2096921,2096921,183425,630147,0
2096921,2096921,183319,630170,0
2096921,2096921,183640,630397,0
2096921,2096921,183247,630273,0
2096921,2096921,183345,630165,0
2096921,2096921,183047,630130,0
2096921,2096921,183071,629925,0
2096921,2096921,183206,629886,0
2096921,2096921,183205,630040,0
2096921,2096921,183201,630199,0
2096921,2096921,183685,630214,0
2096921,2096921,183405,630201,0
2096921,2096921,183427,630162,0
2096921,2096921,183430,630013,0
2096921,2096921,183094,630023,0
2096921,2096921,183347,629919,0
2096921,2096921,183038,630087,0
2096921,2096921,183153,630042,0
2096921,2096921,183127,630121,0
2096921,2096921,183481,630061,0
2096921,2096921,183337,630244,0
2096921,2096921,183213,630056,0
2096921,2096921,183496,630135,0
2096921,2096921,183450,629825,0
2096921,2096921,183156,629882,0
2096921,2096921,183155,629841,0
2096921,2096921,183035,629671,0
2096921,2096921,182997,629608,0
2096921,2096921,183102,629674,0
2096921,2096921,183055,629674,0
2096921,2096921,183299,629626,0
2096921,2096921,183022,629579,0
2096921,2096921,182946,629787,0
2096921,2096921,182890,629807,0
2096921,2096921,182876,629587,0
2096921,2096921,182991,629514,0
2096921,2096921,182615,629337,0
2096921,2096921,182633,629056,0
2096921,2096921,182961,629007,0
2096921,2096921,183042,629353,0
2096921,2096921,182766,629084,0
2096921,2096921,182565,629336,0
2096921,2096921,182698,629091,0
2096921,2096921,182962,629013,0
2096921,2096921,182845,629011,0
2096921,2096921,182432,628318,0
2096921,2096921,182323,628133,0
2096921,2096921,182189,627976,0
2096921,2096921,182238,628268,0
2096921,2096921,182299,628161,0
2096921,2096921,182131,627323,0
2096921,2096921,182039,626927,0
2096921,2096921,182063,626971,0
2096921,2096921,181927,627161,0
2096921,2096921,181945,627453,0
2096921,2096921,181112,626695,0
2096921,2096921,181065,626546,0
2096921,2096921,181279,626595,0
2096921,2096921,181289,626509,0
2096921,2096921,181500,626415,0
2096921,2096921,181437,626199,0
2096921,2096921,181103,625797,0
2096921,2096921,181106,625901,0
2096921,2096921,181001,625647,0
2096921,2096921,181089,625796,0
2096921,2096921,181222,625614,0
2096921,2096921,180893,625508,0
2096921,2096921,181074,625605,0
2096921,2096921,181062,625780,0
2096921,2096921,181131,625300,0
2096921,2096921,180924,625241,0
2096921,2096921,180964,625202,0
2096921,2096921,180961,625309,0
2096921,2096921,180995,624992,0
2096921,2096921,180743,624959,0
2096921,2096921,180414,624839,0
2096921,2096921,180354,625061,0
2096921,2096921,180238,624941,0
2096921,2096921,180619,624780,0
2096921,2096921,180709,624933,0
2096921,2096921,180665,624967,0
2096921,2096921,180333,624786,0
2096921,2096921,180509,625161,0
2096921,2096921,180587,624994,0
2096921,2096921,180694,625023,0
2096921,2096921,180471,624848,0
2096921,2096921,181038,624736,0
2096921,2096921,180675,624790,0
2096921,2096921,180595,624624,0
2096921,2096921,180667,624830,0
2096921,2096921,180615,624653,0
2096921,2096921,180699,624864,0
2096921,2096921,180763,624934,0
2096921,2096921,180487,624912,0
2096921,2096921,180492,624815,0
2096921,2096921,180672,625028,0
2096921,2096921,180560,624774,0
2096921,2096921,180613,624740,0
2096921,2096921,180666,624671,0
2096921,2096921,180799,624553,0
2096921,2096921,180842,624779,0
2096921,2096921,180544,624775,0
2096921,2096921,180529,624904,0
2096921,2096921,180714,624791,0
2096921,2096921,180578,624689,0
2096921,2096921,180345,624682,0
2096921,2096921,180432,624714,0
2096921,2096921,180620,624684,0
2096921,2096921,180569,624607,0
2096921,2096921,180398,624838,0
2096921,2096921,181040,625031,0
2096921,2096921,180809,624992,0
2096921,2096921,180972,625102,0
2096921,2096921,180430,624806,0
2096921,2096921,180583,624886,0
2096921,2096921,180794,625141,0
2096921,2096921,180695,624722,0
2096921,2096921,180535,624575,0
2096921,2096921,180847,624760,0
2096921,2096921,180748,625088,0
2096921,2096921,180668,625215,0
2096921,2096921,180692,625088,0
2096921,2096921,180502,625159,0
2096921,2096921,180939,625027,0
2096921,2096921,180816,625319,0
2096921,2096921,181012,625179,0
2096921,2096921,180857,625410,0
2096921,2096921,180388,625273,0
2096921,2096921,180689,625103,0
2096921,2096921,180538,625212,0
2096921,2096921,180845,625268,0
2096921,2096921,181060,625445,0
2096921,2096921,181020,625152,0
2096921,2096921,180973,625657,0
2096921,2096921,180897,625549,0
2096921,2096921,180795,625445,0
2096921,2096921,181124,625501,0
2096921,2096921,180757,625754,0
2096921,2096921,181191,625675,0
2096921,2096921,181022,625753,0
2096921,2096921,180947,625693,0
2096921,2096921,181217,625711,0
2096921,2096921,181229,625881,0
2096921,2096921,180987,625788,0
2096921,2096921,180716,625624,0
2096921,2096921,181026,625744,0
2096921,2096921,181042,625812,0
2096921,2096921,180948,625701,0
2096921,2096921,181119,625713,0
2096921,2096921,181081,625805,0
2096921,2096921,181295,625716,0
2096921,2096921,181325,625995,0
2096921,2096921,181585,625938,0
2096921,2096921,181186,625943,0
2096921,2096921,181065,625760,0
2096921,2096921,181036,626163,0
2096921,2096921,181292,626180,0
2096921,2096921,181191,626037,0
2096921,2096921,181364,625994,0
2096921,2096921,181198,626146,0
2096921,2096921,181341,626185,0
2096921,2096921,181426,626232,0
2096921,2096921,181474,625981,0
2096921,2096921,181227,626376,0
2096921,2096921,181161,626109,0
2096921,2096921,181379,626615,0
2096921,2096921,181384,626285,0
2096921,2096921,181600,626076,0
2096921,2096921,181826,626198,0
2096921,2096921,181444,626318,0
2096921,2096921,181346,626320,0
2096921,2096921,181628,626299,0
2096921,2096921,181529,626375,0
2096921,2096921,181444,626208,0
2096921,2096921,181406,626270,0
2096921,2096921,181638,626188,0
2096921,2096921,181528,626486,0
2096921,2096921,181658,626651,0
2096921,2096921,181756,626280,0
2096921,2096921,181455,626279,0
2096921,2096921,181785,626186,0
2096921,2096921,181494,626541,0
2096921,2096921,181651,626547,0
2096921,2096921,181695,626546,0
2096921,2096921,181604,626370,0
2096921,2096921,181581,626447,0
2096921,2096921,181500,626327,0
2096921,2096921,181491,626442,0
2096921,2096921,181494,626362,0
2096921,2096921,181448,626688,0
2096921,2096921,181620,626403,0
2096921,2096921,181675,626411,0
2096921,2096921,181638,626277,0
2096921,2096921,181582,626454,0
2096921,2096921,181594,626417,0
2096921,2096921,181615,626415,0
2096921,2096921,181362,626206,0
2096921,2096921,181476,626417,0
2096921,2096921,181500,626259,0
2096921,2096921,181324,626318,0
2096921,2096921,181651,626456,0
2096921,2096921,181798,626489,0
2096921,2096921,181592,626357,0
2096921,2096921,181649,626239,0
2096921,2096921,181548,626377,0
2096921,2096921,181251,626297,0
2096921,2096921,181400,626148,0
2096921,2096921,181181,626074,0
2096921,2096921,181457,626043,0
2096921,2096921,181588,626105,0
2096921,2096921,181694,625966,0
2096921,2096921,181701,626464,0
2096921,2096921,181439,625945,0
2096921,2096921,181635,626068,0
2096921,2096921,181249,625997,0
2096921,2096921,181337,626031,0
2096921,2096921,181498,625923,0
2096921,2096921,181549,625871,0
2096921,2096921,181527,626053,0
2096921,2096921,181775,626140,0
2096921,2096921,181189,625917,0
2096921,2096921,181340,626285,0
2096921,2096921,181592,625838,0
2096921,2096921,181635,626066,0
2096921,2096921,181592,625850,0
2096921,2096921,181336,625670,0
2096921,2096921,181158,625706,0
2096921,2096921,181245,625948,0
2096921,2096921,181362,625794,0
2096921,2096921,181009,625765,0
2096921,2096921,181204,625392,0
2096921,2096921,181362,625693,0
2096921,2096921,181460,625685,0
2096921,2096921,181260,625761,0
2096921,2096921,181349,625603,0
2096921,2096921,181360,625748,0
2096921,2096921,181300,625605,0
2096921,2096921,181327,625681,0
2096921,2096921,181147,625431,0
2096921,2096921,181187,625603,0
2096921,2096921,181109,625480,0
2096921,2096921,181211,625417,0
2096921,2096921,181433,625393,0
2096921,2096921,181582,625386,0
2096921,2096921,181295,625581,0
2096921,2096921,181113,625490,0
2096921,2096921,181129,625508,0
2096921,2096921,181036,625370,0
2096921,2096921,181098,625659,0
2096921,2096921,181484,625450,0
2096921,2096921,181317,625486,0
2096921,2096921,181547,625425,0
2096921,2096921,181478,625378,0
2096921,2096921,181180,625410,0
2096921,2096921,181245,625472,0
2096921,2096921,181494,625470,0
2096921,2096921,181310,625485,0
2096921,2096921,181372,625385,0
2096921,2096921,181090,625327,0
2096921,2096921,181276,625621,0
2096921,2096921,181334,625504,0
2096921,2096921,181567,625654,0
2096921,2096921,181460,625468,0
2096921,2096921,181550,625508,0
2096921,2096921,181423,625795,0
2096921,2096921,181362,625658,0
2096921,2096921,181491,625661,0
2096921,2096921,181487,625636,0
2096921,2096921,181204,625709,0
2096921,2096921,181435,625584,0
2096921,2096921,181584,625567,0
2096921,2096921,181413,625747,0
2096921,2096921,181532,625704,0
2096921,2096921,181675,625904,0
2096921,2096921,181482,625570,0
2096921,2096921,181422,625666,0
2096921,2096921,181480,625539,0
2096921,2096921,181317,625840,0
2096921,2096921,181505,625745,0
2096921,2096921,181513,626099,0
2096921,2096921,181375,625730,0
2096921,2096921,181538,625938,0
2096921,2096921,181429,625707,0
2096921,2096921,181488,625622,0
2096921,2096921,181402,625866,0
2096921,2096921,181666,625801,0
2096921,2096921,181603,625756,0
2096921,2096921,181329,625671,0
2096921,2096921,181365,625965,0
2096921,2096921,181752,625711,0
2096921,2096921,181367,625722,0
2096921,2096921,181589,625625,0
2096921,2096921,181598,625861,0
2096921,2096921,181420,625845,0
2096921,2096921,181582,625478,0
2096921,2096921,181809,625833,0
2096921,2096921,181860,625724,0
2096921,2096921,181628,625691,0
2096921,2096921,181583,625563,0
2096921,2096921,181346,626017,0
2096921,2096921,181438,625961,0
2096921,2096921,181542,625880,0
2096921,2096921,181556,625813,0
2096921,2096921,181755,625545,0
2096921,2096921,181679,625848,0
2096921,2096921,181670,626009,0
2096921,2096921,181594,625795,0
2096921,2096921,181552,625940,0
2096921,2096921,181558,626081,0
2096921,2096921,181651,625852,0
2096921,2096921,181403,626113,0
2096921,2096921,181713,625865,0
2096921,2096921,181758,625824,0
2096921,2096921,181873,625971,0
2096921,2096921,181943,625752,0
2096921,2096921,181607,625526,0
2096921,2096921,181681,625681,0
2096921,2096921,181584,625845,0
2096921,2096921,181643,625708,0
2096921,2096921,181876,626256,0
2096921,2096921,181883,625770,0
2096921,2096921,181726,625876,0
2096921,2096921,181810,625806,0
2096921,2096921,182029,625912,0
2096921,2096921,181907,625935,0
2096921,2096921,182168,625721,0
2096921,2096921,181712,625860,0
2096921,2096921,181792,626184,0
2096921,2096921,181538,625930,0
2096921,2096921,181796,625811,0
2096921,2096921,181683,625537,0
2096921,2096921,181899,625689,0
2096921,2096921,181792,625865,0
2096921,2096921,181940,625722,0
2096921,2096921,181701,625683,0
2096921,2096921,181795,626014,0
2096921,2096921,181363,626178,0
2096921,2096921,181518,626017,0
2096921,2096921,181622,625709,0
2096921,2096921,181743,625849,0
2096921,2096921,181844,626108,0
2096921,2096921,182020,626071,0
2096921,2096921,181818,625956,0
2096921,2096921,181703,625989,0
2096921,2096921,181694,626251,0
2096921,2096921,181841,625949,0
2096921,2096921,181640,625655,0
2096921,2096921,181410,625759,0
2096921,2096921,181499,625824,0
2096921,2096921,181515,625819,0
2096921,2096921,181671,625931,0
2096921,2096921,181758,626119,0
2096921,2096921,181776,625816,0
2096921,2096921,181854,626170,0
2096921,2096921,181641,626213,0
2096921,2096921,181898,626246,0
2096921,2096921,181991,625752,0
2096921,2096921,181961,625911,0
2096921,2096921,181611,625958,0
2096921,2096921,181994,626115,0
2096921,2096921,181846,626114,0
2096921,2096921,181798,625978,0
2096921,2096921,182044,626171,0
2096921,2096921,181781,625893,0
2096921,2096921,181859,626249,0
2096921,2096921,181810,625727,0
2096921,2096921,181671,625759,0
2096921,2096921,181766,625858,0
2096921,2096921,181866,625843,0
2096921,2096921,181837,625719,0
2096921,2096921,181793,625872,0
2096921,2096921,181807,625636,0
2096921,2096921,181961,625855,0
2096921,2096921,181888,625921,0
2096921,2096921,181789,625900,0
2096921,2096921,181980,625837,0
2096921,2096921,181800,625872,0
2096921,2096921,182070,625968,0
2096921,2096921,181805,625844,0
2096921,2096921,181837,625708,0
2096921,2096921,182012,625479,0
2096921,2096921,182027,625704,0
2096921,2096921,181843,625994,0
2096921,2096921,181773,625785,0
2096921,2096921,181665,625761,0
2096921,2096921,181924,625565,0
2096921,2096921,181729,625535,0
2096921,2096921,181678,625488,0
2096921,2096921,181849,625906,0
2096921,2096921,181755,625792,0
2096921,2096921,181869,625771,0
2096921,2096921,181649,625977,0
2096921,2096921,181890,625718,0
2096921,2096921,181751,625679,0
2096921,2096921,181809,625700,0
2096921,2096921,181939,625708,0
2096921,2096921,181888,625826,0
2096921,2096921,181802,625708,0
2096921,2096921,181873,625682,0
2096921,2096921,181774,625579,0
2096921,2096921,182116,625517,0
2096921,2096921,181861,625381,0
2096921,2096921,181877,625654,0
2096921,2096921,181859,625818,0
2096921,2096921,181434,625791,0
2096921,2096921,181942,625327,0
2096921,2096921,181890,625428,0
2096921,2096921,182051,625330,0
2096921,2096921,181840,625733,0
2096921,2096921,181951,625582,0
2096921,2096921,181827,625521,0
2096921,2096921,181715,625345,0
2096921,2096921,181870,625506,0
2096921,2096921,181943,625712,0
2096921,2096921,182025,625799,0
2096921,2096921,181954,625443,0
2096921,2096921,181980,625519,0
2096921,2096921,181762,625490,0
2096921,2096921,181986,625640,0
2096921,2096921,181899,625310,0
2096921,2096921,182103,625331,0
2096921,2096921,182032,625497,0
2096921,2096921,182013,625782,0
2096921,2096921,181821,625713,0
2096921,2096921,181940,625594,0
2096921,2096921,181838,625389,0
2096921,2096921,181580,625338,0
2096921,2096921,182052,625275,0
2096921,2096921,181864,625458,0
2096921,2096921,181738,625445,0
2096921,2096921,181971,625352,0
2096921,2096921,181757,625507,0
2096921,2096921,181837,625483,0
2096921,2096921,181878,625738,0
2096921,2096921,181891,625779,0
2096921,2096921,181856,625717,0
2096921,2096921,181674,625381,0
2096921,2096921,181814,625307,0
2096921,2096921,181894,625309,0
2096921,2096921,182040,625331,0
2096921,2096921,182082,625137,0
2096921,2096921,181946,625387,0
2096921,2096921,181984,625479,0
2096921,2096921,181894,625273,0
2096921,2096921,181719,625275,0
2096921,2096921,181764,625505,0
2096921,2096921,181871,625402,0
2096921,2096921,181478,625375,0
2096921,2096921,182041,625343,0
2096921,2096921,181726,625446,0
2096921,2096921,181865,625139,0
2096921,2096921,181779,625372,0
2096921,2096921,182222,625019,0
2096921,2096921,182120,625041,0
2096921,2096921,181835,625278,0
2096921,2096921,181892,625166,0
2096921,2096921,182032,624872,0
2096921,2096921,181792,625087,0
2096921,2096921,181709,624854,0
2096921,2096921,181585,625091,0
2096921,2096921,181739,625231,0
2096921,2096921,181632,625182,0
2096921,2096921,181908,625176,0
2096921,2096921,181962,625300,0
2096921,2096921,181689,625364,0
2096921,2096921,181621,625213,0
2096921,2096921,181825,624959,0
2096921,2096921,181689,625205,0
2096921,2096921,181564,625358,0
2096921,2096921,181603,625208,0
2096921,2096921,181791,625182,0
2096921,2096921,181702,625092,0
2096921,2096921,181915,625003,0
2096921,2096921,181695,625163,0
2096921,2096921,181730,625114,0
2096921,2096921,181635,625187,0
2096921,2096921,181899,624907,0
2096921,2096921,181630,625212,0
2096921,2096921,181668,624661,0
2096921,2096921,181624,624794,0
2096921,2096921,181760,624696,0
2096921,2096921,181566,624889,0
2096921,2096921,181571,624811,0
2096921,2096921,181576,624890,0
2096921,2096921,181865,625143,0
2096921,2096921,181494,624882,0
2096921,2096921,181777,624568,0
2096921,2096921,181679,624858,0
2096921,2096921,181694,624676,0
2096921,2096921,181656,624528,0
2096921,2096921,181744,624825,0
2096921,2096921,181468,624970,0
2096921,2096921,181499,624714,0
2096921,2096921,181435,624826,0
2096921,2096921,181606,624713,0
2096921,2096921,181333,624893,0
2096921,2096921,181690,624656,0
2096921,2096921,181808,624600,0
2096921,2096921,181616,624782,0
2096921,2096921,181762,624779,0
2096921,2096921,181600,624792,0
2096921,2096921,181479,624819,0
2096921,2096921,181702,624854,0
2096921,2096921,181624,624796,0
2096921,2096921,181639,624741,0
2096921,2096921,181333,624220,0
2096921,2096921,181498,624672,0
2096921,2096921,181368,624606,0
2096921,2096921,181357,624646,0
2096921,2096921,181182,624515,0
2096921,2096921,181295,624531,0
2096921,2096921,181657,624729,0
2096921,2096921,181693,624368,0
2096921,2096921,181539,624942,0
2096921,2096921,181512,624565,0
2096921,2096921,181689,624410,0
2096921,2096921,181467,624467,0
2096921,2096921,181676,624636,0
2096921,2096921,181616,624451,0
2096921,2096921,181413,624398,0
2096921,2096921,181388,624307,0
2096921,2096921,181618,624543,0
2096921,2096921,181431,624390,0
2096921,2096921,181685,624223,0
2096921,2096921,181261,624425,0
2096921,2096921,181417,624170,0
2096921,2096921,181604,624426,0
2096921,2096921,181382,624218,0
2096921,2096921,181196,624105,0
2096921,2096921,181279,624212,0
2096921,2096921,181234,624190,0
2096921,2096921,181349,624034,0
2096921,2096921,181389,624004,0
2096921,2096921,181268,623482,0
2096921,2096921,181043,623861,0
2096921,2096921,181089,623691,0
2096921,2096921,180905,623559,0
2096921,2096921,181154,623583,0
2096921,2096921,181162,623064,0
2096921,2096921,181237,623554,0
2096921,2096921,181118,623147,0
2096921,2096921,181093,622758,0
2096921,2096921,181017,623023,0
2096921,2096921,180904,623352,0
2096921,2096921,181042,622786,0
2096921,2096921,180715,622591,0
2096921,2096921,180457,622037,0
2096921,2096921,180556,622510,0
2096921,2096921,180411,622027,0
2096921,2096921,180316,622406,0
2096921,2096921,180108,621424,0
2096921,2096921,180280,621338,0
2096921,2096921,180013,621571,0
2096921,2096921,180123,621409,0
2096921,2096921,179857,621492,0
2096921,2096921,179771,620753,0
2096921,2096921,179399,620885,0
2096921,2096921,179256,620266,0
2096921,2096921,179498,620358,0
2096921,2096921,179417,620437,0
2096921,2096921,179150,620087,0
2096921,2096921,179419,620003,0
2096921,2096921,179237,620208,0
2096921,2096921,179544,620091,0
2096921,2096921,179237,619731,0
2096921,2096921,179108,619761,0
2096921,2096921,179264,619415,0
2096921,2096921,179120,619638,0
2096921,2096921,179059,619324,0
2096921,2096921,178898,619402,0
2096921,2096921,178867,619050,0
2096921,2096921,179045,619130,0
2096921,2096921,178997,619174,0
2096921,2096921,179090,619391,0
2096921,2096921,178852,618948,0
2096921,2096921,178425,618925,0
2096921,2096921,178898,618823,0
2096921,2096921,178693,618913,0
2096921,2096921,178651,618833,0
2096921,2096921,178874,618861,0
2096921,2096921,178702,618856,0
2096921,2096921,178795,618972,0
2096921,2096921,178620,618834,0
2096921,2096921,178811,618884,0
2096921,2096921,178693,618896,0
2096921,2096921,178788,618670,0
2096921,2096921,178842,618802,0
2096921,2096921,178719,618932,0
2096921,2096921,178621,618786,0
2096921,2096921,178741,618713,0
2096921,2096921,178595,618682,0
2096921,2096921,178824,618828,0
2096921,2096921,179019,618920,0
2096921,2096921,178917,619057,0
2096921,2096921,178736,618947,0
2096921,2096921,178651,618810,0
2096921,2096921,179013,618942,0
2096921,2096921,179015,618846,0
2096921,2096921,178817,618647,0
2096921,2096921,178856,618876,0
2096921,2096921,178948,618948,0
2096921,2096921,178542,618799,0
2096921,2096921,178960,618722,0
2096921,2096921,178647,618771,0
2096921,2096921,178778,618664,0
2096921,2096921,178787,618896,0
2096921,2096921,178775,619107,0
2096921,2096921,178582,619078,0
2096921,2096921,178566,618822,0
2096921,2096921,178737,618914,0
2096921,2096921,178673,619050,0
2096921,2096921,179050,618825,0
2096921,2096921,178828,619166,0
2096921,2096921,179130,618930,0
2096921,2096921,178727,618988,0
2096921,2096921,178839,619269,0
2096921,2096921,178672,619108,0
2096921,2096921,178938,619205,0
2096921,2096921,178877,619152,0
2096921,2096921,178739,619344,0
2096921,2096921,179067,619261,0
2096921,2096921,178993,619302,0
2096921,2096921,179022,619257,0
2096921,2096921,178998,619150,0
2096921,2096921,178953,619173,0
2096921,2096921,179123,619386,0
2096921,2096921,178962,619605,0
2096921,2096921,178996,619568,0
2096921,2096921,179156,619471,0
2096921,2096921,178971,619376,0
2096921,2096921,179084,619378,0
2096921,2096921,179318,619636,0
2096921,2096921,179474,619617,0
2096921,2096921,179425,619656,0
2096921,2096921,179081,619649,0
2096921,2096921,179211,619585,0
2096921,2096921,179353,619587,0
2096921,2096921,179534,619787,0
2096921,2096921,179130,619610,0
2096921,2096921,179567,619904,0
2096921,2096921,179207,620009,0
2096921,2096921,179160,619877,0
2096921,2096921,179420,620238,0
2096921,2096921,179450,619938,0
2096921,2096921,178999,620100,0
2096921,2096921,179527,619959,0
2096921,2096921,179693,620136,0
2096921,2096921,179678,620053,0
2096921,2096921,179555,620390,0
2096921,2096921,179584,619918,0
2096921,2096921,179727,620307,0
2096921,2096921,179554,620217,0
2096921,2096921,179741,620405,0
2096921,2096921,179765,620120,0
2096921,2096921,179594,620338,0
2096921,2096921,179235,620226,0
2096921,2096921,179590,619961,0
2096921,2096921,179687,620090,0
2096921,2096921,179823,620265,0
2096921,2096921,179891,620460,0
2096921,2096921,179747,620427,0
2096921,2096921,179652,620764,0
2096921,2096921,179884,620397,0
2096921,2096921,179753,620531,0
2096921,2096921,179552,620758,0
2096921,2096921,179753,620761,0
2096921,2096921,179706,620607,0
2096921,2096921,179816,620350,0
2096921,2096921,179726,620697,0
2096921,2096921,179882,620863,0
2096921,2096921,179693,620939,0
2096921,2096921,179750,620915,0
2096921,2096921,179747,621017,0
2096921,2096921,179977,620904,0
2096921,2096921,179953,621151,0
2096921,2096921,180099,621138,0
2096921,2096921,179983,621287,0
2096921,2096921,180040,621012,0
2096921,2096921,179926,620700,0
2096921,2096921,179857,621058,0
2096921,2096921,179864,621186,0
2096921,2096921,179857,621430,0
2096921,2096921,180007,621422,0
2096921,2096921,179845,621093,0
2096921,2096921,179734,621322,0
2096921,2096921,180029,621173,0
2096921,2096921,180105,620897,0
2096921,2096921,180372,621270,0
2096921,2096921,179695,621525,0
2096921,2096921,179842,621237,0
2096921,2096921,179797,621148,0
2096921,2096921,180220,621223,0
2096921,2096921,180244,621357,0
2096921,2096921,179970,621369,0
2096921,2096921,180097,621228,0
2096921,2096921,180244,621101,0
2096921,2096921,180069,620786,0
2096921,2096921,180051,621021,0
2096921,2096921,179901,621088,0
2096921,2096921,180125,621214,0
2096921,2096921,180071,621434,0
2096921,2096921,180436,621367,0
2096921,2096921,180019,621423,0
2096921,2096921,180260,621245,0
2096921,2096921,179976,621282,0
2096921,2096921,180003,621184,0
2096921,2096921,180168,621172,0
2096921,2096921,179872,621191,0
2096921,2096921,180048,621265,0
2096921,2096921,180301,621188,0
2096921,2096921,180302,621220,0
2096921,2096921,180166,621121,0
2096921,2096921,180163,621325,0
2096921,2096921,179890,621369,0
2096921,2096921,179918,621141,0
2096921,2096921,179953,621276,0
2096921,2096921,179959,621122,0
2096921,2096921,179821,621277,0
2096921,2096921,179680,621294,0
2096921,2096921,180111,621110,0
2096921,2096921,180163,621004,0
2096921,2096921,180112,621087,0
2096921,2096921,179685,621167,0
2096921,2096921,180086,620942,0
2096921,2096921,179886,621015,0
2096921,2096921,179890,621027,0
2096921,2096921,179832,621053,0
2096921,2096921,179925,620925,0
2096921,2096921,179975,620827,0
2096921,2096921,180062,621006,0
2096921,2096921,179779,621223,0
2096921,2096921,180001,621054,0
2096921,2096921,180028,621262,0
2096921,2096921,180053,621017,0
2096921,2096921,179819,621152,0
2096921,2096921,179780,621165,0
2096921,2096921,179867,621051,0
2096921,2096921,179744,620880,0
2096921,2096921,179780,620921,0
2096921,2096921,179943,620777,0
2096921,2096921,179750,621052,0
2096921,2096921,179808,621157,0
2096921,2096921,179824,621121,0
2096921,2096921,179976,621069,0
2096921,2096921,179705,621042,0
2096921,2096921,179856,621215,0
2096921,2096921,179711,621158,0
2096921,2096921,179802,621284,0
2096921,2096921,179849,620930,0
2096921,2096921,180040,620946,0
2096921,2096921,179947,621164,0
2096921,2096921,179868,621141,0
2096921,2096921,180236,621248,0
2096921,2096921,180115,620968,0
2096921,2096921,179992,621060,0
2096921,2096921,180097,621274,0
2096921,2096921,180227,621433,0
2096921,2096921,180160,621179,0
2096921,2096921,180056,621214,0
2096921,2096921,179846,620972,0
2096921,2096921,180128,621425,0
2096921,2096921,180086,621338,0
2096921,2096921,180037,621382,0
2096921,2096921,180218,621424,0
2096921,2096921,180512,621395,0
2096921,2096921,180114,621426,0
2096921,2096921,180079,621419,0
2096921,2096921,179971,621309,0
2096921,2096921,180019,621259,0
2096921,2096921,179943,621348,0
2096921,2096921,180233,621719,0
2096921,2096921,180398,621521,0
2096921,2096921,180271,621532,0
2096921,2096921,180289,621359,0
2096921,2096921,180191,621622,0
2096921,2096921,180425,621610,0
2096921,2096921,179884,621450,0
2096921,2096921,179959,621470,0
2096921,2096921,180290,621769,0
2096921,2096921,180214,621831,0
2096921,2096921,180201,621797,0
2096921,2096921,180205,621697,0
2096921,2096921,180337,621675,0
2096921,2096921,179971,621587,0
2096921,2096921,180319,621763,0
2096921,2096921,180085,621673,0
2096921,2096921,180112,621445,0
2096921,2096921,180034,621717,0
2096921,2096921,180473,621919,0
2096921,2096921,180121,621732,0
2096921,2096921,180592,621632,0
2096921,2096921,180441,621868,0
2096921,2096921,180471,622093,0
2096921,2096921,180389,622211,0
2096921,2096921,180426,622118,0
2096921,2096921,180767,621991,0
2096921,2096921,180795,622089,0
2096921,2096921,180937,622275,0
2096921,2096921,180646,622016,0
2096921,2096921,180367,622199,0
2096921,2096921,180518,622327,0
2096921,2096921,180611,622180,0
2096921,2096921,180628,622525,0
2096921,2096921,180426,622250,0
2096921,2096921,180323,622366,0
2096921,2096921,180523,622015,0
2096921,2096921,180765,622409,0
2096921,2096921,180531,622059,0
2096921,2096921,180464,622068,0
2096921,2096921,180464,621980,0
2096921,2096921,180648,622117,0
2096921,2096921,180642,622367,0
2096921,2096921,180975,622654,0
2096921,2096921,180427,622804,0
2096921,2096921,180446,622216,0
2096921,2096921,180500,622487,0
2096921,2096921,180587,622193,0
2096921,2096921,180490,622343,0
2096921,2096921,180402,622348,0
2096921,2096921,180514,622260,0
2096921,2096921,180552,622515,0
2096921,2096921,180651,622584,0
2096921,2096921,180846,622299,0
2096921,2096921,181133,622564,0
2096921,2096921,180890,622533,0
2096921,2096921,180662,622486,0
2096921,2096921,180612,622504,0
2096921,2096921,180616,622283,0
2096921,2096921,180733,622735,0
2096921,2096921,180535,622666,0
2096921,2096921,180940,622605,0
2096921,2096921,180888,622779,0
2096921,2096921,180868,622877,0
2096921,2096921,180778,622841,0
2096921,2096921,180972,622963,0
2096921,2096921,180803,622939,0
2096921,2096921,180968,623020,0
2096921,2096921,180755,623139,0
2096921,2096921,180792,622610,0
2096921,2096921,180549,622838,0
2096921,2096921,180886,622616,0
2096921,2096921,181116,622798,0
2096921,2096921,181209,622875,0
2096921,2096921,180938,623162,0
2096921,2096921,180693,623184,0
2096921,2096921,180765,623042,0
2096921,2096921,180674,622793,0
2096921,2096921,181138,622820,0
2096921,2096921,181044,622667,0
2096921,2096921,180660,623013,0
2096921,2096921,180792,623209,0
2096921,2096921,181172,623040,0
2096921,2096921,181269,623254,0
2096921,2096921,181186,623208,0
2096921,2096921,180881,622944,0
2096921,2096921,180989,623083,0
2096921,2096921,181058,623093,0
2096921,2096921,180875,623096,0
2096921,2096921,181072,623114,0
2096921,2096921,180941,623270,0
2096921,2096921,181306,623427,0
2096921,2096921,181048,623357,0
2096921,2096921,181267,623398,0
2096921,2096921,181016,623568,0
2096921,2096921,181099,623139,0
2096921,2096921,180979,623508,0
2096921,2096921,181116,623345,0
2096921,2096921,181154,623317,0
2096921,2096921,181030,623328,0
2096921,2096921,180950,623431,0
2096921,2096921,181223,623412,0
2096921,2096921,181231,623389,0
2096921,2096921,181234,623593,0
2096921,2096921,181167,623603,0
2096921,2096921,181072,623421,0
2096921,2096921,180880,623871,0
2096921,2096921,181114,623251,0
2096921,2096921,181177,623439,0
2096921,2096921,181172,623613,0
2096921,2096921,181192,623657,0
2096921,2096921,181174,623454,0
2096921,2096921,181279,623660,0
2096921,2096921,181480,623715,0
2096921,2096921,181370,623726,0
2096921,2096921,181337,623767,0
2096921,2096921,181368,623677,0
2096921,2096921,181404,623815,0
2096921,2096921,181025,623822,0
2096921,2096921,181218,623621,0
2096921,2096921,181366,623949,0
2096921,2096921,181318,623524,0
2096921,2096921,181604,623998,0
2096921,2096921,181195,623828,0
2096921,2096921,181021,623783,0
2096921,2096921,181139,623455,0
2096921,2096921,181079,624183,0
2096921,2096921,181301,623928,0
2096921,2096921,181192,624170,0
2096921,2096921,181133,623777,0
2096921,2096921,181171,623936,0
2096921,2096921,181184,624131,0
2096921,2096921,181635,623817,0
2096921,2096921,181555,623828,0
2096921,2096921,181039,623635,0
2096921,2096921,181314,624007,0
2096921,2096921,181479,623842,0
2096921,2096921,181496,623931,0
2096921,2096921,181387,624198,0
2096921,2096921,181677,623965,0
2096921,2096921,181688,623968,0
2096921,2096921,181681,624087,0
2096921,2096921,181473,624293,0
2096921,2096921,181371,624010,0
2096921,2096921,181452,624067,0
2096921,2096921,181723,624239,0
2096921,2096921,181224,624243,0
2096921,2096921,181420,623997,0
2096921,2096921,181325,624062,0
2096921,2096921,181340,624142,0
2096921,2096921,181493,624192,0
2096921,2096921,181771,624226,0
2096921,2096921,181410,624420,0
2096921,2096921,181667,624228,0
2096921,2096921,181550,624493,0
2096921,2096921,181460,624205,0
2096921,2096921,181488,624284,0
2096921,2096921,181501,624645,0
2096921,2096921,181584,624517,0
2096921,2096921,181435,624237,0
2096921,2096921,181613,624062,0
2096921,2096921,181471,624303,0
2096921,2096921,181713,624381,0
2096921,2096921,181480,624665,0
2096921,2096921,181428,624577,0
2096921,2096921,181502,624562,0
2096921,2096921,181718,624636,0
2096921,2096921,181701,624431,0
2096921,2096921,181754,624495,0
2096921,2096921,181686,624509,0
2096921,2096921,181653,624447,0
2096921,2096921,181598,624764,0
2096921,2096921,181455,624971,0
2096921,2096921,181439,624663,0
2096921,2096921,181546,624854,0
2096921,2096921,181813,624587,0
2096921,2096921,181669,624750,0
2096921,2096921,181431,624678,0
2096921,2096921,181669,624702,0
2096921,2096921,181647,624750,0
2096921,2096921,181549,624833,0
2096921,2096921,181439,624813,0
2096921,2096921,181773,625115,0
2096921,2096921,181682,625314,0
2096921,2096921,181845,625078,0
2096921,2096921,181950,625102,0
2096921,2096921,181917,624948,0
2096921,2096921,181711,624811,0
2096921,2096921,181725,624834,0
2096921,2096921,181548,624886,0
2096921,2096921,181830,625141,0
2096921,2096921,181703,625037,0
2096921,2096921,181685,625026,0
2096921,2096921,181653,624948,0
2096921,2096921,181964,625146,0
2096921,2096921,182001,625299,0
2096921,2096921,182087,625348,0
2096921,2096921,181633,625265,0
2096921,2096921,181523,625379,0
2096921,2096921,181739,625265,0
2096921,2096921,181838,625188,0
2096921,2096921,181704,624991,0
2096921,2096921,181882,625143,0
2096921,2096921,181774,625358,0
2096921,2096921,181896,625413,0
2096921,2096921,181841,625517,0
2096921,2096921,181593,625007,0
2096921,2096921,181741,625252,0
2096921,2096921,181783,625400,0
2096921,2096921,181822,625102,0
2096921,2096921,181923,624996,0
2096921,2096921,181774,625209,0
2096921,2096921,181926,625490,0
2096921,2096921,181664,625487,0
2096921,2096921,182041,625462,0
2096921,2096921,181570,625249,0
2096921,2096921,181718,625560,0
2096921,2096921,181875,625450,0
2096921,2096921,181747,625396,0
2096921,2096921,181900,625346,0
2096921,2096921,182213,625467,0
2096921,2096921,182103,625543,0
2096921,2096921,182146,625586,0
2096921,2096921,181790,625619,0
2096921,2096921,182022,625348,0
2096921,2096921,181958,625340,0
2096921,2096921,181931,625929,0
2096921,2096921,181821,625963,0
2096921,2096921,181831,625671,0
2096921,2096921,181818,625613,0
2096921,2096921,181944,625641,0
2096921,2096921,182132,625760,0
2096921,2096921,182165,625667,0
2096921,2096921,182162,625782,0
2096921,2096921,181836,625903,0
2096921,2096921,181977,625915,0
2096921,2096921,181895,625743,0
2096921,2096921,181785,625854,0
2096921,2096921,181981,625874,0
2096921,2096921,181705,625468,0
2096921,2096921,181939,625745,0
2096921,2096921,181952,625587,0
2096921,2096921,182054,626006,0
2096921,2096921,181823,625670,0
2096921,2096921,182106,625812,0
2096921,2096921,181853,626010,0
2096921,2096921,182185,626120,0
2096921,2096921,181871,626324,0
2096921,2096921,182002,626131,0
2096921,2096921,182036,625975,0
2096921,2096921,182013,625531,0
2096921,2096921,182054,625574,0
2096921,2096921,182041,625710,0
2096921,2096921,181874,625929,0
2096921,2096921,182176,625703,0
2096921,2096921,181783,625842,0
2096921,2096921,181880,625750,0
2096921,2096921,181873,625854,0
2096921,2096921,181846,625709,0
2096921,2096921,181655,625624,0
2096921,2096921,181986,625730,0
2096921,2096921,181819,625372,0
2096921,2096921,182048,625803,0
2096921,2096921,181842,625690,0
2096921,2096921,181660,625897,0
2096921,2096921,181772,625589,0
2096921,2096921,181786,625518,0
2096921,2096921,181828,625230,0
2096921,2096921,181855,625323,0
2096921,2096921,181755,625211,0
2096921,2096921,181812,625119,0
2096921,2096921,181454,625284,0
2096921,2096921,181514,625353,0
2096921,2096921,181326,625353,0
2096921,2096921,181429,625260,0
2096921,2096921,181745,625201,0
2096921,2096921,181556,624519,0
2096921,2096921,181041,624380,0
2096921,2096921,181428,624226,0
2096921,2096921,181365,624421,0
2096921,2096921,181207,624073,0
2096921,2096921,180789,623666,0
2096921,2096921,180671,623767,0
2096921,2096921,180531,623755,0
2096921,2096921,180688,623583,0
2096921,2096921,181030,623550,0
2096921,2096921,180210,623045,0
2096921,2096921,180473,622744,0
2096921,2096921,180565,622603,0
2096921,2096921,180248,622988,0
2096921,2096921,180372,622714,0
2096921,2096921,180152,622693,0
2096921,2096921,179932,622278,0
2096921,2096921,180301,622322,0
2096921,2096921,180112,622366,0
2096921,2096921,180058,622607,0
2096921,2096921,180074,622176,0
2096921,2096921,179794,622020,0
2096921,2096921,180001,622195,0
2096921,2096921,179699,621959,0
2096921,2096921,179466,621685,0
2096921,2096921,179594,621714,0
2096921,2096921,179965,621680,0
2096921,2096921,179945,622042,0
2096921,2096921,179819,622135,0
2096921,2096921,179779,622005,0
2096921,2096921,179836,621614,0
2096921,2096921,179643,621727,0
2096921,2096921,179446,621703,0
2096921,2096921,179695,621826,0
2096921,2096921,179644,621490,0
2096921,2096921,179601,621578,0
2096921,2096921,179748,621581,0
2096921,2096921,179805,621849,0
2096921,2096921,179668,621525,0
2096921,2096921,179787,621795,0
2096921,2096921,179870,621574,0
2096921,2096921,179529,621652,0
2096921,2096921,179566,621554,0
2096921,2096921,179720,621979,0
2096921,2096921,179556,621753,0
2096921,2096921,179897,621968,0
2096921,2096921,179750,621814,0
2096921,2096921,179751,621922,0
2096921,2096921,179704,621541,0
2096921,2096921,179614,621963,0
2096921,2096921,179825,621976,0
2096921,2096921,179457,621802,0
2096921,2096921,179660,621758,0
2096921,2096921,179756,621689,0
2096921,2096921,179722,621977,0
2096921,2096921,179651,621814,0
2096921,2096921,179616,621973,0
2096921,2096921,179573,622360,0
2096921,2096921,180013,621998,0
2096921,2096921,179617,622121,0
2096921,2096921,179764,622292,0
2096921,2096921,179709,622283,0
2096921,2096921,179910,622296,0
2096921,2096921,179887,622230,0
2096921,2096921,179464,622155,0
2096921,2096921,179862,622488,0
2096921,2096921,179873,622358,0
2096921,2096921,180130,622330,0
2096921,2096921,180197,622380,0
2096921,2096921,179997,622214,0
2096921,2096921,180152,622330,0
2096921,2096921,179928,622337,0
2096921,2096921,180158,622506,0
2096921,2096921,179966,622500,0
2096921,2096921,180145,622316,0
2096921,2096921,180198,622414,0
2096921,2096921,180481,622895,0
2096921,2096921,180185,622969,0
2096921,2096921,180067,622966,0
2096921,2096921,180145,622873,0
2096921,2096921,180145,623084,0
2096921,2096921,180337,623304,0
2096921,2096921,180370,622893,0
2096921,2096921,180080,623051,0
2096921,2096921,180324,623005,0
2096921,2096921,180183,623363,0
2096921,2096921,180415,623558,0
2096921,2096921,180342,623466,0
2096921,2096921,180365,623441,0
2096921,2096921,180453,623357,0
2096921,2096921,180187,623522,0
2096921,2096921,180413,623598,0
2096921,2096921,180082,623560,0
2096921,2096921,180527,623404,0
2096921,2096921,180163,623835,0
2096921,2096921,180528,623614,0
2096921,2096921,180719,624082,0
2096921,2096921,180828,623674,0
2096921,2096921,180788,624103,0
2096921,2096921,180820,623704,0
2096921,2096921,180586,623925,0
2096921,2096921,180708,623943,0
2096921,2096921,180549,623938,0
2096921,2096921,180482,624020,0
2096921,2096921,180391,623683,0
2096921,2096921,180713,624089,0
2096921,2096921,180813,624373,0
2096921,2096921,180567,624142,0
2096921,2096921,180749,624143,0
2096921,2096921,180702,624091,0
2096921,2096921,180838,624020,0
2096921,2096921,180729,624317,0
2096921,2096921,180751,624541,0
2096921,2096921,180853,624461,0
2096921,2096921,180745,624634,0
2096921,2096921,181094,624628,0
2096921,2096921,180968,624899,0
2096921,2096921,181249,625000,0
2096921,2096921,181325,624916,0
2096921,2096921,180985,624738,0
2096921,2096921,181012,624847,0
2096921,2096921,181123,624831,0
2096921,2096921,181014,624956,0
2096921,2096921,181279,624898,0
2096921,2096921,181101,624885,0
2096921,2096921,181231,625178,0
2096921,2096921,181348,625184,0
2096921,2096921,181264,625126,0
2096921,2096921,181256,625127,0
2096921,2096921,181274,625323,0
2096921,2096921,181330,625701,0
2096921,2096921,181078,625492,0
2096921,2096921,181067,625425,0
2096921,2096921,181400,625517,0
2096921,2096921,181391,625346,0
2096921,2096921,181351,625690,0
2096921,2096921,181370,625622,0
2096921,2096921,181221,625461,0
2096921,2096921,181631,625640,0
2096921,2096921,181472,625511,0
2096921,2096921,181216,626021,0
2096921,2096921,181207,625761,0
2096921,2096921,181171,625460,0
2096921,2096921,181357,625374,0
2096921,2096921,181369,625404,0
2096921,2096921,181584,626125,0
2096921,2096921,181737,625675,0
2096921,2096921,181531,625833,0
2096921,2096921,181598,625898,0
2096921,2096921,181671,625854,0
2096921,2096921,181493,625896,0
2096921,2096921,181417,625889,0
2096921,2096921,181294,625854,0
2096921,2096921,181426,625863,0
2096921,2096921,181556,625904,0
2096921,2096921,181579,626083,0
2096921,2096921,181513,626220,0
2096921,2096921,181724,626091,0
2096921,2096921,181670,626234,0
2096921,2096921,181434,626304,0
2096921,2096921,181430,626014,0
2096921,2096921,181468,625934,0
2096921,2096921,181334,625872,0
2096921,2096921,181316,625789,0
2096921,2096921,181354,625922,0
2096921,2096921,181422,626201,0
2096921,2096921,181533,625933,0
2096921,2096921,181472,626198,0
2096921,2096921,181501,626121,0
2096921,2096921,181192,626183,0
2096921,2096921,181312,626318,0
2096921,2096921,181161,625967,0
2096921,2096921,181190,626053,0
2096921,2096921,181341,625972,0
2096921,2096921,181596,626133,0
2096921,2096921,181331,626197,0
2096921,2096921,181553,626394,0
2096921,2096921,181754,626123,0
2096921,2096921,181741,625995,0
2096921,2096921,181580,625962,0
2096921,2096921,181673,626060,0
2096921,2096921,181345,626197,0
2096921,2096921,181678,626117,0
2096921,2096921,181351,625929,0
2096921,2096921,181538,625914,0
2096921,2096921,181707,625784,0
2096921,2096921,181677,626215,0
2096921,2096921,181196,626159,0
2096921,2096921,181345,626121,0
2096921,2096921,181699,625758,0
2096921,2096921,181528,626059,0
2096921,2096921,181313,625847,0
2096921,2096921,181384,625971,0
2096921,2096921,181567,626112,0
2096921,2096921,181425,626279,0
2096921,2096921,181316,626185,0
2096921,2096921,181316,626344,0
2096921,2096921,181485,626361,0
2096921,2096921,181521,626438,0
2096921,2096921,181225,626497,0
2096921,2096921,181502,626250,0
2096921,2096921,181541,626290,0
2096921,2096921,181460,626528,0
2096921,2096921,181258,626156,0
2096921,2096921,181554,626302,0
2096921,2096921,181448,626598,0
2096921,2096921,181670,626594,0
2096921,2096921,181669,626467,0
2096921,2096921,181481,626548,0
2096921,2096921,181517,626550,0
2096921,2096921,181670,626485,0
2096921,2096921,181914,626300,0
2096921,2096921,181691,626641,0
2096921,2096921,181819,626535,0
2096921,2096921,181607,626776,0
2096921,2096921,181675,626573,0
2096921,2096921,181820,626898,0
2096921,2096921,182017,626706,0
2096921,2096921,182012,627106,0
2096921,2096921,181854,626648,0
2096921,2096921,181769,626868,0
2096921,2096921,181830,626930,0
2096921,2096921,181989,626812,0
2096921,2096921,182060,627027,0
2096921,2096921,182091,627063,0
2096921,2096921,181741,626958,0
2096921,2096921,182037,627082,0
2096921,2096921,182133,627067,0
2096921,2096921,181779,627232,0
2096921,2096921,181904,627312,0
2096921,2096921,181989,627180,0
2096921,2096921,181870,627402,0
2096921,2096921,181898,627400,0
2096921,2096921,181855,627256,0
2096921,2096921,182025,627428,0
2096921,2096921,182115,627228,0
2096921,2096921,181963,627345,0
2096921,2096921,182164,627287,0
2096921,2096921,182275,627648,0
2096921,2096921,182063,627471,0
2096921,2096921,182242,627771,0
2096921,2096921,182111,627756,0
2096921,2096921,182393,627687,0
2096921,2096921,181699,627894,0
2096921,2096921,181900,627541,0
2096921,2096921,182220,627664,0
2096921,2096921,182388,627809,0
2096921,2096921,182112,627921,0
2096921,2096921,182191,628202,0
2096921,2096921,182285,627848,0
2096921,2096921,182348,627834,0
2096921,2096921,182225,627753,0
2096921,2096921,182398,627834,0
2096921,2096921,182498,627852,0
2096921,2096921,182178,627966,0
2096921,2096921,182400,627698,0
2096921,2096921,182706,627994,0
2096921,2096921,182353,627961,0
2096921,2096921,182407,628149,0
2096921,2096921,182479,628228,0
2096921,2096921,182366,628099,0
2096921,2096921,182118,628167,0
2096921,2096921,182251,628159,0
2096921,2096921,182245,627985,0
2096921,2096921,182187,628108,0
2096921,2096921,182475,628403,0
2096921,2096921,182395,628369,0
2096921,2096921,182497,628326,0
2096921,2096921,182708,628414,0
2096921,2096921,182274,628408,0
2096921,2096921,182538,628277,0
2096921,2096921,182325,628406,0
2096921,2096921,182436,628354,0
2096921,2096921,182391,628454,0
2096921,2096921,182548,628338,0
2096921,2096921,182544,628523,0
2096921,2096921,182844,628326,0
2096921,2096921,182537,628563,0
2096921,2096921,182393,628845,0
2096921,2096921,182603,628378,0
2096921,2096921,182845,628815,0
2096921,2096921,182724,628597,0
2096921,2096921,182462,628541,0
2096921,2096921,182220,628612,0
2096921,2096921,182666,628612,0
2096921,2096921,182357,628845,0
2096921,2096921,182360,628658,0
2096921,2096921,182657,628635,0
2096921,2096921,182991,628754,0
2096921,2096921,182713,628890,0
2096921,2096921,182828,628914,0
2096921,2096921,182530,628594,0
2096921,2096921,182723,628751,0
2096921,2096921,182646,628762,0
2096921,2096921,182594,628846,0
2096921,2096921,182739,629429,0
2096921,2096921,182674,628967,0
2096921,2096921,182621,629331,0
2096921,2096921,182716,629085,0
2096921,2096921,182576,628951,0
2096921,2096921,182665,628879,0
2096921,2096921,182556,628868,0
2096921,2096921,182591,628933,0
2096921,2096921,182462,629053,0
2096921,2096921,182734,628972,0
2096921,2096921,182995,629151,0
2096921,2096921,182928,629066,0
2096921,2096921,182967,629104,0
2096921,2096921,182798,629307,0
2096921,2096921,183002,629041,0
2096921,2096921,182912,629445,0
2096921,2096921,182522,629116,0
2096921,2096921,182897,629141,0
2096921,2096921,182658,629256,0
2096921,2096921,182896,629255,0
2096921,2096921,182987,629261,0
2096921,2096921,183003,629428,0
2096921,2096921,182986,629610,0
2096921,2096921,182880,629256,0
2096921,2096921,182847,629406,0
2096921,2096921,182703,629341,0
2096921,2096921,182993,629902,0
2096921,2096921,182970,629668,0
2096921,2096921,182879,629437,0
2096921,2096921,183049,629533,0
2096921,2096921,182892,629543,0
2096921,2096921,183220,629346,0
2096921,2096921,183158,629405,0
2096921,2096921,182971,629429,0
2096921,2096921,182992,629407,0
2096921,2096921,182965,629730,0
2096921,2096921,182831,629837,0
2096921,2096921,182856,629708,0
2096921,2096921,182778,629610,0
2096921,2096921,183165,629455,0
2096921,2096921,183005,629358,0
2096921,2096921,183091,629527,0
2096921,2096921,183033,629826,0
2096921,2096921,183058,629635,0
2096921,2096921,183038,629716,0
2096921,2096921,183309,629589,0
2096921,2096921,182781,629753,0
2096921,2096921,182734,629521,0
2096921,2096921,183139,629750,0
2096921,2096921,183037,629706,0
2096921,2096921,182964,629694,0
2096921,2096921,183129,629616,0
2096921,2096921,183299,630021,0
2096921,2096921,182947,629801,0
2096921,2096921,183138,629787,0
2096921,2096921,182972,629774,0
2096921,2096921,183109,629482,0
2096921,2096921,183064,629788,0
2096921,2096921,183140,629709,0
2096921,2096921,183107,629501,0
2096921,2096921,183183,629509,0
2096921,2096921,183094,629730,0
2096921,2096921,183048,630247,0
2096921,2096921,183210,629978,0
2096921,2096921,183418,630203,0
2096921,2096921,183264,629759,0
2096921,2096921,183204,629812,0
2096921,2096921,183149,629736,0
2096921,2096921,183198,629870,0
2096921,2096921,182897,629860,0
2096921,2096921,183127,630003,0
2096921,2096921,183185,629797,0
2096921,2096921,183299,629859,0
2096921,2096921,183099,629747,0
2096921,2096921,183100,629658,0
2096921,2096921,182937,629600,0
2096921,2096921,183242,629681,0
2096921,2096921,183344,630057,0
2096921,2096921,183188,629708,0
2096921,2096921,183334,629897,0
2096921,2096921,183205,629916,0
2096921,2096921,183176,629667,0
2096921,2096921,183172,630036,0
2096921,2096921,183209,629924,0
2096921,2096921,183291,630037,0
2096921,2096921,183393,629920,0
2096921,2096921,183162,629939,0
2096921,2096921,183213,629843,0
2096921,2096921,183006,630173,0
2096921,2096921,182955,629885,0
2096921,2096921,183223,630229,0
2096921,2096921,183309,629974,0
2096921,2096921,183333,629854,0
2096921,2096921,183165,630158,0
2096921,2096921,183241,629906,0
2096921,2096921,183126,630035,0
2096921,2096921,183094,629999,0
2096921,2096921,183175,629858,0
2096921,2096921,183158,630131,0
2096921,2096921,183349,630237,0
2096921,2096921,183313,629867,0
2096921,2096921,183407,630016,0
2096921,2096921,183262,629900,0
2096921,2096921,182971,629952,0
2096921,2096921,183345,630189,0
2096921,2096921,183238,629936,0
2096921,2096921,183297,630085,0
2096921,2096921,183170,629780,0
2096921,2096921,183294,629610,0
2096921,2096921,183272,630012,0
2096921,2096921,183322,630107,0
2096921,2096921,183269,629981,0
2096921,2096921,183611,629781,0
2096921,2096921,183466,630011,0
2096921,2096921,183720,630035,0
2096921,2096921,183090,630150,0
2096921,2096921,182937,630149,0
2096921,2096921,183115,629933,0
2096921,2096921,183193,629916,0
2096921,2096921,183603,630191,0
2096921,2096921,183157,630054,0
2096921,2096921,183555,630090,0
2096921,2096921,183256,630189,0
2096921,2096921,183280,630138,0
2096921,2096921,182988,629898,0
2096921,2096921,183326,630091,0
2096921,2096921,183239,630243,0
2096921,2096921,183309,630290,0
2096921,2096921,183586,630189,0
2096921,2096921,183448,629952,0
2096921,2096921,183459,630352,0
2096921,2096921,183151,630210,0
2096921,2096921,183273,630254,0
2096921,2096921,183595,630169,0
2096921,2096921,183312,630322,0
2096921,2096921,183203,630018,0
2096921,2096921,183266,630255,0
2096921,2096921,183503,630066,0
2096921,2096921,183612,629996,0
2096921,2096921,183266,630213,0
2096921,2096921,183211,629942,0
2096921,2096921,183175,629988,0
2096921,2096921,183171,630068,0
2096921,2096921,183095,630340,0
2096921,2096921,183389,630344,0
2096921,2096921,183432,630395,0
2096921,2096921,183298,630257,0
2096921,2096921,183303,629815,0
2096921,2096921,183399,630075,0
2096921,2096921,183436,629975,0
2096921,2096921,183413,629969,0
2096921,2096921,183346,630333,0
2096921,2096921,183327,630207,0
2096921,2096921,183174,630229,0
2096921,2096921,183049,630298,0
2096921,2096921,183303,630283,0
2096921,2096921,183354,630181,0
2096921,2096921,183101,629914,0
2096921,2096921,183299,629887,0
2096921,2096921,183238,629979,0
2096921,2096921,183389,630319,0
2096921,2096921,183230,629893,0
2096921,2096921,183206,629975,0
2096921,2096921,183231,630056,0
2096921,2096921,183350,630162,0
2096921,2096921,183322,629951,0
2096921,2096921,183322,629899,0
2096921,2096921,183452,630121,0
2096921,2096921,183473,630008,0
2096921,2096921,183323,630162,0
2096921,2096921,183222,630216,0
2096921,2096921,183277,630156,0
2096921,2096921,183473,630468,0
2096921,2096921,183483,630482,0
2096921,2096921,183189,630115,0
2096921,2096921,182965,630069,0
2096921,2096921,183317,629992,0
2096921,2096921,183381,630038,0
2096921,2096921,183296,630179,0
2096921,2096921,183279,630119,0
2096921,2096921,182964,629875,0
2096921,2096921,183053,630073,0
2096921,2096921,183300,629971,0
2096921,2096921,183373,629991,0
2096921,2096921,183426,629975,0
2096921,2096921,183240,629636,0
2096921,2096921,182988,629555,0
2096921,2096921,182872,629603,0
2096921,2096921,182924,629769,0
2096921,2096921,183071,629830,0
2096921,2096921,183116,629607,0
2096921,2096921,182928,629611,0
2096921,2096921,183156,629397,0
2096921,2096921,183331,629739,0
2096921,2096921,183172,629426,0
2096921,2096921,182729,629243,0
2096921,2096921,182638,629121,0
2096921,2096921,182705,629106,0
2096921,2096921,182849,629024,0
2096921,2096921,182867,628915,0
2096921,2096921,182599,628711,0
2096921,2096921,182683,628829,0
2096921,2096921,182829,628970,0
2096921,2096921,182728,628910,0
2096921,2096921,182393,629269,0
2096921,2096921,182283,628483,0
2096921,2096921,182356,628523,0
2096921,2096921,182208,628000,0
2096921,2096921,182347,627931,0
2096921,2096921,182373,627977,0
2096921,2096921,181821,627567,0
2096921,2096921,181934,627064,0
2096921,2096921,181893,627191,0
2096921,2096921,181839,627239,0
2096921,2096921,181878,627037,0
2096921,2096921,181486,626752,0
2096921,2096921,181265,626328,0
2096921,2096921,181379,626293,0
2096921,2096921,181440,626478,0
2096921,2096921,181372,626317,0
2096921,2096921,181068,625826,0
2096921,2096921,181173,626059,0
2096921,2096921,180856,625959,0
2096921,2096921,180933,626103,0
2096921,2096921,181052,625706,0
2096921,2096921,180950,625414,0
2096921,2096921,180921,625244,0
2096921,2096921,180890,625172,0
2096921,2096921,180729,625323,0
2096921,2096921,180655,625210,0
2096921,2096921,180747,625056,0
2096921,2096921,180802,625166,0
2096921,2096921,180745,625239,0
2096921,2096921,180655,625302,0
2096921,2096921,180979,625299,0
2096921,2096921,180792,624900,0
2096921,2096921,180738,624862,0
2096921,2096921,180337,624738,0
2096921,2096921,180692,624770,0
2096921,2096921,180516,625166,0
2096921,2096921,180701,624829,0
2096921,2096921,180628,624842,0
2096921,2096921,180542,625160,0
2096921,2096921,180508,624894,0
2096921,2096921,180379,624797,0
2096921,2096921,180511,624825,0
2096921,2096921,180697,624925,0
2096921,2096921,180477,624977,0
2096921,2096921,180523,624803,0
2096921,2096921,180470,624764,0
2096921,2096921,180525,624660,0
2096921,2096921,180485,624661,0
2096921,2096921,180512,624825,0
2096921,2096921,180726,624489,0
2096921,2096921,180596,624580,0
2096921,2096921,180566,624542,0
2096921,2096921,180459,624757,0
2096921,2096921,180413,624676,0
2096921,2096921,180442,624797,0
2096921,2096921,180516,625107,0
2096921,2096921,180922,625076,0
2096921,2096921,180245,624999,0
2096921,2096921,180487,624968,0
2096921,2096921,180518,624823,0
2096921,2096921,180877,624822,0
2096921,2096921,180538,625077,0
2096921,2096921,180550,624823,0
2096921,2096921,180489,624678,0
2096921,2096921,180476,624516,0
2096921,2096921,180311,624961,0
2096921,2096921,180794,624818,0
2096921,2096921,180752,625146,0
2096921,2096921,180818,625080,0
2096921,2096921,180839,625108,0
2096921,2096921,180767,624862,0
2096921,2096921,180871,625000,0
2096921,2096921,180755,625080,0
2096921,2096921,180872,625126,0
2096921,2096921,180661,624889,0
2096921,2096921,180665,625075,0
2096921,2096921,180679,625079,0
2096921,2096921,180797,625292,0
2096921,2096921,180888,625418,0
2096921,2096921,181058,625384,0
2096921,2096921,180738,625422,0
2096921,2096921,181030,625172,0
2096921,2096921,181070,625366,0
2096921,2096921,181072,625355,0
2096921,2096921,180961,625132,0
2096921,2096921,181039,625228,0
2096921,2096921,181335,625413,0
2096921,2096921,181199,625607,0
2096921,2096921,180973,625457,0
2096921,2096921,181093,625479,0
2096921,2096921,180672,625460,0
2096921,2096921,181193,625574,0
2096921,2096921,180913,625562,0
2096921,2096921,180791,625734,0
2096921,2096921,180763,625656,0
2096921,2096921,180890,625336,0
2096921,2096921,181063,625517,0
2096921,2096921,181221,625451,0
2096921,2096921,180882,625495,0
2096921,2096921,181451,625824,0
2096921,2096921,181188,625601,0
2096921,2096921,180987,625785,0
2096921,2096921,180994,625960,0
2096921,2096921,181167,625858,0
2096921,2096921,181075,625429,0
2096921,2096921,181079,625678,0
2096921,2096921,181147,626021,0
2096921,2096921,181336,625911,0
2096921,2096921,181502,625713,0
2096921,2096921,181696,626095,0
2096921,2096921,181034,626167,0
2096921,2096921,181557,626162,0
2096921,2096921,181256,626245,0
2096921,2096921,181050,626067,0
2096921,2096921,181125,626269,0
2096921,2096921,181442,626425,0
2096921,2096921,181523,626156,0
2096921,2096921,181484,626275,0
2096921,2096921,181319,626149,0
2096921,2096921,181460,626535,0
2096921,2096921,181537,626394,0
2096921,2096921,181704,626284,0
2096921,2096921,181633,626355,0
2096921,2096921,181485,626315,0
2096921,2096921,181396,626493,0
2096921,2096921,181403,626123,0
2096921,2096921,181429,626464,0
2096921,2096921,181508,626121,0
2096921,2096921,181577,626471,0
2096921,2096921,181479,626629,0
2096921,2096921,181711,626553,0
2096921,2096921,181954,626427,0
2096921,2096921,181745,626828,0
2096921,2096921,181439,626498,0
2096921,2096921,181684,626536,0
2096921,2096921,181769,626570,0
2096921,2096921,181540,626535,0
2096921,2096921,181466,626470,0
2096921,2096921,181453,626557,0
2096921,2096921,181622,626793,0
2096921,2096921,181394,626575,0
2096921,2096921,181611,626467,0
2096921,2096921,181664,626638,0
2096921,2096921,181580,626563,0
2096921,2096921,181344,626731,0
2096921,2096921,181579,626576,0
2096921,2096921,181533,626852,0
2096921,2096921,181858,626737,0
2096921,2096921,181657,626595,0
2096921,2096921,181912,626562,0
2096921,2096921,181641,626597,0
2096921,2096921,182184,626545,0
2096921,2096921,181750,626523,0
2096921,2096921,181828,626480,0
2096921,2096921,181681,626571,0
2096921,2096921,181637,626702,0
2096921,2096921,181479,626610,0
2096921,2096921,181777,626248,0
2096921,2096921,181565,626272,0
2096921,2096921,181771,626406,0
2096921,2096921,181597,626536,0
2096921,2096921,181800,626288,0
2096921,2096921,181421,626577,0
2096921,2096921,181436,626451,0
2096921,2096921,181321,626394,0
2096921,2096921,181745,626215,0
2096921,2096921,181530,626181,0
2096921,2096921,181603,626403,0
2096921,2096921,181821,626495,0
2096921,2096921,181736,626217,0
2096921,2096921,181481,626364,0
2096921,2096921,181621,625852,0
2096921,2096921,181374,626014,0
2096921,2096921,181369,626040,0
2096921,2096921,181502,626168,0
2096921,2096921,181549,626137,0
2096921,2096921,181635,626155,0
2096921,2096921,181319,626100,0
2096921,2096921,181411,626138,0
2096921,2096921,181567,626174,0
2096921,2096921,181417,626031,0
2096921,2096921,181556,626003,0
2096921,2096921,181456,625735,0
2096921,2096921,181011,625860,0
2096921,2096921,181520,625863,0
2096921,2096921,181142,625937,0
2096921,2096921,181362,625637,0
2096921,2096921,181410,625873,0
2096921,2096921,181319,625969,0
2096921,2096921,181328,625694,0
2096921,2096921,181267,625514,0
2096921,2096921,181488,625811,0
2096921,2096921,181214,625445,0
2096921,2096921,181326,625898,0
2096921,2096921,181282,625836,0
2096921,2096921,181104,625895,0
2096921,2096921,181361,625721,0
2096921,2096921,181403,625651,0
2096921,2096921,181161,625717,0
2096921,2096921,181484,625825,0
2096921,2096921,181328,625838,0
2096921,2096921,181323,625856,0
2096921,2096921,181489,625797,0
2096921,2096921,181174,625490,0
2096921,2096921,181199,625630,0
2096921,2096921,181214,625643,0
2096921,2096921,181465,625624,0
2096921,2096921,181351,625784,0
2096921,2096921,181502,625690,0
2096921,2096921,181582,625639,0
2096921,2096921,181622,625842,0
2096921,2096921,181330,625657,0
2096921,2096921,181268,625596,0
2096921,2096921,181327,625547,0
2096921,2096921,181426,625619,0
2096921,2096921,181330,625428,0
2096921,2096921,181628,625806,0
2096921,2096921,181607,625856,0
2096921,2096921,181516,626272,0
2096921,2096921,181380,625824,0
2096921,2096921,181284,625757,0
2096921,2096921,181247,625704,0
2096921,2096921,181533,626015,0
2096921,2096921,181362,625769,0
2096921,2096921,181530,625525,0
2096921,2096921,181513,625785,0
2096921,2096921,181400,625740,0
2096921,2096921,181600,625734,0
2096921,2096921,181428,625931,0
2096921,2096921,181447,625857,0
2096921,2096921,181565,626173,0
2096921,2096921,181602,625887,0
2096921,2096921,181636,625899,0
2096921,2096921,181514,625745,0
2096921,2096921,181533,625991,0
2096921,2096921,181770,625890,0
2096921,2096921,181558,626045,0
2096921,2096921,181514,625716,0
2096921,2096921,181592,625805,0
2096921,2096921,182010,625637,0
2096921,2096921,181758,625964,0
2096921,2096921,181745,625935,0
2096921,2096921,181461,626032,0
2096921,2096921,181456,625910,0
2096921,2096921,181563,626071,0
2096921,2096921,181530,626006,0
2096921,2096921,181525,625728,0
2096921,2096921,181510,625925,0
2096921,2096921,181191,625723,0
2096921,2096921,181529,625733,0
2096921,2096921,181778,625928,0
2096921,2096921,181625,625513,0
2096921,2096921,181582,625552,0
2096921,2096921,181389,625871,0
2096921,2096921,181406,625983,0
2096921,2096921,181352,625843,0
2096921,2096921,181614,625782,0
2096921,2096921,181900,625918,0
2096921,2096921,181983,625927,0
2096921,2096921,182024,626272,0
2096921,2096921,181833,626398,0
2096921,2096921,181563,626152,0
2096921,2096921,181570,626063,0
2096921,2096921,181507,625713,0
2096921,2096921,181940,625895,0
2096921,2096921,181636,625954,0
2096921,2096921,181856,625832,0
2096921,2096921,181701,625979,0
2096921,2096921,181559,626026,0
2096921,2096921,181610,625980,0
2096921,2096921,181999,625943,0
2096921,2096921,181802,626067,0
2096921,2096921,181570,625894,0
2096921,2096921,181939,625912,0
2096921,2096921,181676,625710,0
2096921,2096921,181565,625787,0
2096921,2096921,181702,625781,0
2096921,2096921,181883,626185,0
2096921,2096921,181825,625832,0
2096921,2096921,181730,625977,0
2096921,2096921,181891,626235,0
2096921,2096921,181642,626006,0
2096921,2096921,181757,625911,0
2096921,2096921,181681,625901,0
2096921,2096921,181755,625941,0
2096921,2096921,181842,625838,0
2096921,2096921,181946,625849,0
2096921,2096921,181866,626013,0
2096921,2096921,181957,625821,0
2096921,2096921,181704,625806,0
2096921,2096921,181672,625926,0
2096921,2096921,181829,626297,0
2096921,2096921,181884,626033,0
2096921,2096921,181911,626157,0
2096921,2096921,181980,625957,0
2096921,2096921,181874,625797,0
2096921,2096921,181759,625995,0
2096921,2096921,181977,626062,0
2096921,2096921,181810,626121,0
2096921,2096921,181873,625952,0
2096921,2096921,182058,626188,0
2096921,2096921,181616,626065,0
2096921,2096921,182026,626183,0
2096921,2096921,181909,625790,0
2096921,2096921,181770,626167,0
2096921,2096921,181856,625828,0
2096921,2096921,181835,625807,0
2096921,2096921,181859,625918,0
2096921,2096921,181754,626247,0
2096921,2096921,181815,626204,0
2096921,2096921,181992,626128,0
2096921,2096921,182112,626205,0
2096921,2096921,182035,625899,0
2096921,2096921,181920,626010,0
2096921,2096921,182014,626080,0
2096921,2096921,182098,626036,0
2096921,2096921,182181,626333,0
2096921,2096921,181778,626147,0
2096921,2096921,182075,626042,0
2096921,2096921,182133,626314,0
2096921,2096921,182251,626325,0
2096921,2096921,182040,626262,0
2096921,2096921,181985,626087,0
2096921,2096921,182044,626087,0
2096921,2096921,181867,625512,0
2096921,2096921,181540,625808,0
2096921,2096921,181524,626041,0
2096921,2096921,181975,626066,0
2096921,2096921,181945,626405,0
2096921,2096921,181932,625925,0
2096921,2096921,182181,626202,0
2096921,2096921,182066,626212,0
2096921,2096921,181934,626017,0
2096921,2096921,182118,626061,0
2096921,2096921,181737,625918,0
2096921,2096921,181845,626031,0
2096921,2096921,181830,626006,0
2096921,2096921,182085,626173,0
2096921,2096921,181999,625972,0
2096921,2096921,182024,625939,0
2096921,2096921,182071,625610,0
2096921,2096921,181912,625896,0
2096921,2096921,181635,626023,0
2096921,2096921,181838,625962,0
2096921,2096921,181810,625886,0
2096921,2096921,181733,625875,0
2096921,2096921,181949,625468,0
2096921,2096921,182028,626327,0
2096921,2096921,182053,625934,0
2096921,2096921,182269,626061,0
2096921,2096921,182095,625957,0
2096921,2096921,181877,625822,0
2096921,2096921,181711,625941,0
2096921,2096921,181742,625805,0
2096921,2096921,181998,626006,0
2096921,2096921,181740,625738,0
2096921,2096921,181877,625743,0
2096921,2096921,182115,625782,0
2096921,2096921,182035,625675,0
2096921,2096921,182052,625935,0
2096921,2096921,182140,625791,0
2096921,2096921,181793,625956,0
2096921,2096921,181956,625918,0
2096921,2096921,181659,625857,0
2096921,2096921,181811,625798,0
2096921,2096921,181797,625872,0
2096921,2096921,181873,625563,0
2096921,2096921,182030,625827,0
2096921,2096921,181791,625842,0
2096921,2096921,182149,625951,0
2096921,2096921,181958,625986,0
2096921,2096921,181937,626043,0
2096921,2096921,182016,626016,0
2096921,2096921,181786,625846,0
2096921,2096921,181908,625532,0
2096921,2096921,181762,625762,0
2096921,2096921,181888,625747,0
2096921,2096921,182039,625402,0
2096921,2096921,181950,625545,0
2096921,2096921,181892,625607,0
2096921,2096921,182052,625605,0
2096921,2096921,182005,625594,0
2096921,2096921,182115,625590,0
2096921,2096921,181713,625690,0
2096921,2096921,181838,625552,0
2096921,2096921,181733,625638,0
2096921,2096921,181820,625263,0
2096921,2096921,181865,625258,0
2096921,2096921,181699,625226,0
2096921,2096921,182076,625490,0
2096921,2096921,181768,625354,0
2096921,2096921,181873,625290,0
2096921,2096921,181739,625558,0
2096921,2096921,181634,625463,0
2096921,2096921,181727,625366,0
