Time	 pkgIndex	 Status	 PR	 SPO2	 Signal	 SPO2_Real	 rrInterval	 Axis_X	 Axis_Y	 Axis_Z	 Resp_Sample	 IIr_Sample	 checkSum
03/06 11:14:39	 38	0	58	99	13	100	101	-1	-2	-64	19887	505288	0x7f
03/06 11:14:39	 39	0	58	99	13	100	101	-1	-2	-64	19896	505403	0xfd
03/06 11:14:39	 40	0	58	99	13	100	101	-1	-2	-64	19892	505504	0x5f
03/06 11:14:39	 41	0	58	99	13	100	101	-1	-2	-64	19884	505587	0xab
03/06 11:14:39	 42	0	58	99	13	100	101	-1	-2	-64	19889	505674	0x09
03/06 11:14:39	 43	0	58	99	13	100	101	-1	-2	-64	19883	505731	0x3d
03/06 11:14:39	 44	0	58	99	13	100	101	-1	-2	-64	19873	505841	0xa2
03/06 11:14:39	 45	0	58	99	13	100	101	-1	-2	-64	19883	505936	0x0d
03/06 11:14:39	 46	0	58	99	13	100	101	-1	-2	-64	19879	505999	0x49
03/06 11:14:39	 47	0	58	99	13	100	101	-1	-2	-64	19875	506071	0x8e
03/06 11:14:39	 48	0	58	99	13	100	101	-1	-2	-64	19883	506140	0xdd
03/06 11:14:39	 49	0	58	99	13	100	101	-1	-2	-64	19882	506216	0x29
03/06 11:14:39	 50	0	58	99	13	100	101	-1	-2	-64	19873	506291	0x6c
03/06 11:14:39	 51	0	58	99	13	100	101	-1	-2	-64	19870	506370	0xba
03/06 11:14:39	 52	0	58	99	13	100	101	-1	-2	-64	19876	506429	0xfc
03/06 11:14:39	 53	0	58	99	13	100	101	-1	-2	-64	19867	506540	0x63
03/06 11:14:39	 54	0	58	99	13	100	101	-1	-2	-64	19876	506587	0x9c
03/06 11:14:39	 55	0	58	99	13	100	101	-1	-2	-64	19870	506656	0xdd
03/06 11:14:40	 56	0	58	99	13	100	101	-1	-2	-64	19863	506744	0x2f
03/06 11:14:40	 57	0	58	99	13	100	101	-1	-2	-64	19868	506797	0x6a
03/06 11:14:40	 58	0	58	99	13	100	101	-1	-2	-64	19869	506883	0xc3
03/06 11:14:40	 59	0	58	99	13	100	101	-1	-2	-64	19871	506952	0x0b
03/06 11:14:40	 60	0	58	99	13	100	101	0	-2	-64	19877	507057	0x7c
03/06 11:14:40	 61	0	58	99	13	100	101	0	-2	-64	19872	507150	0xd6
03/06 11:14:40	 62	0	58	99	13	100	101	0	-2	-64	19874	507219	0x1e
03/06 11:14:40	 63	0	58	99	13	100	101	0	-2	-64	19874	507320	0x84
03/06 11:14:40	 64	0	58	99	13	100	101	0	-2	-64	19872	507390	0xc9
03/06 11:14:40	 65	0	58	99	13	100	101	0	-2	-64	19869	507486	0x28
03/06 11:14:40	 66	0	58	99	13	100	101	0	-2	-64	19874	507601	0xa1
03/06 11:14:40	 67	0	58	99	13	100	101	0	-2	-64	19870	507685	0xf3
03/06 11:14:40	 68	0	58	99	13	100	101	0	-2	-64	19869	507824	0x7e
03/06 11:14:40	 69	0	58	99	13	100	101	0	-2	-64	19877	507945	0x01
03/06 11:14:40	 70	0	58	99	13	100	101	-1	-2	-64	19871	508036	0x56
03/06 11:14:40	 71	0	58	99	13	100	101	-1	-2	-64	19872	508120	0xac
03/06 11:14:40	 72	0	58	99	13	100	101	-1	-2	-64	19870	508196	0xf8
03/06 11:14:40	 73	0	58	99	13	100	101	-1	-2	-64	19872	508299	0x62
03/06 11:14:40	 74	0	58	99	13	100	101	-1	-2	-64	19881	508388	0xc5
03/06 11:14:40	 75	0	58	99	13	100	101	-1	-2	-64	19884	508468	0x1a
03/06 11:14:40	 76	0	58	99	13	100	101	-1	-2	-64	19884	508579	0x8a
03/06 11:14:40	 77	0	58	99	13	100	101	-1	-2	-64	19896	508665	0xed
03/06 11:14:40	 78	0	58	99	13	100	101	-1	-2	-64	19891	508752	0x41
03/06 11:14:40	 79	0	58	99	13	100	101	-1	-2	-64	19892	508890	0xcd
03/06 11:14:40	 80	0	58	99	13	100	101	-1	-1	-64	19899	508984	0x35
03/06 11:14:40	 81	0	58	99	13	100	101	-1	-1	-64	19901	509060	0x84
03/06 11:14:40	 82	0	58	99	13	100	101	-1	-1	-64	19906	509105	0xb7
03/06 11:14:40	 83	0	58	99	13	100	101	-1	-1	-64	19908	509079	0xa0
03/06 11:14:40	 84	0	58	99	13	100	101	-1	-1	-64	19911	508955	0x28
03/06 11:14:40	 85	0	58	99	13	100	101	-1	-1	-64	19905	508644	0xea
03/06 11:14:40	 86	0	58	99	13	100	101	-1	-1	-64	19914	508204	0x3b
03/06 11:14:40	 87	0	58	99	13	100	101	-1	-1	-64	19915	507612	0xea
03/06 11:14:40	 88	0	58	99	13	100	101	-1	-1	-64	19921	506921	0x3c
03/06 11:14:40	 89	0	58	99	13	100	101	-1	-1	-64	19931	506256	0xab
03/06 11:14:40	 90	0	58	99	13	100	101	-1	-2	-64	19938	505610	0x2a
03/06 11:14:40	 91	0	58	99	13	100	101	-1	-2	-64	19941	505061	0x06
03/06 11:14:40	 92	0	58	99	13	100	101	-1	-2	-64	19955	504644	0x73
03/06 11:14:40	 93	0	58	99	13	100	101	-1	-2	-64	19952	504368	0x5c
03/06 11:14:40	 94	0	58	99	13	100	101	-1	-2	-64	19961	504176	0xa5
03/06 11:14:40	 95	0	58	99	13	100	101	-1	-2	-64	19971	504122	0x7b
03/06 11:14:40	 96	0	58	99	13	100	101	-1	-2	-64	19973	504124	0x80
03/06 11:14:40	 97	0	58	99	13	100	101	-1	-2	-64	19980	504178	0xbe
03/06 11:14:40	 98	0	58	99	13	100	101	-1	-2	-64	19989	504254	0x14
03/06 11:14:40	 99	0	58	99	13	100	101	-1	-2	-64	19991	504323	0x5d
03/06 11:14:40	 100	0	58	99	13	100	101	0	-2	-65	19998	504417	0xc3
03/06 11:14:40	 101	0	58	99	13	100	101	0	-2	-65	20009	504478	0x0c
03/06 11:14:40	 102	0	58	99	13	100	101	0	-2	-65	20010	504554	0x5a
03/06 11:14:40	 103	0	58	99	13	100	101	0	-2	-65	20015	504606	0x95
03/06 11:14:40	 104	0	58	99	13	100	101	0	-2	-65	20026	504654	0xd1
03/06 11:14:40	 105	0	58	99	13	100	101	0	-2	-65	20025	504644	0xc7
03/06 11:14:40	 106	0	58	99	13	100	101	0	-2	-65	20031	504616	0xb2
03/06 11:14:40	 107	0	58	99	13	100	101	0	-2	-65	20035	504667	0xea
03/06 11:14:40	 108	0	58	99	13	100	101	0	-2	-65	20042	504660	0xeb
03/06 11:14:40	 109	0	58	99	13	100	101	0	-2	-65	20041	504681	0x00
03/06 11:14:40	 110	8	58	100	12	100	100	-1	-2	-64	20049	504748	0x53
03/06 11:14:40	 111	0	58	100	12	100	100	-1	-2	-64	20051	504827	0x9d
03/06 11:14:40	 112	0	58	100	12	100	100	-1	-2	-64	20053	504890	0xe0
03/06 11:14:40	 113	0	58	100	12	100	100	-1	-2	-64	20060	504952	0x26
03/06 11:14:40	 114	0	58	100	12	100	100	-1	-2	-64	20058	504971	0x38
03/06 11:14:40	 115	0	58	100	12	100	100	-1	-2	-64	20059	505005	0x5c
03/06 11:14:40	 116	0	58	100	12	100	100	-1	-2	-64	20073	505010	0x70
03/06 11:14:40	 117	0	58	100	12	100	100	-1	-2	-64	20073	504944	0x2f
03/06 11:14:40	 118	0	58	100	12	100	100	-1	-2	-64	20071	504926	0x1c
03/06 11:14:40	 119	0	58	100	12	100	100	-1	-2	-64	20080	504875	0xf3
03/06 11:14:40	 120	0	58	100	12	100	100	-1	-2	-64	20085	504807	0xb4
03/06 11:14:40	 121	0	58	100	12	100	100	-1	-2	-64	20079	504781	0x95
03/06 11:14:40	 122	0	58	100	12	100	100	-1	-2	-64	20091	504736	0x75
03/06 11:14:40	 123	0	58	100	12	100	100	-1	-2	-64	20096	504699	0x56
03/06 11:14:40	 124	0	58	100	12	100	100	-1	-2	-64	20101	504693	0x56
03/06 11:14:40	 125	0	58	100	12	100	100	-1	-2	-64	20115	504713	0x79
03/06 11:14:40	 126	0	58	100	12	100	100	-1	-2	-64	20118	504748	0xa0
03/06 11:14:40	 127	0	58	100	12	100	100	-1	-2	-64	20118	504810	0xdf
03/06 11:14:40	 128	0	58	100	12	100	100	-1	-2	-64	20132	504888	0x3d
03/06 11:14:40	 129	0	58	100	12	100	100	-1	-2	-64	20134	504971	0x93
03/06 11:14:40	 130	0	58	100	12	100	100	-1	-2	-64	20140	505073	0x00
03/06 11:14:40	 131	0	58	100	12	100	100	-1	-2	-64	20150	505163	0x66
03/06 11:14:40	 132	0	58	100	12	100	100	-1	-2	-64	20154	505250	0xc2
03/06 11:14:40	 133	0	58	100	12	100	100	-1	-2	-64	20164	505362	0x3e
03/06 11:14:40	 134	0	58	100	12	100	100	-1	-2	-64	20175	505480	0xc0
03/06 11:14:40	 135	0	58	100	12	100	100	-1	-2	-64	20171	505558	0x0b
03/06 11:14:40	 136	0	58	100	12	100	100	-1	-2	-64	20180	505651	0x73
03/06 11:14:40	 137	0	58	100	12	100	100	-1	-2	-64	20183	505729	0xc5
03/06 11:14:40	 138	0	58	100	12	100	100	-1	-2	-64	20186	505817	0x21
03/06 11:14:40	 139	0	58	100	12	100	100	-1	-2	-64	20189	505914	0x87
03/06 11:14:40	 140	0	58	100	12	100	100	0	-2	-64	20198	505956	0xbc
03/06 11:14:40	 141	0	58	100	12	100	100	0	-2	-64	20199	505998	0xe8
03/06 11:14:40	 142	0	58	100	12	100	100	0	-2	-64	20200	506078	0x3a
03/06 11:14:40	 143	0	58	100	12	100	100	0	-2	-64	20207	506146	0x87
03/06 11:14:40	 144	0	58	100	12	100	100	0	-2	-64	20209	506196	0xbc
03/06 11:14:40	 145	0	58	100	12	100	100	0	-2	-64	20207	506254	0xf5
03/06 11:14:40	 146	0	58	100	12	100	100	0	-2	-64	20204	506301	0x22
03/06 11:14:40	 147	0	58	100	12	100	100	0	-2	-64	20207	506366	0x67
03/06 11:14:40	 148	0	58	100	12	100	100	0	-2	-64	20212	506400	0x90
03/06 11:14:40	 149	0	58	100	12	100	100	0	-2	-64	20207	506468	0xd0
03/06 11:14:40	 150	0	58	100	12	100	100	-1	-2	-64	20202	506532	0x0b
03/06 11:14:40	 151	0	58	100	12	100	100	-1	-2	-64	20206	506589	0x49
03/06 11:14:40	 152	0	58	100	12	100	100	-1	-2	-64	20203	506663	0x92
03/06 11:14:40	 153	0	58	100	12	100	100	-1	-2	-64	20209	506718	0xd0
03/06 11:14:40	 154	0	58	100	12	100	100	-1	-2	-64	20206	506777	0x09
03/06 11:14:40	 155	0	58	100	12	100	100	-1	-2	-64	20200	506857	0x54
03/06 11:14:41	 156	0	58	100	12	100	100	-1	-2	-64	20194	506928	0x97
03/06 11:14:41	 157	0	58	100	12	100	100	-1	-2	-64	20195	507011	0xec
03/06 11:14:41	 158	0	58	100	12	100	100	-1	-2	-64	20196	507102	0x49
03/06 11:14:41	 159	0	58	100	12	100	100	-1	-2	-64	20192	507199	0xa8
03/06 11:14:41	 160	0	58	100	12	100	100	-1	-2	-64	20195	507269	0xf2
03/06 11:14:41	 161	0	58	100	12	100	100	-1	-2	-64	20187	507335	0x2d
03/06 11:14:41	 162	0	58	100	12	100	100	-1	-2	-64	20183	507414	0x7a
03/06 11:14:41	 163	0	58	100	12	100	100	-1	-2	-64	20187	507505	0xda
03/06 11:14:41	 164	0	58	100	12	100	100	-1	-2	-64	20180	507588	0x27
03/06 11:14:41	 165	0	58	100	12	100	100	-1	-2	-64	20176	507638	0x56
03/06 11:14:41	 166	0	58	100	12	100	100	-1	-2	-64	20174	507697	0x91
03/06 11:14:41	 167	0	58	100	12	100	100	-1	-2	-64	20171	507791	0xed
03/06 11:14:41	 168	0	58	100	12	100	100	-1	-2	-64	20162	507859	0x29
03/06 11:14:41	 169	0	58	100	12	100	100	-1	-2	-64	20168	507922	0x70
03/06 11:14:41	 170	0	58	100	12	100	100	-1	-2	-64	20156	508014	0xc1
03/06 11:14:41	 171	0	58	100	12	100	100	-1	-2	-64	20160	508117	0x2d
03/06 11:14:41	 172	0	58	100	12	100	100	-1	-2	-64	20160	508202	0x84
03/06 11:14:41	 173	0	58	100	12	100	100	-1	-2	-64	20151	508269	0xbf
03/06 11:14:41	 174	0	58	100	12	100	100	-1	-2	-64	20147	508343	0x06
03/06 11:14:41	 175	0	58	100	12	100	100	-1	-2	-64	20154	508401	0x48
03/06 11:14:41	 176	0	58	100	12	100	100	-1	-2	-64	20145	508422	0x56
03/06 11:14:41	 177	0	58	100	12	100	100	-1	-2	-64	20153	508360	0x20
03/06 11:14:41	 178	0	58	100	12	100	100	-1	-2	-64	20156	508187	0x77
03/06 11:14:41	 179	0	58	100	12	100	100	-1	-2	-64	20156	507859	0x2e
03/06 11:14:41	 180	0	58	100	12	100	100	-1	-2	-64	20150	507386	0x4e
03/06 11:14:41	 181	0	58	100	12	100	100	-1	-2	-64	20151	506753	0xd5
03/06 11:14:41	 182	0	58	100	12	100	100	-1	-2	-64	20148	506022	0xf5
03/06 11:14:41	 183	0	58	100	12	100	100	-1	-2	-64	20143	505319	0x2f
03/06 11:14:41	 184	0	58	100	12	100	100	-1	-2	-64	20152	504659	0xa3
03/06 11:14:41	 185	0	58	100	12	100	100	-1	-2	-64	20139	504099	0x65
03/06 11:14:41	 186	0	58	100	12	100	100	-1	-2	-64	20140	503646	0xa0
03/06 11:14:41	 187	0	58	100	12	100	100	-1	-2	-64	20147	503331	0x6c
03/06 11:14:41	 188	0	58	100	12	100	100	-1	-2	-64	20139	503152	0xb1
03/06 11:14:41	 189	0	58	100	12	100	100	-1	-2	-64	20137	503054	0x4e
03/06 11:14:41	 190	0	58	100	12	100	100	-1	-2	-65	20143	503033	0x3e
03/06 11:14:41	 191	0	58	100	12	100	100	-1	-2	-65	20130	503083	0x65
03/06 11:14:41	 192	0	58	100	12	100	100	-1	-2	-65	20122	503134	0x91
03/06 11:14:41	 193	0	58	100	12	100	100	-1	-2	-65	20129	503203	0xde
03/06 11:14:41	 194	0	58	100	12	100	100	-1	-2	-65	20129	503258	0x16
03/06 11:14:41	 195	0	58	100	12	100	100	-1	-2	-65	20122	503286	0x2c
03/06 11:14:41	 196	0	58	100	12	100	100	-1	-2	-65	20123	503299	0x3c
03/06 11:14:41	 197	0	58	100	12	100	100	-1	-2	-65	20124	503295	0x39
03/06 11:14:41	 198	0	58	100	12	100	100	-1	-2	-65	20117	503295	0x33
03/06 11:14:41	 199	0	58	100	12	100	100	-1	-2	-65	20117	503240	0xfd
03/06 11:14:41	 200	0	58	100	12	100	100	-1	-2	-64	20109	503207	0xd6
03/06 11:14:41	 201	0	58	100	12	100	100	-1	-2	-64	20104	503211	0xd6
03/06 11:14:41	 202	0	58	100	12	100	100	-1	-2	-64	20105	503164	0xa9
03/06 11:14:41	 203	0	58	100	12	100	100	-1	-2	-64	20100	503151	0x98
03/06 11:14:41	 204	8	58	100	12	100	94	-1	-2	-64	20098	503198	0xc8
03/06 11:14:41	 205	0	58	100	12	100	94	-1	-2	-64	20099	503266	0x06
03/06 11:14:41	 206	0	58	100	12	100	94	-1	-2	-64	20090	503354	0x57
03/06 11:14:41	 207	0	58	100	12	100	94	-1	-2	-64	20090	503438	0xac
03/06 11:14:41	 208	0	58	100	12	100	94	-1	-2	-64	20090	503493	0xe4
03/06 11:14:41	 209	0	58	100	12	100	94	-1	-2	-64	20090	503525	0x05
03/06 11:14:41	 210	0	58	100	12	100	94	-1	-2	-65	20084	503569	0x2c
03/06 11:14:41	 211	0	58	100	12	100	94	-1	-2	-65	20089	503569	0x32
03/06 11:14:41	 212	0	58	100	12	100	94	-1	-2	-65	20080	503546	0x12
03/06 11:14:41	 213	0	58	100	12	100	94	-1	-2	-65	20087	503536	0x10
03/06 11:14:41	 214	0	58	100	12	100	94	-1	-2	-65	20089	503496	0xeb
03/06 11:14:41	 215	0	58	100	12	100	94	-1	-2	-65	20085	503432	0xa8
03/06 11:14:41	 216	0	58	100	12	100	94	-1	-2	-65	20081	503417	0x96
03/06 11:14:41	 217	0	58	100	12	100	94	-1	-2	-65	20082	503404	0x8b
03/06 11:14:41	 218	0	58	100	12	100	94	-1	-2	-65	20077	503356	0x57
03/06 11:14:41	 219	0	58	100	12	100	94	-1	-2	-65	20077	503383	0x73
03/06 11:14:41	 220	0	58	100	12	100	94	-1	-1	-64	20074	503415	0x93
03/06 11:14:41	 221	0	58	100	12	100	94	-1	-1	-64	20076	503459	0xc2
03/06 11:14:41	 222	0	58	100	12	100	94	-1	-1	-64	20081	503536	0x15
03/06 11:14:41	 223	0	58	100	12	100	94	-1	-1	-64	20076	503584	0x42
03/06 11:14:41	 224	0	58	100	12	100	94	-1	-1	-64	20073	503633	0x71
03/06 11:14:41	 225	0	58	100	12	100	94	-1	-1	-64	20084	503724	0xd8
03/06 11:14:41	 226	0	58	100	12	100	94	-1	-1	-64	20078	503816	0x30
03/06 11:14:41	 227	0	58	100	12	100	94	-1	-1	-64	20077	503872	0x68
03/06 11:14:41	 228	0	58	100	12	100	94	-1	-1	-64	20081	503974	0xd3
03/06 11:14:41	 229	0	58	100	12	100	94	-1	-1	-64	20075	504093	0x46
03/06 11:14:41	 230	0	58	100	12	100	94	0	-2	-64	20072	504165	0x8c
03/06 11:14:41	 231	0	58	100	12	100	94	0	-2	-64	20076	504260	0xf0
03/06 11:14:41	 232	0	58	100	12	100	94	0	-2	-64	20078	504345	0x49
03/06 11:14:41	 233	0	58	100	12	100	94	0	-2	-64	20066	504407	0x7c
03/06 11:14:41	 234	0	58	100	12	100	94	0	-2	-64	20073	504503	0xe4
03/06 11:14:41	 235	0	58	100	12	100	94	0	-2	-64	20070	504585	0x35
03/06 11:14:41	 236	0	58	100	12	100	94	0	-2	-64	20064	504659	0x7a
03/06 11:14:41	 237	0	58	100	12	100	94	0	-2	-64	20065	504726	0xbf
03/06 11:14:41	 238	0	58	100	12	100	94	0	-2	-64	20060	504812	0x11
03/06 11:14:41	 239	0	58	100	12	100	94	0	-2	-64	20062	504865	0x4a
03/06 11:14:41	 240	0	58	100	12	100	94	0	-2	-64	20066	504912	0x7e
03/06 11:14:41	 241	0	58	100	12	100	94	0	-2	-64	20062	504988	0xc7
03/06 11:14:41	 242	0	58	100	12	100	94	0	-2	-64	20062	504999	0xd3
03/06 11:14:41	 243	0	58	100	12	100	94	0	-2	-64	20064	505017	0xe8
03/06 11:14:41	 244	0	58	100	12	100	94	0	-2	-64	20059	505081	0x24
03/06 11:14:41	 245	0	58	100	12	100	94	0	-2	-64	20057	505128	0x53
03/06 11:14:41	 246	0	58	100	12	100	94	0	-2	-64	20058	505144	0x65
03/06 11:14:41	 247	0	58	100	12	100	94	0	-2	-64	20060	505201	0xa1
03/06 11:14:41	 248	0	58	100	12	100	94	0	-2	-64	20053	505269	0xdf
03/06 11:14:41	 249	0	58	100	12	100	94	0	-2	-64	20057	505303	0x06
03/06 11:14:41	 250	0	58	100	12	100	94	-1	-1	-64	20055	505361	0x40
03/06 11:14:41	 251	0	58	100	12	100	94	-1	-1	-64	20052	505407	0x6c
03/06 11:14:41	 252	0	58	100	12	100	94	-1	-1	-64	20054	505455	0x9f
03/06 11:14:41	 253	0	58	100	12	100	94	-1	-1	-64	20050	505491	0xc0
03/06 11:14:41	 254	0	58	100	12	100	94	-1	-1	-64	20054	505518	0xe0
03/06 11:14:42	 255	0	58	100	12	100	94	-1	-1	-64	20058	505545	0x00
03/06 11:14:42	 0	0	58	100	12	100	94	-1	-1	-64	20053	505572	0x17
03/06 11:14:42	 1	0	58	100	12	100	94	-1	-1	-64	20042	505627	0x45
03/06 11:14:42	 2	0	58	100	12	100	94	-1	-1	-64	20048	505646	0x5f
03/06 11:14:42	 3	0	58	100	12	100	94	-1	-1	-64	20049	505678	0x81
03/06 11:14:42	 4	0	58	100	12	100	94	-1	-2	-65	20041	505731	0xad
03/06 11:14:42	 5	0	58	100	12	100	94	-1	-2	-65	20044	505770	0xd8
03/06 11:14:42	 6	0	58	100	12	100	94	-1	-2	-65	20044	505806	0xfd
03/06 11:14:42	 7	0	58	100	12	100	94	-1	-2	-65	20036	505861	0x2e
03/06 11:14:42	 8	0	58	100	12	100	94	-1	-2	-65	20041	505926	0x75
03/06 11:14:42	 9	0	58	100	12	100	94	-1	-2	-65	20035	505988	0xae
03/06 11:14:42	 10	0	58	100	12	100	94	-1	-2	-65	20029	506084	0x09
03/06 11:14:42	 11	0	58	100	12	100	94	-1	-2	-65	20036	506139	0x49
03/06 11:14:42	 12	0	58	100	12	100	94	-1	-2	-65	20028	506208	0x87
03/06 11:14:42	 13	0	58	100	12	100	94	-1	-2	-65	20018	506285	0xcb
03/06 11:14:42	 14	0	58	100	12	100	94	-1	-2	-64	20020	506301	0xdf
03/06 11:14:42	 15	0	58	100	12	100	94	-1	-2	-64	20011	506355	0x0d
03/06 11:14:42	 16	0	58	100	12	100	94	-1	-2	-64	20008	506448	0x69
03/06 11:14:42	 17	0	58	100	12	100	94	-1	-2	-64	20010	506494	0x9a
03/06 11:14:42	 18	0	58	100	12	100	94	-1	-2	-64	20006	506569	0xe2
03/06 11:14:42	 19	0	58	100	12	100	94	-1	-2	-64	20001	506699	0x61
03/06 11:14:42	 20	0	58	100	12	100	94	-1	-2	-64	19999	506764	0xa1
03/06 11:14:42	 21	0	58	100	12	100	94	-1	-2	-64	19997	506820	0xd8
03/06 11:14:42	 22	0	58	100	12	100	94	-1	-2	-64	19994	506816	0xd2
03/06 11:14:42	 23	0	58	100	12	100	94	-1	-2	-64	19995	506652	0x30
03/06 11:14:42	 24	0	58	100	12	100	94	-1	-2	-64	19986	506396	0x27
03/06 11:14:42	 25	0	58	100	12	100	94	-1	-2	-64	19981	505966	0x73
03/06 11:14:42	 26	0	58	100	12	100	94	-1	-2	-64	19978	505312	0xe0
03/06 11:14:42	 27	0	58	100	12	100	94	-1	-2	-64	19971	504595	0x0b
03/06 11:14:42	 28	0	58	100	12	100	94	-1	-2	-64	19967	503902	0x4f
03/06 11:14:42	 29	0	58	100	12	100	94	-1	-2	-64	19966	503244	0xba
03/06 11:14:42	 30	0	58	100	12	100	94	-1	-2	-64	19952	502650	0x59
03/06 11:14:42	 31	0	58	100	12	100	94	-1	-2	-64	19949	502223	0xaa
03/06 11:14:42	 32	0	58	100	12	100	94	-1	-2	-64	19939	501895	0x58
03/06 11:14:42	 33	0	58	100	12	100	94	-1	-2	-64	19937	501704	0x97
03/06 11:14:42	 34	0	58	100	12	100	94	0	-2	-64	19930	501639	0x51
03/06 11:14:42	 35	0	58	100	12	100	94	0	-2	-64	19925	501621	0x3b
03/06 11:14:42	 36	0	58	100	12	100	94	0	-2	-64	19922	501683	0x77
03/06 11:14:42	 37	0	58	100	12	100	94	0	-2	-64	19918	501789	0xdf
03/06 11:14:42	 38	0	58	100	12	100	94	0	-2	-64	19908	501886	0x37
03/06 11:14:42	 39	0	58	100	12	100	94	0	-2	-64	19902	501957	0x79
03/06 11:14:42	 40	0	58	100	12	100	94	0	-2	-64	19907	502011	0xb5
03/06 11:14:42	 41	0	58	100	12	100	94	0	-2	-64	19906	502044	0xd7
03/06 11:14:42	 42	0	58	100	12	100	94	0	-2	-64	19900	502021	0xbb
03/06 11:14:42	 43	0	58	100	12	100	94	0	-2	-64	19900	501985	0x97
03/06 11:14:42	 44	0	58	100	12	100	94	-1	-2	-64	19894	501968	0x80
03/06 11:14:42	 45	0	58	100	12	100	94	-1	-2	-64	19893	501936	0x60
03/06 11:14:42	 46	0	58	100	12	100	94	-1	-2	-64	19892	501888	0x30
03/06 11:14:42	 47	0	58	100	12	100	94	-1	-2	-64	19891	501895	0x37
03/06 11:14:42	 48	0	58	100	12	100	94	-1	-2	-64	19884	501910	0x40
03/06 11:14:42	 49	8	58	100	12	100	101	-1	-2	-64	19892	501929	0x6b
03/06 11:14:42	 50	0	58	100	12	100	101	-1	-2	-64	19888	502006	0xad
03/06 11:14:42	 51	0	58	100	12	100	101	-1	-2	-64	19890	502067	0xee
03/06 11:14:42	 52	0	58	100	12	100	101	-1	-2	-64	19887	502138	0x33
03/06 11:14:42	 53	0	58	100	12	100	101	-1	-2	-64	19889	502207	0x7b
03/06 11:14:42	 54	0	58	100	12	100	101	-1	-2	-64	19884	502262	0xae
03/06 11:14:42	 55	0	58	100	12	100	101	-1	-2	-64	19882	502301	0xd5
03/06 11:14:42	 56	0	58	100	12	100	101	-1	-2	-64	19880	502311	0xde
03/06 11:14:42	 57	0	58	100	12	100	101	-1	-2	-64	19881	502298	0xd3
03/06 11:14:42	 58	0	58	100	12	100	101	-1	-2	-64	19883	502262	0xb1
03/06 11:14:42	 59	0	58	100	12	100	101	-1	-2	-64	19874	502204	0x6f
03/06 11:14:42	 60	0	58	100	12	100	101	-1	-2	-64	19874	502176	0x54
03/06 11:14:42	 61	0	58	100	12	100	101	-1	-2	-64	19878	502158	0x47
03/06 11:14:42	 62	0	58	100	12	100	101	-1	-2	-64	19874	502118	0x1c
03/06 11:14:42	 63	0	58	100	12	100	101	-1	-2	-64	19879	502155	0x47
03/06 11:14:42	 64	0	58	100	12	100	101	0	-1	-64	19876	502161	0x4d
03/06 11:14:42	 65	0	58	100	12	100	101	0	-1	-64	19868	502154	0x3f
03/06 11:14:42	 66	0	58	100	12	100	101	0	-1	-64	19871	502212	0x7d
03/06 11:14:42	 67	0	58	100	12	100	101	0	-1	-64	19868	502283	0xc3
03/06 11:14:42	 68	0	58	100	12	100	101	0	-1	-64	19869	502337	0xfb
03/06 11:14:42	 69	0	58	100	12	100	101	0	-1	-64	19868	502407	0x41
03/06 11:14:42	 70	0	58	100	12	100	101	0	-1	-64	19869	502543	0xcc
03/06 11:14:42	 71	0	58	100	12	100	101	0	-1	-64	19867	502630	0x22
03/06 11:14:42	 72	0	58	100	12	100	101	0	-1	-64	19866	502686	0x5a
03/06 11:14:42	 73	0	58	100	12	100	101	0	-1	-64	19867	502807	0xd6
03/06 11:14:42	 74	0	58	100	12	100	101	-1	-1	-64	19863	502906	0x35
03/06 11:14:42	 75	0	58	100	12	100	101	-1	-1	-64	19854	502983	0x7a
03/06 11:14:42	 76	0	58	100	12	100	101	-1	-1	-64	19860	503078	0xe1
03/06 11:14:42	 77	0	58	100	12	100	101	-1	-1	-64	19860	503165	0x39
03/06 11:14:42	 78	0	58	100	12	100	101	-1	-1	-64	19853	503269	0x9b
03/06 11:14:42	 79	0	58	100	12	100	101	-1	-1	-64	19867	503327	0xe5
03/06 11:14:42	 80	0	58	100	12	100	101	-1	-1	-64	19869	503400	0x31
03/06 11:14:42	 81	0	58	100	12	100	101	-1	-1	-64	19863	503460	0x68
03/06 11:14:42	 82	0	58	100	12	100	101	-1	-1	-64	19870	503540	0xc0
03/06 11:14:42	 83	0	58	100	12	100	101	-1	-1	-64	19867	503583	0xea
03/06 11:14:42	 84	0	58	100	12	100	101	0	-1	-64	19864	503655	0x31
03/06 11:14:42	 85	0	58	100	12	100	101	0	-1	-64	19868	503748	0x93
03/06 11:14:42	 86	0	58	100	12	100	101	0	-1	-64	19865	503822	0xdc
03/06 11:14:42	 87	0	58	100	12	100	101	0	-1	-64	19863	503879	0x14
03/06 11:14:42	 88	0	58	100	12	100	101	0	-1	-64	19872	503928	0x4f
03/06 11:14:42	 89	0	58	100	12	100	101	0	-1	-64	19871	504024	0xaf
03/06 11:14:42	 90	0	58	100	12	100	101	0	-1	-64	19866	504088	0xec
03/06 11:14:42	 91	0	58	100	12	100	101	0	-1	-64	19869	504145	0x29
03/06 11:14:42	 92	0	58	100	12	100	101	0	-1	-64	19871	504233	0x84
03/06 11:14:42	 93	0	58	100	12	100	101	0	-1	-64	19874	504326	0xe6
03/06 11:14:42	 94	0	58	100	12	100	101	-1	-2	-64	19873	504412	0x3a
03/06 11:14:42	 95	0	58	100	12	100	101	-1	-2	-64	19875	504507	0x9c
03/06 11:14:42	 96	0	58	100	12	100	101	-1	-2	-64	19875	504563	0xd5
03/06 11:14:42	 97	0	58	100	12	100	101	-1	-2	-64	19878	504658	0x39
03/06 11:14:42	 98	0	58	100	12	100	101	-1	-2	-64	19884	504742	0x94
03/06 11:14:43	 99	0	58	100	12	100	101	-1	-2	-64	19885	504818	0xe2
03/06 11:14:43	 100	0	58	100	12	100	101	-1	-2	-64	19896	504893	0x3a
03/06 11:14:43	 101	0	58	100	12	100	101	-1	-2	-64	19898	504974	0x8e
03/06 11:14:43	 102	0	58	100	12	100	101	-1	-2	-64	19893	505089	0xfe
03/06 11:14:43	 103	0	58	100	12	100	101	-1	-2	-64	19900	505125	0x2a
03/06 11:14:43	 104	0	58	100	12	100	101	-1	-1	-65	19902	505188	0x6c
03/06 11:14:43	 105	0	58	100	12	100	101	-1	-1	-65	19902	505298	0xdb
03/06 11:14:43	 106	0	58	100	12	100	101	-1	-1	-65	19908	505365	0x26
03/06 11:14:43	 107	0	58	100	12	100	101	-1	-1	-65	19909	505421	0x60
03/06 11:14:43	 108	0	58	100	12	100	101	-1	-1	-65	19925	505538	0xe6
03/06 11:14:43	 109	0	58	100	12	100	101	-1	-1	-65	19925	505635	0x49
03/06 11:14:43	 110	0	58	100	12	100	101	-1	-1	-65	19932	505685	0x83
03/06 11:14:43	 111	0	58	100	12	100	101	-1	-1	-65	19937	505765	0xd9
03/06 11:14:43	 112	0	58	100	12	100	101	-1	-1	-65	19944	505851	0x37
03/06 11:14:43	 113	0	58	100	12	100	101	-1	-1	-65	19954	505909	0x7d
03/06 11:14:43	 114	0	58	100	12	100	101	-1	-2	-65	19971	505987	0xdd
03/06 11:14:43	 115	0	58	100	12	100	101	-1	-2	-65	19976	506112	0x61
03/06 11:14:43	 116	0	58	100	12	100	101	-1	-2	-65	19978	506216	0xcc
03/06 11:14:43	 117	0	58	100	12	100	101	-1	-2	-65	19985	506316	0x38
03/06 11:14:43	 118	0	58	100	12	100	101	-1	-2	-65	19996	506394	0x93
03/06 11:14:43	 119	0	58	100	12	100	101	-1	-2	-65	20001	506466	0xe1
03/06 11:14:43	 120	0	58	100	12	100	101	-1	-2	-65	20008	506538	0x31
03/06 11:14:43	 121	0	58	100	12	100	101	-1	-2	-65	20006	506564	0x4a
03/06 11:14:43	 122	0	58	100	12	100	101	-1	-2	-65	20016	506525	0x2e
03/06 11:14:43	 123	0	58	100	12	100	101	-1	-2	-65	20026	506344	0x83
03/06 11:14:43	 124	0	58	100	12	100	101	-1	-2	-64	20025	506022	0x41
03/06 11:14:43	 125	0	58	100	12	100	101	-1	-2	-64	20029	505542	0x64
03/06 11:14:43	 126	0	58	100	12	100	101	-1	-2	-64	20036	504918	0xfa
03/06 11:14:43	 127	0	58	100	12	100	101	-1	-2	-64	20033	504242	0x51
03/06 11:14:43	 128	0	58	100	12	100	101	-1	-2	-64	20037	503593	0xcb
03/06 11:14:43	 129	0	58	100	12	100	101	-1	-2	-64	20044	502964	0x5b
03/06 11:14:43	 130	0	58	100	12	100	101	-1	-2	-64	20040	502452	0x56
03/06 11:14:43	 131	0	58	100	12	100	101	-1	-2	-64	20037	502052	0xc3
03/06 11:14:43	 132	0	58	100	12	100	101	-1	-2	-64	20050	501763	0xaf
03/06 11:14:43	 133	0	58	100	12	100	101	-1	-2	-64	20044	501612	0x12
03/06 11:14:43	 134	0	58	100	12	100	101	-1	-1	-64	20046	501565	0xe7
03/06 11:14:43	 135	0	58	100	12	100	101	-1	-1	-64	20050	501569	0xf0
03/06 11:14:43	 136	0	58	100	12	100	101	-1	-1	-64	20052	501638	0x38
03/06 11:14:43	 137	0	58	100	12	100	101	-1	-1	-64	20055	501749	0xab
03/06 11:14:43	 138	0	58	100	12	100	101	-1	-1	-64	20068	501850	0x1f
03/06 11:14:43	 139	0	58	100	12	100	101	-1	-1	-64	20066	501898	0x4e
03/06 11:14:43	 140	0	58	100	12	100	101	-1	-1	-64	20066	501982	0xa3
03/06 11:14:43	 141	0	58	100	12	100	101	-1	-1	-64	20065	502026	0xd0
03/06 11:14:43	 142	0	58	100	12	100	101	-1	-1	-64	20069	502032	0xdb
03/06 11:14:43	 143	0	58	100	12	100	101	-1	-1	-64	20064	502036	0xdb
03/06 11:14:43	 144	0	58	100	12	100	101	-1	-2	-64	20080	502040	0xef
03/06 11:14:43	 145	0	58	100	12	100	101	-1	-2	-64	20076	502076	0x10
03/06 11:14:43	 146	0	58	100	12	100	101	-1	-2	-64	20075	502079	0x13
03/06 11:14:43	 147	0	58	100	12	100	101	-1	-2	-64	20083	502104	0x35
03/06 11:14:43	 148	8	59	99	12	99	99	-1	-2	-64	20081	502168	0x79
03/06 11:14:43	 149	0	59	99	12	99	99	-1	-2	-64	20073	502245	0xb7
03/06 11:14:43	 150	0	59	99	12	99	99	-1	-2	-64	20095	502280	0xf2
03/06 11:14:43	 151	0	59	99	12	99	99	-1	-2	-64	20094	502341	0x2f
03/06 11:14:43	 152	0	59	99	12	99	99	-1	-2	-64	20095	502402	0x6e
03/06 11:14:43	 153	0	59	99	12	99	99	-1	-2	-64	20110	502430	0x9a
03/06 11:14:43	 154	0	59	99	12	99	99	-1	-2	-64	20106	502411	0x84
03/06 11:14:43	 155	0	59	99	12	99	99	-1	-2	-64	20110	502400	0x7e
03/06 11:14:43	 156	0	59	99	12	99	99	-1	-2	-64	20124	502361	0x66
03/06 11:14:43	 157	0	59	99	12	99	99	-1	-2	-64	20131	502274	0x17
03/06 11:14:43	 158	0	59	99	12	99	99	-1	-2	-64	20133	502202	0xd1
03/06 11:14:43	 159	0	59	99	12	99	99	-1	-2	-64	20146	502144	0xa5
03/06 11:14:43	 160	0	59	99	12	99	99	-1	-2	-64	20156	502075	0x6b
03/06 11:14:43	 161	0	59	99	12	99	99	-1	-2	-64	20155	502004	0x23
03/06 11:14:43	 162	0	59	99	12	99	99	-1	-2	-64	20175	501994	0x2e
03/06 11:14:43	 163	0	59	99	12	99	99	-1	-2	-64	20173	501998	0x31
03/06 11:14:43	 164	0	59	99	12	99	99	-1	-2	-64	20175	502020	0x4b
03/06 11:14:43	 165	0	59	99	12	99	99	-1	-2	-64	20182	502055	0x76
03/06 11:14:43	 166	0	59	99	12	99	99	-1	-2	-64	20189	502149	0xdc
03/06 11:14:43	 167	0	59	99	12	99	99	-1	-2	-64	20193	502219	0x27
03/06 11:14:43	 168	0	59	99	12	99	99	-1	-2	-64	20199	502286	0x72
03/06 11:14:43	 169	0	59	99	12	99	99	-1	-2	-64	20195	502365	0xbe
03/06 11:14:43	 170	0	59	99	12	99	99	-1	-2	-64	20198	502435	0x08
03/06 11:14:43	 171	0	59	99	12	99	99	-1	-2	-64	20203	502535	0x73
03/06 11:14:43	 172	0	59	99	12	99	99	-1	-2	-64	20205	502642	0xe1
03/06 11:14:43	 173	0	59	99	12	99	99	-1	-2	-64	20205	502706	0x22
03/06 11:14:43	 174	0	59	99	12	99	99	-1	-2	-64	20218	502814	0x9d
03/06 11:14:43	 175	0	59	99	12	99	99	-1	-2	-64	20218	502916	0x04
03/06 11:14:43	 176	0	59	99	12	99	99	-1	-2	-64	20216	503013	0x64
03/06 11:14:43	 177	0	59	99	12	99	99	-1	-2	-64	20228	503101	0xcb
03/06 11:14:43	 178	0	59	99	12	99	99	-1	-2	-64	20225	503190	0x22
03/06 11:14:43	 179	0	59	99	12	99	99	-1	-2	-64	20224	503308	0x99
03/06 11:14:43	 180	0	59	99	12	99	99	-1	-2	-64	20220	503387	0xe4
03/06 11:14:43	 181	0	59	99	12	99	99	-1	-2	-64	20223	503448	0x25
03/06 11:14:43	 182	0	59	99	12	99	99	-1	-2	-64	20227	503519	0x72
03/06 11:14:43	 183	0	59	99	12	99	99	-1	-2	-64	20222	503564	0x9b
03/06 11:14:43	 184	0	59	99	12	99	99	-1	-1	-64	20220	503664	0xff
03/06 11:14:43	 185	0	59	99	12	99	99	-1	-1	-64	20221	503734	0x47
03/06 11:14:43	 186	0	59	99	12	99	99	-1	-1	-64	20214	503795	0x7e
03/06 11:14:43	 187	0	59	99	12	99	99	-1	-1	-64	20205	503886	0xd2
03/06 11:14:43	 188	0	59	99	12	99	99	-1	-1	-64	20207	503926	0xfd
03/06 11:14:43	 189	0	59	99	12	99	99	-1	-1	-64	20203	503989	0x39
03/06 11:14:43	 190	0	59	99	12	99	99	-1	-1	-64	20203	504057	0x7e
03/06 11:14:43	 191	0	59	99	12	99	99	-1	-1	-64	20202	504088	0x9e
03/06 11:14:43	 192	0	59	99	12	99	99	-1	-1	-64	20199	504158	0xe2
03/06 11:14:43	 193	0	59	99	12	99	99	-1	-1	-64	20193	504229	0x24
03/06 11:14:43	 194	0	59	99	12	99	99	0	-2	-64	20198	504273	0x56
03/06 11:14:43	 195	0	59	99	12	99	99	0	-2	-64	20192	504346	0x9b
03/06 11:14:43	 196	0	59	99	12	99	99	0	-2	-64	20194	504409	0xdd
03/06 11:14:43	 197	0	59	99	12	99	99	0	-2	-64	20192	504467	0x16
03/06 11:14:43	 198	0	59	99	12	99	99	0	-2	-64	20189	504531	0x54
03/06 11:14:44	 199	0	59	99	12	99	99	0	-2	-64	20182	504608	0x9c
03/06 11:14:44	 200	0	59	99	12	99	99	0	-2	-64	20184	504677	0xe4
03/06 11:14:44	 201	0	59	99	12	99	99	0	-2	-64	20178	504753	0x2b
03/06 11:14:44	 202	0	59	99	12	99	99	0	-2	-64	20171	504823	0x6b
03/06 11:14:44	 203	0	59	99	12	99	99	0	-2	-64	20177	504936	0xe4
03/06 11:14:44	 204	0	59	99	12	99	99	-1	-2	-64	20163	505024	0x2e
03/06 11:14:44	 205	0	59	99	12	99	99	-1	-2	-64	20166	505083	0x6d
03/06 11:14:44	 206	0	59	99	12	99	99	-1	-2	-64	20169	505179	0xd2
03/06 11:14:44	 207	0	59	99	12	99	99	-1	-2	-64	20159	505285	0x33
03/06 11:14:44	 208	0	59	99	12	99	99	-1	-2	-64	20158	505364	0x83
03/06 11:14:44	 209	0	59	99	12	99	99	-1	-2	-64	20158	505440	0xd0
03/06 11:14:44	 210	0	59	99	12	99	99	-1	-2	-64	20147	505536	0x26
03/06 11:14:44	 211	0	59	99	12	99	99	-1	-2	-64	20145	505603	0x69
03/06 11:14:44	 212	0	59	99	12	99	99	-1	-2	-64	20146	505663	0xa7
03/06 11:14:44	 213	0	59	99	12	99	99	-1	-2	-64	20146	505731	0xec
03/06 11:14:44	 214	0	59	99	12	99	99	-1	-2	-64	20145	505792	0x29
03/06 11:14:44	 215	0	59	99	12	99	99	-1	-2	-64	20152	505858	0x74
03/06 11:14:44	 216	0	59	99	12	99	99	-1	-2	-64	20147	505912	0xa6
03/06 11:14:44	 217	0	59	99	12	99	99	-1	-2	-64	20137	505862	0x6b
03/06 11:14:44	 218	0	59	99	12	99	99	-1	-2	-64	20151	505675	0xbe
03/06 11:14:44	 219	0	59	99	12	99	99	-1	-2	-64	20146	505358	0x7c
03/06 11:14:44	 220	0	59	99	12	99	99	-1	-2	-64	20139	504862	0x84
03/06 11:14:44	 221	0	59	99	12	99	99	-1	-2	-64	20149	504193	0xef
03/06 11:14:44	 222	0	59	99	12	99	99	-1	-2	-64	20145	503417	0xe1
03/06 11:14:44	 223	0	59	99	12	99	99	-1	-2	-64	20136	502631	0xc4
03/06 11:14:44	 224	0	59	99	12	99	99	-1	-2	-64	20144	501925	0x08
03/06 11:14:44	 225	0	59	99	12	99	99	-1	-2	-64	20134	501301	0x8d
03/06 11:14:44	 226	0	59	99	12	99	99	-1	-2	-64	20129	500812	0x9e
03/06 11:14:44	 227	0	59	99	12	99	99	-1	-2	-64	20137	500473	0x52
03/06 11:14:44	 228	0	59	99	12	99	99	-1	-2	-64	20133	500257	0x77
03/06 11:14:44	 229	0	59	99	12	99	99	-1	-2	-64	20127	500094	0xce
03/06 11:14:44	 230	0	59	99	12	99	99	-1	-2	-64	20126	500052	0xa4
03/06 11:14:44	 231	0	59	99	12	99	99	-1	-2	-64	20124	500096	0xcf
03/06 11:14:44	 232	0	59	99	12	99	99	-1	-2	-64	20117	500113	0xda
03/06 11:14:44	 233	0	59	99	12	99	99	-1	-2	-64	20119	500149	0x01
03/06 11:14:44	 234	0	59	99	12	99	99	-1	-2	-64	20118	500224	0x4d
03/06 11:14:44	 235	0	59	99	12	99	99	-1	-2	-64	20115	500260	0x6f
03/06 11:14:44	 236	0	59	99	12	99	99	-1	-2	-64	20121	500275	0x85
03/06 11:14:44	 237	0	59	99	12	99	99	-1	-2	-64	20114	500240	0x5c
03/06 11:14:44	 238	0	59	99	12	99	99	-1	-2	-64	20109	500228	0x4c
03/06 11:14:44	 239	0	59	99	12	99	99	-1	-2	-64	20106	500201	0x2e
03/06 11:14:44	 240	0	59	99	12	99	99	-1	-2	-64	20105	500141	0xf2
03/06 11:14:44	 241	0	59	99	12	99	99	-1	-2	-64	20095	500105	0xc5
03/06 11:14:44	 242	0	59	99	12	99	99	-1	-2	-64	20093	500058	0x95
03/06 11:14:44	 243	0	59	99	12	99	99	-1	-2	-64	20092	500087	0xb2
03/06 11:14:44	 244	8	59	99	12	99	96	-1	-2	-64	20092	500099	0xc4
03/06 11:14:44	 245	0	59	99	12	99	96	-1	-2	-64	20091	500133	0xde
03/06 11:14:44	 246	0	59	99	12	99	96	-1	-2	-64	20088	500210	0x29
03/06 11:14:44	 247	0	59	99	12	99	96	-1	-2	-64	20085	500287	0x75
03/06 11:14:44	 248	0	59	99	12	99	96	-1	-2	-64	20092	500353	0xbf
03/06 11:14:44	 249	0	59	99	12	99	96	-1	-2	-64	20084	500375	0xce
03/06 11:14:44	 250	0	59	99	12	99	96	-1	-2	-64	20072	500392	0xd4
03/06 11:14:44	 251	0	59	99	12	99	96	-1	-2	-64	20077	500392	0xda
03/06 11:14:44	 252	0	59	99	12	99	96	-1	-2	-64	20072	500388	0xd2
03/06 11:14:44	 253	0	59	99	12	99	96	-1	-2	-64	20074	500350	0xaf
03/06 11:14:44	 254	0	59	99	12	99	96	-1	-2	-64	20067	500288	0x6b
03/06 11:14:44	 255	0	59	99	12	99	96	-1	-2	-64	20062	500255	0x46
03/06 11:14:44	 0	0	59	99	12	99	96	-1	-2	-64	20070	500238	0x3e
03/06 11:14:44	 1	0	59	99	12	99	96	-1	-2	-64	20068	500181	0x03
03/06 11:14:44	 2	0	59	99	12	99	96	-1	-2	-64	20067	500173	0xfb
03/06 11:14:44	 3	0	59	99	12	99	96	-1	-2	-64	20071	500174	0x01
03/06 11:14:44	 4	0	59	99	12	99	96	-1	-2	-64	20061	500147	0xdd
03/06 11:14:44	 5	0	59	99	12	99	96	-1	-2	-64	20064	500196	0x12
03/06 11:14:44	 6	0	59	99	12	99	96	-1	-2	-64	20071	500241	0x48
03/06 11:14:44	 7	0	59	99	12	99	96	-1	-2	-64	20065	500327	0x99
03/06 11:14:44	 8	0	59	99	12	99	96	-1	-2	-64	20071	500434	0x0b
03/06 11:14:44	 9	0	59	99	12	99	96	-1	-2	-64	20074	500505	0x57
03/06 11:14:44	 10	0	59	99	12	99	96	-1	-2	-64	20072	500590	0xab
03/06 11:14:44	 11	0	59	99	12	99	96	-1	-2	-64	20070	500680	0x04
03/06 11:14:44	 12	0	59	99	12	99	96	-1	-2	-64	20075	500776	0x6b
03/06 11:14:44	 13	0	59	99	12	99	96	-1	-2	-64	20069	500871	0xc5
03/06 11:14:44	 14	0	59	99	12	99	96	-1	-2	-64	20072	500958	0x20
03/06 11:14:44	 15	0	59	99	12	99	96	-1	-2	-64	20073	501027	0x68
03/06 11:14:44	 16	0	59	99	12	99	96	-1	-2	-64	20063	501116	0xb8
03/06 11:14:44	 17	0	59	99	12	99	96	-1	-2	-64	20066	501208	0x18
03/06 11:14:44	 18	0	59	99	12	99	96	0	-2	-64	20064	501266	0x53
03/06 11:14:44	 19	0	59	99	12	99	96	0	-2	-64	20058	501327	0x8b
03/06 11:14:44	 20	0	59	99	12	99	96	0	-2	-64	20061	501417	0xe9
03/06 11:14:44	 21	0	59	99	12	99	96	0	-2	-64	20063	501478	0x29
03/06 11:14:44	 22	0	59	99	12	99	96	0	-2	-64	20062	501526	0x5a
03/06 11:14:44	 23	0	59	99	12	99	96	0	-2	-64	20062	501590	0x9b
03/06 11:14:44	 24	0	59	99	12	99	96	0	-2	-64	20066	501649	0xdb
03/06 11:14:44	 25	0	59	99	12	99	96	0	-2	-64	20059	501715	0x17
03/06 11:14:44	 26	0	59	99	12	99	96	0	-2	-64	20060	501769	0x50
03/06 11:14:44	 27	0	59	99	12	99	96	0	-2	-64	20060	501832	0x90
03/06 11:14:44	 28	0	59	99	12	99	96	-1	-2	-64	20058	501908	0xda
03/06 11:14:44	 29	0	59	99	12	99	96	-1	-2	-64	20052	501997	0x2e
03/06 11:14:44	 30	0	59	99	12	99	96	-1	-2	-64	20059	502064	0x7a
03/06 11:14:44	 31	0	59	99	12	99	96	-1	-2	-64	20054	502112	0xa6
03/06 11:14:44	 32	0	59	99	12	99	96	-1	-2	-64	20049	502195	0xf5
03/06 11:14:44	 33	0	59	99	12	99	96	-1	-2	-64	20055	502271	0x48
03/06 11:14:44	 34	0	59	99	12	99	96	-1	-2	-64	20055	502325	0x80
03/06 11:14:44	 35	0	59	99	12	99	96	-1	-2	-64	20053	502426	0xe4
03/06 11:14:44	 36	0	59	99	12	99	96	-1	-2	-64	20052	502503	0x31
03/06 11:14:44	 37	0	59	99	12	99	96	-1	-2	-64	20049	502572	0x75
03/06 11:14:44	 38	0	59	99	12	99	96	0	-1	-64	20044	502654	0xc5
03/06 11:14:44	 39	0	59	99	12	99	96	0	-1	-64	20053	502746	0x2b
03/06 11:14:44	 40	0	59	99	12	99	96	0	-1	-64	20050	502820	0x74
03/06 11:14:44	 41	0	59	99	12	99	96	0	-1	-64	20046	502891	0xb8
03/06 11:14:44	 42	0	59	99	12	99	96	0	-1	-64	20043	503004	0x27
03/06 11:14:45	 43	0	59	99	12	99	96	0	-1	-64	20037	503061	0x5c
03/06 11:14:45	 44	0	59	99	12	99	96	0	-1	-64	20036	503164	0xc3
03/06 11:14:45	 45	0	59	99	12	99	96	0	-1	-64	20045	503270	0x37
03/06 11:14:45	 46	0	59	99	12	99	96	0	-1	-64	20039	503345	0x7e
03/06 11:14:45	 47	0	59	99	12	99	96	0	-1	-64	20034	503394	0xab
03/06 11:14:45	 48	0	59	99	12	99	96	-1	-2	-64	20042	503489	0x11
03/06 11:14:45	 49	0	59	99	12	99	96	-1	-2	-64	20038	503591	0x75
03/06 11:14:45	 50	0	59	99	12	99	96	-1	-2	-64	20039	503636	0xa4
03/06 11:14:45	 51	0	59	99	12	99	96	-1	-2	-64	20037	503735	0x06
03/06 11:14:45	 52	0	59	99	12	99	96	-1	-2	-64	20035	503832	0x67
03/06 11:14:45	 53	0	59	99	12	99	96	-1	-2	-64	20034	503880	0x97
03/06 11:14:45	 54	0	59	99	12	99	96	-1	-2	-64	20041	503939	0xda
03/06 11:14:45	 55	0	59	99	12	99	96	-1	-2	-64	20030	504037	0x32
03/06 11:14:45	 56	0	59	99	12	99	96	-1	-2	-64	20025	504112	0x7a
03/06 11:14:45	 57	0	59	99	12	99	96	-1	-2	-64	20025	504169	0xb4
03/06 11:14:45	 58	0	59	99	12	99	96	-1	-2	-64	20017	504254	0x02
03/06 11:14:45	 59	0	59	99	12	99	96	-1	-2	-64	20008	504365	0x6a
03/06 11:14:45	 60	0	59	99	12	99	96	-1	-2	-64	20011	504436	0xb5
03/06 11:14:45	 61	0	59	99	12	99	96	-1	-2	-64	20008	504518	0x05
03/06 11:14:45	 62	0	59	99	12	99	96	-1	-2	-64	20001	504605	0x57
03/06 11:14:45	 63	0	59	99	12	99	96	-1	-2	-64	19996	504641	0x77
03/06 11:14:45	 64	0	59	99	12	99	96	-1	-2	-64	19990	504679	0x98
03/06 11:14:45	 65	0	59	99	12	99	96	-1	-2	-64	19989	504646	0x77
03/06 11:14:45	 66	0	59	99	12	99	96	-1	-2	-64	19988	504445	0xad
03/06 11:14:45	 67	0	59	99	12	99	96	-1	-2	-64	19985	504071	0x34
03/06 11:14:45	 68	0	59	99	12	99	96	-1	-3	-64	19983	503540	0x1c
03/06 11:14:45	 69	0	59	99	12	99	96	-1	-3	-64	19977	502835	0x54
03/06 11:14:45	 70	0	59	99	12	99	96	-1	-3	-64	19973	502034	0x2d
03/06 11:14:45	 71	0	59	99	12	99	96	-1	-3	-64	19970	501256	0x1e
03/06 11:14:45	 72	0	59	99	12	99	96	-1	-3	-64	19966	500586	0x79
03/06 11:14:45	 73	0	59	99	12	99	96	-1	-3	-64	19964	499992	0x24
03/06 11:14:45	 74	0	59	99	12	99	96	-1	-3	-64	19962	499527	0x50
03/06 11:14:45	 75	0	59	99	12	99	96	-1	-3	-64	19959	499203	0x09
03/06 11:14:45	 76	0	59	99	12	99	96	-1	-3	-64	19952	499013	0x44
03/06 11:14:45	 77	0	59	99	12	99	96	-1	-3	-64	19954	498932	0xf5
03/06 11:14:45	 78	0	59	99	12	99	96	-1	-1	-64	19946	498912	0xdc
03/06 11:14:45	 79	0	59	99	12	99	96	-1	-1	-64	19936	498943	0xf2
03/06 11:14:45	 80	0	59	99	12	99	96	-1	-1	-64	19947	499018	0x4a
03/06 11:14:45	 81	0	59	99	12	99	96	-1	-1	-64	19931	499071	0x70
03/06 11:14:45	 82	0	59	99	12	99	96	-1	-1	-64	19933	499105	0x95
03/06 11:14:45	 83	0	59	99	12	99	96	-1	-1	-64	19929	499128	0xa9
03/06 11:14:45	 84	0	59	99	12	99	96	-1	-1	-64	19925	499130	0xa8
03/06 11:14:45	 85	0	59	99	12	99	96	-1	-1	-64	19914	499099	0x7f
03/06 11:14:45	 86	0	59	99	12	99	96	-1	-1	-64	19915	499048	0x4e
03/06 11:14:45	 87	0	59	99	12	99	96	-1	-1	-64	19906	498999	0x15
03/06 11:14:45	 88	0	59	99	12	99	96	-1	-2	-64	19904	498911	0xba
03/06 11:14:45	 89	0	59	99	12	99	96	-1	-2	-64	19903	498875	0x96
03/06 11:14:45	 90	0	59	99	12	99	96	-1	-2	-64	19893	498850	0x74
03/06 11:14:45	 91	0	59	99	12	99	96	-1	-2	-64	19894	498832	0x64
03/06 11:14:45	 92	8	59	99	12	100	104	-1	-2	-64	19896	498847	0x87
03/06 11:14:45	 93	0	59	99	12	100	104	-1	-2	-64	19891	498883	0x9f
03/06 11:14:45	 94	0	59	99	12	100	104	-1	-2	-64	19895	498938	0xdb
03/06 11:14:45	 95	0	59	99	12	100	104	-1	-2	-64	19901	498993	0x1a
03/06 11:14:45	 96	0	59	99	12	100	104	-1	-2	-64	19893	499042	0x44
03/06 11:14:45	 97	0	59	99	12	100	104	-1	-2	-64	19897	499082	0x71
03/06 11:14:45	 98	0	59	99	12	100	104	0	-1	-64	19893	499073	0x67
03/06 11:14:45	 99	0	59	99	12	100	104	0	-1	-64	19891	499084	0x71
03/06 11:14:45	 100	0	59	99	12	100	104	0	-1	-64	19886	499082	0x6b
03/06 11:14:45	 101	0	59	99	12	100	104	0	-1	-64	19892	499035	0x43
03/06 11:14:45	 102	0	59	99	12	100	104	0	-1	-64	19888	498993	0x16
03/06 11:14:45	 103	0	59	99	12	100	104	0	-1	-64	19886	498978	0x06
03/06 11:14:45	 104	0	59	99	12	100	104	0	-1	-64	19887	498928	0xd5
03/06 11:14:45	 105	0	59	99	12	100	104	0	-1	-64	19886	498871	0x9c
03/06 11:14:45	 106	0	59	99	12	100	104	0	-1	-64	19884	498907	0xbf
03/06 11:14:45	 107	0	59	99	12	100	104	0	-1	-64	19886	498896	0xb7
03/06 11:14:45	 108	0	59	99	12	100	104	0	-2	-65	19881	498901	0xb6
03/06 11:14:45	 109	0	59	99	12	100	104	0	-2	-65	19871	498998	0x0f
03/06 11:14:45	 110	0	59	99	12	100	104	0	-2	-65	19885	499038	0x46
03/06 11:14:45	 111	0	59	99	12	100	104	0	-2	-65	19884	499114	0x92
03/06 11:14:45	 112	0	59	99	12	100	104	0	-2	-65	19880	499245	0x13
03/06 11:14:45	 113	0	59	99	12	100	104	0	-2	-65	19888	499341	0x7c
03/06 11:14:45	 114	0	59	99	12	100	104	0	-2	-65	19888	499424	0xd0
03/06 11:14:45	 115	0	59	99	12	100	104	0	-2	-65	19879	499520	0x29
03/06 11:14:45	 116	0	59	99	12	100	104	0	-2	-65	19889	499620	0x98
03/06 11:14:45	 117	0	59	99	12	100	104	0	-2	-65	19887	499740	0x10
03/06 11:14:45	 118	0	59	99	12	100	104	-1	-1	-63	19884	499835	0x6f
03/06 11:14:45	 119	0	59	99	12	100	104	-1	-1	-63	19890	499918	0xc9
03/06 11:14:45	 120	0	59	99	12	100	104	-1	-1	-63	19890	500032	0x3d
03/06 11:14:45	 121	0	59	99	12	100	104	-1	-1	-63	19886	500144	0xaa
03/06 11:14:45	 122	0	59	99	12	100	104	-1	-1	-63	19887	500209	0xed
03/06 11:14:45	 123	0	59	99	12	100	104	-1	-1	-63	19886	500312	0x55
03/06 11:14:45	 124	0	59	99	12	100	104	-1	-1	-63	19888	500400	0xb0
03/06 11:14:45	 125	0	59	99	12	100	104	-1	-1	-63	19897	500460	0xf6
03/06 11:14:45	 126	0	59	99	12	100	104	-1	-1	-63	19885	500547	0x43
03/06 11:14:45	 127	0	59	99	12	100	104	-1	-1	-63	19891	500623	0x96
03/06 11:14:45	 128	0	59	99	12	100	104	-1	-1	-64	19895	500726	0x01
03/06 11:14:45	 129	0	59	99	12	100	104	-1	-1	-64	19891	500773	0x2e
03/06 11:14:45	 130	0	59	99	12	100	104	-1	-1	-64	19895	500818	0x60
03/06 11:14:45	 131	0	59	99	12	100	104	-1	-1	-64	19901	500897	0xb6
03/06 11:14:45	 132	0	59	99	12	100	104	-1	-1	-64	19896	500935	0xd8
03/06 11:14:45	 133	0	59	99	12	100	104	-1	-1	-64	19899	500991	0x14
03/06 11:14:45	 134	0	59	99	12	100	104	-1	-1	-64	19906	501056	0x5e
03/06 11:14:45	 135	0	59	99	12	100	104	-1	-1	-64	19904	501128	0xa5
03/06 11:14:45	 136	0	59	99	12	100	104	-1	-1	-64	19909	501208	0xfb
03/06 11:14:45	 137	0	59	99	12	100	104	-1	-1	-64	19914	501282	0x4c
03/06 11:14:45	 138	0	59	99	12	100	104	-1	-2	-64	19907	501358	0x91
03/06 11:14:45	 139	0	59	99	12	100	104	-1	-2	-64	19909	501446	0xec
03/06 11:14:45	 140	0	59	99	12	100	104	-1	-2	-64	19915	501554	0x60
03/06 11:14:45	 141	0	59	99	12	100	104	-1	-2	-64	19911	501625	0xa4
03/06 11:14:46	 142	0	59	99	12	100	104	-1	-2	-64	19918	501697	0xf4
03/06 11:14:46	 143	0	59	99	12	100	104	-1	-2	-64	19921	501796	0x5c
03/06 11:14:46	 144	0	59	99	12	100	104	-1	-2	-64	19931	501870	0xb1
03/06 11:14:46	 145	0	59	99	12	100	104	-1	-2	-64	19938	501969	0x1c
03/06 11:14:46	 146	0	59	99	12	100	104	-1	-2	-64	19940	502040	0x67
03/06 11:14:46	 147	0	59	99	12	100	104	-1	-2	-64	19943	502131	0xc6
03/06 11:14:46	 148	0	59	99	12	100	104	-1	-2	-64	19953	502239	0x3d
03/06 11:14:46	 149	0	59	99	12	100	104	-1	-2	-64	19960	502332	0xa3
03/06 11:14:46	 150	0	59	99	12	100	104	-1	-2	-64	19962	502413	0xf7
03/06 11:14:46	 152	0	59	99	12	100	104	-1	-2	-64	19973	502626	0xdb
03/06 11:14:46	 153	0	59	99	12	100	104	-1	-2	-64	19983	502731	0x4f
03/06 11:14:46	 154	0	59	99	12	100	104	-1	-2	-64	19991	502799	0x9d
03/06 11:14:46	 155	0	59	99	12	100	104	-1	-2	-64	19996	502899	0x07
03/06 11:14:46	 156	0	59	99	12	100	104	-1	-2	-64	20005	503017	0x87
03/06 11:14:46	 157	0	59	99	12	100	104	-1	-2	-64	20021	503067	0xcb
03/06 11:14:46	 158	0	59	99	12	100	104	-1	-2	-64	20018	503174	0x34
03/06 11:14:46	 159	0	59	99	12	100	104	-1	-2	-64	20022	503283	0xa6
03/06 11:14:46	 160	0	59	99	12	100	104	-1	-2	-64	20029	503363	0xff
03/06 11:14:46	 161	0	59	99	12	100	104	-1	-2	-64	20031	503463	0x66
03/06 11:14:46	 162	0	59	99	12	100	104	-1	-2	-64	20037	503546	0xc0
03/06 11:14:46	 163	0	59	99	12	100	104	-1	-2	-64	20042	503612	0x09
03/06 11:14:46	 164	0	59	99	12	100	104	-1	-2	-64	20042	503662	0x3c
03/06 11:14:46	 165	0	59	99	12	100	104	-1	-2	-64	20043	503718	0x76
03/06 11:14:46	 166	0	59	99	12	100	104	-1	-2	-64	20042	503724	0x7c
03/06 11:14:46	 167	0	59	99	12	100	104	-1	-2	-64	20049	503711	0x77
03/06 11:14:46	 168	0	59	99	12	100	104	-1	-1	-64	20049	503562	0xe4
03/06 11:14:46	 169	0	59	99	12	100	104	-1	-1	-64	20054	503250	0xb0
03/06 11:14:46	 170	0	59	99	12	100	104	-1	-1	-64	20053	502827	0x08
03/06 11:14:46	 171	0	59	99	12	100	104	-1	-1	-64	20059	502192	0x91
03/06 11:14:46	 172	0	59	99	12	100	104	-1	-1	-64	20063	501474	0xc5
03/06 11:14:46	 173	0	59	99	12	100	104	-1	-1	-64	20061	500789	0x15
03/06 11:14:46	 174	0	59	99	12	100	104	-1	-1	-64	20055	500135	0x7f
03/06 11:14:46	 175	0	59	99	12	100	104	-1	-1	-64	20062	499559	0x45
03/06 11:14:46	 176	0	59	99	12	100	104	-1	-1	-64	20066	499120	0x91
03/06 11:14:46	 177	0	59	99	12	100	104	-1	-1	-64	20060	498796	0x47
03/06 11:14:46	 178	0	59	99	12	100	104	-1	-2	-64	20069	498592	0x83
03/06 11:14:46	 179	0	59	99	12	100	104	-1	-2	-64	20065	498513	0x31
03/06 11:14:46	 180	0	59	99	12	100	104	-1	-2	-64	20067	498543	0x52
03/06 11:14:46	 181	0	59	99	12	100	104	-1	-2	-64	20071	498595	0x8b
03/06 11:14:46	 182	0	59	99	12	100	104	-1	-2	-64	20071	498675	0xdc
03/06 11:14:46	 183	0	59	99	12	100	104	-1	-2	-64	20077	498775	0x48
03/06 11:14:46	 184	0	59	99	12	100	104	-1	-2	-64	20082	498870	0xad
03/06 11:14:46	 185	0	59	99	12	100	104	-1	-2	-64	20082	498928	0xe8
03/06 11:14:46	 186	0	59	99	12	100	104	-1	-2	-64	20086	498942	0xfb
03/06 11:14:46	 187	0	59	99	12	100	104	-1	-2	-64	20091	498956	0x10
03/06 11:14:46	 188	0	59	99	12	100	104	-1	-2	-64	20090	498977	0x25
03/06 11:14:46	 189	0	59	99	12	100	104	-1	-2	-64	20097	498967	0x23
03/06 11:14:46	 190	0	59	99	12	100	104	-1	-2	-64	20102	498954	0x1c
03/06 11:14:46	 191	0	59	99	12	100	104	-1	-2	-64	20101	499001	0x4b
03/06 11:14:46	 192	0	59	99	12	100	104	-1	-2	-64	20098	499012	0x54
03/06 11:14:46	 193	0	59	99	12	100	104	-1	-2	-64	20104	499044	0x7b
03/06 11:14:46	 194	8	60	99	12	99	102	-1	-2	-64	20106	499103	0xbf
03/06 11:14:46	 195	0	60	99	12	99	102	-1	-2	-64	20105	499181	0x05
03/06 11:14:46	 196	0	60	99	12	99	102	-1	-2	-64	20113	499269	0x67
03/06 11:14:46	 197	0	60	99	12	99	102	-1	-2	-64	20109	499317	0x94
03/06 11:14:46	 198	0	60	99	12	99	102	-1	-2	-65	20109	499351	0xb6
03/06 11:14:46	 199	0	60	99	12	99	102	-1	-2	-65	20119	499383	0xe1
03/06 11:14:46	 200	0	60	99	12	99	102	-1	-2	-65	20117	499375	0xd8
03/06 11:14:46	 201	0	60	99	12	99	102	-1	-2	-65	20110	499361	0xc4
03/06 11:14:46	 202	0	60	99	12	99	102	-1	-2	-65	20126	499316	0xa8
03/06 11:14:46	 203	0	60	99	12	99	102	-1	-2	-65	20126	499270	0x7b
03/06 11:14:46	 204	0	60	99	12	99	102	-1	-2	-65	20127	499201	0x38
03/06 11:14:46	 205	0	60	99	12	99	102	-1	-2	-65	20132	499158	0x12
03/06 11:14:46	 206	0	60	99	12	99	102	-1	-2	-65	20128	499124	0xed
03/06 11:14:46	 207	0	60	99	12	99	102	-1	-2	-65	20138	499104	0xe4
03/06 11:14:46	 208	0	60	99	12	99	102	-1	-1	-64	20144	499108	0xf1
03/06 11:14:46	 209	0	60	99	12	99	102	-1	-1	-64	20141	499165	0x28
03/06 11:14:46	 210	0	60	99	12	99	102	-1	-1	-64	20139	499212	0x57
03/06 11:14:46	 211	0	60	99	12	99	102	-1	-1	-64	20150	499286	0xad
03/06 11:14:46	 212	0	60	99	12	99	102	-1	-1	-64	20146	499398	0x1a
03/06 11:14:46	 213	0	60	99	12	99	102	-1	-1	-64	20162	499449	0x5e
03/06 11:14:46	 214	0	60	99	12	99	102	-1	-1	-64	20159	499558	0xca
03/06 11:14:46	 215	0	60	99	12	99	102	-1	-1	-64	20161	499664	0x37
03/06 11:14:46	 216	0	60	99	12	99	102	-1	-1	-64	20171	499752	0x9b
03/06 11:14:46	 217	0	60	99	12	99	102	-1	-1	-64	20166	499870	0x0d
03/06 11:14:46	 218	0	60	99	12	99	102	-1	-2	-64	20169	499980	0x7f
03/06 11:14:46	 219	0	60	99	12	99	102	-1	-2	-64	20174	500092	0xf5
03/06 11:14:46	 220	0	60	99	12	99	102	-1	-2	-64	20170	500224	0x77
03/06 11:14:46	 221	0	60	99	12	99	102	-1	-2	-64	20176	500329	0xe7
03/06 11:14:46	 222	0	60	99	12	99	102	-1	-2	-64	20186	500397	0x36
03/06 11:14:46	 223	0	60	99	12	99	102	-1	-2	-64	20183	500507	0xa3
03/06 11:14:46	 224	0	60	99	12	99	102	-1	-2	-64	20180	500591	0xf5
03/06 11:14:46	 225	0	60	99	12	99	102	-1	-2	-64	20179	500660	0x3a
03/06 11:14:46	 226	0	60	99	12	99	102	-1	-2	-64	20181	500742	0x90
03/06 11:14:46	 227	0	60	99	12	99	102	-1	-2	-64	20182	500800	0xcc
03/06 11:14:46	 228	0	60	99	12	99	102	-1	-1	-64	20182	500886	0x24
03/06 11:14:46	 229	0	60	99	12	99	102	-1	-1	-64	20170	500952	0x5b
03/06 11:14:46	 230	0	60	99	12	99	102	-1	-1	-64	20174	501006	0x97
03/06 11:14:46	 231	0	60	99	12	99	102	-1	-1	-64	20175	501080	0xe3
03/06 11:14:46	 232	0	60	99	12	99	102	-1	-1	-64	20169	501152	0x26
03/06 11:14:46	 233	0	60	99	12	99	102	-1	-1	-64	20164	501238	0x78
03/06 11:14:46	 234	0	60	99	12	99	102	-1	-1	-64	20165	501277	0xa2
03/06 11:14:46	 235	0	60	99	12	99	102	-1	-1	-64	20164	501356	0xf1
03/06 11:14:46	 236	0	60	99	12	99	102	-1	-1	-64	20162	501445	0x49
03/06 11:14:46	 237	0	60	99	12	99	102	-1	-1	-64	20170	501489	0x7e
03/06 11:14:46	 238	0	60	99	12	99	102	-1	-2	-64	20163	501555	0xba
03/06 11:14:46	 239	0	60	99	12	99	102	-1	-2	-64	20155	501646	0x0e
03/06 11:14:46	 240	0	60	99	12	99	102	-1	-2	-64	20156	501768	0x8b
03/06 11:14:46	 241	0	60	99	12	99	102	-1	-2	-64	20148	501845	0xd1
03/06 11:14:47	 242	0	60	99	12	99	102	-1	-2	-64	20150	501889	0x00
03/06 11:14:47	 243	0	60	99	12	99	102	-1	-2	-64	20153	502005	0x78
03/06 11:14:47	 244	0	60	99	12	99	102	-1	-2	-64	20153	502111	0xe4
03/06 11:14:47	 245	0	60	99	12	99	102	-1	-2	-64	20147	502181	0x25
03/06 11:14:47	 246	0	60	99	12	99	102	-1	-2	-64	20152	502301	0xa4
03/06 11:14:47	 247	0	60	99	12	99	102	-1	-2	-64	20148	502421	0x19
03/06 11:14:47	 248	0	60	99	12	99	102	-1	-2	-64	20149	502495	0x65
03/06 11:14:47	 249	0	60	99	12	99	102	-1	-2	-64	20150	502619	0xe4
03/06 11:14:47	 250	0	60	99	12	99	102	-1	-2	-64	20151	502698	0x35
03/06 11:14:47	 251	0	60	99	12	99	102	-1	-2	-64	20132	502753	0x5a
03/06 11:14:47	 252	0	60	99	12	99	102	-1	-2	-64	20148	502866	0xdd
03/06 11:14:47	 253	0	60	99	12	99	102	-1	-2	-64	20132	502946	0x1e
03/06 11:14:47	 254	0	60	99	12	99	102	-1	-2	-64	20125	503047	0x7e
03/06 11:14:47	 255	0	60	99	12	99	102	-1	-2	-64	20133	503177	0x09
03/06 11:14:47	 0	0	60	99	12	99	102	-1	-2	-64	20132	503268	0x64
03/06 11:14:47	 1	0	60	99	12	99	102	-1	-2	-64	20118	503375	0xc3
03/06 11:14:47	 2	0	60	99	12	99	102	0	-2	-64	20120	503479	0x2f
03/06 11:14:47	 3	0	60	99	12	99	102	0	-2	-64	20118	503555	0x7b
03/06 11:14:47	 4	0	60	99	12	99	102	0	-2	-64	20099	503668	0xda
03/06 11:14:47	 5	0	60	99	12	99	102	0	-2	-64	20111	503747	0x36
03/06 11:14:47	 6	0	60	99	12	99	102	0	-2	-64	20108	503840	0x92
03/06 11:14:47	 7	0	60	99	12	99	102	0	-2	-64	20107	503964	0x0e
03/06 11:14:47	 8	0	60	99	12	99	102	0	-2	-64	20116	504025	0x55
03/06 11:14:47	 9	0	60	99	12	99	102	0	-2	-64	20100	504104	0x96
03/06 11:14:47	 10	0	60	99	12	99	102	0	-2	-64	20100	504155	0xca
03/06 11:14:47	 11	0	60	99	12	99	102	0	-2	-64	20115	504144	0xcf
03/06 11:14:47	 12	0	60	99	12	99	102	-1	-2	-64	20113	503996	0x38
03/06 11:14:47	 13	0	60	99	12	99	102	-1	-2	-64	20113	503711	0x1b
03/06 11:14:47	 14	0	60	99	12	99	102	-1	-2	-64	20121	503294	0x81
03/06 11:14:47	 15	0	60	99	12	99	102	-1	-2	-64	20117	502639	0xed
03/06 11:14:47	 16	0	60	99	12	99	102	-1	-2	-64	20120	501845	0xd4
03/06 11:14:47	 17	0	60	99	12	99	102	-1	-2	-64	20125	501075	0xd5
03/06 11:14:47	 18	0	60	99	12	99	102	-1	-2	-64	20116	500336	0xe7
03/06 11:14:47	 19	0	60	99	12	99	102	-1	-2	-64	20116	499677	0x52
03/06 11:14:47	 20	0	60	99	12	99	102	-1	-2	-64	20118	499141	0x3b
03/06 11:14:47	 21	0	60	99	12	99	102	-1	-2	-64	20112	498763	0xbb
03/06 11:14:47	 22	0	60	99	12	99	102	0	-2	-64	20100	498502	0xab
03/06 11:14:47	 23	0	60	99	12	99	102	0	-2	-64	20103	498355	0x1b
03/06 11:14:47	 24	0	60	99	12	99	102	0	-2	-64	20099	498333	0x02
03/06 11:14:47	 25	0	60	99	12	99	102	0	-2	-64	20102	498325	0xfe
03/06 11:14:47	 26	0	60	99	12	99	102	0	-2	-64	20098	498427	0x61
03/06 11:14:47	 27	0	60	99	12	99	102	0	-2	-64	20093	498516	0xb7
03/06 11:14:47	 28	0	60	99	12	99	102	0	-2	-64	20093	498568	0xec
03/06 11:14:47	 29	0	60	99	12	99	102	0	-2	-64	20093	498631	0x2c
03/06 11:14:47	 30	0	60	99	12	99	102	0	-2	-64	20086	498670	0x4d
03/06 11:14:47	 31	0	60	99	12	99	102	0	-2	-64	20091	498669	0x52
03/06 11:14:47	 32	0	60	99	12	99	102	-1	-2	-64	20081	498636	0x27
03/06 11:14:47	 33	0	60	99	12	99	102	-1	-2	-64	20084	498606	0x0d
03/06 11:14:47	 34	0	60	99	12	99	102	-1	-2	-64	20086	498552	0xda
03/06 11:14:47	 35	0	60	99	12	99	102	-1	-2	-64	20080	498526	0xbb
03/06 11:14:47	 36	0	60	99	12	99	102	-1	-2	-64	20073	498502	0x9d
03/06 11:14:47	 37	0	60	99	12	99	102	-1	-2	-64	20081	498500	0xa4
03/06 11:14:47	 38	8	60	99	12	100	100	-1	-2	-64	20071	498574	0xec
03/06 11:14:47	 39	0	60	99	12	100	100	-1	-2	-64	20080	498608	0x10
03/06 11:14:47	 40	0	60	99	12	100	100	-1	-2	-64	20079	498682	0x5a
03/06 11:14:47	 41	0	60	99	12	100	100	-1	-2	-64	20078	498794	0xcb
03/06 11:14:47	 42	0	60	99	12	100	100	-1	-2	-64	20077	498864	0x11
03/06 11:14:47	 43	0	60	99	12	100	100	-1	-2	-64	20069	498922	0x44
03/06 11:14:47	 44	0	60	99	12	100	100	-1	-2	-64	20067	498964	0x6e
03/06 11:14:47	 45	0	60	99	12	100	100	-1	-2	-64	20069	498998	0x93
03/06 11:14:47	 46	0	60	99	12	100	100	-1	-2	-64	20071	498990	0x8e
03/06 11:14:47	 47	0	60	99	12	100	100	-1	-2	-64	20066	498988	0x88
03/06 11:14:47	 48	0	60	99	12	100	100	-1	-2	-64	20067	498963	0x71
03/06 11:14:47	 49	0	60	99	12	100	100	-1	-2	-64	20067	498929	0x4f
03/06 11:14:47	 50	0	60	99	12	100	100	-1	-2	-64	20068	498912	0x40
03/06 11:14:47	 51	0	60	99	12	100	100	-1	-2	-64	20066	498880	0x1f
03/06 11:14:47	 52	0	60	99	12	100	100	-1	-1	-64	20065	498870	0x16
03/06 11:14:47	 53	0	60	99	12	100	100	-1	-1	-64	20061	498908	0x39
03/06 11:14:47	 54	0	60	99	12	100	100	-1	-1	-64	20061	498923	0x49
03/06 11:14:47	 55	0	60	99	12	100	100	-1	-1	-64	20064	498990	0x91
03/06 11:14:47	 56	0	60	99	12	100	100	-1	-1	-64	20060	499107	0x03
03/06 11:14:47	 57	0	60	99	12	100	100	-1	-1	-64	20058	499167	0x3e
03/06 11:14:47	 58	0	60	99	12	100	100	-1	-1	-64	20072	499242	0x99
03/06 11:14:47	 59	0	60	99	12	100	100	-1	-1	-64	20063	499366	0x0d
03/06 11:14:47	 60	0	60	99	12	100	100	-1	-1	-64	20062	499458	0x6a
03/06 11:14:47	 61	0	60	99	12	100	100	-1	-1	-64	20064	499550	0xc9
03/06 11:14:47	 62	0	60	99	12	100	100	-1	-2	-64	20063	499650	0x2c
03/06 11:14:47	 63	0	60	99	12	100	100	-1	-2	-64	20062	499768	0xa3
03/06 11:14:47	 64	0	60	99	12	100	100	-1	-2	-64	20058	499886	0x16
03/06 11:14:47	 65	0	60	99	12	100	100	-1	-2	-64	20054	499974	0x6c
03/06 11:14:47	 66	0	60	99	12	100	100	-1	-2	-64	20048	500108	0xed
03/06 11:14:47	 67	0	60	99	12	100	100	-1	-2	-64	20064	500207	0x61
03/06 11:14:47	 68	0	60	99	12	100	100	-1	-2	-64	20061	500325	0xd6
03/06 11:14:47	 69	0	60	99	12	100	100	-1	-2	-64	20052	500440	0x41
03/06 11:14:47	 70	0	60	99	12	100	100	-1	-2	-64	20054	500542	0xab
03/06 11:14:47	 71	0	60	99	12	100	100	-1	-2	-64	20055	500657	0x20
03/06 11:14:47	 72	0	60	99	12	100	100	-1	-2	-64	20051	500742	0x73
03/06 11:14:47	 73	0	60	99	12	100	100	-1	-2	-64	20060	500841	0xe0
03/06 11:14:47	 74	0	60	99	12	100	100	-1	-2	-64	20056	500917	0x29
03/06 11:14:47	 75	0	60	99	12	100	100	-1	-2	-64	20053	501003	0x7e
03/06 11:14:47	 76	0	60	99	12	100	100	-1	-2	-64	20063	501092	0xe2
03/06 11:14:47	 77	0	60	99	12	100	100	-1	-2	-64	20057	501153	0x1a
03/06 11:14:47	 78	0	60	99	12	100	100	-1	-2	-64	20044	501234	0x5f
03/06 11:14:47	 79	0	60	99	12	100	100	-1	-2	-64	20058	501308	0xb9
03/06 11:14:47	 80	0	60	99	12	100	100	-1	-2	-64	20055	501381	0x00
03/06 11:14:47	 81	0	60	99	12	100	100	-1	-2	-64	20051	501456	0x48
03/06 11:14:47	 82	0	60	99	12	100	100	-1	-2	-64	20055	501523	0x91
03/06 11:14:47	 83	0	60	99	12	100	100	-1	-2	-64	20052	501617	0xed
03/06 11:14:47	 84	0	60	99	12	100	100	-1	-2	-64	20045	501701	0x3b
03/06 11:14:47	 85	0	60	99	12	100	100	-1	-2	-64	20052	501795	0xa2
03/06 11:14:48	 86	0	60	99	12	100	100	-1	-2	-64	20047	501893	0x00
03/06 11:14:48	 87	0	60	99	12	100	100	-1	-2	-64	20037	501965	0x3f
03/06 11:14:48	 88	0	60	99	12	100	100	-1	-2	-64	20044	502084	0xbf
03/06 11:14:48	 89	0	60	99	12	100	100	-1	-2	-64	20044	502141	0xf9
03/06 11:14:48	 90	0	60	99	12	100	100	-1	-2	-64	20041	502217	0x43
03/06 11:14:48	 91	0	60	99	12	100	100	-1	-2	-64	20046	502339	0xc4
03/06 11:14:48	 92	0	60	99	12	100	100	-1	-1	-64	20034	502446	0x25
03/06 11:14:48	 93	0	60	99	12	100	100	-1	-1	-64	20041	502554	0x9a
03/06 11:14:48	 94	0	60	99	12	100	100	-1	-1	-64	20042	502653	0xff
03/06 11:14:48	 95	0	60	99	12	100	100	-1	-1	-64	20042	502772	0x77
03/06 11:14:48	 96	0	60	99	12	100	100	-1	-1	-64	20038	502877	0xde
03/06 11:14:48	 97	0	60	99	12	100	100	-1	-1	-64	20042	502996	0x5a
03/06 11:14:48	 98	0	60	99	12	100	100	-1	-1	-64	20036	503092	0xb6
03/06 11:14:48	 99	0	60	99	12	100	100	-1	-1	-64	20038	503190	0x1b
03/06 11:14:48	 100	0	60	99	12	100	100	-1	-1	-64	20036	503277	0x71
03/06 11:14:48	 101	0	60	99	12	100	100	-1	-1	-64	20031	503382	0xd7
03/06 11:14:48	 102	0	60	99	12	100	100	0	-2	-65	20030	503505	0x51
03/06 11:14:48	 103	0	60	99	12	100	100	0	-2	-65	20035	503593	0xb0
03/06 11:14:48	 104	0	60	99	12	100	100	0	-2	-65	20030	503709	0x20
03/06 11:14:48	 105	0	60	99	12	100	100	0	-2	-65	20030	503806	0x82
03/06 11:14:48	 106	0	60	99	12	100	100	0	-2	-65	20020	503891	0xcf
03/06 11:14:48	 107	0	60	99	12	100	100	0	-2	-65	20024	504023	0x58
03/06 11:14:48	 108	0	60	99	12	100	100	0	-2	-65	20020	504094	0x9d
03/06 11:14:48	 109	0	60	99	12	100	100	0	-2	-65	20008	504168	0xdc
03/06 11:14:48	 110	0	60	99	12	100	100	0	-2	-65	20008	504292	0x59
03/06 11:14:48	 111	0	60	99	12	100	100	0	-2	-65	20006	504404	0xc9
03/06 11:14:48	 112	0	60	99	12	100	100	-1	-2	-64	19996	504490	0x16
03/06 11:14:48	 113	0	60	99	12	100	100	-1	-2	-64	19994	504586	0x76
03/06 11:14:48	 114	0	60	99	12	100	100	-1	-2	-64	19993	504670	0xca
03/06 11:14:48	 115	0	60	99	12	100	100	-1	-2	-64	19980	504731	0xfb
03/06 11:14:48	 116	0	60	99	12	100	100	-1	-2	-64	19984	504763	0x20
03/06 11:14:48	 117	0	60	99	12	100	100	-1	-2	-64	19982	504676	0xc8
03/06 11:14:48	 118	0	60	99	12	100	100	-1	-2	-64	19975	504483	0x00
03/06 11:14:48	 119	0	60	99	12	100	100	-1	-2	-64	19970	504112	0x88
03/06 11:14:48	 120	0	60	99	12	100	100	-1	-2	-64	19970	503579	0x72
03/06 11:14:48	 121	0	60	99	12	100	100	-1	-2	-64	19959	502882	0xab
03/06 11:14:48	 122	0	60	99	12	100	100	-1	-2	-64	19954	502074	0x7c
03/06 11:14:48	 123	0	60	99	12	100	100	-1	-2	-64	19949	501337	0x94
03/06 11:14:48	 124	0	60	99	12	100	100	-1	-2	-64	19943	500642	0xd5
03/06 11:14:48	 125	0	60	99	12	100	100	-1	-2	-64	19931	500002	0x48
03/06 11:14:48	 126	0	60	99	12	100	100	-1	-2	-64	19925	499577	0x98
03/06 11:14:48	 127	0	60	99	12	100	100	-1	-2	-64	19917	499284	0x6b
03/06 11:14:48	 128	0	60	99	12	100	100	-1	-2	-64	19902	499077	0x8d
03/06 11:14:48	 129	0	60	99	12	100	100	-1	-2	-64	19904	499022	0x59
03/06 11:14:48	 130	0	60	99	12	100	100	-1	-2	-64	19893	499059	0x74
03/06 11:14:48	 131	0	60	99	12	100	100	-1	-2	-64	19883	499103	0x97
03/06 11:14:48	 132	0	60	99	12	100	100	-1	-2	-64	19883	499201	0xfb
03/06 11:14:48	 133	0	60	99	12	100	100	-1	-2	-64	19874	499311	0x61
03/06 11:14:48	 134	0	60	99	12	100	100	-1	-2	-64	19871	499364	0x94
03/06 11:14:48	 135	0	60	99	12	100	100	-1	-2	-64	19873	499429	0xd8
03/06 11:14:48	 136	0	60	99	12	100	100	-1	-2	-64	19865	499484	0x09
03/06 11:14:48	 137	0	60	99	12	100	100	-1	-2	-64	19855	499501	0x11
03/06 11:14:48	 138	0	60	99	12	100	100	-1	-2	-64	19854	499523	0x27
03/06 11:14:48	 139	0	60	99	12	100	100	-1	-2	-64	19852	499536	0x33
03/06 11:14:48	 140	0	60	99	12	100	100	-1	-2	-64	19847	499525	0x24
03/06 11:14:48	 141	0	60	99	12	100	100	-1	-2	-64	19846	499539	0x32
03/06 11:14:48	 142	0	60	99	12	100	100	-1	-1	-64	19844	499570	0x51
03/06 11:14:48	 143	0	60	99	12	100	100	-1	-1	-64	19838	499620	0x7e
03/06 11:14:48	 144	8	60	99	12	100	106	-1	-1	-64	19849	499672	0xcc
03/06 11:14:48	 145	0	60	99	12	100	106	-1	-1	-64	19846	499738	0x05
03/06 11:14:48	 146	0	60	99	12	100	106	-1	-1	-64	19839	499826	0x57
03/06 11:14:48	 147	0	60	99	12	100	106	-1	-1	-64	19851	499882	0x9c
03/06 11:14:48	 148	0	60	99	12	100	106	-1	-1	-64	19845	499944	0xd5
03/06 11:14:48	 149	0	60	99	12	100	106	-1	-1	-64	19839	499994	0x03
03/06 11:14:48	 150	0	60	99	12	100	106	-1	-1	-64	19846	500040	0x39
03/06 11:14:48	 151	0	60	99	12	100	106	-1	-1	-64	19845	500080	0x61
03/06 11:14:48	 152	0	60	99	12	100	106	-1	-2	-64	19835	500093	0x64
03/06 11:14:48	 153	0	60	99	12	100	106	-1	-2	-64	19840	500099	0x70
03/06 11:14:48	 154	0	60	99	12	100	106	-1	-2	-64	19836	500089	0x63
03/06 11:14:48	 155	0	60	99	12	100	106	-1	-2	-64	19833	500066	0x4a
03/06 11:14:48	 156	0	60	99	12	100	106	-1	-2	-64	19838	500046	0x3c
03/06 11:14:48	 157	0	60	99	12	100	106	-1	-2	-64	19837	500025	0x27
03/06 11:14:48	 158	0	60	99	12	100	106	-1	-2	-64	19835	500012	0x19
03/06 11:14:48	 159	0	60	99	12	100	106	-1	-2	-64	19837	500038	0x36
03/06 11:14:48	 160	0	60	99	12	100	106	-1	-2	-64	19840	500102	0x7a
03/06 11:14:48	 161	0	60	99	12	100	106	-1	-2	-64	19834	500159	0xae
03/06 11:14:48	 162	0	60	99	12	100	106	-1	-2	-64	19845	500271	0x2b
03/06 11:14:48	 163	0	60	99	12	100	106	-1	-2	-64	19840	500386	0x9a
03/06 11:14:48	 164	0	60	99	12	100	106	-1	-2	-64	19848	500511	0x21
03/06 11:14:48	 165	0	60	99	12	100	106	-1	-2	-64	19854	500636	0xa5
03/06 11:14:48	 166	0	60	99	12	100	106	-1	-2	-64	19846	500754	0x15
03/06 11:14:48	 167	0	60	99	12	100	106	-1	-2	-64	19848	500865	0x87
03/06 11:14:48	 168	0	60	99	12	100	106	-1	-2	-64	19855	501000	0x17
03/06 11:14:48	 169	0	60	99	12	100	106	-1	-2	-64	19850	501107	0x7e
03/06 11:14:48	 170	0	60	99	12	100	106	-1	-2	-64	19850	501231	0xfb
03/06 11:14:48	 171	0	60	99	12	100	106	-1	-2	-64	19848	501385	0x95
03/06 11:14:48	 172	0	60	99	12	100	106	-1	-2	-64	19853	501518	0x21
03/06 11:14:48	 173	0	60	99	12	100	106	-1	-2	-64	19850	501635	0x94
03/06 11:14:48	 174	0	60	99	12	100	106	-1	-2	-64	19859	501748	0x0f
03/06 11:14:48	 175	0	60	99	12	100	106	-1	-2	-64	19853	501850	0x71
03/06 11:14:48	 176	0	60	99	12	100	106	-1	-2	-64	19851	501958	0xdc
03/06 11:14:48	 177	0	60	99	12	100	106	-1	-2	-64	19854	502035	0x2e
03/06 11:14:48	 178	0	60	99	12	100	106	-1	-2	-64	19860	502109	0x7f
03/06 11:14:48	 179	0	60	99	12	100	106	-1	-2	-64	19856	502196	0xd3
03/06 11:14:48	 180	0	60	99	12	100	106	-1	-2	-64	19857	502257	0x12
03/06 11:14:48	 181	0	60	99	12	100	106	-1	-2	-64	19852	502313	0x47
03/06 11:14:48	 182	0	60	99	12	100	106	-1	-2	-64	19860	502393	0xa0
03/06 11:14:48	 183	0	60	99	12	100	106	-1	-2	-64	19866	502452	0xe2
03/06 11:14:48	 184	0	60	99	12	100	106	-1	-2	-64	19865	502519	0x25
03/06 11:14:49	 185	0	60	99	12	100	106	-1	-2	-64	19868	502607	0x82
03/06 11:14:49	 186	0	60	99	12	100	106	-1	-2	-64	19873	502715	0xf4
03/06 11:14:49	 187	0	60	99	12	100	106	-1	-2	-64	19879	502792	0x49
03/06 11:14:49	 188	0	60	99	12	100	106	-1	-2	-64	19882	502825	0x6e
03/06 11:14:49	 189	0	60	99	12	100	106	-1	-2	-64	19885	502908	0xc5
03/06 11:14:49	 190	0	60	99	12	100	106	-1	-2	-64	19889	502997	0x23
03/06 11:14:49	 191	0	60	99	12	100	106	-1	-2	-64	19902	503097	0x96
03/06 11:14:49	 192	0	60	99	12	100	106	-1	-2	-65	19905	503192	0xf8
03/06 11:14:49	 193	0	60	99	12	100	106	-1	-2	-65	19910	503293	0x63
03/06 11:14:49	 194	0	60	99	12	100	106	-1	-2	-65	19925	503386	0xd1
03/06 11:14:49	 195	0	60	99	12	100	106	-1	-2	-65	19926	503478	0x2f
03/06 11:14:49	 196	0	60	99	12	100	106	-1	-2	-65	19939	503586	0xaa
03/06 11:14:49	 197	0	60	99	12	100	106	-1	-2	-65	19948	503672	0x0a
03/06 11:14:49	 198	0	60	99	12	100	106	-1	-2	-65	19956	503777	0x7c
03/06 11:14:49	 199	0	60	99	12	100	106	-1	-2	-65	19969	503855	0xda
03/06 11:14:49	 200	0	60	99	12	100	106	-1	-2	-65	19978	503955	0x48
03/06 11:14:49	 201	0	60	99	12	100	106	-1	-2	-65	19981	504084	0xce
03/06 11:14:49	 202	0	60	99	12	100	106	0	-2	-64	19991	504172	0x33
03/06 11:14:49	 203	0	60	99	12	100	106	0	-2	-64	20005	504283	0xb1
03/06 11:14:49	 204	0	60	99	12	100	106	0	-2	-64	20006	504390	0x1f
03/06 11:14:49	 205	0	60	99	12	100	106	0	-2	-64	20013	504488	0x89
03/06 11:14:49	 206	0	60	99	12	100	106	0	-2	-64	20022	504590	0xfa
03/06 11:14:49	 207	0	60	99	12	100	106	0	-2	-64	20022	504656	0x3d
03/06 11:14:49	 208	0	60	99	12	100	106	0	-2	-64	20027	504786	0xc5
03/06 11:14:49	 209	0	60	99	12	100	106	0	-2	-64	20038	504855	0x17
03/06 11:14:49	 210	0	60	99	12	100	106	0	-2	-64	20037	504939	0x6b
03/06 11:14:49	 211	0	60	99	12	100	106	0	-2	-64	20042	505077	0xfb
03/06 11:14:49	 212	0	60	99	12	100	106	0	-1	-64	20054	505165	0x62
03/06 11:14:49	 213	0	60	99	12	100	106	0	-1	-64	20054	505220	0x9a
03/06 11:14:49	 214	0	60	99	12	100	106	0	-1	-64	20056	505344	0x1a
03/06 11:14:49	 215	0	60	99	12	100	106	0	-1	-64	20067	505470	0xa4
03/06 11:14:49	 216	0	60	99	12	100	106	0	-1	-64	20071	505601	0x2d
03/06 11:14:49	 217	0	60	99	12	100	106	0	-1	-64	20069	505689	0x84
03/06 11:14:49	 218	0	60	99	12	100	106	0	-1	-64	20085	505718	0xb2
03/06 11:14:49	 219	0	60	99	12	100	106	0	-1	-64	20080	505698	0x9a
03/06 11:14:49	 220	0	60	99	12	100	106	0	-1	-64	20082	505480	0xc2
03/06 11:14:49	 221	0	60	99	12	100	106	0	-1	-64	20095	505135	0x76
03/06 11:14:49	 222	0	60	99	12	100	106	-1	-2	-64	20088	504606	0x5b
03/06 11:14:49	 223	0	60	99	12	100	106	-1	-2	-64	20092	503916	0xab
03/06 11:14:49	 224	0	60	99	12	100	106	-1	-2	-64	20106	503214	0xf9
03/06 11:14:49	 225	0	60	99	12	100	106	-1	-2	-64	20112	502493	0x2c
03/06 11:14:49	 226	0	60	99	12	100	106	-1	-2	-64	20111	501891	0xd0
03/06 11:14:49	 227	0	60	99	12	100	106	-1	-2	-64	20121	501403	0xf1
03/06 11:14:49	 228	0	60	99	12	100	106	-1	-2	-64	20127	500999	0x63
03/06 11:14:49	 229	0	60	99	12	100	106	-1	-2	-64	20124	500760	0x71
03/06 11:14:49	 230	0	60	99	12	100	106	-1	-2	-64	20134	500627	0xf6
03/06 11:14:49	 231	0	60	99	12	100	106	-1	-2	-64	20135	500589	0xd2
03/06 11:14:49	 232	0	60	99	12	100	106	-1	-2	-64	20137	500649	0x11
03/06 11:14:49	 233	0	60	99	12	100	106	-1	-2	-64	20155	500747	0x87
03/06 11:14:49	 234	0	60	99	12	100	106	-1	-2	-64	20159	500803	0xc4
03/06 11:14:49	 235	0	60	99	12	100	106	-1	-2	-64	20160	500896	0x23
03/06 11:14:49	 236	0	60	99	12	100	106	-1	-2	-64	20172	501015	0xa8
03/06 11:14:49	 237	0	60	99	12	100	106	-1	-2	-64	20180	501063	0xe1
03/06 11:14:49	 238	0	60	99	12	100	106	-1	-2	-64	20185	501150	0x3e
03/06 11:14:49	 239	0	60	99	12	100	106	-1	-2	-64	20197	501248	0xae
03/06 11:14:49	 240	0	60	99	12	100	106	-1	-2	-64	20208	501264	0xca
03/06 11:14:49	 241	0	60	99	12	100	106	-1	-2	-64	20210	501288	0xe5
03/06 11:14:49	 242	0	60	99	12	100	106	-1	-2	-64	20214	501343	0x21
03/06 11:14:49	 243	0	60	99	12	100	106	-1	-2	-64	20222	501373	0x48
03/06 11:14:49	 244	0	60	99	12	100	106	-1	-2	-64	20216	501435	0x81
03/06 11:14:49	 245	8	59	99	12	100	101	-1	-2	-64	20218	501519	0xdb
03/06 11:14:49	 246	0	59	99	12	100	101	-1	-2	-64	20217	501597	0x21
03/06 11:14:49	 247	0	59	99	12	100	101	-1	-2	-64	20214	501672	0x6a
03/06 11:14:49	 248	0	59	99	12	100	101	-1	-2	-64	20217	501735	0xad
03/06 11:14:49	 249	0	59	99	12	100	101	-1	-2	-64	20215	501767	0xcd
03/06 11:14:49	 250	0	59	99	12	100	101	-1	-2	-64	20201	501806	0xe7
03/06 11:14:49	 251	0	59	99	12	100	101	-1	-2	-64	20205	501836	0x0a
03/06 11:14:49	 252	0	59	99	12	100	101	-1	-2	-64	20203	501826	0xff
03/06 11:14:49	 253	0	59	99	12	100	101	-1	-2	-64	20202	501801	0xe6
03/06 11:14:49	 254	0	59	99	12	100	101	-1	-2	-64	20196	501759	0xb6
03/06 11:14:49	 255	0	59	99	12	100	101	-1	-2	-64	20197	501677	0x66
03/06 11:14:49	 0	0	59	99	12	100	101	-1	-2	-64	20206	501621	0x38
03/06 11:14:49	 1	0	59	99	12	100	101	-1	-2	-64	20197	501573	0x00
03/06 11:14:49	 2	0	59	99	12	100	101	-1	-2	-64	20195	501537	0xdb
03/06 11:14:49	 3	0	59	99	12	100	101	-1	-2	-64	20191	501534	0xd5
03/06 11:14:49	 4	0	59	99	12	100	101	-1	-2	-64	20190	501600	0x17
03/06 11:14:49	 5	0	59	99	12	100	101	-1	-2	-64	20187	501677	0x62
03/06 11:14:49	 6	0	59	99	12	100	101	-1	-1	-63	20196	501713	0x92
03/06 11:14:49	 7	0	59	99	12	100	101	-1	-1	-63	20192	501792	0xdf
03/06 11:14:49	 8	0	59	99	12	100	101	-1	-1	-63	20193	501913	0x5a
03/06 11:14:49	 9	0	59	99	12	100	101	-1	-1	-63	20195	501991	0xab
03/06 11:14:49	 10	0	59	99	12	100	101	-1	-1	-63	20186	502096	0x0d
03/06 11:14:49	 11	0	59	99	12	100	101	-1	-1	-63	20185	502224	0x8d
03/06 11:14:49	 12	0	59	99	12	100	101	-1	-1	-63	20190	502352	0x14
03/06 11:14:49	 13	0	59	99	12	100	101	-1	-1	-63	20184	502503	0xa6
03/06 11:14:49	 14	0	59	99	12	100	101	-1	-1	-63	20183	502609	0x11
03/06 11:14:49	 15	0	59	99	12	100	101	-1	-1	-63	20182	502756	0xa4
03/06 11:14:49	 16	0	59	99	12	100	101	-1	-2	-64	20178	502854	0x02
03/06 11:14:49	 17	0	59	99	12	100	101	-1	-2	-64	20174	502947	0x5c
03/06 11:14:49	 18	0	59	99	12	100	101	-1	-2	-64	20181	503095	0xf9
03/06 11:14:49	 19	0	59	99	12	100	101	-1	-2	-64	20171	503174	0x3f
03/06 11:14:49	 20	0	59	99	12	100	101	-1	-2	-64	20175	503236	0x82
03/06 11:14:49	 21	0	59	99	12	100	101	-1	-2	-64	20175	503343	0xef
03/06 11:14:49	 22	0	59	99	12	100	101	-1	-2	-64	20165	503424	0x37
03/06 11:14:49	 23	0	59	99	12	100	101	-1	-2	-64	20166	503465	0x62
03/06 11:14:49	 24	0	59	99	12	100	101	-1	-2	-64	20172	503531	0xab
03/06 11:14:49	 25	0	59	99	12	100	101	-1	-2	-64	20161	503605	0xec
03/06 11:14:49	 26	0	59	99	12	100	101	-1	-1	-64	20162	503679	0x39
03/06 11:14:49	 27	0	59	99	12	100	101	-1	-1	-64	20158	503739	0x72
03/06 11:14:49	 28	0	59	99	12	100	101	-1	-1	-64	20154	503821	0xc2
03/06 11:14:49	 29	0	59	99	12	100	101	-1	-1	-64	20154	503904	0x16
03/06 11:14:50	 30	0	59	99	12	100	101	-1	-1	-64	20149	503965	0x4f
03/06 11:14:50	 31	0	59	99	12	100	101	-1	-1	-64	20147	504042	0x9b
03/06 11:14:50	 32	0	59	99	12	100	101	-1	-1	-64	20143	504161	0x10
03/06 11:14:50	 33	0	59	99	12	100	101	-1	-1	-64	20146	504263	0x7a
03/06 11:14:50	 34	0	59	99	12	100	101	-1	-1	-64	20138	504329	0xb6
03/06 11:14:50	 35	0	59	99	12	100	101	-1	-1	-64	20131	504421	0x0c
03/06 11:14:50	 36	0	59	99	12	100	101	-1	-2	-64	20139	504509	0x6c
03/06 11:14:50	 37	0	59	99	12	100	101	-1	-2	-64	20135	504585	0xb6
03/06 11:14:50	 38	0	59	99	12	100	101	-1	-2	-64	20125	504680	0x0c
03/06 11:14:50	 39	0	59	99	12	100	101	-1	-2	-64	20130	504781	0x77
03/06 11:14:50	 40	0	59	99	12	100	101	-1	-2	-64	20121	504878	0xd1
03/06 11:14:50	 41	0	59	99	12	100	101	-1	-2	-64	20113	504984	0x34
03/06 11:14:50	 42	0	59	99	12	100	101	-1	-2	-64	20122	505099	0xb2
03/06 11:14:50	 43	0	59	99	12	100	101	-1	-2	-64	20116	505242	0x3c
03/06 11:14:50	 44	0	59	99	12	100	101	-1	-2	-64	20115	505352	0xab
03/06 11:14:50	 45	0	59	99	12	100	101	-1	-2	-64	20123	505450	0x16
03/06 11:14:50	 46	0	59	99	12	100	101	-1	-2	-64	20116	505594	0xa0
03/06 11:14:50	 47	0	59	99	12	100	101	-1	-2	-64	20115	505697	0x08
03/06 11:14:50	 48	0	59	99	12	100	101	-1	-2	-64	20115	505842	0x9a
03/06 11:14:50	 49	0	59	99	12	100	101	-1	-2	-64	20111	505973	0x1b
03/06 11:14:50	 50	0	59	99	12	100	101	-1	-2	-64	20103	506092	0x8b
03/06 11:14:50	 51	0	59	99	12	100	101	-1	-2	-64	20107	506241	0x26
03/06 11:14:50	 52	0	59	99	12	100	101	-1	-2	-64	20104	506328	0x7b
03/06 11:14:50	 53	0	59	99	12	100	101	-1	-2	-64	20097	506427	0xd9
03/06 11:14:50	 54	0	59	99	12	100	101	-1	-2	-64	20101	506574	0x71
03/06 11:14:50	 55	0	59	99	12	100	101	-1	-2	-64	20091	506683	0xd6
03/06 11:14:50	 56	0	59	99	12	100	101	-1	-2	-64	20088	506824	0x61
03/06 11:14:50	 57	0	59	99	12	100	101	-1	-2	-64	20090	506965	0xf2
03/06 11:14:50	 58	0	59	99	12	100	101	-1	-2	-64	20087	507078	0x61
03/06 11:14:50	 59	0	59	99	12	100	101	-1	-2	-64	20090	507237	0x05
03/06 11:14:50	 60	0	59	99	12	100	101	-1	-2	-64	20092	507336	0x6b
03/06 11:14:50	 61	0	59	99	12	100	101	-1	-2	-64	20095	507392	0xa8
03/06 11:14:50	 62	0	59	99	12	100	101	-1	-2	-64	20091	507410	0xb7
03/06 11:14:50	 63	0	59	99	12	100	101	-1	-2	-64	20088	507301	0x47
03/06 11:14:50	 64	0	59	99	12	100	101	-1	-2	-64	20090	507024	0x34
03/06 11:14:50	 65	0	59	99	12	100	101	-1	-2	-64	20089	506589	0x7f
03/06 11:14:50	 66	0	59	99	12	100	101	-1	-2	-64	20092	505972	0x18
03/06 11:14:50	 67	0	59	99	12	100	101	-1	-2	-64	20086	505200	0x0c
03/06 11:14:50	 68	0	59	99	12	100	101	-1	-2	-64	20087	504439	0x12
03/06 11:14:50	 69	0	59	99	12	100	101	-1	-2	-64	20092	503693	0x2b
03/06 11:14:50	 70	0	59	99	12	100	101	-1	-2	-64	20087	503031	0x8e
03/06 11:14:50	 71	0	59	99	12	100	101	-1	-2	-64	20085	502494	0x72
03/06 11:14:50	 72	0	59	99	12	100	101	-1	-2	-64	20078	502102	0xe3
03/06 11:14:50	 73	0	59	99	12	100	101	-1	-2	-64	20072	501825	0xc8
03/06 11:14:50	 74	0	59	99	12	100	101	-1	-2	-64	20080	501669	0x34
03/06 11:14:50	 75	0	59	99	12	100	101	-1	-2	-64	20077	501674	0x37
03/06 11:14:50	 76	0	59	99	12	100	101	-1	-2	-64	20071	501734	0x6e
03/06 11:14:50	 77	0	59	99	12	100	101	-1	-2	-64	20073	501835	0xd7
03/06 11:14:50	 78	0	59	99	12	100	101	-1	-2	-64	20068	501939	0x3b
03/06 11:14:50	 79	0	59	99	12	100	101	-1	-2	-64	20067	502083	0xcc
03/06 11:14:50	 80	0	59	99	12	100	101	-1	-2	-64	20065	502195	0x3b
03/06 11:14:50	 81	0	59	99	12	100	101	-1	-2	-64	20063	502273	0x89
03/06 11:14:50	 82	0	59	99	12	100	101	-1	-2	-64	20060	502343	0xcd
03/06 11:14:50	 83	0	59	99	12	100	101	-1	-2	-64	20065	502383	0xfb
03/06 11:14:50	 84	0	59	99	12	100	101	-1	-2	-64	20057	502407	0x0c
03/06 11:14:50	 85	0	59	99	12	100	101	-1	-2	-64	20060	502385	0xfa
03/06 11:14:50	 86	0	59	99	12	100	101	-1	-2	-64	20064	502362	0xe8
03/06 11:14:50	 87	0	59	99	12	100	101	-1	-2	-64	20058	502344	0xd1
03/06 11:14:50	 88	0	59	99	12	100	101	-1	-2	-64	20055	502324	0xbb
03/06 11:14:50	 89	8	59	99	12	100	100	-1	-2	-64	20056	502356	0xe4
03/06 11:14:50	 90	0	59	99	12	100	100	-1	-2	-64	20052	502418	0x17
03/06 11:14:50	 91	0	59	99	12	100	100	-1	-2	-64	20047	502444	0x2d
03/06 11:14:50	 92	0	59	99	12	100	100	-1	-2	-64	20051	502520	0x7e
03/06 11:14:50	 93	0	59	99	12	100	100	-1	-2	-64	20049	502591	0xc5
03/06 11:14:50	 94	0	59	99	12	100	100	-1	-2	-64	20048	502627	0xe9
03/06 11:14:50	 95	0	59	99	12	100	100	-1	-2	-64	20055	502643	0x01
03/06 11:14:50	 96	0	59	99	12	100	100	-1	-2	-65	20045	502654	0x02
03/06 11:14:50	 97	0	59	99	12	100	100	-1	-2	-65	20047	502663	0x0e
03/06 11:14:50	 98	0	59	99	12	100	100	-1	-2	-65	20042	502624	0xe3
03/06 11:14:50	 99	0	59	99	12	100	100	-1	-2	-65	20042	502616	0xdc
03/06 11:14:50	 100	0	59	99	12	100	100	-1	-2	-65	20038	502577	0xb2
03/06 11:14:50	 101	0	59	99	12	100	100	-1	-2	-65	20040	502513	0x74
03/06 11:14:50	 102	0	59	99	12	100	100	-1	-2	-65	20043	502496	0x67
03/06 11:14:50	 103	0	59	99	12	100	100	-1	-2	-65	20038	502504	0x6b
03/06 11:14:50	 104	0	59	99	12	100	100	-1	-2	-65	20045	502474	0x55
03/06 11:14:50	 105	0	59	99	12	100	100	-1	-2	-65	20042	502484	0x5d
03/06 11:14:50	 106	0	59	99	12	100	100	0	-2	-64	20042	502525	0x89
03/06 11:14:50	 107	0	59	99	12	100	100	0	-2	-64	20051	502584	0xcf
03/06 11:14:50	 108	0	59	99	12	100	100	0	-2	-64	20049	502651	0x11
03/06 11:14:50	 109	0	59	99	12	100	100	0	-2	-64	20040	502743	0x65
03/06 11:14:50	 110	0	59	99	12	100	100	0	-2	-64	20047	502870	0xed
03/06 11:14:50	 111	0	59	99	12	100	100	0	-2	-64	20051	502941	0x39
03/06 11:14:50	 112	0	59	99	12	100	100	0	-2	-64	20047	503031	0x90
03/06 11:14:50	 113	0	59	99	12	100	100	0	-2	-64	20050	503155	0x11
03/06 11:14:50	 114	0	59	99	12	100	100	0	-2	-64	20043	503274	0x82
03/06 11:14:50	 115	0	59	99	12	100	100	0	-2	-64	20044	503354	0xd5
03/06 11:14:50	 116	0	59	99	12	100	100	-1	-1	-65	20047	503486	0x5c
03/06 11:14:50	 117	0	59	99	12	100	100	-1	-1	-65	20044	503588	0xc1
03/06 11:14:50	 118	0	59	99	12	100	100	-1	-1	-65	20037	503661	0x04
03/06 11:14:50	 119	0	59	99	12	100	100	-1	-1	-65	20046	503749	0x66
03/06 11:14:50	 120	0	59	99	12	100	100	-1	-1	-65	20045	503831	0xb9
03/06 11:14:50	 121	0	59	99	12	100	100	-1	-1	-65	20032	503886	0xe4
03/06 11:14:50	 122	0	59	99	12	100	100	-1	-1	-65	20036	503940	0x1f
03/06 11:14:50	 123	0	59	99	12	100	100	-1	-1	-65	20030	503987	0x49
03/06 11:14:50	 124	0	59	99	12	100	100	-1	-1	-65	20019	504034	0x6e
03/06 11:14:50	 125	0	59	99	12	100	100	-1	-1	-65	20027	504123	0xd1
03/06 11:14:50	 126	0	59	99	12	100	100	-1	-2	-65	20021	504161	0xf1
03/06 11:14:50	 127	0	59	99	12	100	100	-1	-2	-65	20016	504196	0x10
03/06 11:14:50	 128	0	59	99	12	100	100	-1	-2	-65	20014	504253	0x48
03/06 11:14:50	 129	0	59	99	12	100	100	-1	-2	-65	20010	504274	0x5a
03/06 11:14:51	 130	0	59	99	12	100	100	-1	-2	-65	20003	504270	0x50
03/06 11:14:51	 131	0	59	99	12	100	100	-1	-2	-65	20000	504330	0x8b
03/06 11:14:51	 132	0	59	99	12	100	100	-1	-2	-65	19990	504346	0x92
03/06 11:14:51	 133	0	59	99	12	100	100	-1	-2	-65	19986	504396	0xc1
03/06 11:14:51	 134	0	59	99	12	100	100	-1	-2	-65	19982	504449	0xf3
03/06 11:14:51	 135	0	59	99	12	100	100	-1	-2	-65	19975	504463	0xfb
03/06 11:14:51	 136	0	59	99	12	100	100	-1	-2	-65	19969	504506	0x21
03/06 11:14:51	 137	0	59	99	12	100	100	-1	-2	-65	19971	504574	0x68
03/06 11:14:51	 138	0	59	99	12	100	100	-1	-2	-65	19961	504615	0x88
03/06 11:14:51	 139	0	59	99	12	100	100	-1	-2	-65	19958	504642	0xa1
03/06 11:14:51	 140	0	59	99	12	100	100	-1	-2	-65	19955	504705	0xde
03/06 11:14:51	 141	0	59	99	12	100	100	-1	-2	-65	19953	504773	0x21
03/06 11:14:51	 142	0	59	99	12	100	100	-1	-2	-65	19944	504826	0x4e
03/06 11:14:51	 143	0	59	99	12	100	100	-1	-2	-65	19941	504880	0x83
03/06 11:14:51	 144	0	59	99	12	100	100	-1	-2	-65	19940	504938	0xbd
03/06 11:14:51	 145	0	59	99	12	100	100	-1	-2	-65	19935	504982	0xe5
03/06 11:14:51	 146	0	59	99	12	100	100	0	-1	-65	19924	505046	0x1d
03/06 11:14:51	 147	0	59	99	12	100	100	0	-1	-65	19922	505090	0x49
03/06 11:14:51	 148	0	59	99	12	100	100	0	-1	-65	19921	505147	0x82
03/06 11:14:51	 149	0	59	99	12	100	100	0	-1	-65	19920	505209	0xc0
03/06 11:14:51	 150	0	59	99	12	100	100	0	-1	-65	19914	505254	0xe8
03/06 11:14:51	 151	0	59	99	12	100	100	0	-1	-65	19915	505328	0x34
03/06 11:14:51	 152	0	59	99	12	100	100	0	-1	-65	19906	505367	0x54
03/06 11:14:51	 153	0	59	99	12	100	100	0	-1	-65	19897	505407	0x74
03/06 11:14:51	 154	0	59	99	12	100	100	0	-1	-65	19897	505438	0x94
03/06 11:14:51	 155	0	59	99	12	100	100	0	-1	-65	19891	505469	0xae
03/06 11:14:51	 156	0	59	99	12	100	100	-1	-2	-64	19885	505489	0xbc
03/06 11:14:51	 157	0	59	99	12	100	100	-1	-2	-64	19884	505532	0xe7
03/06 11:14:51	 158	0	59	99	12	100	100	-1	-2	-64	19878	505574	0x0c
03/06 11:14:51	 159	0	59	99	12	100	100	-1	-2	-64	19881	505601	0x2c
03/06 11:14:51	 160	0	59	99	12	100	100	-1	-2	-64	19879	505660	0x66
03/06 11:14:51	 161	0	59	99	12	100	100	-1	-2	-64	19876	505721	0xa1
03/06 11:14:51	 162	0	59	99	12	100	100	-1	-2	-64	19869	505799	0xe9
03/06 11:14:51	 163	0	59	99	12	100	100	-1	-2	-64	19867	505808	0xf1
03/06 11:14:51	 164	0	59	99	12	100	100	-1	-2	-64	19867	505819	0xfd
03/06 11:14:51	 165	0	59	99	12	100	100	-1	-2	-64	19863	505788	0xdb
03/06 11:14:51	 166	0	59	99	12	100	100	0	-2	-64	19857	505608	0x23
03/06 11:14:51	 167	0	59	99	12	100	100	0	-2	-64	19862	505296	0xef
03/06 11:14:51	 168	0	59	99	12	100	100	0	-2	-64	19863	504816	0x0f
03/06 11:14:51	 169	0	59	99	12	100	100	0	-2	-64	19867	504180	0x96
03/06 11:14:51	 170	0	59	99	12	100	100	0	-2	-64	19861	503387	0x75
03/06 11:14:51	 171	0	59	99	12	100	100	0	-2	-64	19862	502582	0x4f
03/06 11:14:51	 172	0	59	99	12	100	100	0	-2	-64	19862	501827	0x5a
03/06 11:14:51	 173	0	59	99	12	100	100	0	-2	-64	19863	501102	0x84
03/06 11:14:51	 174	0	59	99	12	100	100	0	-2	-64	19862	500564	0x68
03/06 11:14:51	 175	0	59	99	12	100	100	0	-2	-64	19866	500148	0xcb
03/06 11:14:51	 176	0	59	99	12	100	100	-1	-2	-65	19863	499811	0x75
03/06 11:14:51	 177	0	59	99	12	100	100	-1	-2	-65	19868	499639	0xce
03/06 11:14:51	 178	0	59	99	12	100	100	-1	-2	-65	19866	499540	0x6a
03/06 11:14:51	 179	0	59	99	12	100	100	-1	-2	-65	19862	499530	0x5d
03/06 11:14:51	 180	0	59	99	12	100	100	-1	-2	-65	19866	499546	0x72
03/06 11:14:51	 181	0	59	99	12	100	100	-1	-2	-65	19872	499602	0xb1
03/06 11:14:51	 182	0	59	99	12	100	100	-1	-2	-65	19868	499643	0xd7
03/06 11:14:51	 183	0	59	99	12	100	100	-1	-2	-65	19867	499650	0xde
03/06 11:14:51	 184	0	59	99	12	100	100	-1	-2	-65	19877	499635	0xda
03/06 11:14:51	 185	0	59	99	12	100	100	-1	-2	-65	19874	499640	0xdd
03/06 11:14:51	 186	0	59	99	12	100	100	-1	-2	-64	19872	499590	0xab
03/06 11:14:51	 187	0	59	99	12	100	100	-1	-2	-64	19878	499508	0x60
03/06 11:14:51	 188	0	59	99	12	100	100	-1	-2	-64	19874	499452	0x24
03/06 11:14:51	 189	0	59	99	12	100	100	-1	-2	-64	19871	499386	0xe0
03/06 11:14:51	 190	0	59	99	12	100	100	-1	-2	-64	19883	499352	0xcb
03/06 11:14:51	 191	0	59	99	12	100	100	-1	-2	-64	19876	499311	0x9c
03/06 11:14:51	 192	8	59	99	12	100	103	-1	-2	-64	19869	499288	0x8a
03/06 11:14:51	 193	0	59	99	12	100	103	-1	-2	-64	19877	499302	0x99
03/06 11:14:51	 194	0	59	99	12	100	103	-1	-2	-64	19877	499313	0xa5
03/06 11:14:51	 195	0	59	99	12	100	103	-1	-2	-64	19873	499323	0xac
03/06 11:14:51	 196	0	59	99	12	100	103	-1	-2	-64	19881	499332	0xbe
03/06 11:14:51	 197	0	59	99	12	100	103	-1	-2	-64	19878	499295	0x97
03/06 11:14:51	 198	0	59	99	12	100	103	-1	-2	-64	19875	499260	0x72
03/06 11:14:51	 199	0	59	99	12	100	103	-1	-2	-64	19884	499241	0x69
03/06 11:14:51	 200	0	59	99	12	100	103	-1	-2	-64	19883	499172	0x23
03/06 11:14:51	 201	0	59	99	12	100	103	-1	-2	-64	19886	499084	0xcf
03/06 11:14:51	 202	0	59	99	12	100	103	-1	-2	-64	19893	499007	0x8a
03/06 11:14:51	 203	0	59	99	12	100	103	-1	-2	-64	19892	498925	0x37
03/06 11:14:51	 204	0	59	99	12	100	103	-1	-2	-64	19895	498814	0xcc
03/06 11:14:51	 205	0	59	99	12	100	103	-1	-2	-64	19898	498738	0x84
03/06 11:14:51	 206	0	59	99	12	100	103	0	-2	-64	19898	498686	0x51
03/06 11:14:51	 207	0	59	99	12	100	103	0	-2	-64	19897	498671	0x42
03/06 11:14:51	 208	0	59	99	12	100	103	0	-2	-64	19905	498650	0x36
03/06 11:14:51	 209	0	59	99	12	100	103	0	-2	-64	19901	498651	0x34
03/06 11:14:51	 210	0	59	99	12	100	103	0	-2	-64	19906	498683	0x5a
03/06 11:14:51	 211	0	59	99	12	100	103	0	-2	-64	19909	498746	0x9e
03/06 11:14:51	 212	0	59	99	12	100	103	0	-2	-64	19904	498828	0xec
03/06 11:14:51	 213	0	59	99	12	100	103	0	-2	-64	19904	498896	0x31
03/06 11:14:51	 214	0	59	99	12	100	103	0	-2	-64	19910	498982	0x8f
03/06 11:14:51	 215	0	59	99	12	100	103	0	-2	-64	19912	499079	0xf3
03/06 11:14:51	 216	0	59	99	12	100	103	-1	-2	-64	19914	499158	0x44
03/06 11:14:51	 217	0	59	99	12	100	103	-1	-2	-64	19917	499220	0x87
03/06 11:14:51	 218	0	59	99	12	100	103	-1	-2	-64	19919	499302	0xdc
03/06 11:14:51	 219	0	59	99	12	100	103	-1	-2	-64	19931	499385	0x3c
03/06 11:14:51	 220	0	59	99	12	100	103	-1	-2	-64	19927	499429	0x65
03/06 11:14:51	 221	0	59	99	12	100	103	-1	-2	-64	19936	499523	0xce
03/06 11:14:51	 222	0	59	99	12	100	103	-1	-2	-64	19945	499605	0x2a
03/06 11:14:51	 223	0	59	99	12	100	103	-1	-2	-64	19950	499664	0x6b
03/06 11:14:51	 224	0	59	99	12	100	103	-1	-2	-64	19957	499723	0xaf
03/06 11:14:51	 225	0	59	99	12	100	103	-1	-2	-64	19966	499796	0x02
03/06 11:14:51	 226	0	59	99	12	100	103	-1	-2	-64	19971	499873	0x56
03/06 11:14:51	 227	0	59	99	12	100	103	-1	-2	-64	19968	499911	0x7a
03/06 11:14:51	 228	0	59	99	12	100	103	-1	-2	-64	19979	499999	0xdf
03/06 11:14:51	 229	0	59	99	12	100	103	-1	-2	-64	19984	500064	0x26
03/06 11:14:52	 230	0	59	99	12	100	103	-1	-2	-64	19986	500098	0x4b
03/06 11:14:52	 231	0	59	99	12	100	103	-1	-2	-64	19998	500136	0x7e
03/06 11:14:52	 232	0	59	99	12	100	103	-1	-2	-64	19996	500212	0xc9
03/06 11:14:52	 233	0	59	99	12	100	103	-1	-2	-64	20006	500274	0x13
03/06 11:14:52	 234	0	59	99	12	100	103	-1	-2	-64	20015	500295	0x32
03/06 11:14:52	 235	0	59	99	12	100	103	-1	-2	-64	20016	500366	0x7b
03/06 11:14:52	 236	0	59	99	12	100	103	-1	-2	-64	20027	500420	0xbd
03/06 11:14:52	 237	0	59	99	12	100	103	-1	-2	-64	20031	500480	0xff
03/06 11:14:52	 238	0	59	99	12	100	103	-1	-2	-64	20036	500558	0x53
03/06 11:14:52	 239	0	59	99	12	100	103	-1	-2	-64	20031	500645	0xa6
03/06 11:14:52	 240	0	59	99	12	100	103	-1	-2	-64	20042	500727	0x04
03/06 11:14:52	 241	0	59	99	12	100	103	-1	-2	-64	20036	500760	0x21
03/06 11:14:52	 242	0	59	99	12	100	103	-1	-2	-64	20033	500845	0x74
03/06 11:14:52	 243	0	59	99	12	100	103	-1	-2	-64	20038	500945	0xde
03/06 11:14:52	 244	0	59	99	12	100	103	-1	-2	-64	20039	501048	0x48
03/06 11:14:52	 245	0	59	99	12	100	103	-1	-2	-64	20037	501137	0xa0
03/06 11:14:52	 246	0	59	99	12	100	103	-1	-2	-64	20045	501185	0xd9
03/06 11:14:52	 247	0	59	99	12	100	103	-1	-2	-64	20039	501290	0x3e
03/06 11:14:52	 248	0	59	99	12	100	103	-1	-2	-64	20037	501313	0x54
03/06 11:14:52	 249	0	59	99	12	100	103	-1	-2	-64	20047	501383	0xa5
03/06 11:14:52	 250	0	59	99	12	100	103	-1	-2	-64	20045	501501	0x1a
03/06 11:14:52	 251	0	59	99	12	100	103	-1	-2	-64	20043	501557	0x52
03/06 11:14:52	 252	0	59	99	12	100	103	-1	-2	-64	20055	501664	0xca
03/06 11:14:52	 253	0	59	99	12	100	103	-1	-2	-64	20059	501766	0x36
03/06 11:14:52	 254	0	59	99	12	100	103	-1	-2	-64	20060	501841	0x83
03/06 11:14:52	 255	0	59	99	12	100	103	-1	-2	-64	20071	501909	0xd3
03/06 11:14:52	 0	0	59	99	12	100	103	-1	-2	-64	20064	502000	0x28
03/06 11:14:52	 1	0	59	99	12	100	103	-1	-2	-64	20068	502119	0xa5
03/06 11:14:52	 2	0	59	99	12	100	103	-1	-2	-64	20080	502188	0xf7
03/06 11:14:52	 3	0	59	99	12	100	103	-1	-2	-64	20078	502275	0x4e
03/06 11:14:52	 4	0	59	99	12	100	103	-1	-2	-64	20079	502365	0xaa
03/06 11:14:52	 5	0	59	99	12	100	103	-1	-2	-64	20090	502432	0xf9
03/06 11:14:52	 6	0	59	99	12	100	103	-1	-2	-64	20089	502477	0x26
03/06 11:14:52	 7	0	59	99	12	100	103	-1	-2	-64	20085	502423	0xed
03/06 11:14:52	 8	0	59	99	12	100	103	-1	-2	-64	20094	502293	0x75
03/06 11:14:52	 9	0	59	99	12	100	103	-1	-2	-64	20096	502026	0x6c
03/06 11:14:52	 10	0	59	99	12	100	103	0	-2	-64	20097	501588	0xb7
03/06 11:14:52	 11	0	59	99	12	100	103	0	-2	-64	20118	500990	0x74
03/06 11:14:52	 12	0	59	99	12	100	103	0	-2	-64	20120	500282	0xb1
03/06 11:14:52	 13	0	59	99	12	100	103	0	-2	-64	20117	499560	0xda
03/06 11:14:52	 14	0	59	99	12	100	103	0	-2	-64	20134	498904	0x59
03/06 11:14:52	 15	0	59	99	12	100	103	0	-2	-64	20134	498405	0x65
03/06 11:14:52	 16	0	59	99	12	100	103	0	-2	-64	20130	497964	0xa8
03/06 11:14:52	 17	0	59	99	12	100	103	0	-2	-64	20143	497652	0x7c
03/06 11:14:52	 18	0	59	99	12	100	103	0	-2	-64	20146	497488	0xdc
03/06 11:14:52	 19	0	59	99	12	100	103	0	-2	-64	20148	497399	0x85
03/06 11:14:52	 20	0	59	99	12	100	103	-1	-2	-64	20152	497406	0x90
03/06 11:14:52	 21	0	59	99	12	100	103	-1	-2	-64	20151	497479	0xda
03/06 11:14:52	 22	0	59	99	12	100	103	-1	-2	-64	20158	497560	0x33
03/06 11:14:52	 23	0	59	99	12	100	103	-1	-2	-64	20166	497653	0x99
03/06 11:14:52	 24	0	59	99	12	100	103	-1	-2	-64	20170	497733	0xef
03/06 11:14:52	 25	0	59	99	12	100	103	-1	-2	-64	20174	497810	0x41
03/06 11:14:52	 26	0	59	99	12	100	103	-1	-2	-64	20174	497844	0x64
03/06 11:14:52	 27	0	59	99	12	100	103	-1	-2	-64	20171	497864	0x76
03/06 11:14:52	 28	0	59	99	12	100	103	-1	-2	-64	20171	497901	0x9c
03/06 11:14:52	 29	0	59	99	12	100	103	-1	-2	-64	20180	497934	0xc8
03/06 11:14:52	 30	0	59	99	12	100	103	-1	-1	-64	20180	497966	0xea
03/06 11:14:52	 31	0	59	99	12	100	103	-1	-1	-64	20184	497968	0xf1
03/06 11:14:52	 32	0	59	99	12	100	103	-1	-1	-64	20186	498001	0x15
03/06 11:14:52	 33	0	59	99	12	100	103	-1	-1	-64	20176	498066	0x4d
03/06 11:14:52	 34	8	59	99	12	100	98	-1	-1	-64	20179	498129	0x93
03/06 11:14:52	 35	0	59	99	12	100	98	-1	-1	-64	20177	498202	0xd4
03/06 11:14:52	 36	0	59	99	12	100	98	-1	-1	-64	20175	498277	0x1e
03/06 11:14:52	 37	0	59	99	12	100	98	-1	-1	-64	20185	498330	0x5e
03/06 11:14:52	 38	0	59	99	12	100	98	-1	-1	-64	20179	498364	0x7b
03/06 11:14:52	 39	0	59	99	12	100	98	-1	-1	-64	20183	498346	0x6e
03/06 11:14:52	 40	0	59	99	12	100	98	0	-1	-64	20185	498326	0x5e
03/06 11:14:52	 41	0	59	99	12	100	98	0	-1	-64	20181	498322	0x57
03/06 11:14:52	 42	0	59	99	12	100	98	0	-1	-64	20184	498257	0x1a
03/06 11:14:52	 43	0	59	99	12	100	98	0	-1	-64	20187	498189	0xda
03/06 11:14:52	 44	0	59	99	12	100	98	0	-1	-64	20190	498174	0xce
03/06 11:14:52	 45	0	59	99	12	100	98	0	-1	-64	20182	498100	0x7d
03/06 11:14:52	 46	0	59	99	12	100	98	0	-1	-64	20187	498051	0x52
03/06 11:14:52	 47	0	59	99	12	100	98	0	-1	-64	20188	498048	0x51
03/06 11:14:52	 48	0	59	99	12	100	98	0	-1	-64	20184	498022	0x34
03/06 11:14:52	 49	0	59	99	12	100	98	0	-1	-64	20187	498087	0x79
03/06 11:14:52	 50	0	59	99	12	100	98	-1	-1	-64	20187	498168	0xca
03/06 11:14:52	 51	0	59	99	12	100	98	-1	-1	-64	20186	498217	0xfc
03/06 11:14:52	 52	0	59	99	12	100	98	-1	-1	-64	20188	498298	0x50
03/06 11:14:52	 53	0	59	99	12	100	98	-1	-1	-64	20180	498398	0xad
03/06 11:14:52	 54	0	59	99	12	100	98	-1	-1	-64	20183	498454	0xea
03/06 11:14:52	 55	0	59	99	12	100	98	-1	-1	-64	20177	498558	0x4d
03/06 11:14:52	 56	0	59	99	12	100	98	-1	-1	-64	20178	498664	0xb9
03/06 11:14:52	 57	0	59	99	12	100	98	-1	-1	-64	20174	498749	0x0c
03/06 11:14:52	 58	0	59	99	12	100	98	-1	-1	-64	20182	498885	0x9d
03/06 11:14:52	 59	0	59	99	12	100	98	-1	-1	-64	20174	498975	0xf1
03/06 11:14:52	 60	0	59	99	12	100	98	-1	-2	-64	20175	499065	0x4c
03/06 11:14:52	 61	0	59	99	12	100	98	-1	-2	-64	20172	499165	0xae
03/06 11:14:52	 62	0	59	99	12	100	98	-1	-2	-64	20171	499248	0x02
03/06 11:14:52	 63	0	59	99	12	100	98	-1	-2	-64	20170	499321	0x4b
03/06 11:14:52	 64	0	59	99	12	100	98	-1	-2	-64	20171	499388	0x90
03/06 11:14:52	 65	0	59	99	12	100	98	-1	-2	-64	20160	499467	0xd6
03/06 11:14:52	 66	0	59	99	12	100	98	-1	-2	-64	20162	499521	0x0f
03/06 11:14:52	 67	0	59	99	12	100	98	-1	-2	-64	20161	499584	0x4e
03/06 11:14:52	 68	0	59	99	12	100	98	-1	-2	-64	20157	499654	0x91
03/06 11:14:52	 69	0	59	99	12	100	98	-1	-2	-64	20155	499736	0xe3
03/06 11:14:52	 70	0	59	99	12	100	98	-1	-2	-64	20155	499783	0x13
03/06 11:14:52	 71	0	59	99	12	100	98	-1	-2	-64	20150	499834	0x42
03/06 11:14:52	 72	0	59	99	12	100	98	-1	-2	-64	20143	499922	0x94
03/06 11:14:53	 73	0	59	99	12	100	98	-1	-2	-64	20148	499980	0xd5
03/06 11:14:53	 74	0	59	99	12	100	98	-1	-2	-64	20139	500045	0x0e
03/06 11:14:53	 75	0	59	99	12	100	98	-1	-2	-64	20135	500107	0x49
03/06 11:14:53	 76	0	59	99	12	100	98	-1	-2	-64	20145	500194	0xab
03/06 11:14:53	 77	0	59	99	12	100	98	-1	-2	-64	20143	500261	0xee
03/06 11:14:53	 78	0	59	99	12	100	98	-1	-2	-64	20137	500319	0x23
03/06 11:14:53	 79	0	59	99	12	100	98	-1	-2	-64	20140	500390	0x6e
03/06 11:14:53	 80	0	59	99	12	100	98	-1	-2	-65	20136	500454	0xaa
03/06 11:14:53	 81	0	59	99	12	100	98	-1	-2	-65	20129	500519	0xe6
03/06 11:14:53	 82	0	59	99	12	100	98	-1	-2	-65	20137	500599	0x3f
03/06 11:14:53	 83	0	59	99	12	100	98	-1	-2	-65	20130	500694	0x98
03/06 11:14:53	 84	0	59	99	12	100	98	-1	-2	-65	20125	500756	0xd3
03/06 11:14:53	 85	0	59	99	12	100	98	-1	-2	-65	20128	500849	0x34
03/06 11:14:53	 86	0	59	99	12	100	98	-1	-2	-65	20133	500941	0x96
03/06 11:14:53	 87	0	59	99	12	100	98	-1	-2	-65	20120	501025	0xdf
03/06 11:14:53	 88	0	59	99	12	100	98	-1	-2	-65	20129	501093	0x2d
03/06 11:14:53	 89	0	59	99	12	100	98	-1	-2	-65	20121	501169	0x72
03/06 11:14:53	 90	0	59	99	12	100	98	0	-1	-64	20123	501271	0xdf
03/06 11:14:53	 91	0	59	99	12	100	98	0	-1	-64	20122	501343	0x27
03/06 11:14:53	 92	0	59	99	12	100	98	0	-1	-64	20115	501467	0x9d
03/06 11:14:53	 93	0	59	99	12	100	98	0	-1	-64	20104	501521	0xca
03/06 11:14:53	 94	0	59	99	12	100	98	0	-1	-64	20109	501601	0x20
03/06 11:14:53	 95	0	59	99	12	100	98	0	-1	-64	20099	501721	0x8f
03/06 11:14:53	 96	0	59	99	12	100	98	0	-1	-64	20099	501750	0xad
03/06 11:14:53	 97	0	59	99	12	100	98	0	-1	-64	20099	501852	0x15
03/06 11:14:53	 98	0	59	99	12	100	98	0	-1	-64	20084	501951	0x6a
03/06 11:14:53	 99	0	59	99	12	100	98	0	-1	-64	20091	502042	0xce
03/06 11:14:53	 100	0	59	99	12	100	98	0	-2	-64	20082	502141	0x28
03/06 11:14:53	 101	0	59	99	12	100	98	0	-2	-64	20082	502187	0x57
03/06 11:14:53	 102	0	59	99	12	100	98	0	-2	-64	20082	502234	0x87
03/06 11:14:53	 103	0	59	99	12	100	98	0	-2	-64	20090	502241	0x97
03/06 11:14:53	 104	0	59	99	12	100	98	0	-2	-64	20086	502116	0x17
03/06 11:14:53	 105	0	59	99	12	100	98	0	-2	-64	20086	501853	0x10
03/06 11:14:53	 106	0	59	99	12	100	98	0	-2	-64	20090	501465	0x8f
03/06 11:14:53	 107	0	59	99	12	100	98	0	-2	-64	20093	500809	0x01
03/06 11:14:53	 108	0	59	99	12	100	98	0	-2	-64	20095	500037	0xfd
03/06 11:14:53	 109	0	59	99	12	100	98	0	-2	-64	20102	499288	0x15
03/06 11:14:53	 110	0	59	99	12	100	98	-1	-1	-64	20104	498529	0x1e
03/06 11:14:53	 111	0	59	99	12	100	98	-1	-1	-64	20098	497897	0x9e
03/06 11:14:53	 112	0	59	99	12	100	98	-1	-1	-64	20092	497390	0x9c
03/06 11:14:53	 113	0	59	99	12	100	98	-1	-1	-64	20090	496985	0x05
03/06 11:14:53	 114	0	59	99	12	100	98	-1	-1	-64	20093	496709	0xf4
03/06 11:14:53	 115	0	59	99	12	100	98	-1	-1	-64	20083	496555	0x50
03/06 11:14:53	 116	0	59	99	12	100	98	-1	-1	-64	20086	496490	0x13
03/06 11:14:53	 117	0	59	99	12	100	98	-1	-1	-64	20082	496481	0x07
03/06 11:14:53	 118	0	59	99	12	100	98	-1	-1	-64	20074	496521	0x28
03/06 11:14:53	 119	0	59	99	12	100	98	-1	-1	-64	20074	496592	0x70
03/06 11:14:53	 120	0	59	99	12	100	98	-1	-2	-64	20075	496608	0x81
03/06 11:14:53	 121	0	59	99	12	100	98	-1	-2	-64	20071	496647	0xa6
03/06 11:14:53	 122	0	59	99	12	100	98	-1	-2	-64	20072	496656	0xb1
03/06 11:14:53	 123	0	59	99	12	100	98	-1	-2	-64	20075	496620	0x90
03/06 11:14:53	 124	0	59	99	12	100	98	-1	-2	-64	20069	496592	0x6f
03/06 11:14:53	 125	0	59	99	12	100	98	-1	-2	-64	20068	496540	0x3b
03/06 11:14:53	 126	0	59	99	12	100	98	-1	-2	-64	20070	496476	0xfe
03/06 11:14:53	 127	0	59	99	12	100	98	-1	-2	-64	20064	496399	0xac
03/06 11:14:53	 128	0	59	99	12	100	98	-1	-2	-64	20064	496357	0x82
03/06 11:14:53	 129	0	59	99	12	100	98	-1	-2	-64	20064	496325	0x63
03/06 11:14:53	 130	0	59	99	12	100	98	0	-2	-64	20057	496364	0x85
03/06 11:14:53	 131	8	59	99	12	99	97	0	-2	-64	20054	496409	0xb7
03/06 11:14:53	 132	0	59	99	12	99	97	0	-2	-64	20054	496453	0xdc
03/06 11:14:53	 133	0	59	99	12	99	97	0	-2	-64	20050	496504	0x0c
03/06 11:14:53	 134	0	59	99	12	99	97	0	-2	-64	20052	496584	0x5f
03/06 11:14:53	 135	0	59	99	12	99	97	0	-2	-64	20053	496655	0xa9
03/06 11:14:53	 136	0	59	99	12	99	97	0	-2	-64	20053	496687	0xca
03/06 11:14:53	 137	0	59	99	12	99	97	0	-2	-64	20046	496721	0xe6
03/06 11:14:53	 138	0	59	99	12	99	97	0	-2	-64	20044	496776	0x1c
03/06 11:14:53	 139	0	59	99	12	99	97	0	-2	-64	20037	496769	0x0f
03/06 11:14:53	 140	0	59	99	12	99	97	-1	-2	-64	20042	496764	0x0f
03/06 11:14:53	 141	0	59	99	12	99	97	-1	-2	-64	20043	496767	0x14
03/06 11:14:53	 142	0	59	99	12	99	97	-1	-2	-64	20043	496704	0xd6
03/06 11:14:53	 143	0	59	99	12	99	97	-1	-2	-64	20037	496698	0xcb
03/06 11:14:53	 144	0	59	99	12	99	97	-1	-2	-64	20036	496713	0xda
03/06 11:14:53	 145	0	59	99	12	99	97	-1	-2	-64	20042	496704	0xd8
03/06 11:14:53	 146	0	59	99	12	99	97	-1	-2	-64	20032	496732	0xeb
03/06 11:14:53	 147	0	59	99	12	99	97	-1	-2	-64	20042	496789	0x2f
03/06 11:14:53	 148	0	59	99	12	99	97	-1	-2	-64	20038	496830	0x55
03/06 11:14:53	 149	0	59	99	12	99	97	-1	-2	-64	20030	496903	0x98
03/06 11:14:53	 150	0	59	99	12	99	97	-1	-2	-64	20044	496979	0xf3
03/06 11:14:53	 151	0	59	99	12	99	97	-1	-2	-64	20037	497039	0x29
03/06 11:14:53	 152	0	59	99	12	99	97	-1	-2	-64	20033	497121	0x78
03/06 11:14:53	 153	0	59	99	12	99	97	-1	-2	-64	20041	497205	0xd6
03/06 11:14:53	 154	0	59	99	12	99	97	-1	-2	-64	20037	497257	0x07
03/06 11:14:53	 155	0	59	99	12	99	97	-1	-2	-64	20039	497345	0x62
03/06 11:14:53	 156	0	59	99	12	99	97	-1	-2	-64	20045	497460	0xdd
03/06 11:14:53	 157	0	59	99	12	99	97	-1	-2	-64	20038	497508	0x07
03/06 11:14:53	 158	0	59	99	12	99	97	-1	-2	-64	20036	497597	0x5f
03/06 11:14:53	 159	0	59	99	12	99	97	-1	-2	-64	20044	497704	0xd4
03/06 11:14:53	 160	0	59	99	12	99	97	0	-2	-64	20041	497751	0x02
03/06 11:14:53	 161	0	59	99	12	99	97	0	-2	-64	20029	497859	0x63
03/06 11:14:53	 162	0	59	99	12	99	97	0	-2	-64	20041	497941	0xc3
03/06 11:14:53	 163	0	59	99	12	99	97	0	-2	-64	20035	498013	0x06
03/06 11:14:53	 164	0	59	99	12	99	97	0	-2	-64	20031	498090	0x50
03/06 11:14:53	 165	0	59	99	12	99	97	0	-2	-64	20036	498162	0x9e
03/06 11:14:53	 166	0	59	99	12	99	97	0	-2	-64	20037	498222	0xdd
03/06 11:14:53	 167	0	59	99	12	99	97	0	-2	-64	20037	498261	0x05
03/06 11:14:53	 168	0	59	99	12	99	97	0	-2	-64	20033	498361	0x66
03/06 11:14:53	 169	0	59	99	12	99	97	0	-2	-64	20037	498433	0xb4
03/06 11:14:53	 170	0	59	99	12	99	97	-1	-2	-64	20034	498501	0xf5
03/06 11:14:53	 171	0	59	99	12	99	97	-1	-2	-64	20038	498572	0x41
03/06 11:14:54	 172	0	59	99	12	99	97	-1	-2	-64	20033	498641	0x82
03/06 11:14:54	 173	0	59	99	12	99	97	-1	-2	-64	20036	498717	0xd3
03/06 11:14:54	 174	0	59	99	12	99	97	-1	-2	-64	20037	498784	0x18
03/06 11:14:54	 175	0	59	99	12	99	97	-1	-2	-64	20035	498838	0x4d
03/06 11:14:54	 176	0	59	99	12	99	97	-1	-2	-64	20039	498931	0xaf
03/06 11:14:54	 177	0	59	99	12	99	97	-1	-2	-64	20041	499038	0x1e
03/06 11:14:54	 178	0	59	99	12	99	97	-1	-2	-64	20037	499112	0x65
03/06 11:14:54	 179	0	59	99	12	99	97	-1	-2	-64	20036	499193	0xb6
03/06 11:14:54	 180	0	59	99	12	99	97	0	-2	-64	20040	499290	0x1e
03/06 11:14:54	 181	0	59	99	12	99	97	0	-2	-64	20032	499361	0x5e
03/06 11:14:54	 182	0	59	99	12	99	97	0	-2	-64	20035	499428	0xa5
03/06 11:14:54	 183	0	59	99	12	99	97	0	-2	-64	20037	499534	0x13
03/06 11:14:54	 184	0	59	99	12	99	97	0	-2	-64	20031	499628	0x6c
03/06 11:14:54	 185	0	59	99	12	99	97	0	-2	-64	20036	499668	0x9a
03/06 11:14:54	 186	0	59	99	12	99	97	0	-2	-64	20033	499756	0xf1
03/06 11:14:54	 187	0	59	99	12	99	97	0	-2	-64	20029	499861	0x57
03/06 11:14:54	 188	0	59	99	12	99	97	0	-2	-64	20035	499911	0x90
03/06 11:14:54	 189	0	59	99	12	99	97	0	-2	-64	20030	499980	0xd2
03/06 11:14:54	 190	0	59	99	12	99	97	-1	-2	-64	20024	500058	0x1a
03/06 11:14:54	 191	0	59	99	12	99	97	-1	-2	-64	20028	500130	0x67
03/06 11:14:54	 192	0	59	99	12	99	97	-1	-2	-64	20022	500238	0xcf
03/06 11:14:54	 193	0	59	99	12	99	97	-1	-2	-64	20022	500333	0x2f
03/06 11:14:54	 194	0	59	99	12	99	97	-1	-2	-64	20017	500398	0x6c
03/06 11:14:54	 195	0	59	99	12	99	97	-1	-2	-64	20013	500501	0xd1
03/06 11:14:54	 196	0	59	99	12	99	97	-1	-2	-64	20004	500611	0x37
03/06 11:14:54	 197	0	59	99	12	99	97	-1	-2	-64	20004	500661	0x6a
03/06 11:14:54	 198	0	59	99	12	99	97	-1	-2	-64	19994	500766	0xcb
03/06 11:14:54	 199	0	59	99	12	99	97	-1	-2	-64	19994	500862	0x2c
03/06 11:14:54	 200	0	59	99	12	99	97	-1	-2	-64	19990	500932	0x6f
03/06 11:14:54	 201	0	59	99	12	99	97	-1	-2	-64	19987	501029	0xcf
03/06 11:14:54	 202	0	59	99	12	99	97	-1	-2	-64	19985	501102	0x17
03/06 11:14:54	 203	0	59	99	12	99	97	-1	-2	-64	19985	501162	0x54
03/06 11:14:54	 204	0	59	99	12	99	97	-1	-2	-64	19981	501227	0x92
03/06 11:14:54	 205	0	59	99	12	99	97	-1	-2	-64	19977	501238	0x9a
03/06 11:14:54	 206	0	59	99	12	99	97	-1	-2	-64	19979	501148	0x43
03/06 11:14:54	 207	0	59	99	12	99	97	-1	-2	-64	19966	500911	0x48
03/06 11:14:54	 208	0	59	99	12	99	97	-1	-2	-64	19964	500533	0xcc
03/06 11:14:54	 209	0	59	99	12	99	97	-1	-2	-64	19969	499957	0x90
03/06 11:14:54	 210	0	59	99	12	99	97	-1	-2	-64	19951	499227	0xa2
03/06 11:14:54	 211	0	59	99	12	99	97	-1	-2	-64	19953	498467	0xaa
03/06 11:14:54	 212	0	59	99	12	99	97	-1	-2	-64	19945	497748	0xd1
03/06 11:14:54	 213	0	59	99	12	99	97	-1	-2	-64	19937	497120	0x53
03/06 11:14:54	 214	0	59	99	12	99	97	-1	-2	-64	19935	496593	0x41
03/06 11:14:54	 215	0	59	99	12	99	97	-1	-2	-64	19928	496195	0xac
03/06 11:14:54	 216	0	59	99	12	99	97	-1	-2	-64	19921	495953	0xb3
03/06 11:14:54	 217	0	59	99	12	99	97	-1	-2	-64	19913	495788	0x06
03/06 11:14:54	 218	0	59	99	12	99	97	-1	-2	-64	19914	495755	0xe7
03/06 11:14:54	 219	0	59	99	12	99	97	-1	-2	-64	19904	495753	0xdc
03/06 11:14:54	 220	0	59	99	12	99	97	0	-2	-64	19900	495809	0x12
03/06 11:14:54	 221	0	59	99	12	99	97	0	-2	-64	19901	495932	0x90
03/06 11:14:54	 222	0	59	99	12	99	97	0	-2	-64	19900	495948	0xa0
03/06 11:14:54	 223	0	59	99	12	99	97	0	-2	-64	19899	496025	0xed
03/06 11:14:54	 224	0	59	99	12	99	97	0	-2	-64	19897	496074	0x1d
03/06 11:14:54	 225	0	59	99	12	99	97	0	-2	-64	19890	496057	0x06
03/06 11:14:54	 226	0	59	99	12	99	97	0	-2	-64	19882	496078	0x14
03/06 11:14:54	 227	0	59	99	12	99	97	0	-2	-64	19887	496007	0xd3
03/06 11:14:54	 228	0	59	99	12	99	97	0	-2	-64	19885	495965	0xa8
03/06 11:14:54	 229	0	59	99	12	99	97	0	-2	-64	19879	495900	0x62
03/06 11:14:54	 230	0	59	99	12	99	97	0	-1	-64	19882	495817	0x13
03/06 11:14:54	 231	0	59	99	12	99	97	0	-1	-64	19875	495808	0x04
03/06 11:14:54	 232	8	59	99	12	99	101	0	-1	-64	19870	495826	0x1e
03/06 11:14:54	 233	0	59	99	12	99	101	0	-1	-64	19876	495849	0x34
03/06 11:14:54	 234	0	59	99	12	99	101	0	-1	-64	19876	495867	0x47
03/06 11:14:54	 235	0	59	99	12	99	101	0	-1	-64	19872	495942	0x90
03/06 11:14:54	 236	0	59	99	12	99	101	0	-1	-64	19877	496002	0xd2
03/06 11:14:54	 237	0	59	99	12	99	101	0	-1	-64	19876	496016	0xe0
03/06 11:14:54	 238	0	59	99	12	99	101	0	-1	-64	19871	496045	0xf9
03/06 11:14:54	 239	0	59	99	12	99	101	0	-1	-64	19877	496065	0x14
03/06 11:14:54	 240	0	59	99	12	99	101	-1	-2	-64	19877	496017	0xe3
03/06 11:14:54	 241	0	59	99	12	99	101	-1	-2	-64	19872	496004	0xd2
03/06 11:14:54	 242	0	59	99	12	99	101	-1	-2	-64	19870	495957	0xa2
03/06 11:14:54	 243	0	59	99	12	99	101	-1	-2	-64	19869	495878	0x53
03/06 11:14:54	 244	0	59	99	12	99	101	-1	-2	-64	19864	495868	0x44
03/06 11:14:54	 245	0	59	99	12	99	101	-1	-2	-64	19871	495806	0x0e
03/06 11:14:54	 246	0	59	99	12	99	101	-1	-2	-64	19870	495798	0x06
03/06 11:14:54	 247	0	59	99	12	99	101	-1	-2	-64	19867	495790	0xfc
03/06 11:14:54	 248	0	59	99	12	99	101	-1	-2	-64	19870	495789	0xff
03/06 11:14:54	 249	0	59	99	12	99	101	-1	-2	-64	19876	495821	0x26
03/06 11:14:54	 250	0	59	99	12	99	101	-1	-2	-64	19873	495876	0x5c
03/06 11:14:54	 251	0	59	99	12	99	101	-1	-2	-64	19877	495978	0xc7
03/06 11:14:54	 252	0	59	99	12	99	101	-1	-2	-64	19872	496077	0x26
03/06 11:14:54	 253	0	59	99	12	99	101	-1	-2	-64	19870	496151	0x70
03/06 11:14:54	 254	0	59	99	12	99	101	-1	-2	-64	19876	496242	0xd2
03/06 11:14:54	 255	0	59	99	12	99	101	-1	-2	-64	19875	496337	0x31
03/06 11:14:54	 0	0	59	99	12	99	101	-1	-2	-64	19876	496435	0x96
03/06 11:14:54	 1	0	59	99	12	99	101	-1	-2	-64	19873	496516	0xe5
03/06 11:14:54	 2	0	59	99	12	99	101	-1	-2	-64	19873	496614	0x48
03/06 11:14:54	 3	0	59	99	12	99	101	-1	-2	-64	19874	496709	0xaa
03/06 11:14:54	 4	0	59	99	12	99	101	0	-2	-64	19874	496789	0xfc
03/06 11:14:54	 5	0	59	99	12	99	101	0	-2	-64	19875	496877	0x56
03/06 11:14:54	 6	0	59	99	12	99	101	0	-2	-64	19882	496987	0xcd
03/06 11:14:54	 7	0	59	99	12	99	101	0	-2	-64	19878	497040	0xff
03/06 11:14:54	 8	0	59	99	12	99	101	0	-2	-64	19878	497128	0x58
03/06 11:14:54	 9	0	59	99	12	99	101	0	-2	-64	19882	497226	0xc0
03/06 11:14:54	 10	0	59	99	12	99	101	0	-2	-64	19880	497261	0xe2
03/06 11:14:54	 11	0	59	99	12	99	101	0	-2	-64	19885	497344	0x3b
03/06 11:14:54	 12	0	59	99	12	99	101	0	-2	-64	19892	497386	0x6d
03/06 11:14:54	 13	0	59	99	12	99	101	0	-2	-64	19892	497417	0x8e
03/06 11:14:54	 14	0	59	99	12	99	101	-1	-2	-64	19892	497486	0xd3
03/06 11:14:55	 15	0	59	99	12	99	101	-1	-2	-64	19890	497566	0x22
03/06 11:14:55	 16	0	59	99	12	99	101	-1	-2	-64	19887	497582	0x30
03/06 11:14:55	 17	0	59	99	12	99	101	-1	-2	-64	19892	497649	0x79
03/06 11:14:55	 18	0	59	99	12	99	101	-1	-2	-64	19898	497749	0xe5
03/06 11:14:55	 19	0	59	99	12	99	101	-1	-2	-64	19895	497779	0x01
03/06 11:14:55	 20	0	59	99	12	99	101	-1	-2	-64	19897	497827	0x34
03/06 11:14:55	 21	0	59	99	12	99	101	-1	-2	-64	19907	497906	0x8e
03/06 11:14:55	 22	0	59	99	12	99	101	-1	-2	-64	19904	497973	0xd0
03/06 11:14:55	 23	0	59	99	12	99	101	-1	-2	-64	19904	498039	0x13
03/06 11:14:55	 24	0	59	99	12	99	101	-1	-2	-63	19911	498110	0x63
03/06 11:14:55	 25	0	59	99	12	99	101	-1	-2	-63	19910	498180	0xaa
03/06 11:14:55	 26	0	59	99	12	99	101	-1	-2	-63	19913	498277	0x0f
03/06 11:14:55	 27	0	59	99	12	99	101	-1	-2	-63	19917	498371	0x72
03/06 11:14:55	 28	0	59	99	12	99	101	-1	-2	-63	19915	498459	0xca
03/06 11:14:55	 29	0	59	99	12	99	101	-1	-2	-63	19917	498519	0x09
03/06 11:14:55	 30	0	59	99	12	99	101	-1	-2	-63	19931	498590	0x5f
03/06 11:14:55	 31	0	59	99	12	99	101	-1	-2	-63	19928	498668	0xab
03/06 11:14:55	 32	0	59	99	12	99	101	-1	-2	-63	19932	498734	0xf3
03/06 11:14:55	 33	0	59	99	12	99	101	-1	-2	-63	19936	498843	0x65
03/06 11:14:55	 34	0	59	99	12	99	101	-1	-2	-64	19933	498888	0x8f
03/06 11:14:55	 35	0	59	99	12	99	101	-1	-2	-64	19945	498958	0xe3
03/06 11:14:55	 36	0	59	99	12	99	101	-1	-2	-64	19953	499071	0x5d
03/06 11:14:55	 37	0	59	99	12	99	101	-1	-2	-64	19950	499129	0x95
03/06 11:14:55	 38	0	59	99	12	99	101	-1	-2	-64	19957	499173	0xc9
03/06 11:14:55	 39	0	59	99	12	99	101	-1	-2	-64	19973	499238	0x1d
03/06 11:14:55	 40	0	59	99	12	99	101	-1	-2	-64	19974	499323	0x74
03/06 11:14:55	 41	0	59	99	12	99	101	-1	-2	-64	19980	499386	0xba
03/06 11:14:55	 42	0	59	99	12	99	101	-1	-2	-64	19998	499457	0x15
03/06 11:14:55	 43	0	59	99	12	99	101	-1	-2	-64	19998	499554	0x77
03/06 11:14:55	 44	0	59	99	12	99	101	-1	-2	-64	20004	499660	0xe8
03/06 11:14:55	 45	0	59	99	12	99	101	-1	-2	-64	20014	499718	0x2e
03/06 11:14:55	 46	0	59	99	12	99	101	-1	-2	-64	20016	499786	0x75
03/06 11:14:55	 47	0	59	99	12	99	101	-1	-2	-64	20015	499873	0xcc
03/06 11:14:55	 48	0	59	99	12	99	101	-1	-2	-64	20024	499905	0xf6
03/06 11:14:55	 49	0	59	99	12	99	101	-1	-2	-64	20022	499868	0xd0
03/06 11:14:55	 50	0	59	99	12	99	101	-1	-2	-64	20021	499760	0x64
03/06 11:14:55	 51	0	59	99	12	99	101	-1	-2	-64	20029	499484	0x58
03/06 11:14:55	 52	0	59	99	12	99	101	-1	-2	-64	20021	499077	0xb8
03/06 11:14:55	 53	0	59	99	12	99	101	-1	-2	-64	20021	498503	0x79
03/06 11:14:55	 54	0	59	99	12	99	101	-1	-2	-64	20031	497802	0xc4
03/06 11:14:55	 55	0	59	99	12	99	101	-1	-2	-64	20034	497118	0x19
03/06 11:14:55	 56	0	59	99	12	99	101	-1	-2	-64	20027	496436	0x67
03/06 11:14:55	 57	0	59	99	12	99	101	-1	-2	-64	20030	495868	0x30
03/06 11:14:55	 58	0	59	99	12	99	101	-1	-2	-64	20031	495406	0x63
03/06 11:14:55	 59	0	59	99	12	99	101	-1	-2	-64	20026	495068	0x0b
03/06 11:14:55	 60	0	59	99	12	99	101	-1	-2	-64	20044	494847	0x40
03/06 11:14:55	 61	0	59	99	12	99	101	-1	-2	-64	20042	494715	0xbb
03/06 11:14:55	 62	0	59	99	12	99	101	-1	-2	-64	20046	494721	0xc6
03/06 11:14:55	 63	0	59	99	12	99	101	-1	-2	-64	20045	494738	0xd7
03/06 11:14:55	 64	0	59	99	12	99	101	-1	-2	-64	20047	494818	0x2a
03/06 11:14:55	 65	0	59	99	12	99	101	-1	-2	-64	20052	494888	0x77
03/06 11:14:55	 66	0	59	99	12	99	101	-1	-2	-64	20061	494946	0xbb
03/06 11:14:55	 67	0	59	99	12	99	101	-1	-2	-64	20057	495014	0xfc
03/06 11:14:55	 68	0	59	99	12	99	101	-1	-2	-64	20057	495034	0x11
03/06 11:14:55	 69	0	59	99	12	99	101	-1	-2	-64	20059	495056	0x2a
03/06 11:14:55	 70	0	59	99	12	99	101	-1	-2	-64	20060	495038	0x1a
03/06 11:14:55	 71	0	59	99	12	99	101	-1	-2	-64	20053	495047	0x1d
03/06 11:14:55	 72	0	59	99	12	99	101	-1	-2	-64	20053	495022	0x05
03/06 11:14:55	 73	0	59	99	12	99	101	-1	-2	-64	20052	495019	0x02
03/06 11:14:55	 74	0	59	99	12	99	101	-1	-1	-64	20045	495076	0x36
03/06 11:14:55	 75	0	59	99	12	99	101	-1	-1	-64	20049	495105	0x59
03/06 11:14:55	 76	8	59	99	12	100	100	-1	-1	-64	20051	495183	0xb2
03/06 11:14:55	 77	0	59	99	12	100	100	-1	-1	-64	20052	495265	0xfe
03/06 11:14:55	 78	0	59	99	12	100	100	-1	-1	-64	20053	495356	0x5b
03/06 11:14:55	 79	0	59	99	12	100	100	-1	-1	-64	20058	495431	0xad
03/06 11:14:55	 80	0	59	99	12	100	100	-1	-1	-64	20066	495468	0xdb
03/06 11:14:55	 81	0	59	99	12	100	100	-1	-1	-64	20064	495482	0xe8
03/06 11:14:55	 82	0	59	99	12	100	100	-1	-1	-64	20068	495446	0xc9
03/06 11:14:55	 83	0	59	99	12	100	100	-1	-1	-64	20071	495441	0xc8
03/06 11:14:55	 84	0	59	99	12	100	100	0	-2	-64	20072	495414	0xaf
03/06 11:14:55	 85	0	59	99	12	100	100	0	-2	-64	20071	495293	0x35
03/06 11:14:55	 86	0	59	99	12	100	100	0	-2	-64	20078	495210	0xea
03/06 11:14:55	 87	0	59	99	12	100	100	0	-2	-64	20076	495157	0xb4
03/06 11:14:55	 88	0	59	99	12	100	100	0	-2	-64	20078	495074	0x63
03/06 11:14:55	 89	0	59	99	12	100	100	0	-2	-64	20081	495028	0x39
03/06 11:14:55	 90	0	59	99	12	100	100	0	-2	-64	20073	495020	0x2a
03/06 11:14:55	 91	0	59	99	12	100	100	0	-2	-64	20079	495044	0x49
03/06 11:14:55	 92	0	59	99	12	100	100	0	-2	-64	20085	495096	0x84
03/06 11:14:55	 93	0	59	99	12	100	100	0	-2	-64	20081	495136	0xaa
03/06 11:14:55	 94	0	59	99	12	100	100	-1	-2	-64	20085	495215	0xfd
03/06 11:14:55	 95	0	59	99	12	100	100	-1	-2	-64	20097	495289	0x54
03/06 11:14:55	 96	0	59	99	12	100	100	-1	-2	-64	20094	495347	0x8c
03/06 11:14:55	 97	0	59	99	12	100	100	-1	-2	-64	20101	495461	0x07
03/06 11:14:55	 98	0	59	99	12	100	100	-1	-2	-64	20107	495527	0x50
03/06 11:14:55	 99	0	59	99	12	100	100	-1	-2	-64	20104	495622	0xae
03/06 11:14:55	 100	0	59	99	12	100	100	-1	-2	-64	20104	495733	0x1e
03/06 11:14:55	 101	0	59	99	12	100	100	-1	-2	-64	20110	495804	0x6c
03/06 11:14:55	 102	0	59	99	12	100	100	-1	-2	-64	20103	495906	0xcd
03/06 11:14:55	 103	0	59	99	12	100	100	-1	-2	-64	20116	495991	0x30
03/06 11:14:55	 104	0	59	99	12	100	100	-1	-2	-64	20123	496052	0x75
03/06 11:14:55	 105	0	59	99	12	100	100	-1	-2	-64	20127	496146	0xd9
03/06 11:14:55	 106	0	59	99	12	100	100	-1	-2	-64	20129	496233	0x33
03/06 11:14:55	 107	0	59	99	12	100	100	-1	-2	-64	20140	496317	0x93
03/06 11:14:55	 108	0	59	99	12	100	100	-1	-2	-64	20134	496368	0xc1
03/06 11:14:55	 109	0	59	99	12	100	100	-1	-2	-64	20139	496424	0x00
03/06 11:14:55	 110	0	59	99	12	100	100	-1	-2	-64	20146	496486	0x46
03/06 11:14:55	 111	0	59	99	12	100	100	-1	-2	-64	20150	496513	0x66
03/06 11:14:55	 112	0	59	99	12	100	100	-1	-2	-64	20146	496573	0x9f
03/06 11:14:55	 113	0	59	99	12	100	100	-1	-2	-64	20160	496655	0x01
03/06 11:14:55	 114	0	59	99	12	100	100	-1	-2	-64	20156	496690	0x21
03/06 11:14:56	 115	0	59	99	12	100	100	-1	-2	-64	20150	496753	0x5b
03/06 11:14:56	 116	0	59	99	12	100	100	-1	-2	-64	20160	496849	0xc6
03/06 11:14:56	 117	0	59	99	12	100	100	-1	-2	-64	20161	496886	0xed
03/06 11:14:56	 118	0	59	99	12	100	100	-1	-2	-64	20153	496927	0x10
03/06 11:14:56	 119	0	59	99	12	100	100	-1	-2	-64	20163	496986	0x56
03/06 11:14:56	 120	0	59	99	12	100	100	-1	-2	-64	20163	497050	0x97
03/06 11:14:56	 121	0	59	99	12	100	100	-1	-2	-64	20160	497106	0xcd
03/06 11:14:56	 122	0	59	99	12	100	100	-1	-2	-64	20165	497186	0x24
03/06 11:14:56	 123	0	59	99	12	100	100	-1	-2	-64	20164	497248	0x62
03/06 11:14:56	 124	0	59	99	12	100	100	-1	-2	-64	20167	497310	0xa4
03/06 11:14:56	 125	0	59	99	12	100	100	-1	-2	-64	20176	497366	0xe6
03/06 11:14:56	 126	0	59	99	12	100	100	-1	-2	-64	20171	497413	0x12
03/06 11:14:56	 127	0	59	99	12	100	100	-1	-2	-64	20165	497509	0x6d
03/06 11:14:56	 128	0	59	99	12	100	100	-1	-2	-64	20173	497595	0xcc
03/06 11:14:56	 129	0	59	99	12	100	100	-1	-2	-64	20176	497647	0x04
03/06 11:14:56	 130	0	59	99	12	100	100	-1	-2	-64	20171	497755	0x6d
03/06 11:14:56	 131	0	59	99	12	100	100	-1	-2	-64	20175	497847	0xce
03/06 11:14:56	 132	0	59	99	12	100	100	-1	-2	-64	20171	497888	0xf4
03/06 11:14:56	 133	0	59	99	12	100	100	-1	-2	-64	20168	497983	0x52
03/06 11:14:56	 134	0	59	99	12	100	100	-1	-2	-64	20176	498100	0xd0
03/06 11:14:56	 135	0	59	99	12	100	100	-1	-2	-64	20167	498152	0xfc
03/06 11:14:56	 136	0	59	99	12	100	100	-1	-2	-64	20156	498214	0x31
03/06 11:14:56	 137	0	59	99	12	100	100	-1	-2	-64	20160	498325	0xa5
03/06 11:14:56	 138	0	59	99	12	100	100	-1	-2	-64	20154	498386	0xdd
03/06 11:14:56	 139	0	59	99	12	100	100	-1	-2	-64	20149	498439	0x0f
03/06 11:14:56	 140	0	59	99	12	100	100	-1	-2	-64	20153	498486	0x43
03/06 11:14:56	 141	0	59	99	12	100	100	-1	-2	-64	20148	498514	0x5b
03/06 11:14:56	 142	0	59	99	12	100	100	-1	-2	-64	20149	498534	0x71
03/06 11:14:56	 143	0	59	99	12	100	100	-1	-2	-64	20147	498516	0x5e
03/06 11:14:56	 144	0	59	99	12	100	100	-1	-2	-65	20148	498480	0x3b
03/06 11:14:56	 145	0	59	99	12	100	100	-1	-2	-65	20141	498367	0xc3
03/06 11:14:56	 146	0	59	99	12	100	100	-1	-2	-65	20149	498163	0xff
03/06 11:14:56	 147	0	59	99	12	100	100	-1	-2	-65	20146	497892	0xed
03/06 11:14:56	 148	0	59	99	12	100	100	-1	-2	-65	20144	497373	0xe3
03/06 11:14:56	 149	0	59	99	12	100	100	-1	-2	-65	20145	496739	0x69
03/06 11:14:56	 150	0	59	99	12	100	100	-1	-2	-65	20142	496002	0x83
03/06 11:14:56	 151	0	59	99	12	100	100	-1	-2	-65	20148	495210	0x6f
03/06 11:14:56	 152	0	59	99	12	100	100	-1	-2	-65	20137	494445	0x65
03/06 11:14:56	 153	0	59	99	12	100	100	-1	-2	-65	20145	493822	0xfc
03/06 11:14:56	 154	0	59	99	12	100	100	-1	-1	-64	20142	493279	0xdb
03/06 11:14:56	 155	0	59	99	12	100	100	-1	-1	-64	20141	492817	0x0c
03/06 11:14:56	 156	0	59	99	12	100	100	-1	-1	-64	20135	492569	0x0e
03/06 11:14:56	 157	0	59	99	12	100	100	-1	-1	-64	20139	492356	0x3d
03/06 11:14:56	 158	0	59	99	12	100	100	-1	-1	-64	20132	492282	0xec
03/06 11:14:56	 159	0	59	99	12	100	100	-1	-1	-64	20131	492279	0xe9
03/06 11:14:56	 160	0	59	99	12	100	100	-1	-1	-64	20137	492270	0xe7
03/06 11:14:56	 161	0	59	99	12	100	100	-1	-1	-64	20133	492320	0x17
03/06 11:14:56	 162	0	59	99	12	100	100	-1	-1	-64	20133	492387	0x5b
03/06 11:14:56	 163	0	59	99	12	100	100	-1	-1	-64	20134	492420	0x7e
03/06 11:14:56	 164	0	59	99	12	100	100	-1	-2	-64	20128	492428	0x80
03/06 11:14:56	 165	0	59	99	12	100	100	-1	-2	-64	20127	492428	0x80
03/06 11:14:56	 166	0	59	99	12	100	100	-1	-2	-64	20127	492368	0x45
03/06 11:14:56	 167	0	59	99	12	100	100	-1	-2	-64	20120	492286	0xec
03/06 11:14:56	 168	0	59	99	12	100	100	-1	-2	-64	20119	492223	0xad
03/06 11:14:56	 169	0	59	99	12	100	100	-1	-2	-64	20121	492158	0x6f
03/06 11:14:56	 170	0	59	99	12	100	100	-1	-2	-64	20114	492099	0x2e
03/06 11:14:56	 171	0	59	99	12	100	100	-1	-2	-64	20109	492065	0x08
03/06 11:14:56	 172	0	59	99	12	100	100	-1	-2	-64	20121	492020	0xe7
03/06 11:14:56	 173	8	60	99	12	99	97	-1	-2	-64	20110	492026	0xe8
03/06 11:14:56	 174	0	60	99	12	99	97	-1	-2	-65	20105	492076	0x0e
03/06 11:14:56	 175	0	60	99	12	99	97	-1	-2	-65	20106	492124	0x40
03/06 11:14:56	 176	0	60	99	12	99	97	-1	-2	-65	20107	492188	0x82
03/06 11:14:56	 177	0	60	99	12	99	97	-1	-2	-65	20100	492215	0x97
03/06 11:14:56	 178	0	60	99	12	99	97	-1	-2	-65	20098	492221	0x9c
03/06 11:14:56	 179	0	60	99	12	99	97	-1	-2	-65	20092	492239	0xa9
03/06 11:14:56	 180	0	60	99	12	99	97	-1	-2	-65	20090	492194	0x7b
03/06 11:14:56	 181	0	60	99	12	99	97	-1	-2	-65	20087	492134	0x3d
03/06 11:14:56	 182	0	60	99	12	99	97	-1	-2	-65	20081	492108	0x1e
03/06 11:14:56	 183	0	60	99	12	99	97	-1	-2	-65	20078	492083	0x03
03/06 11:14:56	 184	0	60	99	12	99	97	-1	-2	-64	20080	492056	0xec
03/06 11:14:56	 185	0	60	99	12	99	97	-1	-2	-64	20081	492025	0xce
03/06 11:14:56	 186	0	60	99	12	99	97	-1	-2	-64	20073	492004	0xb2
03/06 11:14:56	 187	0	60	99	12	99	97	-1	-2	-64	20077	492022	0xc9
03/06 11:14:56	 188	0	60	99	12	99	97	-1	-2	-64	20078	492065	0xf7
03/06 11:14:56	 189	0	60	99	12	99	97	-1	-2	-64	20072	492113	0x22
03/06 11:14:56	 190	0	60	99	12	99	97	-1	-2	-64	20082	492171	0x67
03/06 11:14:56	 191	0	60	99	12	99	97	-1	-2	-64	20080	492302	0xea
03/06 11:14:56	 192	0	60	99	12	99	97	-1	-2	-64	20074	492387	0x3a
03/06 11:14:56	 193	0	60	99	12	99	97	-1	-2	-64	20083	492510	0xbf
03/06 11:14:56	 194	0	60	99	12	99	97	-1	-2	-64	20077	492648	0x45
03/06 11:14:56	 195	0	60	99	12	99	97	-1	-2	-64	20073	492744	0xa2
03/06 11:14:56	 196	0	60	99	12	99	97	-1	-2	-64	20084	492838	0x0d
03/06 11:14:56	 197	0	60	99	12	99	97	-1	-2	-64	20077	492938	0x6b
03/06 11:14:56	 198	0	60	99	12	99	97	-1	-2	-64	20072	493052	0xd9
03/06 11:14:56	 199	0	60	99	12	99	97	-1	-2	-64	20074	493112	0x19
03/06 11:14:56	 200	0	60	99	12	99	97	-1	-2	-64	20072	493224	0x88
03/06 11:14:56	 201	0	60	99	12	99	97	-1	-2	-64	20071	493338	0xfb
03/06 11:14:56	 202	0	60	99	12	99	97	-1	-2	-64	20082	493430	0x63
03/06 11:14:56	 203	0	60	99	12	99	97	-1	-2	-64	20084	493556	0xe4
03/06 11:14:56	 204	0	60	99	12	99	97	0	-2	-64	20071	493645	0x33
03/06 11:14:56	 205	0	60	99	12	99	97	0	-2	-64	20081	493728	0x91
03/06 11:14:56	 206	0	60	99	12	99	97	0	-2	-64	20070	493792	0xc7
03/06 11:14:56	 207	0	60	99	12	99	97	0	-2	-64	20080	493864	0x1b
03/06 11:14:56	 208	0	60	99	12	99	97	0	-2	-64	20075	493948	0x6b
03/06 11:14:56	 209	0	60	99	12	99	97	0	-2	-64	20072	494018	0xaf
03/06 11:14:56	 210	0	60	99	12	99	97	0	-2	-64	20067	494079	0xe8
03/06 11:14:56	 211	0	60	99	12	99	97	0	-2	-64	20071	494206	0x6d
03/06 11:14:56	 212	0	60	99	12	99	97	0	-2	-64	20073	494283	0xbd
03/06 11:14:56	 213	0	60	99	12	99	97	0	-2	-64	20064	494337	0xec
03/06 11:14:56	 214	0	60	99	12	99	97	0	-2	-65	20071	494443	0x5d
03/06 11:14:57	 215	0	60	99	12	99	97	0	-2	-65	20069	494544	0xc1
03/06 11:14:57	 216	0	60	99	12	99	97	0	-2	-65	20066	494614	0x06
03/06 11:14:57	 217	0	60	99	12	99	97	0	-2	-65	20064	494722	0x71
03/06 11:14:57	 218	0	60	99	12	99	97	0	-2	-65	20058	494831	0xd9
03/06 11:14:57	 219	0	60	99	12	99	97	0	-2	-65	20055	494902	0x1f
03/06 11:14:57	 220	0	60	99	12	99	97	0	-2	-65	20062	494986	0x7b
03/06 11:14:57	 221	0	60	99	12	99	97	0	-2	-65	20059	495068	0xcb
03/06 11:14:57	 222	0	60	99	12	99	97	0	-2	-65	20064	495173	0x3b
03/06 11:14:57	 223	0	60	99	12	99	97	0	-2	-65	20067	495241	0x83
03/06 11:14:57	 224	0	60	99	12	99	97	-1	-2	-64	20060	495305	0xbd
03/06 11:14:57	 225	0	60	99	12	99	97	-1	-2	-64	20062	495437	0x45
03/06 11:14:57	 226	0	60	99	12	99	97	-1	-2	-64	20057	495514	0x8e
03/06 11:14:57	 227	0	60	99	12	99	97	-1	-2	-64	20055	495611	0xee
03/06 11:14:57	 228	0	60	99	12	99	97	-1	-2	-64	20054	495748	0x78
03/06 11:14:57	 229	0	60	99	12	99	97	-1	-2	-64	20049	495846	0xd6
03/06 11:14:57	 230	0	60	99	12	99	97	-1	-2	-64	20044	495943	0x34
03/06 11:14:57	 231	0	60	99	12	99	97	-1	-2	-64	20047	496048	0xa1
03/06 11:14:57	 232	0	60	99	12	99	97	-1	-2	-64	20046	496143	0x01
03/06 11:14:57	 233	0	60	99	12	99	97	-1	-2	-64	20046	496220	0x4f
03/06 11:14:57	 234	0	60	99	12	99	97	-1	-2	-64	20045	496302	0xa1
03/06 11:14:57	 235	0	60	99	12	99	97	-1	-2	-64	20042	496413	0x0f
03/06 11:14:57	 236	0	60	99	12	99	97	-1	-2	-64	20048	496504	0x71
03/06 11:14:57	 237	0	60	99	12	99	97	-1	-2	-64	20041	496617	0xdc
03/06 11:14:57	 238	0	60	99	12	99	97	-1	-2	-64	20040	496698	0x2e
03/06 11:14:57	 239	0	60	99	12	99	97	-1	-2	-64	20037	496786	0x84
03/06 11:14:57	 240	0	60	99	12	99	97	-1	-2	-64	20036	496892	0xee
03/06 11:14:57	 241	0	60	99	12	99	97	-1	-2	-64	20032	496934	0x16
03/06 11:14:57	 242	0	60	99	12	99	97	-1	-2	-64	20026	497011	0x5e
03/06 11:14:57	 243	0	60	99	12	99	97	-1	-2	-64	20025	497131	0xd6
03/06 11:14:57	 244	0	60	99	12	99	97	-1	-1	-64	20026	497210	0x29
03/06 11:14:57	 245	0	60	99	12	99	97	-1	-1	-64	20025	497301	0x84
03/06 11:14:57	 246	0	60	99	12	99	97	-1	-1	-64	20030	497382	0xdb
03/06 11:14:57	 247	0	60	99	12	99	97	-1	-1	-64	20027	497448	0x1c
03/06 11:14:57	 248	0	60	99	12	99	97	-1	-1	-64	20023	497501	0x4e
03/06 11:14:57	 249	0	60	99	12	99	97	-1	-1	-64	20030	497431	0x10
03/06 11:14:57	 250	0	60	99	12	99	97	-1	-1	-64	20033	497242	0x56
03/06 11:14:57	 251	0	60	99	12	99	97	-1	-1	-64	20038	496873	0xe9
03/06 11:14:57	 252	0	60	99	12	99	97	-1	-1	-64	20040	496327	0xc8
03/06 11:14:57	 253	0	60	99	12	99	97	-1	-1	-64	20039	495626	0x09
03/06 11:14:57	 254	0	60	99	12	99	97	0	-2	-64	20036	494821	0xde
03/06 11:14:57	 255	0	60	99	12	99	97	0	-2	-64	20042	494071	0xf4
03/06 11:14:57	 0	0	60	99	12	99	97	0	-2	-64	20039	493394	0x4b
03/06 11:14:57	 1	0	60	99	12	99	97	0	-2	-64	20036	492807	0xfc
03/06 11:14:57	 2	0	60	99	12	99	97	0	-2	-64	20044	492303	0x0b
03/06 11:14:57	 3	0	60	99	12	99	97	0	-2	-64	20037	491968	0xb4
03/06 11:14:57	 4	0	60	99	12	99	97	0	-2	-64	20030	491781	0xf3
03/06 11:14:57	 5	0	60	99	12	99	97	0	-2	-64	20033	491657	0x7a
03/06 11:14:57	 6	0	60	99	12	99	97	0	-2	-64	20031	491642	0x6a
03/06 11:14:57	 7	0	60	99	12	99	97	0	-2	-64	20028	491714	0xb0
03/06 11:14:57	 8	0	60	99	12	99	97	-1	-2	-64	20037	491812	0x1c
03/06 11:14:57	 9	0	60	99	12	99	97	-1	-2	-64	20030	491894	0x68
03/06 11:14:57	 10	0	60	99	12	99	97	-1	-2	-64	20025	491966	0xac
03/06 11:14:57	 11	0	60	99	12	99	97	-1	-2	-64	20034	492009	0xe1
03/06 11:14:57	 12	0	60	99	12	99	97	-1	-2	-64	20032	492026	0xf1
03/06 11:14:57	 13	0	60	99	12	99	97	-1	-2	-64	20028	492012	0xe0
03/06 11:14:57	 14	0	60	99	12	99	97	-1	-2	-64	20043	491952	0xb4
03/06 11:14:57	 15	0	60	99	12	99	97	-1	-2	-64	20037	491910	0x85
03/06 11:14:57	 16	0	60	99	12	99	97	-1	-2	-64	20031	491823	0x29
03/06 11:14:57	 17	0	60	99	12	99	97	-1	-2	-64	20037	491756	0xec
03/06 11:14:57	 18	0	60	99	12	99	97	-1	-2	-64	20036	491713	0xc1
03/06 11:14:57	 19	0	60	99	12	99	97	-1	-2	-64	20030	491686	0xa1
03/06 11:14:57	 20	8	60	99	12	100	103	-1	-2	-64	20037	491717	0xd7
03/06 11:14:57	 21	0	60	99	12	100	103	-1	-2	-64	20031	491759	0xf4
03/06 11:14:57	 22	0	60	99	12	100	103	-1	-2	-64	20027	491854	0x51
03/06 11:14:57	 23	0	60	99	12	100	103	-1	-2	-64	20032	491903	0x88
03/06 11:14:57	 24	0	60	99	12	100	103	-1	-2	-64	20034	491964	0xc8
03/06 11:14:57	 25	0	60	99	12	100	103	-1	-2	-64	20030	492026	0x03
03/06 11:14:57	 26	0	60	99	12	100	103	-1	-2	-64	20029	492061	0x27
03/06 11:14:57	 27	0	60	99	12	100	103	-1	-2	-64	20028	492079	0x39
03/06 11:14:57	 28	0	60	99	12	100	103	0	-2	-64	20026	492039	0x11
03/06 11:14:57	 29	0	60	99	12	100	103	0	-2	-64	20030	492023	0x05
03/06 11:14:57	 30	0	60	99	12	100	103	0	-2	-64	20029	491985	0xdf
03/06 11:14:57	 31	0	60	99	12	100	103	0	-2	-64	20031	491950	0xbf
03/06 11:14:57	 32	0	60	99	12	100	103	0	-2	-64	20029	491939	0xb3
03/06 11:14:57	 33	0	60	99	12	100	103	0	-2	-64	20028	491914	0x9a
03/06 11:14:57	 34	0	60	99	12	100	103	0	-2	-64	20024	491919	0x9c
03/06 11:14:57	 35	0	60	99	12	100	103	0	-2	-64	20025	491959	0xc6
03/06 11:14:57	 36	0	60	99	12	100	103	0	-2	-64	20025	491986	0xe2
03/06 11:14:57	 37	0	60	99	12	100	103	0	-2	-64	20021	492005	0xf2
03/06 11:14:57	 38	0	60	99	12	100	103	-1	-2	-64	20023	492102	0x56
03/06 11:14:57	 39	0	60	99	12	100	103	-1	-2	-64	20023	492199	0xb8
03/06 11:14:57	 40	0	60	99	12	100	103	-1	-2	-64	20011	492251	0xe1
03/06 11:14:57	 41	0	60	99	12	100	103	-1	-2	-64	20012	492366	0x57
03/06 11:14:57	 42	0	60	99	12	100	103	-1	-2	-64	20001	492475	0xba
03/06 11:14:57	 43	0	60	99	12	100	103	-1	-2	-64	20005	492551	0x0c
03/06 11:14:57	 44	0	60	99	12	100	103	-1	-2	-64	19987	492650	0x5e
03/06 11:14:57	 45	0	60	99	12	100	103	-1	-2	-64	19984	492743	0xb9
03/06 11:14:57	 46	0	60	99	12	100	103	-1	-2	-64	19982	492842	0x1c
03/06 11:14:57	 47	0	60	99	12	100	103	-1	-2	-64	19979	492952	0x88
03/06 11:14:57	 48	0	60	99	12	100	103	-1	-1	-64	19968	493059	0xeb
03/06 11:14:57	 49	0	60	99	12	100	103	-1	-1	-64	19963	493144	0x3b
03/06 11:14:57	 50	0	60	99	12	100	103	-1	-1	-64	19951	493218	0x7a
03/06 11:14:57	 51	0	60	99	12	100	103	-1	-1	-64	19948	493328	0xe7
03/06 11:14:57	 52	0	60	99	12	100	103	-1	-1	-64	19945	493413	0x3a
03/06 11:14:57	 53	0	60	99	12	100	103	-1	-1	-64	19940	493508	0x95
03/06 11:14:57	 54	0	60	99	12	100	103	-1	-1	-64	19940	493571	0xd6
03/06 11:14:57	 55	0	60	99	12	100	103	-1	-1	-64	19937	493631	0x10
03/06 11:14:57	 56	0	60	99	12	100	103	-1	-1	-64	19930	493733	0x70
03/06 11:14:57	 57	0	60	99	12	100	103	-1	-1	-64	19931	493793	0xae
03/06 11:14:57	 58	0	60	99	12	100	103	-1	-2	-64	19925	493825	0xc9
03/06 11:14:58	 59	0	60	99	12	100	103	-1	-2	-64	19923	493910	0x1d
03/06 11:14:58	 60	0	60	99	12	100	103	-1	-2	-64	19913	494017	0x7f
03/06 11:14:58	 61	0	60	99	12	100	103	-1	-2	-64	19914	494061	0xad
03/06 11:14:58	 62	0	60	99	12	100	103	-1	-2	-64	19909	494127	0xec
03/06 11:14:58	 63	0	60	99	12	100	103	-1	-2	-64	19903	494248	0x60
03/06 11:14:58	 64	0	60	99	12	100	103	-1	-2	-64	19898	494336	0xb5
03/06 11:14:58	 65	0	60	99	12	100	103	-1	-2	-64	19888	494398	0xea
03/06 11:14:58	 66	0	60	99	12	100	103	-1	-2	-64	19886	494492	0x47
