2096921,2096921, 304864, 446519
2096921,2096921, 304827, 446552
2096921,2096921, 305194, 446591
2096921,2096921, 304916, 446766
2096921,2096921, 305175, 447034
2096921,2096921, 305033, 447023
2096921,2096921, 305111, 446677
2096921,2096921, 305783, 447031
2096921,2096921, 306046, 447384
2096921,2096921, 305786, 447348
2096921,2096921, 306018, 447443
2096921,2096921, 305962, 447824
2096921,2096921, 306264, 447532
2096921,2096921, 306212, 447723
2096921,2096921, 306536, 447451
2096921,2096921, 306466, 447607
2096921,2096921, 306315, 447563
2096921,2096921, 306651, 447759
2096921,2096921, 307170, 448182
2096921,2096921, 307152, 448191
2096921,2096921, 306963, 448206
2096921,2096921, 307074, 448380
2096921,2096921, 307177, 448426
2096921,2096921, 307393, 448542
2096921,2096921, 307217, 448471
2096921,2096921, 307467, 448527
2096921,2096921, 307233, 448597
2096921,2096921, 307451, 448377
2096921,2096921, 307671, 448917
2096921,2096921, 307770, 448934
2096921,2096921, 307653, 449128
2096921,2096921, 307938, 449180
2096921,2096921, 307871, 449025
2096921,2096921, 308034, 449150
2096921,2096921, 307727, 449073
2096921,2096921, 307872, 448852
2096921,2096921, 307803, 448905
2096921,2096921, 308427, 448996
2096921,2096921, 308223, 448993
2096921,2096921, 308297, 449260
2096921,2096921, 308204, 449380
2096921,2096921, 308129, 449433
2096921,2096921, 308286, 449430
2096921,2096921, 308418, 449370
2096921,2096921, 308221, 449403
2096921,2096921, 308020, 449240
2096921,2096921, 308241, 449750
2096921,2096921, 308222, 449517
2096921,2096921, 308483, 449465
2096921,2096921, 308450, 449270
2096921,2096921, 308355, 449618
2096921,2096921, 308425, 449614
2096921,2096921, 308466, 449806
2096921,2096921, 308376, 449618
2096921,2096921, 308433, 449021
2096921,2096921, 308354, 449234
2096921,2096921, 308271, 449114
2096921,2096921, 308128, 449301
2096921,2096921, 308290, 449343
2096921,2096921, 308242, 449295
2096921,2096921, 308088, 449721
2096921,2096921, 308333, 449512
2096921,2096921, 308230, 449275
2096921,2096921, 307929, 448873
2096921,2096921, 307940, 449199
2096921,2096921, 307854, 449274
2096921,2096921, 307983, 449182
2096921,2096921, 307717, 449000
2096921,2096921, 307725, 448991
2096921,2096921, 307845, 448996
2096921,2096921, 308054, 448899
2096921,2096921, 308102, 449257
2096921,2096921, 307572, 449165
2096921,2096921, 307546, 449069
2096921,2096921, 307773, 448990
2096921,2096921, 307701, 448851
2096921,2096921, 307518, 449018
2096921,2096921, 307425, 449046
2096921,2096921, 307383, 448773
2096921,2096921, 307369, 449042
2096921,2096921, 307697, 448926
2096921,2096921, 307471, 448619
2096921,2096921, 307607, 448761
2096921,2096921, 307511, 448490
2096921,2096921, 307383, 448605
2096921,2096921, 307222, 448686
2096921,2096921, 307422, 448405
2096921,2096921, 307562, 448694
2096921,2096921, 307415, 448858
2096921,2096921, 307634, 449078
2096921,2096921, 307603, 449038
2096921,2096921, 307846, 448869
2096921,2096921, 307882, 449110
2096921,2096921, 307368, 449014
2096921,2096921, 307327, 448596
2096921,2096921, 307580, 448911
2096921,2096921, 307514, 448846
2096921,2096921, 307866, 448843
2096921,2096921, 307495, 448727
2096921,2096921, 307560, 448832
2096921,2096921, 307809, 448769
2096921,2096921, 307777, 448692
2096921,2096921, 307961, 449080
2096921,2096921, 307640, 448965
2096921,2096921, 307739, 448778
2096921,2096921, 307523, 448936
2096921,2096921, 307629, 448910
2096921,2096921, 308074, 448795
2096921,2096921, 308087, 449180
2096921,2096921, 308337, 449573
2096921,2096921, 308086, 449330
2096921,2096921, 308344, 449497
2096921,2096921, 308634, 449505
2096921,2096921, 308518, 449530
2096921,2096921, 308518, 449804
2096921,2096921, 308357, 449484
2096921,2096921, 308649, 449775
2096921,2096921, 308619, 449530
2096921,2096921, 309054, 449726
2096921,2096921, 309061, 450027
2096921,2096921, 309278, 450020
2096921,2096921, 309263, 450536
2096921,2096921, 309486, 450076
2096921,2096921, 309578, 450254
2096921,2096921, 309241, 450320
2096921,2096921, 309221, 450016
2096921,2096921, 309329, 450237
2096921,2096921, 309536, 450209
2096921,2096921, 309596, 450717
2096921,2096921, 309642, 450580
2096921,2096921, 309814, 450969
2096921,2096921, 309590, 451124
2096921,2096921, 309991, 450879
2096921,2096921, 309760, 450680
2096921,2096921, 309964, 450987
2096921,2096921, 310035, 450880
2096921,2096921, 309618, 450666
2096921,2096921, 310221, 450844
2096921,2096921, 310199, 451157
2096921,2096921, 310294, 451150
2096921,2096921, 310352, 451192
2096921,2096921, 310546, 451168
2096921,2096921, 310477, 450915
2096921,2096921, 310567, 451288
2096921,2096921, 310514, 451371
2096921,2096921, 310628, 451296
2096921,2096921, 310571, 451196
2096921,2096921, 310962, 451407
2096921,2096921, 310883, 451640
2096921,2096921, 311109, 451898
2096921,2096921, 311128, 451789
2096921,2096921, 311453, 451477
2096921,2096921, 311141, 451633
2096921,2096921, 311174, 451819
2096921,2096921, 311152, 451976
2096921,2096921, 310857, 451946
2096921,2096921, 311122, 451440
2096921,2096921, 311397, 451946
2096921,2096921, 311397, 451979
2096921,2096921, 311393, 451953
2096921,2096921, 311734, 452079
2096921,2096921, 311546, 452137
2096921,2096921, 311579, 452083
2096921,2096921, 311623, 452374
2096921,2096921, 311822, 452460
2096921,2096921, 311846, 451877
2096921,2096921, 311706, 452219
2096921,2096921, 311751, 452429
2096921,2096921, 312109, 452518
2096921,2096921, 312315, 452637
2096921,2096921, 312125, 452954
2096921,2096921, 312203, 452728
2096921,2096921, 312290, 452641
2096921,2096921, 312114, 452764
2096921,2096921, 312363, 452323
2096921,2096921, 311943, 452475
2096921,2096921, 312147, 452595
2096921,2096921, 312539, 452829
2096921,2096921, 312422, 453272
2096921,2096921, 312854, 453155
2096921,2096921, 312710, 453214
2096921,2096921, 312690, 452999
2096921,2096921, 312763, 453014
2096921,2096921, 312757, 453186
2096921,2096921, 312690, 453280
2096921,2096921, 312979, 453016
2096921,2096921, 312849, 453029
2096921,2096921, 312896, 453105
2096921,2096921, 312717, 453484
2096921,2096921, 313314, 453681
2096921,2096921, 313143, 453581
2096921,2096921, 313098, 453258
2096921,2096921, 313279, 453408
2096921,2096921, 313508, 453423
2096921,2096921, 313509, 453519
2096921,2096921, 313307, 453374
2096921,2096921, 313377, 453320
2096921,2096921, 313585, 453468
2096921,2096921, 313474, 453633
2096921,2096921, 313502, 454022
2096921,2096921, 313357, 453935
2096921,2096921, 313459, 453885
2096921,2096921, 313595, 453729
2096921,2096921, 313225, 453789
2096921,2096921, 313279, 453862
2096921,2096921, 313416, 453919
2096921,2096921, 313438, 453976
2096921,2096921, 313963, 454081
2096921,2096921, 314060, 454082
2096921,2096921, 313976, 454247
2096921,2096921, 314086, 453994
2096921,2096921, 313868, 454166
2096921,2096921, 313901, 454435
2096921,2096921, 314028, 454124
2096921,2096921, 314029, 454050
2096921,2096921, 313932, 454403
2096921,2096921, 314008, 454306
2096921,2096921, 314313, 454276
2096921,2096921, 314255, 454159
2096921,2096921, 314381, 454535
2096921,2096921, 314168, 454606
2096921,2096921, 314012, 454344
2096921,2096921, 314519, 454752
2096921,2096921, 314373, 454635
2096921,2096921, 314405, 454478
2096921,2096921, 314269, 454603
2096921,2096921, 314355, 454579
2096921,2096921, 314556, 454496
2096921,2096921, 314584, 455028
2096921,2096921, 314845, 454814
2096921,2096921, 314790, 455119
2096921,2096921, 314761, 454880
2096921,2096921, 314799, 455042
2096921,2096921, 314680, 454894
2096921,2096921, 314918, 454611
2096921,2096921, 314669, 454149
2096921,2096921, 314806, 454420
2096921,2096921, 315005, 454481
2096921,2096921, 315096, 454841
2096921,2096921, 315205, 455177
2096921,2096921, 314822, 454962
2096921,2096921, 314791, 454928
2096921,2096921, 314888, 455075
2096921,2096921, 315047, 455074
2096921,2096921, 315017, 454939
2096921,2096921, 315404, 454909
2096921,2096921, 315134, 455009
2096921,2096921, 315253, 454939
2096921,2096921, 315142, 455174
2096921,2096921, 315221, 455198
2096921,2096921, 315236, 455278
2096921,2096921, 315118, 455280
2096921,2096921, 315065, 455179
2096921,2096921, 315135, 454824
2096921,2096921, 315222, 454807
2096921,2096921, 315097, 455026
2096921,2096921, 314991, 455093
2096921,2096921, 315218, 455129
2096921,2096921, 315504, 455281
2096921,2096921, 315561, 455726
2096921,2096921, 315267, 455577
2096921,2096921, 315577, 455559
2096921,2096921, 315540, 455523
2096921,2096921, 315434, 455921
2096921,2096921, 315419, 455498
2096921,2096921, 315409, 455478
2096921,2096921, 315287, 455217
2096921,2096921, 315329, 455370
2096921,2096921, 315568, 455430
2096921,2096921, 315594, 455492
2096921,2096921, 315592, 455578
2096921,2096921, 315652, 455782
2096921,2096921, 315502, 455385
2096921,2096921, 315654, 455614
2096921,2096921, 315623, 455500
2096921,2096921, 315570, 455458
2096921,2096921, 315725, 455627
2096921,2096921, 315742, 455576
2096921,2096921, 315722, 455785
2096921,2096921, 315659, 455711
2096921,2096921, 316075, 455705
2096921,2096921, 315657, 455604
2096921,2096921, 315872, 455667
2096921,2096921, 316136, 455514
2096921,2096921, 315964, 455727
2096921,2096921, 315639, 455524
2096921,2096921, 315995, 455548
2096921,2096921, 315909, 455759
2096921,2096921, 315731, 456019
2096921,2096921, 316111, 456188
2096921,2096921, 316019, 455769
2096921,2096921, 316051, 455816
2096921,2096921, 316097, 455779
2096921,2096921, 316288, 455996
2096921,2096921, 316121, 456143
2096921,2096921, 315795, 456184
2096921,2096921, 315947, 455774
2096921,2096921, 316229, 455921
2096921,2096921, 316294, 456257
2096921,2096921, 316263, 456017
2096921,2096921, 316590, 455715
2096921,2096921, 316493, 456084
2096921,2096921, 316033, 456046
2096921,2096921, 316060, 455778
2096921,2096921, 316342, 455905
2096921,2096921, 316339, 455871
2096921,2096921, 316387, 455830
2096921,2096921, 316113, 455816
2096921,2096921, 316444, 456298
2096921,2096921, 316704, 456613
2096921,2096921, 316471, 456252
2096921,2096921, 316417, 456282
2096921,2096921, 316256, 456089
2096921,2096921, 316151, 456007
2096921,2096921, 315991, 455662
2096921,2096921, 316253, 455931
2096921,2096921, 316411, 455848
2096921,2096921, 316500, 456033
2096921,2096921, 316433, 456474
2096921,2096921, 316739, 456126
2096921,2096921, 316772, 456342
2096921,2096921, 316562, 456368
2096921,2096921, 316493, 456144
2096921,2096921, 316465, 455942
2096921,2096921, 316562, 456263
2096921,2096921, 316319, 455846
2096921,2096921, 316517, 455976
2096921,2096921, 316461, 456039
2096921,2096921, 316840, 456304
2096921,2096921, 316769, 456406
2096921,2096921, 316665, 456356
2096921,2096921, 316652, 456257
2096921,2096921, 317045, 456266
2096921,2096921, 316586, 456106
2096921,2096921, 316500, 456090
2096921,2096921, 316350, 456080
2096921,2096921, 316310, 456282
2096921,2096921, 316569, 456161
2096921,2096921, 316867, 456401
2096921,2096921, 316381, 456707
2096921,2096921, 316363, 456619
2096921,2096921, 316591, 456620
2096921,2096921, 316445, 456046
2096921,2096921, 316471, 456276
2096921,2096921, 316243, 456211
2096921,2096921, 316188, 456170
2096921,2096921, 316389, 456235
2096921,2096921, 316524, 456469
2096921,2096921, 316386, 456396
2096921,2096921, 316527, 456229
2096921,2096921, 316629, 456480
2096921,2096921, 316816, 456466
2096921,2096921, 316807, 456235
2096921,2096921, 316625, 455973
2096921,2096921, 316629, 456193
2096921,2096921, 316428, 456294
2096921,2096921, 316584, 456141
2096921,2096921, 316692, 456400
2096921,2096921, 316657, 456573
2096921,2096921, 316707, 456266
2096921,2096921, 316617, 456304
2096921,2096921, 316498, 456588
2096921,2096921, 316575, 456470
2096921,2096921, 316642, 456241
2096921,2096921, 316270, 456030
2096921,2096921, 316195, 455948
2096921,2096921, 316538, 456076
2096921,2096921, 316683, 456048
2096921,2096921, 316850, 456174
2096921,2096921, 316495, 456234
2096921,2096921, 316531, 456583
2096921,2096921, 316628, 456464
2096921,2096921, 316056, 456225
2096921,2096921, 315759, 455495
2096921,2096921, 315922, 455317
2096921,2096921, 315853, 455846
2096921,2096921, 315798, 455844
2096921,2096921, 315762, 455614
2096921,2096921, 315679, 455563
2096921,2096921, 315571, 455656
2096921,2096921, 315992, 455607
2096921,2096921, 315674, 455585
2096921,2096921, 314860, 455512
2096921,2096921, 314862, 455062
2096921,2096921, 314575, 454894
2096921,2096921, 314636, 454693
2096921,2096921, 314806, 454881
2096921,2096921, 313835, 454930
2096921,2096921, 313909, 454093
2096921,2096921, 313929, 454043
2096921,2096921, 313671, 454017
2096921,2096921, 313642, 454145
2096921,2096921, 312845, 454004
2096921,2096921, 312849, 453330
2096921,2096921, 312329, 453039
2096921,2096921, 312587, 452868
2096921,2096921, 312666, 453165
2096921,2096921, 310794, 453181
2096921,2096921, 310396, 451638
2096921,2096921, 310194, 451295
2096921,2096921, 310384, 451301
2096921,2096921, 310429, 451251
2096921,2096921, 308127, 451266
2096921,2096921, 307455, 448969
2096921,2096921, 307286, 448782
2096921,2096921, 307292, 448519
2096921,2096921, 307238, 448397
2096921,2096921, 305723, 448488
2096921,2096921, 305381, 447285
2096921,2096921, 305158, 446873
2096921,2096921, 305252, 447131
2096921,2096921, 305399, 446909
2096921,2096921, 303914, 446982
2096921,2096921, 303369, 445791
2096921,2096921, 303357, 445454
2096921,2096921, 303331, 445515
2096921,2096921, 303399, 445301
2096921,2096921, 302618, 445471
2096921,2096921, 302379, 444524
2096921,2096921, 302239, 444363
2096921,2096921, 302441, 444489
2096921,2096921, 302454, 444470
2096921,2096921, 301522, 444508
2096921,2096921, 301214, 443554
2096921,2096921, 301418, 443392
2096921,2096921, 301232, 443457
2096921,2096921, 301181, 443256
2096921,2096921, 300805, 443511
2096921,2096921, 300784, 443102
2096921,2096921, 300825, 443348
2096921,2096921, 300933, 443185
2096921,2096921, 300866, 443170
2096921,2096921, 300272, 443013
2096921,2096921, 299850, 442901
2096921,2096921, 300283, 442845
2096921,2096921, 300381, 442706
2096921,2096921, 300376, 442646
2096921,2096921, 300307, 442755
2096921,2096921, 300006, 442612
2096921,2096921, 300115, 442699
2096921,2096921, 300473, 442761
2096921,2096921, 300341, 442554
2096921,2096921, 300272, 442602
2096921,2096921, 300258, 442424
2096921,2096921, 299862, 442525
2096921,2096921, 300192, 442657
2096921,2096921, 299998, 442574
2096921,2096921, 300765, 442575
2096921,2096921, 300422, 442831
2096921,2096921, 300563, 442959
2096921,2096921, 300565, 443063
2096921,2096921, 300171, 442931
2096921,2096921, 300523, 442824
2096921,2096921, 300380, 442837
2096921,2096921, 300302, 442917
2096921,2096921, 300267, 442940
2096921,2096921, 300439, 442771
2096921,2096921, 300672, 442977
2096921,2096921, 300740, 443322
2096921,2096921, 300701, 443258
2096921,2096921, 300959, 443342
2096921,2096921, 300916, 443321
2096921,2096921, 301091, 443149
2096921,2096921, 301200, 443174
2096921,2096921, 301134, 443141
2096921,2096921, 301037, 443308
2096921,2096921, 301211, 443408
2096921,2096921, 301465, 443771
2096921,2096921, 301930, 443895
2096921,2096921, 301718, 444004
2096921,2096921, 301987, 444058
2096921,2096921, 301512, 444014
2096921,2096921, 301874, 443949
2096921,2096921, 301932, 444172
2096921,2096921, 302266, 444347
2096921,2096921, 302099, 444589
2096921,2096921, 302150, 444259
2096921,2096921, 302740, 444397
2096921,2096921, 302744, 444400
2096921,2096921, 302856, 444868
2096921,2096921, 302714, 444863
2096921,2096921, 302633, 444934
2096921,2096921, 303240, 444987
2096921,2096921, 303127, 445109
2096921,2096921, 303017, 445110
2096921,2096921, 303162, 445011
2096921,2096921, 302898, 445305
2096921,2096921, 303647, 445319
2096921,2096921, 303931, 445736
2096921,2096921, 303954, 445866
2096921,2096921, 303926, 445797
2096921,2096921, 303708, 445556
2096921,2096921, 304095, 445794
2096921,2096921, 304360, 445866
2096921,2096921, 304361, 445691
2096921,2096921, 304285, 445857
2096921,2096921, 304105, 445669
2096921,2096921, 304686, 446099
2096921,2096921, 304585, 446503
2096921,2096921, 304763, 446633
2096921,2096921, 304723, 446387
2096921,2096921, 304729, 446401
2096921,2096921, 305220, 446537
2096921,2096921, 305029, 446850
2096921,2096921, 305077, 446767
2096921,2096921, 305115, 446596
2096921,2096921, 305181, 446871
2096921,2096921, 306165, 447159
2096921,2096921, 305937, 447466
2096921,2096921, 306212, 447680
2096921,2096921, 306124, 447512
2096921,2096921, 305620, 447690
2096921,2096921, 306218, 447600
2096921,2096921, 306263, 447645
2096921,2096921, 306402, 447628
2096921,2096921, 306148, 447654
2096921,2096921, 306500, 447589
2096921,2096921, 306942, 447863
2096921,2096921, 307029, 447969
2096921,2096921, 307336, 448156
2096921,2096921, 306947, 448188
2096921,2096921, 306947, 448268
2096921,2096921, 307392, 448192
2096921,2096921, 307326, 448298
2096921,2096921, 307276, 448237
2096921,2096921, 307011, 448579
2096921,2096921, 307456, 448477
2096921,2096921, 307390, 448684
2096921,2096921, 307875, 448526
2096921,2096921, 307713, 449091
2096921,2096921, 307817, 448900
2096921,2096921, 307638, 448712
2096921,2096921, 308114, 448881
2096921,2096921, 307752, 449102
2096921,2096921, 307916, 449097
2096921,2096921, 308213, 448885
2096921,2096921, 307672, 449056
2096921,2096921, 308185, 449240
2096921,2096921, 308158, 449355
2096921,2096921, 308159, 449426
2096921,2096921, 308464, 449469
2096921,2096921, 308370, 449144
2096921,2096921, 308402, 449177
2096921,2096921, 308167, 449488
2096921,2096921, 308086, 449370
2096921,2096921, 308153, 449165
2096921,2096921, 308160, 449462
2096921,2096921, 308401, 449371
2096921,2096921, 308623, 449312
2096921,2096921, 308480, 449592
2096921,2096921, 308559, 449550
2096921,2096921, 308196, 449583
2096921,2096921, 308271, 449452
2096921,2096921, 308194, 449019
2096921,2096921, 308047, 449085
2096921,2096921, 308347, 449179
2096921,2096921, 308428, 449212
2096921,2096921, 308377, 449450
2096921,2096921, 308354, 449242
2096921,2096921, 308243, 449266
2096921,2096921, 308424, 449330
2096921,2096921, 308289, 449295
2096921,2096921, 308220, 449311
2096921,2096921, 307744, 449131
2096921,2096921, 307808, 448960
2096921,2096921, 307867, 449213
2096921,2096921, 308140, 449334
2096921,2096921, 307964, 449320
2096921,2096921, 307904, 449070
2096921,2096921, 307888, 448982
2096921,2096921, 307769, 449147
2096921,2096921, 307907, 449312
2096921,2096921, 307621, 448882
2096921,2096921, 307676, 448899
2096921,2096921, 307535, 448992
2096921,2096921, 307608, 449016
2096921,2096921, 307640, 449024
2096921,2096921, 307358, 449107
2096921,2096921, 307673, 448951
2096921,2096921, 307763, 448669
2096921,2096921, 307437, 448782
2096921,2096921, 307415, 448758
2096921,2096921, 307554, 448685
2096921,2096921, 307566, 448460
2096921,2096921, 307525, 448769
2096921,2096921, 307283, 448916
2096921,2096921, 307286, 448779
2096921,2096921, 307529, 448625
2096921,2096921, 307646, 448832
2096921,2096921, 307731, 448783
2096921,2096921, 307691, 449010
2096921,2096921, 307564, 448826
2096921,2096921, 307359, 448816
2096921,2096921, 307407, 448617
2096921,2096921, 307118, 448747
2096921,2096921, 307475, 448781
2096921,2096921, 307456, 448684
2096921,2096921, 307598, 448729
2096921,2096921, 307819, 449155
2096921,2096921, 307999, 449033
2096921,2096921, 307699, 449211
2096921,2096921, 307660, 448800
2096921,2096921, 307513, 448958
2096921,2096921, 307906, 449004
2096921,2096921, 307605, 448939
2096921,2096921, 307685, 449297
2096921,2096921, 307812, 449202
2096921,2096921, 308252, 448887
2096921,2096921, 308326, 449189
2096921,2096921, 308343, 449794
2096921,2096921, 308568, 449533
2096921,2096921, 308589, 449238
2096921,2096921, 308511, 449369
2096921,2096921, 308640, 449792
2096921,2096921, 308491, 449489
2096921,2096921, 308531, 449846
2096921,2096921, 308678, 449706
2096921,2096921, 308729, 449455
2096921,2096921, 309136, 449741
2096921,2096921, 309241, 449893
2096921,2096921, 309134, 449889
2096921,2096921, 308825, 450167
2096921,2096921, 308990, 450100
2096921,2096921, 309160, 449916
2096921,2096921, 309196, 450084
2096921,2096921, 309179, 450370
2096921,2096921, 309671, 450192
2096921,2096921, 309719, 450131
2096921,2096921, 309827, 450331
2096921,2096921, 309686, 450528
2096921,2096921, 309835, 450630
2096921,2096921, 309701, 450718
2096921,2096921, 310004, 450510
2096921,2096921, 309953, 450914
2096921,2096921, 310088, 450904
2096921,2096921, 309493, 450862
2096921,2096921, 309847, 450956
2096921,2096921, 310377, 451189
2096921,2096921, 310490, 451217
2096921,2096921, 310501, 451189
2096921,2096921, 310684, 451171
2096921,2096921, 310259, 451322
2096921,2096921, 310422, 451162
2096921,2096921, 310605, 451159
2096921,2096921, 310565, 451203
2096921,2096921, 310377, 451259
2096921,2096921, 310582, 451577
2096921,2096921, 310985, 451485
2096921,2096921, 311120, 451409
2096921,2096921, 311126, 451634
2096921,2096921, 311036, 452026
2096921,2096921, 310783, 451791
2096921,2096921, 311024, 451721
2096921,2096921, 311185, 451655
2096921,2096921, 311136, 451725
2096921,2096921, 310952, 452020
2096921,2096921, 311249, 451701
2096921,2096921, 311429, 451488
2096921,2096921, 311527, 452094
2096921,2096921, 311417, 452008
2096921,2096921, 311439, 452168
2096921,2096921, 311586, 452238
2096921,2096921, 311660, 452168
2096921,2096921, 311606, 452117
2096921,2096921, 311839, 452194
2096921,2096921, 311507, 452144
2096921,2096921, 312009, 452607
2096921,2096921, 312044, 452312
2096921,2096921, 312129, 452548
2096921,2096921, 312030, 452927
2096921,2096921, 312382, 452732
2096921,2096921, 312249, 452664
2096921,2096921, 312351, 452719
2096921,2096921, 312472, 452710
2096921,2096921, 312252, 452635
2096921,2096921, 312120, 452662
2096921,2096921, 312303, 452719
2096921,2096921, 312468, 452877
2096921,2096921, 312826, 452855
2096921,2096921, 312729, 452848
2096921,2096921, 312466, 453227
2096921,2096921, 312821, 453385
2096921,2096921, 312828, 453158
2096921,2096921, 312772, 453133
2096921,2096921, 312987, 452829
2096921,2096921, 312625, 453126
2096921,2096921, 312480, 453301
2096921,2096921, 313118, 453188
2096921,2096921, 313119, 453189
2096921,2096921, 313048, 453606
2096921,2096921, 313446, 453694
2096921,2096921, 313150, 453570
2096921,2096921, 313153, 453393
2096921,2096921, 312842, 453181
2096921,2096921, 313171, 453633
2096921,2096921, 312944, 453853
2096921,2096921, 313189, 453606
2096921,2096921, 313458, 453492
2096921,2096921, 313720, 453441
2096921,2096921, 313647, 453749
2096921,2096921, 313566, 454240
2096921,2096921, 313467, 453635
2096921,2096921, 313788, 453976
2096921,2096921, 313620, 453879
2096921,2096921, 313576, 454143
2096921,2096921, 313592, 453877
2096921,2096921, 313620, 453900
2096921,2096921, 314007, 453857
2096921,2096921, 313934, 453840
2096921,2096921, 313992, 454011
2096921,2096921, 313776, 454275
2096921,2096921, 313815, 454324
2096921,2096921, 314026, 454086
2096921,2096921, 314205, 454114
2096921,2096921, 314002, 454114
2096921,2096921, 314023, 454329
2096921,2096921, 314057, 453848
2096921,2096921, 314061, 454045
2096921,2096921, 314381, 454414
2096921,2096921, 314194, 454789
2096921,2096921, 314217, 454290
2096921,2096921, 314173, 454417
2096921,2096921, 314451, 454230
2096921,2096921, 314057, 454176
2096921,2096921, 314336, 454448
2096921,2096921, 314621, 454498
2096921,2096921, 314349, 454493
2096921,2096921, 314738, 454750
2096921,2096921, 314449, 454476
2096921,2096921, 314685, 454583
2096921,2096921, 314854, 454688
2096921,2096921, 314692, 454739
2096921,2096921, 314531, 454562
2096921,2096921, 314565, 454917
2096921,2096921, 314550, 455102
2096921,2096921, 314596, 454828
2096921,2096921, 315010, 454702
2096921,2096921, 315062, 454662
2096921,2096921, 315417, 454802
2096921,2096921, 315151, 455113
2096921,2096921, 315219, 454922
2096921,2096921, 315072, 455067
2096921,2096921, 314934, 454903
2096921,2096921, 315096, 454789
2096921,2096921, 315043, 455078
2096921,2096921, 315106, 454843
2096921,2096921, 315128, 454842
2096921,2096921, 315148, 454723
2096921,2096921, 315325, 455238
2096921,2096921, 315274, 455182
2096921,2096921, 315460, 455261
2096921,2096921, 315033, 455245
2096921,2096921, 315140, 454993
2096921,2096921, 315197, 455187
2096921,2096921, 314994, 455354
2096921,2096921, 315496, 455371
2096921,2096921, 314998, 455528
2096921,2096921, 315388, 455396
2096921,2096921, 315486, 455435
2096921,2096921, 315660, 455258
2096921,2096921, 315658, 455411
2096921,2096921, 315605, 455235
2096921,2096921, 315662, 455384
2096921,2096921, 315562, 455451
2096921,2096921, 315647, 455434
2096921,2096921, 315409, 455200
2096921,2096921, 315524, 455419
2096921,2096921, 315747, 455486
2096921,2096921, 315615, 455712
2096921,2096921, 315818, 455705
2096921,2096921, 315760, 455703
2096921,2096921, 315407, 455340
2096921,2096921, 315719, 455504
2096921,2096921, 315622, 455379
2096921,2096921, 315834, 455598
2096921,2096921, 315749, 455622
2096921,2096921, 315717, 455611
2096921,2096921, 315982, 455629
2096921,2096921, 315942, 455493
2096921,2096921, 315873, 455839
2096921,2096921, 316016, 455825
2096921,2096921, 315650, 455737
2096921,2096921, 315711, 455592
2096921,2096921, 315652, 455602
2096921,2096921, 315776, 455749
2096921,2096921, 315882, 455707
2096921,2096921, 315844, 455819
2096921,2096921, 315980, 455645
2096921,2096921, 316327, 455764
2096921,2096921, 316077, 455650
2096921,2096921, 316162, 455856
2096921,2096921, 315978, 455656
2096921,2096921, 316016, 455333
2096921,2096921, 315991, 455811
2096921,2096921, 315832, 455967
2096921,2096921, 315954, 455971
2096921,2096921, 315916, 455824
2096921,2096921, 316272, 455731
2096921,2096921, 316415, 455942
2096921,2096921, 316022, 456270
2096921,2096921, 315944, 456232
2096921,2096921, 316264, 456034
2096921,2096921, 316155, 456042
2096921,2096921, 316222, 455892
2096921,2096921, 316249, 456082
2096921,2096921, 316216, 456020
2096921,2096921, 316274, 455814
2096921,2096921, 316410, 456146
2096921,2096921, 316112, 456274
2096921,2096921, 316288, 456373
2096921,2096921, 316092, 456483
2096921,2096921, 316272, 456328
2096921,2096921, 316476, 456388
2096921,2096921, 316323, 456257
2096921,2096921, 316215, 456237
2096921,2096921, 316267, 456029
2096921,2096921, 316349, 456218
2096921,2096921, 316350, 456053
2096921,2096921, 316276, 456252
2096921,2096921, 316452, 456080
2096921,2096921, 316481, 456368
2096921,2096921, 316393, 456065
2096921,2096921, 316344, 456131
2096921,2096921, 316556, 456297
2096921,2096921, 316434, 456528
2096921,2096921, 316575, 456161
2096921,2096921, 316723, 456381
2096921,2096921, 316514, 456198
2096921,2096921, 316578, 456478
2096921,2096921, 316564, 456385
2096921,2096921, 316543, 456507
2096921,2096921, 316490, 456460
2096921,2096921, 316415, 456198
2096921,2096921, 316464, 456238
2096921,2096921, 316422, 455961
2096921,2096921, 316216, 456184
2096921,2096921, 316497, 456186
2096921,2096921, 316782, 456279
2096921,2096921, 316709, 456223
2096921,2096921, 316741, 456210
2096921,2096921, 316628, 456254
2096921,2096921, 316455, 456422
2096921,2096921, 316401, 456436
2096921,2096921, 316450, 456196
2096921,2096921, 316330, 455862
2096921,2096921, 316255, 456133
2096921,2096921, 316428, 456316
2096921,2096921, 316470, 456205
2096921,2096921, 316567, 456082
2096921,2096921, 316860, 456276
2096921,2096921, 316712, 456255
2096921,2096921, 316675, 456204
2096921,2096921, 316342, 456295
2096921,2096921, 316421, 456411
2096921,2096921, 316365, 456292
2096921,2096921, 316495, 456085
2096921,2096921, 316614, 456175
2096921,2096921, 316310, 456314
2096921,2096921, 316731, 456462
2096921,2096921, 316728, 456206
2096921,2096921, 316473, 456064
2096921,2096921, 316677, 455936
2096921,2096921, 316350, 456176
2096921,2096921, 316344, 456364
2096921,2096921, 316602, 456153
2096921,2096921, 316518, 456025
2096921,2096921, 316271, 455961
2096921,2096921, 316742, 456160
2096921,2096921, 316669, 456563
2096921,2096921, 316558, 456081
2096921,2096921, 316544, 456411
2096921,2096921, 316511, 456323
2096921,2096921, 316120, 456385
2096921,2096921, 316075, 456095
2096921,2096921, 316056, 455834
2096921,2096921, 316052, 455717
2096921,2096921, 316134, 455732
2096921,2096921, 315453, 455848
2096921,2096921, 315494, 455534
2096921,2096921, 315849, 455529
2096921,2096921, 315427, 455406
2096921,2096921, 315591, 455410
2096921,2096921, 314951, 455292
2096921,2096921, 314884, 455104
2096921,2096921, 314781, 454706
2096921,2096921, 314509, 454676
2096921,2096921, 314691, 454835
2096921,2096921, 313979, 454964
2096921,2096921, 313832, 454346
2096921,2096921, 313851, 454038
2096921,2096921, 313797, 453947
2096921,2096921, 313902, 453981
2096921,2096921, 312893, 453857
2096921,2096921, 312547, 453048
2096921,2096921, 312535, 452899
2096921,2096921, 312521, 452715
2096921,2096921, 312735, 452979
2096921,2096921, 310892, 453103
2096921,2096921, 310386, 451627
2096921,2096921, 310489, 451215
2096921,2096921, 310371, 451054
2096921,2096921, 310471, 451087
2096921,2096921, 307761, 451099
2096921,2096921, 307284, 449187
2096921,2096921, 307349, 448720
2096921,2096921, 307324, 448525
2096921,2096921, 307183, 448432
2096921,2096921, 305590, 448349
2096921,2096921, 305238, 446923
2096921,2096921, 305255, 446871
2096921,2096921, 305211, 446973
2096921,2096921, 305259, 446870
2096921,2096921, 303717, 446798
2096921,2096921, 303508, 445426
2096921,2096921, 303587, 445190
2096921,2096921, 303356, 445305
2096921,2096921, 303056, 445194
2096921,2096921, 302277, 445298
2096921,2096921, 302169, 444504
2096921,2096921, 302023, 444437
2096921,2096921, 302049, 444277
2096921,2096921, 302055, 444398
2096921,2096921, 301457, 444268
2096921,2096921, 301234, 443563
2096921,2096921, 301337, 443430
2096921,2096921, 301130, 443410
2096921,2096921, 301081, 443355
2096921,2096921, 301022, 443511
2096921,2096921, 301064, 443113
2096921,2096921, 300799, 443030
2096921,2096921, 300861, 442962
2096921,2096921, 300856, 443255
2096921,2096921, 300519, 442950
2096921,2096921, 300269, 442766
2096921,2096921, 300210, 442403
2096921,2096921, 300342, 442679
2096921,2096921, 300331, 442763
2096921,2096921, 300193, 442976
2096921,2096921, 300259, 442612
2096921,2096921, 300002, 442573
2096921,2096921, 300070, 442899
2096921,2096921, 299897, 442653
2096921,2096921, 300130, 442571
2096921,2096921, 300153, 442367
2096921,2096921, 299972, 442460
2096921,2096921, 299892, 442391
2096921,2096921, 300189, 442473
2096921,2096921, 300200, 442402
2096921,2096921, 300341, 442835
2096921,2096921, 300494, 443168
2096921,2096921, 300326, 443080
2096921,2096921, 300446, 442814
2096921,2096921, 300381, 442802
2096921,2096921, 300242, 442752
2096921,2096921, 300250, 443004
2096921,2096921, 300624, 442866
2096921,2096921, 300482, 442844
2096921,2096921, 300885, 442930
2096921,2096921, 300528, 443241
2096921,2096921, 300689, 443254
2096921,2096921, 300963, 443210
2096921,2096921, 300751, 443073
2096921,2096921, 301092, 443087
2096921,2096921, 300989, 443499
2096921,2096921, 301057, 443552
2096921,2096921, 301046, 443466
2096921,2096921, 301303, 443279
2096921,2096921, 301804, 443484
2096921,2096921, 301777, 443645
2096921,2096921, 301818, 443861
2096921,2096921, 301940, 443763
2096921,2096921, 301620, 444005
2096921,2096921, 301856, 443821
2096921,2096921, 302034, 444106
2096921,2096921, 302027, 444288
2096921,2096921, 301792, 444368
2096921,2096921, 301933, 444251
2096921,2096921, 302375, 444300
2096921,2096921, 302588, 444572
2096921,2096921, 302480, 445051
2096921,2096921, 302665, 444964
2096921,2096921, 302642, 444878
2096921,2096921, 303242, 444735
2096921,2096921, 303101, 444884
2096921,2096921, 302978, 444926
2096921,2096921, 302983, 445248
2096921,2096921, 303512, 444933
2096921,2096921, 303750, 445046
2096921,2096921, 303649, 445328
2096921,2096921, 303725, 445430
2096921,2096921, 303858, 445549
2096921,2096921, 303498, 445712
2096921,2096921, 303946, 445691
2096921,2096921, 304064, 446120
2096921,2096921, 304077, 445904
2096921,2096921, 304229, 445751
2096921,2096921, 304132, 445916
2096921,2096921, 304562, 446022
2096921,2096921, 304830, 446340
2096921,2096921, 304935, 446679
2096921,2096921, 305063, 446367
2096921,2096921, 304929, 446162
2096921,2096921, 305027, 446424
2096921,2096921, 305228, 446815
2096921,2096921, 305175, 446648
2096921,2096921, 305068, 446801
2096921,2096921, 305039, 446736
2096921,2096921, 305766, 446838
2096921,2096921, 305680, 447486
2096921,2096921, 305906, 447502
2096921,2096921, 306015, 447358
2096921,2096921, 305719, 447510
2096921,2096921, 306080, 447590
2096921,2096921, 306156, 448081
2096921,2096921, 306372, 447815
2096921,2096921, 306237, 447504
2096921,2096921, 306269, 447619
2096921,2096921, 306920, 447820
2096921,2096921, 306793, 448290
2096921,2096921, 306918, 448261
2096921,2096921, 307130, 448326
2096921,2096921, 307051, 448193
2096921,2096921, 307246, 448359
2096921,2096921, 306999, 448632
2096921,2096921, 307011, 448340
2096921,2096921, 307370, 448410
2096921,2096921, 307291, 448622
2096921,2096921, 307632, 448737
2096921,2096921, 307814, 449075
2096921,2096921, 307666, 449100
2096921,2096921, 307809, 448820
2096921,2096921, 307705, 448786
2096921,2096921, 307937, 448920
2096921,2096921, 307898, 448960
2096921,2096921, 307803, 448822
2096921,2096921, 307723, 449208
2096921,2096921, 307931, 449247
2096921,2096921, 308080, 449064
2096921,2096921, 308196, 449212
2096921,2096921, 308034, 449554
2096921,2096921, 308501, 449506
2096921,2096921, 308299, 449309
2096921,2096921, 308580, 449316
2096921,2096921, 308248, 449600
2096921,2096921, 308265, 449427
2096921,2096921, 308285, 449311
2096921,2096921, 308100, 449218
2096921,2096921, 308098, 449255
2096921,2096921, 308200, 449501
2096921,2096921, 308366, 449608
2096921,2096921, 308615, 449516
2096921,2096921, 308578, 449505
2096921,2096921, 308323, 449687
2096921,2096921, 308129, 449047
2096921,2096921, 308300, 449381
2096921,2096921, 308261, 449381
2096921,2096921, 308378, 449279
2096921,2096921, 308270, 449275
2096921,2096921, 308325, 449452
2096921,2096921, 308327, 449462
2096921,2096921, 308230, 449444
2096921,2096921, 308298, 449133
2096921,2096921, 307784, 449528
2096921,2096921, 307945, 449219
2096921,2096921, 307940, 449060
2096921,2096921, 308106, 449295
2096921,2096921, 308039, 449137
2096921,2096921, 307957, 449323
2096921,2096921, 307898, 449004
2096921,2096921, 308091, 449087
2096921,2096921, 308127, 449258
2096921,2096921, 307939, 449301
2096921,2096921, 307614, 449225
2096921,2096921, 307508, 448969
2096921,2096921, 307484, 448878
2096921,2096921, 307520, 448866
2096921,2096921, 308078, 448726
2096921,2096921, 307872, 448775
2096921,2096921, 307560, 448779
2096921,2096921, 307559, 448953
2096921,2096921, 307708, 448914
2096921,2096921, 307613, 448796
2096921,2096921, 307221, 448815
2096921,2096921, 307527, 448638
2096921,2096921, 307349, 448564
2096921,2096921, 307466, 448835
2096921,2096921, 307607, 448632
2096921,2096921, 307613, 449025
2096921,2096921, 307562, 448963
2096921,2096921, 307376, 448886
2096921,2096921, 307784, 448993
2096921,2096921, 307761, 448989
2096921,2096921, 307551, 448763
2096921,2096921, 307490, 448552
2096921,2096921, 307351, 448821
2096921,2096921, 307425, 448644
2096921,2096921, 307394, 448557
2096921,2096921, 307560, 448789
2096921,2096921, 307821, 449103
2096921,2096921, 307742, 448854
2096921,2096921, 307803, 448959
2096921,2096921, 307763, 449204
2096921,2096921, 307896, 448740
2096921,2096921, 307663, 448780
2096921,2096921, 307844, 448924
2096921,2096921, 307783, 448908
2096921,2096921, 307717, 449192
2096921,2096921, 308179, 449202
2096921,2096921, 308459, 449343
2096921,2096921, 308292, 449517
2096921,2096921, 308217, 449556
2096921,2096921, 308451, 449213
2096921,2096921, 308640, 449501
2096921,2096921, 308534, 449597
2096921,2096921, 308572, 449569
2096921,2096921, 308644, 449733
2096921,2096921, 308651, 449414
2096921,2096921, 308849, 449947
2096921,2096921, 308979, 450020
2096921,2096921, 309126, 450139
2096921,2096921, 309039, 450204
2096921,2096921, 309232, 450233
2096921,2096921, 309320, 449977
2096921,2096921, 309390, 450223
2096921,2096921, 309153, 450170
2096921,2096921, 309350, 450324
2096921,2096921, 309420, 450421
2096921,2096921, 309605, 450259
2096921,2096921, 309736, 450755
2096921,2096921, 309622, 450798
2096921,2096921, 309832, 450714
2096921,2096921, 309842, 450608
2096921,2096921, 309784, 450523
2096921,2096921, 310110, 450700
2096921,2096921, 309769, 450647
2096921,2096921, 309711, 450880
2096921,2096921, 309911, 450725
2096921,2096921, 310265, 450552
2096921,2096921, 310238, 451036
2096921,2096921, 310324, 450981
2096921,2096921, 310220, 450953
2096921,2096921, 310457, 451327
2096921,2096921, 310546, 450936
2096921,2096921, 310336, 451296
2096921,2096921, 310546, 451185
2096921,2096921, 310368, 451344
2096921,2096921, 310558, 451256
2096921,2096921, 310699, 451515
2096921,2096921, 310752, 451665
2096921,2096921, 310977, 451713
2096921,2096921, 311373, 451769
2096921,2096921, 311358, 451549
2096921,2096921, 311104, 451617
2096921,2096921, 311353, 451681
2096921,2096921, 311281, 451837
2096921,2096921, 311052, 451999
2096921,2096921, 311057, 451678
2096921,2096921, 311471, 451652
2096921,2096921, 311670, 451954
2096921,2096921, 311512, 451964
2096921,2096921, 311514, 452099
2096921,2096921, 311203, 452270
2096921,2096921, 311487, 451929
2096921,2096921, 311497, 452289
2096921,2096921, 311226, 452352
2096921,2096921, 311568, 452353
2096921,2096921, 311573, 452224
2096921,2096921, 312052, 452208
2096921,2096921, 312074, 452356
2096921,2096921, 312062, 452637
2096921,2096921, 312057, 452574
2096921,2096921, 312059, 452328
2096921,2096921, 311928, 452405
2096921,2096921, 312063, 452831
2096921,2096921, 312013, 452685
2096921,2096921, 312298, 452744
2096921,2096921, 312107, 452566
2096921,2096921, 312547, 452745
2096921,2096921, 312286, 452761
2096921,2096921, 312526, 453030
2096921,2096921, 312538, 453003
2096921,2096921, 312327, 453236
2096921,2096921, 312759, 452965
2096921,2096921, 312738, 453030
2096921,2096921, 312499, 452987
2096921,2096921, 312460, 452749
2096921,2096921, 312826, 452893
2096921,2096921, 313049, 453252
2096921,2096921, 313311, 453301
2096921,2096921, 312912, 453495
2096921,2096921, 313154, 453662
2096921,2096921, 313029, 453579
2096921,2096921, 313051, 453308
2096921,2096921, 312989, 453266
2096921,2096921, 313243, 453644
2096921,2096921, 313213, 453586
2096921,2096921, 313377, 453494
2096921,2096921, 313275, 453533
2096921,2096921, 313519, 453797
2096921,2096921, 313416, 453957
2096921,2096921, 314117, 454128
2096921,2096921, 314076, 453964
2096921,2096921, 313473, 453739
2096921,2096921, 313705, 453741
2096921,2096921, 313690, 454021
2096921,2096921, 313816, 453973
2096921,2096921, 313571, 453778
2096921,2096921, 313700, 453804
2096921,2096921, 313813, 454090
2096921,2096921, 313821, 454313
2096921,2096921, 314241, 454132
2096921,2096921, 313986, 454115
2096921,2096921, 314011, 453973
2096921,2096921, 314094, 454164
2096921,2096921, 313826, 453906
2096921,2096921, 313896, 454198
2096921,2096921, 313834, 454319
2096921,2096921, 314319, 454182
2096921,2096921, 314116, 454255
2096921,2096921, 314233, 454326
2096921,2096921, 314303, 454555
2096921,2096921, 314315, 454460
2096921,2096921, 314176, 454553
2096921,2096921, 314557, 454542
2096921,2096921, 314649, 454563
2096921,2096921, 314639, 454918
2096921,2096921, 314481, 454605
2096921,2096921, 314793, 454607
2096921,2096921, 314468, 454839
2096921,2096921, 314713, 454819
2096921,2096921, 314831, 454839
2096921,2096921, 314617, 454949
2096921,2096921, 314576, 454752
2096921,2096921, 314629, 455023
2096921,2096921, 314816, 454590
2096921,2096921, 314902, 454825
2096921,2096921, 314861, 454459
2096921,2096921, 314847, 454899
2096921,2096921, 314776, 454958
2096921,2096921, 315049, 454990
2096921,2096921, 314857, 455068
2096921,2096921, 314747, 454890
2096921,2096921, 315203, 454814
2096921,2096921, 314907, 454897
2096921,2096921, 314964, 454772
2096921,2096921, 314995, 454774
2096921,2096921, 314917, 454853
2096921,2096921, 315396, 454804
2096921,2096921, 315627, 455088
2096921,2096921, 315304, 455253
2096921,2096921, 315408, 455392
2096921,2096921, 315462, 455250
2096921,2096921, 315403, 455030
2096921,2096921, 315493, 455286
2096921,2096921, 315317, 455079
2096921,2096921, 315148, 455292
2096921,2096921, 315191, 455189
2096921,2096921, 315438, 455159
2096921,2096921, 315514, 455436
2096921,2096921, 315473, 455581
2096921,2096921, 315398, 455536
2096921,2096921, 315217, 455305
2096921,2096921, 315255, 455545
2096921,2096921, 315363, 455134
2096921,2096921, 315255, 455378
2096921,2096921, 315332, 454962
2096921,2096921, 315226, 455247
2096921,2096921, 315533, 455498
2096921,2096921, 315524, 455307
2096921,2096921, 315713, 455638
2096921,2096921, 315728, 455564
2096921,2096921, 315466, 455677
2096921,2096921, 315601, 455430
2096921,2096921, 315463, 455538
2096921,2096921, 315581, 455302
2096921,2096921, 315502, 455181
2096921,2096921, 315361, 455244
2096921,2096921, 315698, 455492
2096921,2096921, 316023, 455699
2096921,2096921, 316023, 456067
2096921,2096921, 315691, 455902
2096921,2096921, 315714, 455970
2096921,2096921, 315821, 455782
2096921,2096921, 315742, 455700
2096921,2096921, 315683, 455510
2096921,2096921, 315715, 455676
2096921,2096921, 315813, 455831
2096921,2096921, 315936, 456024
2096921,2096921, 316159, 455783
2096921,2096921, 315938, 455858
2096921,2096921, 315956, 455843
2096921,2096921, 315878, 455651
2096921,2096921, 316066, 455440
2096921,2096921, 316033, 455791
2096921,2096921, 315915, 455660
2096921,2096921, 315819, 455749
2096921,2096921, 316114, 455707
2096921,2096921, 316211, 455825
2096921,2096921, 315991, 456065
2096921,2096921, 315921, 456133
2096921,2096921, 316219, 456300
2096921,2096921, 316163, 456000
2096921,2096921, 316314, 456002
2096921,2096921, 316260, 456000
2096921,2096921, 316260, 455890
2096921,2096921, 316166, 455849
2096921,2096921, 316365, 455801
2096921,2096921, 316401, 455940
2096921,2096921, 316461, 456249
2096921,2096921, 316421, 456180
2096921,2096921, 316416, 456341
2096921,2096921, 316385, 456202
2096921,2096921, 316410, 456024
2096921,2096921, 316096, 456127
2096921,2096921, 316131, 456330
2096921,2096921, 316430, 456249
2096921,2096921, 316016, 456357
2096921,2096921, 316299, 456410
2096921,2096921, 316428, 456120
2096921,2096921, 316591, 456441
2096921,2096921, 316579, 456662
2096921,2096921, 316520, 456515
2096921,2096921, 316251, 455959
2096921,2096921, 316480, 456414
2096921,2096921, 316288, 456205
2096921,2096921, 316562, 456033
2096921,2096921, 316604, 456107
2096921,2096921, 316913, 456228
2096921,2096921, 316578, 456653
2096921,2096921, 316632, 456444
2096921,2096921, 316614, 456539
2096921,2096921, 316519, 456357
2096921,2096921, 316602, 456067
2096921,2096921, 316151, 456201
2096921,2096921, 316194, 456053
2096921,2096921, 316460, 456248
2096921,2096921, 316344, 456187
2096921,2096921, 316333, 456249
2096921,2096921, 316285, 456336
2096921,2096921, 316774, 456302
2096921,2096921, 316698, 456522
2096921,2096921, 316552, 456390
2096921,2096921, 316706, 456460
2096921,2096921, 316646, 456321
2096921,2096921, 316633, 456140
2096921,2096921, 316216, 456206
2096921,2096921, 316399, 456119
2096921,2096921, 316750, 456266
2096921,2096921, 316597, 456051
2096921,2096921, 316414, 456397
2096921,2096921, 316453, 456479
2096921,2096921, 316413, 456466
2096921,2096921, 316809, 456444
2096921,2096921, 316447, 456190
2096921,2096921, 316340, 456065
2096921,2096921, 316447, 456007
2096921,2096921, 316226, 456358
2096921,2096921, 316313, 456406
2096921,2096921, 316292, 456704
2096921,2096921, 316531, 456413
2096921,2096921, 316503, 456452
2096921,2096921, 316334, 456466
2096921,2096921, 316139, 456296
2096921,2096921, 316293, 456030
2096921,2096921, 316444, 456261
2096921,2096921, 316492, 456008
2096921,2096921, 316345, 456404
2096921,2096921, 316594, 456376
2096921,2096921, 316763, 456419
2096921,2096921, 316744, 456137
2096921,2096921, 316551, 456560
2096921,2096921, 316539, 456419
2096921,2096921, 315912, 456282
2096921,2096921, 315908, 455796
2096921,2096921, 316017, 455529
2096921,2096921, 315884, 455847
2096921,2096921, 315816, 455939
2096921,2096921, 315508, 455785
2096921,2096921, 315657, 455396
2096921,2096921, 315726, 455325
2096921,2096921, 315606, 455637
2096921,2096921, 315890, 455575
2096921,2096921, 314973, 455358
2096921,2096921, 314888, 454908
2096921,2096921, 314606, 454533
2096921,2096921, 314498, 454641
2096921,2096921, 314425, 454738
2096921,2096921, 313869, 455044
2096921,2096921, 313789, 454420
2096921,2096921, 313981, 454468
2096921,2096921, 313855, 454074
2096921,2096921, 313532, 454247
2096921,2096921, 312945, 454009
2096921,2096921, 312607, 453269
2096921,2096921, 312489, 453081
2096921,2096921, 312517, 453031
2096921,2096921, 312562, 453004
2096921,2096921, 310790, 453278
2096921,2096921, 310629, 451679
2096921,2096921, 310488, 451344
2096921,2096921, 310545, 451191
2096921,2096921, 310566, 451309
2096921,2096921, 307813, 451198
2096921,2096921, 307350, 449017
2096921,2096921, 307459, 448699
2096921,2096921, 307169, 448630
2096921,2096921, 307275, 448540
2096921,2096921, 305761, 448517
2096921,2096921, 305190, 447355
2096921,2096921, 305035, 446798
2096921,2096921, 305098, 446933
2096921,2096921, 305256, 446704
2096921,2096921, 303786, 446547
2096921,2096921, 303490, 445174
2096921,2096921, 303462, 445307
2096921,2096921, 303544, 445285
2096921,2096921, 303295, 445453
2096921,2096921, 302595, 445354
2096921,2096921, 302536, 444712
2096921,2096921, 302387, 444407
2096921,2096921, 302434, 444558
2096921,2096921, 302246, 444586
2096921,2096921, 301418, 444453
2096921,2096921, 301572, 443256
2096921,2096921, 301193, 443334
2096921,2096921, 301352, 443367
2096921,2096921, 301240, 443647
2096921,2096921, 300785, 443826
2096921,2096921, 300772, 443076
2096921,2096921, 300751, 443161
2096921,2096921, 300881, 443054
2096921,2096921, 300768, 443141
2096921,2096921, 300058, 443254
2096921,2096921, 299882, 442721
2096921,2096921, 300157, 442899
2096921,2096921, 300039, 442778
2096921,2096921, 300172, 442624
2096921,2096921, 300267, 442832
2096921,2096921, 300425, 442539
2096921,2096921, 300259, 442555
2096921,2096921, 300093, 442660
2096921,2096921, 300340, 442543
2096921,2096921, 300105, 442562
2096921,2096921, 299857, 442926
2096921,2096921, 299813, 442377
2096921,2096921, 299979, 442556
2096921,2096921, 299972, 442339
2096921,2096921, 300255, 442543
2096921,2096921, 300303, 442930
2096921,2096921, 300456, 442845
2096921,2096921, 300627, 442921
2096921,2096921, 300636, 442850
2096921,2096921, 300500, 442836
2096921,2096921, 300496, 442782
2096921,2096921, 300484, 442697
2096921,2096921, 300182, 442950
2096921,2096921, 300665, 442900
2096921,2096921, 300523, 443001
2096921,2096921, 300636, 443198
2096921,2096921, 300644, 443121
2096921,2096921, 300713, 443302
2096921,2096921, 300846, 442956
2096921,2096921, 301122, 443278
2096921,2096921, 301278, 443323
2096921,2096921, 301148, 443375
2096921,2096921, 300927, 443220
2096921,2096921, 300822, 443303
2096921,2096921, 301416, 443005
2096921,2096921, 301738, 443689
2096921,2096921, 301639, 444083
2096921,2096921, 301707, 443812
2096921,2096921, 301780, 443847
2096921,2096921, 301883, 443765
2096921,2096921, 302146, 444031
2096921,2096921, 302055, 444039
2096921,2096921, 302226, 444155
2096921,2096921, 302032, 444291
2096921,2096921, 302737, 444466
2096921,2096921, 302750, 444500
2096921,2096921, 302873, 444797
2096921,2096921, 302742, 444743
2096921,2096921, 302710, 444877
2096921,2096921, 302730, 444670
2096921,2096921, 303074, 445078
2096921,2096921, 303162, 445256
2096921,2096921, 303198, 445161
2096921,2096921, 303229, 445181
2096921,2096921, 303787, 445393
2096921,2096921, 303906, 445452
2096921,2096921, 303773, 445546
2096921,2096921, 304002, 445598
2096921,2096921, 303883, 445796
2096921,2096921, 303722, 445322
2096921,2096921, 304337, 445924
2096921,2096921, 304039, 445719
2096921,2096921, 304113, 445858
2096921,2096921, 304260, 445628
2096921,2096921, 304624, 445951
2096921,2096921, 304687, 446509
2096921,2096921, 304594, 446383
2096921,2096921, 304891, 446690
2096921,2096921, 304925, 446677
2096921,2096921, 305002, 446408
2096921,2096921, 304961, 446673
2096921,2096921, 304996, 446785
2096921,2096921, 305120, 446983
2096921,2096921, 305277, 446787
2096921,2096921, 305798, 446929
2096921,2096921, 306142, 447295
2096921,2096921, 305910, 447228
2096921,2096921, 306086, 447521
2096921,2096921, 306010, 447186
2096921,2096921, 306170, 447164
2096921,2096921, 306298, 447418
2096921,2096921, 306405, 447655
2096921,2096921, 306374, 447709
2096921,2096921, 306282, 447807
2096921,2096921, 306744, 447840
2096921,2096921, 306659, 448273
2096921,2096921, 306896, 448480
2096921,2096921, 307133, 448369
2096921,2096921, 307096, 448475
2096921,2096921, 307181, 448228
2096921,2096921, 307227, 448257
2096921,2096921, 307064, 448286
2096921,2096921, 307003, 448307
2096921,2096921, 307036, 448443
2096921,2096921, 307517, 448667
2096921,2096921, 307602, 449102
2096921,2096921, 307917, 449037
2096921,2096921, 307722, 448901
2096921,2096921, 307768, 448999
2096921,2096921, 307709, 448980
2096921,2096921, 308149, 449031
2096921,2096921, 307966, 449086
2096921,2096921, 308048, 448911
2096921,2096921, 308099, 449020
2096921,2096921, 308239, 448922
2096921,2096921, 308227, 449111
2096921,2096921, 308247, 449041
2096921,2096921, 308206, 449213
2096921,2096921, 308282, 449563
2096921,2096921, 308203, 449215
2096921,2096921, 308049, 449420
2096921,2096921, 307975, 449134
2096921,2096921, 308144, 449265
2096921,2096921, 308207, 448980
2096921,2096921, 308396, 449403
2096921,2096921, 308498, 449487
2096921,2096921, 308343, 449672
2096921,2096921, 308193, 449539
2096921,2096921, 308349, 449644
2096921,2096921, 308311, 449451
2096921,2096921, 308359, 449401
2096921,2096921, 308249, 449370
2096921,2096921, 308132, 449382
2096921,2096921, 308136, 449413
2096921,2096921, 308258, 449537
2096921,2096921, 308186, 449524
2096921,2096921, 308244, 449531
2096921,2096921, 308184, 449616
2096921,2096921, 308087, 449454
2096921,2096921, 308074, 449307
2096921,2096921, 308008, 449025
2096921,2096921, 307799, 449223
2096921,2096921, 307918, 448917
2096921,2096921, 307945, 449242
2096921,2096921, 308007, 449188
2096921,2096921, 308024, 449103
2096921,2096921, 308200, 449143
2096921,2096921, 308207, 449274
2096921,2096921, 307790, 448958
2096921,2096921, 307782, 448812
2096921,2096921, 307750, 448833
2096921,2096921, 307444, 448880
2096921,2096921, 307828, 448731
2096921,2096921, 307711, 448814
2096921,2096921, 307579, 448660
2096921,2096921, 307438, 448837
2096921,2096921, 307597, 448799
2096921,2096921, 307389, 448898
2096921,2096921, 307258, 448688
2096921,2096921, 307473, 448761
2096921,2096921, 307597, 448704
2096921,2096921, 307449, 448560
2096921,2096921, 307544, 448400
2096921,2096921, 307531, 448730
2096921,2096921, 307650, 448838
2096921,2096921, 307730, 448783
2096921,2096921, 307717, 449208
2096921,2096921, 307614, 448905
2096921,2096921, 307615, 448729
2096921,2096921, 307517, 448763
2096921,2096921, 307579, 449026
2096921,2096921, 307547, 448596
2096921,2096921, 307649, 448959
2096921,2096921, 307190, 448737
2096921,2096921, 307676, 448957
2096921,2096921, 307870, 449030
2096921,2096921, 307599, 449128
2096921,2096921, 307702, 449239
2096921,2096921, 307716, 448754
2096921,2096921, 307778, 448965
2096921,2096921, 307980, 448664
2096921,2096921, 307710, 449089
2096921,2096921, 307844, 448881
2096921,2096921, 308132, 448999
2096921,2096921, 308307, 449172
2096921,2096921, 308305, 449326
2096921,2096921, 308368, 449345
2096921,2096921, 308552, 449754
2096921,2096921, 308075, 449466
2096921,2096921, 308469, 449563
2096921,2096921, 308749, 449658
2096921,2096921, 308501, 449784
2096921,2096921, 308452, 449473
2096921,2096921, 308376, 449865
2096921,2096921, 308929, 449719
2096921,2096921, 308940, 450257
2096921,2096921, 309122, 450179
2096921,2096921, 309306, 450376
2096921,2096921, 308951, 449975
2096921,2096921, 308998, 449693
2096921,2096921, 309314, 450014
2096921,2096921, 309418, 450370
2096921,2096921, 309574, 450317
2096921,2096921, 309165, 450017
2096921,2096921, 309671, 450488
2096921,2096921, 310023, 450781
2096921,2096921, 309999, 450829
2096921,2096921, 309923, 450582
2096921,2096921, 310204, 450433
2096921,2096921, 310045, 450608
2096921,2096921, 309806, 450645
2096921,2096921, 309728, 450698
2096921,2096921, 309899, 450685
2096921,2096921, 310074, 450711
2096921,2096921, 310125, 450953
2096921,2096921, 310213, 450975
2096921,2096921, 310291, 450919
2096921,2096921, 310387, 450914
2096921,2096921, 310327, 450902
2096921,2096921, 310017, 450935
2096921,2096921, 310443, 451016
2096921,2096921, 310359, 451089
2096921,2096921, 310625, 451270
2096921,2096921, 310464, 451294
2096921,2096921, 310643, 451359
2096921,2096921, 310920, 451681
2096921,2096921, 310793, 451790
2096921,2096921, 311007, 451559
2096921,2096921, 311008, 451607
2096921,2096921, 311422, 451671
2096921,2096921, 311158, 451895
2096921,2096921, 310932, 451776
2096921,2096921, 311049, 451991
2096921,2096921, 310950, 451731
2096921,2096921, 311411, 451648
2096921,2096921, 311601, 452091
2096921,2096921, 311768, 452167
2096921,2096921, 311498, 452437
2096921,2096921, 311334, 451994
2096921,2096921, 311629, 452021
2096921,2096921, 311558, 452276
2096921,2096921, 311618, 451966
2096921,2096921, 311420, 451983
2096921,2096921, 311811, 451938
2096921,2096921, 311724, 452323
2096921,2096921, 311977, 452567
2096921,2096921, 312246, 452473
2096921,2096921, 311964, 452688
2096921,2096921, 311896, 452793
2096921,2096921, 312394, 452557
2096921,2096921, 311992, 452771
2096921,2096921, 311996, 452706
2096921,2096921, 312343, 452865
2096921,2096921, 312280, 452869
2096921,2096921, 312644, 452829
2096921,2096921, 312544, 453070
2096921,2096921, 312815, 452859
2096921,2096921, 312559, 453279
2096921,2096921, 312810, 452909
2096921,2096921, 312667, 453068
2096921,2096921, 312733, 453056
2096921,2096921, 312948, 453119
2096921,2096921, 312773, 453159
2096921,2096921, 313004, 452999
2096921,2096921, 313118, 453099
2096921,2096921, 313088, 453635
2096921,2096921, 313021, 453581
2096921,2096921, 312878, 453710
2096921,2096921, 313024, 453534
2096921,2096921, 313209, 453405
2096921,2096921, 313207, 453478
2096921,2096921, 313048, 453470
2096921,2096921, 312926, 453458
2096921,2096921, 313344, 453491
2096921,2096921, 313431, 453446
2096921,2096921, 313302, 453676
2096921,2096921, 313464, 454324
2096921,2096921, 313415, 454073
2096921,2096921, 313312, 453820
2096921,2096921, 313513, 453584
2096921,2096921, 313444, 453753
2096921,2096921, 313540, 453930
2096921,2096921, 313601, 453787
2096921,2096921, 313808, 453843
2096921,2096921, 313906, 453689
2096921,2096921, 314163, 453972
2096921,2096921, 313884, 454283
2096921,2096921, 313890, 454195
2096921,2096921, 313719, 454196
2096921,2096921, 314095, 453990
2096921,2096921, 313838, 454036
2096921,2096921, 313995, 453898
2096921,2096921, 313917, 453967
2096921,2096921, 313664, 453870
2096921,2096921, 314139, 454418
2096921,2096921, 314308, 454586
2096921,2096921, 314316, 454419
2096921,2096921, 314184, 454580
2096921,2096921, 314306, 454438
2096921,2096921, 314344, 454500
2096921,2096921, 314408, 454381
2096921,2096921, 314604, 454563
2096921,2096921, 314461, 454380
2096921,2096921, 314514, 454396
2096921,2096921, 314786, 454726
2096921,2096921, 314714, 454815
2096921,2096921, 314634, 455064
2096921,2096921, 314581, 455073
2096921,2096921, 314721, 454950
2096921,2096921, 314384, 454695
2096921,2096921, 314725, 454829
2096921,2096921, 314653, 454754
2096921,2096921, 314508, 454777
2096921,2096921, 314559, 455042
2096921,2096921, 315022, 454887
2096921,2096921, 315137, 455049
2096921,2096921, 314998, 454770
2096921,2096921, 315132, 454623
2096921,2096921, 314911, 454609
2096921,2096921, 314876, 454628
2096921,2096921, 314869, 454954
2096921,2096921, 314966, 454757
2096921,2096921, 314960, 455317
2096921,2096921, 314927, 455047
2096921,2096921, 314949, 455275
2096921,2096921, 315305, 455191
2096921,2096921, 315428, 455212
2096921,2096921, 315042, 455045
2096921,2096921, 314941, 455286
2096921,2096921, 315074, 455341
2096921,2096921, 314957, 455327
2096921,2096921, 315280, 455394
2096921,2096921, 315210, 455149
2096921,2096921, 315488, 455335
2096921,2096921, 315404, 455287
2096921,2096921, 315379, 455301
2096921,2096921, 315424, 455356
2096921,2096921, 315482, 455191
2096921,2096921, 315491, 455367
2096921,2096921, 315626, 455366
2096921,2096921, 315498, 455372
2096921,2096921, 315198, 455161
2096921,2096921, 315426, 455191
2096921,2096921, 315463, 455440
2096921,2096921, 315557, 455474
2096921,2096921, 315760, 455798
2096921,2096921, 315540, 455547
2096921,2096921, 315874, 455604
2096921,2096921, 315788, 455350
2096921,2096921, 315656, 455440
2096921,2096921, 315675, 455424
2096921,2096921, 315534, 455600
2096921,2096921, 315645, 455498
2096921,2096921, 316005, 455640
2096921,2096921, 315696, 455557
2096921,2096921, 315788, 455931
2096921,2096921, 316066, 455896
2096921,2096921, 315821, 455803
2096921,2096921, 315834, 455530
2096921,2096921, 315760, 455773
2096921,2096921, 315918, 455860
2096921,2096921, 315571, 455555
2096921,2096921, 315890, 455582
2096921,2096921, 315789, 455411
2096921,2096921, 315993, 455776
2096921,2096921, 316001, 455749
2096921,2096921, 315755, 455727
2096921,2096921, 316022, 455938
2096921,2096921, 316043, 455775
2096921,2096921, 315932, 455843
2096921,2096921, 316085, 455941
2096921,2096921, 316134, 455942
2096921,2096921, 316005, 455672
2096921,2096921, 316188, 455566
2096921,2096921, 316288, 455845
2096921,2096921, 316210, 456083
2096921,2096921, 316217, 456148
2096921,2096921, 316581, 456021
2096921,2096921, 316247, 456174
2096921,2096921, 316152, 456038
2096921,2096921, 316172, 455918
2096921,2096921, 315991, 456030
2096921,2096921, 316327, 455797
2096921,2096921, 316464, 455811
2096921,2096921, 316265, 455948
2096921,2096921, 316769, 456057
2096921,2096921, 316378, 456458
2096921,2096921, 316370, 456219
2096921,2096921, 316361, 455878
2096921,2096921, 316630, 456137
2096921,2096921, 316295, 455995
2096921,2096921, 316658, 456017
2096921,2096921, 316092, 456209
2096921,2096921, 316602, 456124
2096921,2096921, 316621, 455787
2096921,2096921, 316862, 456464
2096921,2096921, 316994, 456331
2096921,2096921, 316524, 456560
2096921,2096921, 316489, 456355
2096921,2096921, 316439, 456276
2096921,2096921, 316680, 456151
2096921,2096921, 316297, 456374
2096921,2096921, 316524, 456285
2096921,2096921, 316339, 456310
2096921,2096921, 316523, 456249
2096921,2096921, 316666, 456384
2096921,2096921, 316686, 456148
2096921,2096921, 316527, 456380
2096921,2096921, 316420, 456341
2096921,2096921, 316403, 456295
2096921,2096921, 316490, 456185
2096921,2096921, 316370, 456251
2096921,2096921, 316350, 456337
2096921,2096921, 316412, 455950
2096921,2096921, 316448, 456652
2096921,2096921, 316095, 456426
2096921,2096921, 316596, 456163
2096921,2096921, 316588, 456498
2096921,2096921, 316705, 456514
2096921,2096921, 316463, 456320
2096921,2096921, 316374, 456376
2096921,2096921, 316573, 456309
2096921,2096921, 316624, 456224
2096921,2096921, 316487, 456116
2096921,2096921, 316504, 456473
2096921,2096921, 316376, 456394
2096921,2096921, 316504, 456485
2096921,2096921, 316394, 456340
2096921,2096921, 316577, 456262
2096921,2096921, 316439, 456137
2096921,2096921, 316143, 456090
2096921,2096921, 316458, 456167
2096921,2096921, 316459, 456085
2096921,2096921, 316562, 456067
2096921,2096921, 316499, 456200
2096921,2096921, 316462, 456484
2096921,2096921, 316291, 456080
2096921,2096921, 316261, 456484
2096921,2096921, 316399, 456236
2096921,2096921, 316342, 456195
2096921,2096921, 316185, 456116
2096921,2096921, 316157, 456109
2096921,2096921, 316355, 456236
2096921,2096921, 316651, 456345
2096921,2096921, 316603, 456086
2096921,2096921, 316469, 456050
2096921,2096921, 316636, 456293
2096921,2096921, 316648, 456371
2096921,2096921, 316601, 456086
2096921,2096921, 316192, 456263
2096921,2096921, 315983, 455893
2096921,2096921, 316179, 455842
2096921,2096921, 316096, 455956
2096921,2096921, 315767, 455843
2096921,2096921, 315473, 455564
2096921,2096921, 315678, 455705
2096921,2096921, 315665, 455768
2096921,2096921, 315507, 455769
2096921,2096921, 315751, 455640
2096921,2096921, 314700, 455280
2096921,2096921, 314601, 455053
2096921,2096921, 314557, 454867
2096921,2096921, 314606, 454833
2096921,2096921, 314661, 455007
2096921,2096921, 314010, 454500
2096921,2096921, 313808, 454248
2096921,2096921, 314186, 454138
2096921,2096921, 313903, 454223
2096921,2096921, 314071, 453961
2096921,2096921, 312879, 453617
2096921,2096921, 312437, 452899
2096921,2096921, 312352, 452994
2096921,2096921, 312503, 453085
2096921,2096921, 313008, 453321
2096921,2096921, 311178, 452919
2096921,2096921, 310625, 451407
2096921,2096921, 310414, 451430
2096921,2096921, 310268, 451140
2096921,2096921, 310270, 451056
2096921,2096921, 307890, 450840
2096921,2096921, 307199, 448991
2096921,2096921, 307155, 448611
2096921,2096921, 307109, 448591
2096921,2096921, 307393, 448602
2096921,2096921, 305509, 448548
2096921,2096921, 305308, 447265
2096921,2096921, 305106, 446955
2096921,2096921, 305112, 446781
2096921,2096921, 305405, 446751
2096921,2096921, 304225, 446565
2096921,2096921, 303606, 445721
2096921,2096921, 303405, 445433
2096921,2096921, 303082, 445136
2096921,2096921, 303480, 445235
2096921,2096921, 302409, 445004
2096921,2096921, 301940, 444663
2096921,2096921, 302424, 444531
2096921,2096921, 302497, 444525
2096921,2096921, 302105, 444285
2096921,2096921, 301214, 444229
2096921,2096921, 301086, 443731
2096921,2096921, 301280, 443415
2096921,2096921, 301481, 443627
2096921,2096921, 301104, 443568
2096921,2096921, 300688, 443807
2096921,2096921, 300421, 443345
2096921,2096921, 300677, 443471
2096921,2096921, 301016, 443200
2096921,2096921, 300737, 443030
2096921,2096921, 300364, 442878
2096921,2096921, 300414, 442565
2096921,2096921, 300174, 442825
2096921,2096921, 300373, 442595
2096921,2096921, 300238, 442526
2096921,2096921, 300301, 442747
2096921,2096921, 299881, 442604
2096921,2096921, 299903, 442581
2096921,2096921, 299972, 442829
2096921,2096921, 300115, 442671
2096921,2096921, 300005, 442437
2096921,2096921, 300410, 442441
2096921,2096921, 300170, 442679
2096921,2096921, 300030, 442479
2096921,2096921, 300134, 442580
2096921,2096921, 300667, 442507
2096921,2096921, 300400, 442637
2096921,2096921, 300444, 443010
2096921,2096921, 300460, 442867
2096921,2096921, 300590, 442886
2096921,2096921, 300505, 442811
2096921,2096921, 300424, 442786
2096921,2096921, 300385, 442870
2096921,2096921, 300736, 442915
2096921,2096921, 300685, 443084
2096921,2096921, 300849, 443062
2096921,2096921, 300978, 442910
2096921,2096921, 300722, 443158
2096921,2096921, 300916, 443357
2096921,2096921, 300658, 443048
2096921,2096921, 300917, 442981
2096921,2096921, 301235, 443164
2096921,2096921, 301517, 443515
2096921,2096921, 301242, 443362
2096921,2096921, 301161, 443506
2096921,2096921, 301462, 443597
2096921,2096921, 301812, 444092
2096921,2096921, 301604, 443728
2096921,2096921, 301713, 444130
2096921,2096921, 301549, 443580
2096921,2096921, 301623, 443815
2096921,2096921, 301953, 444158
2096921,2096921, 302051, 444371
2096921,2096921, 302290, 444032
2096921,2096921, 302436, 444587
2096921,2096921, 302780, 444366
2096921,2096921, 302456, 444950
2096921,2096921, 302586, 444808
2096921,2096921, 302531, 444896
2096921,2096921, 302354, 444711
2096921,2096921, 303092, 444823
2096921,2096921, 303059, 445056
2096921,2096921, 303279, 445022
2096921,2096921, 303306, 445211
2096921,2096921, 303164, 445044
2096921,2096921, 303880, 445459
2096921,2096921, 303920, 445419
2096921,2096921, 303804, 445767
2096921,2096921, 303890, 445579
2096921,2096921, 303912, 445396
2096921,2096921, 304016, 445405
2096921,2096921, 304229, 445888
2096921,2096921, 304284, 446048
2096921,2096921, 304365, 446045
2096921,2096921, 304128, 445777
2096921,2096921, 304850, 446088
2096921,2096921, 304587, 446437
2096921,2096921, 304842, 446446
2096921,2096921, 304671, 446404
2096921,2096921, 304736, 446530
2096921,2096921, 305098, 446498
2096921,2096921, 305020, 446857
2096921,2096921, 305182, 447077
2096921,2096921, 305004, 446926
2096921,2096921, 305326, 446905
2096921,2096921, 305783, 446989
2096921,2096921, 305934, 447591
2096921,2096921, 305856, 447683
2096921,2096921, 305691, 447648
2096921,2096921, 305751, 447453
2096921,2096921, 306368, 447421
2096921,2096921, 306411, 447699
2096921,2096921, 306423, 447264
2096921,2096921, 306238, 447790
2096921,2096921, 306323, 447644
2096921,2096921, 306794, 447743
2096921,2096921, 307097, 448154
2096921,2096921, 306906, 448447
2096921,2096921, 306764, 448542
2096921,2096921, 306615, 448165
2096921,2096921, 307049, 448281
2096921,2096921, 306950, 448650
2096921,2096921, 307463, 448687
2096921,2096921, 307317, 448450
2096921,2096921, 307237, 448599
2096921,2096921, 307532, 448387
2096921,2096921, 307657, 449091
2096921,2096921, 307813, 449041
2096921,2096921, 307781, 448904
2096921,2096921, 307629, 449034
2096921,2096921, 307579, 449042
2096921,2096921, 307597, 449257
2096921,2096921, 307859, 449223
2096921,2096921, 307845, 449036
2096921,2096921, 308316, 449198
2096921,2096921, 308126, 449365
2096921,2096921, 308101, 449362
2096921,2096921, 308497, 449508
2096921,2096921, 308359, 449591
2096921,2096921, 308300, 449324
2096921,2096921, 308278, 449502
2096921,2096921, 308143, 449496
2096921,2096921, 308210, 449499
2096921,2096921, 308302, 449650
2096921,2096921, 308235, 449495
2096921,2096921, 308179, 449158
2096921,2096921, 308237, 449506
2096921,2096921, 308508, 449427
2096921,2096921, 308629, 449575
2096921,2096921, 308262, 449670
2096921,2096921, 308460, 449554
2096921,2096921, 308324, 449584
2096921,2096921, 308154, 449261
2096921,2096921, 308183, 449588
2096921,2096921, 308455, 449588
2096921,2096921, 308105, 449383
2096921,2096921, 308140, 449193
2096921,2096921, 308149, 449477
2096921,2096921, 308160, 449600
2096921,2096921, 308381, 449368
2096921,2096921, 308271, 449280
2096921,2096921, 307957, 449398
2096921,2096921, 307754, 449035
2096921,2096921, 308061, 449187
2096921,2096921, 308149, 449219
2096921,2096921, 308008, 449121
2096921,2096921, 308071, 449026
2096921,2096921, 307896, 449179
2096921,2096921, 307972, 449138
2096921,2096921, 307775, 449133
2096921,2096921, 307621, 448987
2096921,2096921, 307559, 448765
2096921,2096921, 307562, 448767
2096921,2096921, 307518, 448803
2096921,2096921, 307774, 449415
2096921,2096921, 307735, 448988
2096921,2096921, 307792, 448927
2096921,2096921, 307651, 449230
2096921,2096921, 307596, 449091
2096921,2096921, 307325, 448912
2096921,2096921, 307480, 448779
2096921,2096921, 307455, 448605
2096921,2096921, 307580, 448763
2096921,2096921, 307600, 448822
2096921,2096921, 307501, 448678
2096921,2096921, 307405, 448861
2096921,2096921, 307522, 449134
2096921,2096921, 307710, 448934
2096921,2096921, 307531, 448847
2096921,2096921, 307557, 448940
2096921,2096921, 307578, 449137
2096921,2096921, 307432, 449163
2096921,2096921, 307508, 448849
2096921,2096921, 307780, 448721
2096921,2096921, 307693, 448940
2096921,2096921, 307651, 448901
2096921,2096921, 307832, 448778
2096921,2096921, 307926, 449005
2096921,2096921, 307984, 448938
2096921,2096921, 307702, 449172
2096921,2096921, 307743, 449110
2096921,2096921, 307880, 449128
2096921,2096921, 307911, 448956
2096921,2096921, 307897, 449230
2096921,2096921, 307750, 449104
2096921,2096921, 308115, 449368
2096921,2096921, 308106, 449386
2096921,2096921, 308371, 449393
2096921,2096921, 308308, 449373
2096921,2096921, 308149, 449484
2096921,2096921, 308620, 449575
2096921,2096921, 308716, 449853
2096921,2096921, 308809, 449645
2096921,2096921, 308566, 449726
2096921,2096921, 308554, 449407
2096921,2096921, 309059, 449843
2096921,2096921, 309136, 449875
2096921,2096921, 309029, 449956
2096921,2096921, 308846, 450214
2096921,2096921, 308901, 450025
2096921,2096921, 309458, 450398
2096921,2096921, 309201, 450573
2096921,2096921, 309313, 450291
2096921,2096921, 309176, 450126
2096921,2096921, 309106, 450296
2096921,2096921, 309754, 450583
2096921,2096921, 309874, 450894
2096921,2096921, 309814, 450866
2096921,2096921, 309711, 450540
2096921,2096921, 309678, 450222
2096921,2096921, 310025, 450385
2096921,2096921, 309760, 450716
2096921,2096921, 309793, 450941
2096921,2096921, 309868, 450799
2096921,2096921, 309946, 450834
2096921,2096921, 310125, 450852
2096921,2096921, 310209, 451087
2096921,2096921, 310278, 451152
2096921,2096921, 310125, 451058
2096921,2096921, 310404, 450970
2096921,2096921, 310551, 450851
2096921,2096921, 310764, 451251
2096921,2096921, 310299, 451193
2096921,2096921, 310731, 451176
2096921,2096921, 310409, 451278
2096921,2096921, 310766, 451331
2096921,2096921, 310573, 451743
2096921,2096921, 311103, 451791
2096921,2096921, 311097, 451943
2096921,2096921, 310964, 451749
2096921,2096921, 311086, 451767
2096921,2096921, 310962, 451850
2096921,2096921, 311024, 451975
2096921,2096921, 311170, 451710
2096921,2096921, 311168, 451749
2096921,2096921, 311357, 451993
2096921,2096921, 311433, 452084
2096921,2096921, 311420, 452215
2096921,2096921, 311382, 452300
2096921,2096921, 311208, 451992
2096921,2096921, 311621, 451957
2096921,2096921, 311685, 452080
2096921,2096921, 311435, 452351
2096921,2096921, 311775, 452385
2096921,2096921, 311902, 452253
2096921,2096921, 312105, 452399
2096921,2096921, 312111, 452574
2096921,2096921, 312128, 452606
2096921,2096921, 312414, 452476
2096921,2096921, 312036, 452520
2096921,2096921, 312304, 452398
2096921,2096921, 312176, 452668
2096921,2096921, 312380, 452521
2096921,2096921, 312409, 452741
2096921,2096921, 312200, 452719
2096921,2096921, 312458, 452723
2096921,2096921, 312599, 452743
2096921,2096921, 312493, 453100
2096921,2096921, 312674, 453211
2096921,2096921, 312767, 453116
2096921,2096921, 312815, 453055
2096921,2096921, 312775, 453046
2096921,2096921, 312763, 453245
2096921,2096921, 312783, 453133
2096921,2096921, 312721, 453301
2096921,2096921, 313026, 453091
2096921,2096921, 313050, 453299
2096921,2096921, 313165, 453155
2096921,2096921, 313247, 453675
2096921,2096921, 313047, 453442
2096921,2096921, 313223, 453591
2096921,2096921, 313293, 453579
2096921,2096921, 313136, 453646
2096921,2096921, 313114, 453418
2096921,2096921, 313179, 453396
2096921,2096921, 313470, 453789
2096921,2096921, 313352, 453836
2096921,2096921, 313743, 453641
2096921,2096921, 313484, 453697
2096921,2096921, 313500, 453925
2096921,2096921, 313633, 454051
2096921,2096921, 313840, 453893
2096921,2096921, 313688, 453853
2096921,2096921, 313805, 453870
2096921,2096921, 313818, 453546
2096921,2096921, 313974, 454244
2096921,2096921, 314082, 453968
2096921,2096921, 314029, 454038
2096921,2096921, 314067, 453955
2096921,2096921, 313818, 454198
2096921,2096921, 314087, 454025
2096921,2096921, 314191, 454427
2096921,2096921, 313831, 454207
2096921,2096921, 313909, 454294
2096921,2096921, 314114, 454167
2096921,2096921, 314267, 454401
2096921,2096921, 314906, 454366
2096921,2096921, 314521, 454666
2096921,2096921, 314421, 454702
2096921,2096921, 314137, 454632
2096921,2096921, 314522, 454576
2096921,2096921, 314503, 454261
2096921,2096921, 314952, 454459
2096921,2096921, 314296, 454364
2096921,2096921, 314521, 454313
2096921,2096921, 314463, 454809
2096921,2096921, 314820, 454849
2096921,2096921, 314846, 454945
2096921,2096921, 315004, 454624
2096921,2096921, 314751, 454569
2096921,2096921, 314796, 454769
2096921,2096921, 314753, 454940
2096921,2096921, 314742, 454777
2096921,2096921, 314530, 454798
2096921,2096921, 314801, 454764
2096921,2096921, 314923, 454538
2096921,2096921, 315073, 454789
2096921,2096921, 314920, 455103
2096921,2096921, 314886, 455195
2096921,2096921, 315020, 455025
2096921,2096921, 315019, 454795
2096921,2096921, 315277, 455077
2096921,2096921, 315062, 455262
2096921,2096921, 315260, 455077
2096921,2096921, 315320, 455210
2096921,2096921, 315318, 455331
2096921,2096921, 315242, 455261
2096921,2096921, 315016, 455361
2096921,2096921, 315259, 455064
2096921,2096921, 315381, 455454
2096921,2096921, 315278, 455208
2096921,2096921, 315390, 455338
2096921,2096921, 315483, 455098
2096921,2096921, 315118, 455250
2096921,2096921, 315055, 455187
2096921,2096921, 315619, 455617
2096921,2096921, 315678, 455395
2096921,2096921, 315836, 455529
2096921,2096921, 315829, 455637
2096921,2096921, 315616, 455384
2096921,2096921, 315718, 455172
2096921,2096921, 315170, 455256
2096921,2096921, 315284, 455441
2096921,2096921, 315380, 455337
2096921,2096921, 315574, 455078
2096921,2096921, 315338, 455103
2096921,2096921, 315504, 455484
2096921,2096921, 315819, 455568
2096921,2096921, 315716, 455682
2096921,2096921, 315557, 455787
2096921,2096921, 315947, 455440
2096921,2096921, 315652, 455540
2096921,2096921, 315673, 455746
2096921,2096921, 315657, 455490
2096921,2096921, 315662, 455627
2096921,2096921, 315963, 455627
2096921,2096921, 316159, 456003
2096921,2096921, 315984, 455850
2096921,2096921, 315948, 455811
2096921,2096921, 316080, 455930
2096921,2096921, 316067, 456115
2096921,2096921, 316076, 455483
2096921,2096921, 315866, 455695
2096921,2096921, 315933, 455701
2096921,2096921, 315887, 455805
2096921,2096921, 316011, 455885
2096921,2096921, 315977, 455816
2096921,2096921, 316025, 455624
2096921,2096921, 316061, 456121
2096921,2096921, 315998, 456131
2096921,2096921, 316015, 456192
2096921,2096921, 316033, 455847
2096921,2096921, 316194, 455682
2096921,2096921, 316058, 455850
2096921,2096921, 316025, 456061
2096921,2096921, 316194, 455948
2096921,2096921, 316243, 455958
2096921,2096921, 316566, 456274
2096921,2096921, 316540, 456439
2096921,2096921, 316398, 456213
2096921,2096921, 316051, 456221
2096921,2096921, 316159, 456036
2096921,2096921, 316101, 455884
2096921,2096921, 316027, 455929
2096921,2096921, 316336, 456021
2096921,2096921, 316479, 455936
2096921,2096921, 316534, 456264
2096921,2096921, 316585, 456494
2096921,2096921, 316402, 456544
2096921,2096921, 316484, 456180
2096921,2096921, 316636, 456019
2096921,2096921, 316493, 456132
2096921,2096921, 316321, 456392
2096921,2096921, 316216, 456337
2096921,2096921, 316357, 456167
2096921,2096921, 316550, 456200
2096921,2096921, 316568, 456252
2096921,2096921, 316574, 456392
2096921,2096921, 316612, 456516
2096921,2096921, 316658, 456553
2096921,2096921, 316879, 456443
2096921,2096921, 316283, 456219
2096921,2096921, 316372, 456515
2096921,2096921, 316265, 456166
2096921,2096921, 316738, 456217
2096921,2096921, 316740, 456419
2096921,2096921, 316687, 456657
2096921,2096921, 316284, 456592
2096921,2096921, 316718, 456394
2096921,2096921, 316526, 456553
2096921,2096921, 316617, 456218
2096921,2096921, 316392, 456316
2096921,2096921, 316456, 456225
2096921,2096921, 316310, 456269
2096921,2096921, 316270, 456348
2096921,2096921, 316513, 456343
2096921,2096921, 316556, 456277
2096921,2096921, 316603, 456322
2096921,2096921, 316369, 456476
2096921,2096921, 316183, 456446
2096921,2096921, 316058, 456398
2096921,2096921, 316744, 455838
2096921,2096921, 316306, 456327
2096921,2096921, 316315, 456026
2096921,2096921, 316513, 456217
2096921,2096921, 316616, 456155
2096921,2096921, 316724, 456648
2096921,2096921, 316456, 456463
2096921,2096921, 316630, 456340
2096921,2096921, 316420, 456224
2096921,2096921, 316230, 456474
2096921,2096921, 316306, 456558
2096921,2096921, 316266, 456588
2096921,2096921, 316602, 456290
2096921,2096921, 316592, 455954
2096921,2096921, 316345, 456142
2096921,2096921, 316504, 456248
2096921,2096921, 316841, 456174
2096921,2096921, 317024, 456177
2096921,2096921, 316876, 456350
2096921,2096921, 316540, 456150
2096921,2096921, 316536, 456391
2096921,2096921, 316601, 456185
2096921,2096921, 316500, 456000
2096921,2096921, 316591, 456140
2096921,2096921, 316437, 456171
2096921,2096921, 316549, 456137
2096921,2096921, 316803, 456402
2096921,2096921, 316688, 456578
2096921,2096921, 316632, 456504
2096921,2096921, 316122, 456320
2096921,2096921, 316044, 455902
2096921,2096921, 315789, 456050
2096921,2096921, 315845, 455938
2096921,2096921, 316209, 455706
2096921,2096921, 315626, 455839
2096921,2096921, 315627, 455715
2096921,2096921, 315658, 455574
2096921,2096921, 315763, 455654
2096921,2096921, 315674, 455691
2096921,2096921, 314965, 455275
2096921,2096921, 314852, 455084
2096921,2096921, 314925, 454849
2096921,2096921, 314595, 454955
2096921,2096921, 314958, 455033
2096921,2096921, 314144, 454974
2096921,2096921, 313866, 454537
2096921,2096921, 314279, 454124
2096921,2096921, 314158, 454473
2096921,2096921, 313924, 453889
2096921,2096921, 313105, 453757
2096921,2096921, 312815, 453354
2096921,2096921, 312649, 453338
2096921,2096921, 312438, 452822
2096921,2096921, 312766, 452929
2096921,2096921, 310962, 452781
2096921,2096921, 310522, 451573
2096921,2096921, 310564, 451676
2096921,2096921, 310486, 451470
2096921,2096921, 310586, 451264
2096921,2096921, 308073, 450316
2096921,2096921, 307603, 449095
2096921,2096921, 307031, 448604
2096921,2096921, 307253, 448580
2096921,2096921, 307337, 448489
2096921,2096921, 305672, 448588
2096921,2096921, 305429, 447517
2096921,2096921, 305087, 447030
2096921,2096921, 304959, 447176
2096921,2096921, 305328, 447034
2096921,2096921, 303938, 446429
2096921,2096921, 303595, 445676
2096921,2096921, 303358, 445482
2096921,2096921, 303477, 445506
2096921,2096921, 303357, 445435
2096921,2096921, 302580, 445174
2096921,2096921, 302239, 444685
2096921,2096921, 302513, 444488
2096921,2096921, 302485, 444573
2096921,2096921, 302300, 444497
2096921,2096921, 301343, 443923
2096921,2096921, 301554, 443796
2096921,2096921, 301567, 443693
2096921,2096921, 301219, 443363
2096921,2096921, 301443, 443622
2096921,2096921, 300720, 443482
2096921,2096921, 300740, 443410
2096921,2096921, 300996, 443352
2096921,2096921, 300817, 443346
2096921,2096921, 300613, 443149
2096921,2096921, 300518, 442948
2096921,2096921, 300488, 443080
2096921,2096921, 300269, 443016
2096921,2096921, 300378, 442728
2096921,2096921, 300709, 442900
2096921,2096921, 300438, 442772
2096921,2096921, 300590, 443083
2096921,2096921, 300756, 442884
2096921,2096921, 300714, 443071
2096921,2096921, 300177, 442777
2096921,2096921, 300085, 442836
2096921,2096921, 299922, 442601
2096921,2096921, 299995, 442710
2096921,2096921, 300084, 442641
2096921,2096921, 300329, 442481
2096921,2096921, 300487, 442673
2096921,2096921, 300421, 443014
2096921,2096921, 300643, 443098
2096921,2096921, 300411, 443075
2096921,2096921, 300393, 443139
2096921,2096921, 300507, 442949
2096921,2096921, 300591, 442709
2096921,2096921, 300288, 443347
2096921,2096921, 300539, 443113
2096921,2096921, 300532, 442985
2096921,2096921, 301111, 442829
2096921,2096921, 300940, 443056
2096921,2096921, 301044, 443120
2096921,2096921, 300889, 443200
2096921,2096921, 300823, 443169
2096921,2096921, 301204, 443263
2096921,2096921, 301359, 443542
2096921,2096921, 301060, 443494
2096921,2096921, 301289, 443403
2096921,2096921, 301278, 443381
2096921,2096921, 301784, 443699
2096921,2096921, 301901, 443864
2096921,2096921, 302034, 444270
2096921,2096921, 301778, 444192
2096921,2096921, 301654, 444000
2096921,2096921, 301689, 443758
2096921,2096921, 302008, 444139
2096921,2096921, 302245, 444279
2096921,2096921, 302351, 444417
2096921,2096921, 302451, 444218
2096921,2096921, 302891, 444736
2096921,2096921, 302794, 444918
2096921,2096921, 302788, 444857
2096921,2096921, 302648, 445035
2096921,2096921, 302446, 444736
2096921,2096921, 303195, 444621
2096921,2096921, 303179, 445189
2096921,2096921, 303099, 445174
2096921,2096921, 302991, 445219
2096921,2096921, 303264, 445245
2096921,2096921, 303807, 445527
2096921,2096921, 303941, 445834
2096921,2096921, 304173, 445819
2096921,2096921, 303900, 445917
2096921,2096921, 303612, 445662
2096921,2096921, 303871, 445822
2096921,2096921, 304197, 445902
2096921,2096921, 303992, 446298
2096921,2096921, 304078, 445977
2096921,2096921, 303949, 445847
2096921,2096921, 304553, 446376
2096921,2096921, 304834, 446598
2096921,2096921, 305100, 446754
2096921,2096921, 304679, 446623
2096921,2096921, 304719, 446672
2096921,2096921, 304797, 446748
2096921,2096921, 305037, 446687
2096921,2096921, 305388, 447025
2096921,2096921, 305282, 446742
2096921,2096921, 305186, 446787
2096921,2096921, 305841, 447273
2096921,2096921, 305756, 447462
2096921,2096921, 306106, 447472
2096921,2096921, 305773, 447542
2096921,2096921, 305919, 447307
2096921,2096921, 306106, 447153
2096921,2096921, 306164, 447896
2096921,2096921, 306240, 447749
2096921,2096921, 306223, 447660
2096921,2096921, 306216, 447680
2096921,2096921, 306860, 447896
2096921,2096921, 306961, 448233
2096921,2096921, 307135, 448018
2096921,2096921, 307086, 448311
2096921,2096921, 306743, 448485
2096921,2096921, 307185, 448368
2096921,2096921, 307193, 448552
2096921,2096921, 307122, 448412
2096921,2096921, 307341, 448678
2096921,2096921, 307151, 448487
2096921,2096921, 307734, 448731
2096921,2096921, 307822, 448966
2096921,2096921, 307873, 448888
2096921,2096921, 307878, 448953
2096921,2096921, 307753, 449212
2096921,2096921, 307836, 448946
2096921,2096921, 308119, 449171
2096921,2096921, 307833, 449123
2096921,2096921, 307729, 448962
2096921,2096921, 308116, 449225
2096921,2096921, 308144, 449372
2096921,2096921, 308303, 449622
2096921,2096921, 308626, 449550
2096921,2096921, 308733, 449418
2096921,2096921, 308224, 449421
2096921,2096921, 308592, 449489
2096921,2096921, 308275, 449471
2096921,2096921, 308238, 449435
2096921,2096921, 308544, 449474
2096921,2096921, 308362, 449587
2096921,2096921, 308327, 449577
2096921,2096921, 308565, 449682
2096921,2096921, 308678, 449887
2096921,2096921, 308771, 449712
2096921,2096921, 308554, 449789
2096921,2096921, 308447, 449654
2096921,2096921, 308313, 449409
2096921,2096921, 308071, 449393
2096921,2096921, 308473, 449284
2096921,2096921, 308636, 449529
2096921,2096921, 308275, 449685
2096921,2096921, 308212, 449850
2096921,2096921, 308467, 449738
2096921,2096921, 308443, 449593
2096921,2096921, 308309, 449541
2096921,2096921, 308035, 449350
2096921,2096921, 308099, 449104
2096921,2096921, 307904, 449081
2096921,2096921, 308056, 448922
2096921,2096921, 308040, 449202
2096921,2096921, 308340, 449406
2096921,2096921, 308086, 449539
2096921,2096921, 308243, 449530
2096921,2096921, 307924, 449531
2096921,2096921, 308120, 449210
2096921,2096921, 307839, 448867
2096921,2096921, 307457, 449061
2096921,2096921, 307331, 448933
2096921,2096921, 307498, 449013
2096921,2096921, 307713, 448876
2096921,2096921, 307487, 449187
2096921,2096921, 307758, 449119
2096921,2096921, 307628, 448849
2096921,2096921, 307836, 448991
2096921,2096921, 307745, 448881
2096921,2096921, 307522, 449009
2096921,2096921, 307298, 448751
2096921,2096921, 307280, 448669
2096921,2096921, 307383, 448774
2096921,2096921, 307697, 448956
2096921,2096921, 307318, 449092
2096921,2096921, 307597, 449047
2096921,2096921, 307600, 449139
2096921,2096921, 307839, 449212
2096921,2096921, 307577, 449043
2096921,2096921, 307724, 448688
2096921,2096921, 307605, 448858
2096921,2096921, 307167, 449037
2096921,2096921, 307514, 448855
2096921,2096921, 307515, 448877
2096921,2096921, 307792, 448946
2096921,2096921, 307915, 449008
2096921,2096921, 307705, 449156
2096921,2096921, 307909, 449432
2096921,2096921, 307622, 449343
2096921,2096921, 307416, 449035
2096921,2096921, 307832, 448870
2096921,2096921, 307917, 449002
2096921,2096921, 307692, 449024
2096921,2096921, 307725, 449273
2096921,2096921, 308322, 449566
2096921,2096921, 308253, 449505
2096921,2096921, 308556, 449873
2096921,2096921, 308833, 449553
2096921,2096921, 308401, 449606
2096921,2096921, 308596, 449559
2096921,2096921, 308496, 449409
2096921,2096921, 308413, 449500
2096921,2096921, 308606, 449675
2096921,2096921, 308628, 449892
2096921,2096921, 309012, 449943
2096921,2096921, 309175, 450161
2096921,2096921, 309062, 450242
2096921,2096921, 309030, 450239
2096921,2096921, 308895, 450203
2096921,2096921, 309225, 449875
2096921,2096921, 309336, 450260
2096921,2096921, 309382, 450084
2096921,2096921, 309446, 450109
2096921,2096921, 309383, 450321
2096921,2096921, 309670, 450594
2096921,2096921, 309704, 450734
2096921,2096921, 310203, 450851
2096921,2096921, 310000, 450857
2096921,2096921, 309771, 450923
2096921,2096921, 309688, 450936
2096921,2096921, 309672, 450834
2096921,2096921, 309791, 450755
2096921,2096921, 309877, 450674
2096921,2096921, 310138, 450906
2096921,2096921, 310303, 450931
2096921,2096921, 310507, 451290
2096921,2096921, 310548, 451169
2096921,2096921, 310509, 450955
2096921,2096921, 310184, 450853
2096921,2096921, 310368, 451126
2096921,2096921, 310408, 451144
2096921,2096921, 310238, 451227
2096921,2096921, 310608, 451116
2096921,2096921, 310827, 451321
2096921,2096921, 310794, 451499
2096921,2096921, 310900, 451722
2096921,2096921, 311234, 451676
2096921,2096921, 311101, 451912
2096921,2096921, 310976, 452032
2096921,2096921, 311241, 451887
2096921,2096921, 311038, 452050
2096921,2096921, 310750, 452079
2096921,2096921, 311060, 451932
2096921,2096921, 311294, 451922
2096921,2096921, 311604, 451957
2096921,2096921, 311539, 452082
2096921,2096921, 311740, 452351
2096921,2096921, 311602, 452375
2096921,2096921, 311518, 451989
2096921,2096921, 311541, 451930
2096921,2096921, 311753, 452265
2096921,2096921, 311562, 452073
2096921,2096921, 311745, 452267
2096921,2096921, 311581, 452115
2096921,2096921, 311958, 452534
2096921,2096921, 312006, 452943
2096921,2096921, 312248, 453112
2096921,2096921, 312075, 452817
2096921,2096921, 311936, 452653
2096921,2096921, 311939, 452587
2096921,2096921, 312097, 452609
2096921,2096921, 312303, 453011
2096921,2096921, 312511, 452894
2096921,2096921, 312338, 452575
2096921,2096921, 312789, 452965
2096921,2096921, 312689, 453089
2096921,2096921, 312892, 453307
2096921,2096921, 312713, 453195
2096921,2096921, 312332, 452988
2096921,2096921, 312735, 452731
2096921,2096921, 312606, 452870
2096921,2096921, 312855, 453420
2096921,2096921, 312825, 453197
2096921,2096921, 312804, 453338
2096921,2096921, 312955, 453274
2096921,2096921, 313255, 453476
2096921,2096921, 313319, 453733
2096921,2096921, 313157, 453694
2096921,2096921, 312961, 453646
2096921,2096921, 313333, 453403
2096921,2096921, 313267, 453525
2096921,2096921, 313418, 453427
2096921,2096921, 313352, 453385
2096921,2096921, 313469, 453795
2096921,2096921, 313472, 453925
2096921,2096921, 313482, 454074
2096921,2096921, 313695, 453670
2096921,2096921, 313720, 454009
2096921,2096921, 313654, 453868
2096921,2096921, 313626, 453910
2096921,2096921, 313619, 453856
2096921,2096921, 313490, 454020
2096921,2096921, 313475, 453709
2096921,2096921, 313891, 453995
2096921,2096921, 314084, 454144
2096921,2096921, 313828, 454357
2096921,2096921, 314158, 454746
2096921,2096921, 313884, 454480
2096921,2096921, 314035, 454127
2096921,2096921, 313920, 454381
2096921,2096921, 314060, 454410
2096921,2096921, 314158, 454035
2096921,2096921, 313752, 454080
2096921,2096921, 314159, 454023
2096921,2096921, 314258, 454203
2096921,2096921, 314600, 454699
2096921,2096921, 314513, 454550
2096921,2096921, 314582, 454547
2096921,2096921, 314630, 454491
2096921,2096921, 314527, 454466
2096921,2096921, 314362, 454579
2096921,2096921, 314466, 454534
2096921,2096921, 314558, 454626
2096921,2096921, 314514, 454658
2096921,2096921, 314643, 454810
2096921,2096921, 314590, 454950
2096921,2096921, 314697, 454880
2096921,2096921, 314888, 454937
2096921,2096921, 314660, 455067
2096921,2096921, 314899, 454717
2096921,2096921, 314717, 454588
2096921,2096921, 314914, 454593
2096921,2096921, 314810, 454972
2096921,2096921, 315003, 454946
2096921,2096921, 315104, 455128
2096921,2096921, 315140, 454845
2096921,2096921, 314929, 455342
2096921,2096921, 314944, 455213
2096921,2096921, 314927, 455215
2096921,2096921, 314985, 455279
2096921,2096921, 314838, 455306
2096921,2096921, 314776, 455098
2096921,2096921, 315064, 454985
2096921,2096921, 314783, 455059
2096921,2096921, 315291, 455143
2096921,2096921, 315423, 455280
2096921,2096921, 315429, 455596
2096921,2096921, 315393, 455458
2096921,2096921, 315124, 455275
2096921,2096921, 315241, 455257
2096921,2096921, 315344, 454974
2096921,2096921, 315309, 455088
2096921,2096921, 315120, 455236
2096921,2096921, 315514, 455416
2096921,2096921, 315512, 455233
2096921,2096921, 315614, 455573
2096921,2096921, 315639, 455395
2096921,2096921, 315372, 455575
2096921,2096921, 315476, 455544
2096921,2096921, 315335, 455104
2096921,2096921, 315690, 455452
2096921,2096921, 315362, 455292
2096921,2096921, 315290, 455210
2096921,2096921, 315609, 455632
2096921,2096921, 315579, 455781
2096921,2096921, 315600, 455793
2096921,2096921, 315716, 455683
2096921,2096921, 315836, 455693
2096921,2096921, 315862, 455725
2096921,2096921, 315806, 455508
2096921,2096921, 315423, 455513
2096921,2096921, 315639, 455286
2096921,2096921, 315837, 455623
2096921,2096921, 315551, 455508
2096921,2096921, 315826, 455708
2096921,2096921, 315982, 455858
2096921,2096921, 316341, 455913
2096921,2096921, 316155, 455795
2096921,2096921, 315958, 455627
2096921,2096921, 315956, 455746
2096921,2096921, 315900, 455747
2096921,2096921, 315662, 455609
2096921,2096921, 316046, 456162
2096921,2096921, 315880, 455691
2096921,2096921, 316126, 455966
2096921,2096921, 316200, 456165
2096921,2096921, 316095, 455958
2096921,2096921, 315924, 455961
2096921,2096921, 315768, 455952
2096921,2096921, 315919, 455642
2096921,2096921, 315728, 456080
2096921,2096921, 315961, 455702
2096921,2096921, 315826, 455649
2096921,2096921, 316139, 455590
2096921,2096921, 316155, 455626
2096921,2096921, 316042, 456247
2096921,2096921, 316238, 456135
2096921,2096921, 316165, 455861
2096921,2096921, 316404, 456076
2096921,2096921, 316477, 456074
2096921,2096921, 316315, 456110
2096921,2096921, 316147, 456260
2096921,2096921, 316171, 455856
2096921,2096921, 316486, 455992
2096921,2096921, 316403, 456023
2096921,2096921, 316684, 456385
2096921,2096921, 316353, 456370
2096921,2096921, 316396, 456263
2096921,2096921, 316492, 456193
2096921,2096921, 316446, 456122
2096921,2096921, 316204, 456080
2096921,2096921, 316112, 456193
2096921,2096921, 316551, 456417
2096921,2096921, 316304, 456103
2096921,2096921, 316487, 456248
2096921,2096921, 316592, 456652
2096921,2096921, 316828, 456646
2096921,2096921, 316759, 456747
2096921,2096921, 316412, 456480
2096921,2096921, 316315, 456462
2096921,2096921, 316720, 456232
2096921,2096921, 316463, 456224
2096921,2096921, 316506, 456071
2096921,2096921, 316489, 456188
2096921,2096921, 316574, 456235
2096921,2096921, 316752, 456241
2096921,2096921, 316738, 456448
2096921,2096921, 316968, 456226
2096921,2096921, 316547, 456202
2096921,2096921, 316277, 456047
2096921,2096921, 316335, 456254
2096921,2096921, 316607, 456210
2096921,2096921, 316467, 456091
2096921,2096921, 316366, 456166
2096921,2096921, 316363, 456168
2096921,2096921, 316655, 456334
2096921,2096921, 316850, 456672
2096921,2096921, 316754, 456626
2096921,2096921, 316607, 456516
2096921,2096921, 316753, 456143
2096921,2096921, 316270, 456438
2096921,2096921, 316182, 456194
2096921,2096921, 316424, 456397
2096921,2096921, 316689, 456560
2096921,2096921, 316494, 456366
2096921,2096921, 316855, 456534
2096921,2096921, 316752, 456643
2096921,2096921, 316767, 456418
2096921,2096921, 316699, 456553
2096921,2096921, 316753, 456459
2096921,2096921, 316605, 456396
2096921,2096921, 316556, 456224
2096921,2096921, 316767, 456075
2096921,2096921, 316426, 456444
2096921,2096921, 316571, 456465
2096921,2096921, 316877, 456338
2096921,2096921, 317087, 456306
2096921,2096921, 316891, 456306
2096921,2096921, 316454, 456254
2096921,2096921, 316326, 456434
2096921,2096921, 316279, 456122
2096921,2096921, 316310, 456413
2096921,2096921, 316487, 456202
2096921,2096921, 316547, 456333
2096921,2096921, 316651, 456597
2096921,2096921, 316646, 456526
2096921,2096921, 316808, 456694
2096921,2096921, 316652, 456634
2096921,2096921, 316622, 456368
2096921,2096921, 316000, 456092
2096921,2096921, 315896, 455648
2096921,2096921, 315696, 455868
2096921,2096921, 316020, 455995
2096921,2096921, 316051, 455655
2096921,2096921, 315971, 455853
2096921,2096921, 315611, 455622
2096921,2096921, 315721, 455883
2096921,2096921, 315373, 455525
2096921,2096921, 315446, 455351
2096921,2096921, 315079, 455436
2096921,2096921, 314718, 454846
2096921,2096921, 314820, 454558
2096921,2096921, 314841, 454702
2096921,2096921, 314707, 454696
2096921,2096921, 314015, 454590
2096921,2096921, 313993, 454279
2096921,2096921, 314200, 454452
2096921,2096921, 313612, 454104
2096921,2096921, 313882, 454084
2096921,2096921, 313011, 453721
2096921,2096921, 312442, 453159
2096921,2096921, 312568, 453224
2096921,2096921, 312604, 453205
2096921,2096921, 312963, 453101
2096921,2096921, 310816, 453000
2096921,2096921, 310443, 451701
2096921,2096921, 310603, 451348
2096921,2096921, 310548, 451167
2096921,2096921, 310228, 451170
2096921,2096921, 308126, 450755
2096921,2096921, 307518, 449124
2096921,2096921, 307172, 448554
2096921,2096921, 307340, 448484
2096921,2096921, 307580, 448813
2096921,2096921, 305811, 448343
2096921,2096921, 305371, 447409
2096921,2096921, 305404, 447018
2096921,2096921, 305248, 446999
2096921,2096921, 305130, 446748
2096921,2096921, 303810, 446259
2096921,2096921, 303172, 445621
2096921,2096921, 303378, 445516
2096921,2096921, 303358, 445385
2096921,2096921, 303254, 445464
2096921,2096921, 302416, 445406
2096921,2096921, 302220, 444884
2096921,2096921, 302486, 444515
2096921,2096921, 302123, 444413
2096921,2096921, 302233, 444435
2096921,2096921, 301586, 443941
2096921,2096921, 301618, 443703
2096921,2096921, 301451, 443556
2096921,2096921, 301280, 443544
2096921,2096921, 301386, 443734
2096921,2096921, 301082, 443502
2096921,2096921, 300884, 443400
2096921,2096921, 300953, 443389
2096921,2096921, 300547, 443401
2096921,2096921, 300775, 443157
2096921,2096921, 300323, 442963
2096921,2096921, 300085, 442960
2096921,2096921, 299890, 442826
2096921,2096921, 300189, 442734
2096921,2096921, 300438, 442722
2096921,2096921, 300566, 442867
2096921,2096921, 300185, 442529
2096921,2096921, 300305, 442790
2096921,2096921, 300377, 442782
2096921,2096921, 300158, 442797
2096921,2096921, 300189, 442545
2096921,2096921, 299851, 442453
2096921,2096921, 299930, 442495
2096921,2096921, 299869, 442445
2096921,2096921, 300313, 442978
2096921,2096921, 300613, 442999
2096921,2096921, 300652, 443127
2096921,2096921, 300512, 443263
2096921,2096921, 300637, 443268
2096921,2096921, 300512, 443127
2096921,2096921, 300364, 442667
2096921,2096921, 300637, 443018
2096921,2096921, 300083, 442945
2096921,2096921, 300564, 443105
2096921,2096921, 300700, 443361
2096921,2096921, 300802, 443184
2096921,2096921, 300847, 443190
2096921,2096921, 301099, 443110
2096921,2096921, 300825, 443446
2096921,2096921, 300769, 443382
2096921,2096921, 301054, 443238
2096921,2096921, 301107, 443205
2096921,2096921, 301094, 443430
2096921,2096921, 300984, 443408
2096921,2096921, 301457, 443535
2096921,2096921, 301673, 443836
2096921,2096921, 301443, 444126
2096921,2096921, 301945, 443913
2096921,2096921, 301717, 444251
2096921,2096921, 301733, 444006
2096921,2096921, 302157, 443870
2096921,2096921, 302413, 444370
2096921,2096921, 302284, 444432
2096921,2096921, 302296, 444480
2096921,2096921, 302024, 444503
2096921,2096921, 302604, 444492
2096921,2096921, 302678, 444526
2096921,2096921, 303023, 445013
2096921,2096921, 302801, 445028
2096921,2096921, 302789, 444974
2096921,2096921, 303203, 444891
2096921,2096921, 303379, 445143
2096921,2096921, 303101, 445022
2096921,2096921, 303424, 445062
2096921,2096921, 303408, 445009
2096921,2096921, 303741, 445250
2096921,2096921, 303910, 445426
2096921,2096921, 304108, 445667
2096921,2096921, 304129, 445936
2096921,2096921, 303699, 445919
2096921,2096921, 304088, 445707
2096921,2096921, 304302, 446220
2096921,2096921, 304296, 446255
2096921,2096921, 304049, 445948
2096921,2096921, 304140, 446179
2096921,2096921, 304767, 446576
2096921,2096921, 304963, 446483
2096921,2096921, 305050, 446495
2096921,2096921, 304805, 446845
2096921,2096921, 304460, 446515
2096921,2096921, 304970, 446745
2096921,2096921, 305158, 447063
2096921,2096921, 305009, 447021
2096921,2096921, 305105, 446926
2096921,2096921, 305278, 446653
2096921,2096921, 305769, 447180
2096921,2096921, 305867, 447574
2096921,2096921, 306051, 447506
2096921,2096921, 305953, 447651
2096921,2096921, 305874, 447308
2096921,2096921, 306319, 447450
2096921,2096921, 306280, 447523
2096921,2096921, 306410, 447851
2096921,2096921, 306214, 447807
2096921,2096921, 306524, 447915
2096921,2096921, 306982, 448031
2096921,2096921, 306741, 448704
2096921,2096921, 306905, 448499
2096921,2096921, 307039, 448901
2096921,2096921, 307162, 448303
2096921,2096921, 307180, 448357
2096921,2096921, 307457, 448624
2096921,2096921, 307456, 448500
2096921,2096921, 307269, 448593
2096921,2096921, 307358, 448478
2096921,2096921, 307745, 449002
2096921,2096921, 307760, 448885
2096921,2096921, 307899, 448973
2096921,2096921, 307487, 449058
2096921,2096921, 307919, 448984
2096921,2096921, 307792, 449251
2096921,2096921, 307859, 449289
2096921,2096921, 307864, 449113
2096921,2096921, 308030, 449207
2096921,2096921, 307945, 449317
2096921,2096921, 308144, 449587
2096921,2096921, 308568, 449343
2096921,2096921, 308494, 449282
2096921,2096921, 308287, 449432
2096921,2096921, 308195, 449435
2096921,2096921, 308201, 449013
2096921,2096921, 308132, 449033
2096921,2096921, 307949, 449385
2096921,2096921, 308050, 449337
2096921,2096921, 308293, 449334
2096921,2096921, 308439, 449455
2096921,2096921, 308446, 449427
2096921,2096921, 308525, 449879
2096921,2096921, 308655, 449929
2096921,2096921, 308322, 449745
2096921,2096921, 308463, 449495
2096921,2096921, 308393, 449577
2096921,2096921, 308214, 449448
2096921,2096921, 308129, 449726
2096921,2096921, 308546, 449499
2096921,2096921, 308242, 449606
2096921,2096921, 308635, 449466
2096921,2096921, 308483, 449494
2096921,2096921, 308372, 449555
2096921,2096921, 308153, 449488
2096921,2096921, 308129, 449352
2096921,2096921, 307794, 449082
2096921,2096921, 307970, 449195
2096921,2096921, 308060, 449224
2096921,2096921, 308053, 449233
2096921,2096921, 308094, 449507
2096921,2096921, 308022, 449274
2096921,2096921, 308083, 449166
2096921,2096921, 307675, 449524
2096921,2096921, 307909, 449458
2096921,2096921, 307730, 449489
2096921,2096921, 307849, 448874
2096921,2096921, 307620, 448838
2096921,2096921, 307701, 448666
2096921,2096921, 307784, 448935
2096921,2096921, 307671, 449112
2096921,2096921, 307386, 449068
2096921,2096921, 307818, 448943
2096921,2096921, 307724, 448970
2096921,2096921, 307643, 448953
2096921,2096921, 307381, 449078
2096921,2096921, 307790, 448860
2096921,2096921, 307474, 448655
2096921,2096921, 307620, 448867
2096921,2096921, 307525, 448917
2096921,2096921, 307661, 448873
2096921,2096921, 307820, 448834
2096921,2096921, 307853, 449104
2096921,2096921, 307812, 448917
2096921,2096921, 307826, 449053
2096921,2096921, 307461, 448621
2096921,2096921, 307392, 448909
2096921,2096921, 307489, 448820
2096921,2096921, 307616, 448681
2096921,2096921, 307660, 448798
2096921,2096921, 307736, 449061
2096921,2096921, 307997, 449244
2096921,2096921, 307785, 449330
2096921,2096921, 307740, 449204
2096921,2096921, 307778, 448992
2096921,2096921, 307608, 448897
2096921,2096921, 307641, 449170
2096921,2096921, 307636, 449068
2096921,2096921, 307719, 449125
2096921,2096921, 307989, 448768
2096921,2096921, 308105, 448929
2096921,2096921, 308362, 449650
2096921,2096921, 308530, 449594
2096921,2096921, 308259, 449705
2096921,2096921, 308232, 449601
2096921,2096921, 308430, 449688
2096921,2096921, 308772, 449742
2096921,2096921, 308448, 449777
2096921,2096921, 308691, 449712
2096921,2096921, 308827, 449788
2096921,2096921, 309014, 449942
2096921,2096921, 309122, 450416
2096921,2096921, 309083, 450378
2096921,2096921, 309249, 450197
2096921,2096921, 308963, 450200
2096921,2096921, 309515, 450259
2096921,2096921, 309355, 450320
2096921,2096921, 309419, 450265
2096921,2096921, 309402, 450150
2096921,2096921, 309442, 450330
2096921,2096921, 309839, 450683
2096921,2096921, 309982, 450820
2096921,2096921, 310000, 450912
2096921,2096921, 309672, 451111
2096921,2096921, 309763, 450802
2096921,2096921, 309503, 450729
2096921,2096921, 310089, 450901
2096921,2096921, 309776, 451018
2096921,2096921, 309965, 450643
2096921,2096921, 310044, 450855
2096921,2096921, 310393, 451258
2096921,2096921, 310072, 451159
2096921,2096921, 310680, 451272
2096921,2096921, 310221, 451120
2096921,2096921, 310150, 451110
2096921,2096921, 310494, 451026
2096921,2096921, 310446, 451218
2096921,2096921, 310308, 451083
2096921,2096921, 310455, 451389
2096921,2096921, 310357, 451516
2096921,2096921, 310747, 451616
2096921,2096921, 310697, 451726
2096921,2096921, 311277, 451795
2096921,2096921, 311054, 451908
2096921,2096921, 310893, 451679
2096921,2096921, 311220, 451747
2096921,2096921, 310943, 452008
2096921,2096921, 310986, 451828
2096921,2096921, 311017, 451890
2096921,2096921, 311104, 452059
2096921,2096921, 311246, 452000
2096921,2096921, 311700, 452349
2096921,2096921, 311702, 452296
2096921,2096921, 311419, 451955
2096921,2096921, 311155, 452214
2096921,2096921, 311275, 451907
2096921,2096921, 311657, 451953
2096921,2096921, 311209, 452112
2096921,2096921, 311769, 452256
2096921,2096921, 311648, 452422
2096921,2096921, 312023, 452350
2096921,2096921, 312116, 452437
2096921,2096921, 312124, 452572
2096921,2096921, 311993, 452525
2096921,2096921, 311959, 452549
2096921,2096921, 312187, 452651
2096921,2096921, 312251, 452737
2096921,2096921, 312000, 452734
2096921,2096921, 312263, 452551
2096921,2096921, 312300, 452858
2096921,2096921, 312693, 452910
2096921,2096921, 312642, 452956
2096921,2096921, 312565, 453130
2096921,2096921, 312716, 452958
2096921,2096921, 312369, 452965
2096921,2096921, 312517, 453289
2096921,2096921, 312721, 453098
2096921,2096921, 312802, 453150
2096921,2096921, 313068, 452963
2096921,2096921, 312965, 453162
2096921,2096921, 313079, 453200
2096921,2096921, 313281, 453616
2096921,2096921, 313500, 453582
2096921,2096921, 312676, 453450
2096921,2096921, 313167, 453312
2096921,2096921, 313007, 453436
2096921,2096921, 313178, 453649
2096921,2096921, 313400, 453453
2096921,2096921, 313449, 453553
2096921,2096921, 313310, 453514
2096921,2096921, 313237, 453731
2096921,2096921, 313567, 453766
2096921,2096921, 313848, 453994
2096921,2096921, 313849, 453731
2096921,2096921, 313552, 453699
2096921,2096921, 313682, 453738
2096921,2096921, 313585, 454097
2096921,2096921, 313447, 453714
2096921,2096921, 313716, 453852
2096921,2096921, 314013, 453989
2096921,2096921, 313772, 454152
2096921,2096921, 313552, 454061
2096921,2096921, 313991, 454330
2096921,2096921, 314108, 454377
2096921,2096921, 314224, 454111
2096921,2096921, 314226, 454325
2096921,2096921, 314317, 454291
2096921,2096921, 314018, 454343
2096921,2096921, 314002, 454176
2096921,2096921, 314210, 454342
2096921,2096921, 314357, 454335
2096921,2096921, 314486, 454531
2096921,2096921, 314514, 454767
2096921,2096921, 314419, 454655
2096921,2096921, 314364, 454432
2096921,2096921, 314595, 454592
2096921,2096921, 314348, 454653
2096921,2096921, 314287, 454450
2096921,2096921, 314740, 454566
2096921,2096921, 314553, 454853
2096921,2096921, 314951, 454873
2096921,2096921, 314883, 454689
2096921,2096921, 315154, 454569
2096921,2096921, 315025, 454859
2096921,2096921, 314992, 454696
2096921,2096921, 314698, 454917
2096921,2096921, 314798, 454712
2096921,2096921, 314824, 454825
2096921,2096921, 314705, 454821
2096921,2096921, 314889, 455115
2096921,2096921, 315258, 455011
2096921,2096921, 315233, 455071
2096921,2096921, 315369, 455157
2096921,2096921, 315301, 455002
2096921,2096921, 315207, 455435
2096921,2096921, 314917, 454889
2096921,2096921, 315181, 455060
2096921,2096921, 315100, 455145
2096921,2096921, 314696, 454932
2096921,2096921, 315088, 455119
2096921,2096921, 315417, 455282
2096921,2096921, 315475, 455451
2096921,2096921, 315611, 455534
2096921,2096921, 315640, 455467
2096921,2096921, 315312, 455374
2096921,2096921, 315156, 455165
2096921,2096921, 315000, 455399
2096921,2096921, 315275, 455491
2096921,2096921, 315269, 455128
2096921,2096921, 315272, 455202
2096921,2096921, 315529, 455489
2096921,2096921, 315658, 455434
2096921,2096921, 315744, 455701
2096921,2096921, 315334, 455961
2096921,2096921, 315366, 455481
2096921,2096921, 315445, 455446
2096921,2096921, 315760, 455130
2096921,2096921, 315371, 455241
2096921,2096921, 315488, 455128
2096921,2096921, 315624, 455388
2096921,2096921, 315654, 455699
2096921,2096921, 315676, 455664
2096921,2096921, 315958, 455802
2096921,2096921, 315994, 455623
2096921,2096921, 315788, 455373
2096921,2096921, 315799, 455560
2096921,2096921, 315760, 455774
2096921,2096921, 315589, 455664
2096921,2096921, 315822, 455490
2096921,2096921, 315640, 455561
2096921,2096921, 316130, 455525
2096921,2096921, 316137, 455839
2096921,2096921, 315861, 455800
2096921,2096921, 315591, 455799
2096921,2096921, 315780, 455744
2096921,2096921, 315782, 455620
2096921,2096921, 315931, 455697
2096921,2096921, 315914, 455592
2096921,2096921, 315961, 455572
2096921,2096921, 316192, 455950
2096921,2096921, 316037, 456148
2096921,2096921, 316208, 456152
2096921,2096921, 316262, 455928
2096921,2096921, 316164, 456117
2096921,2096921, 315813, 455881
2096921,2096921, 315944, 455878
2096921,2096921, 316006, 455783
2096921,2096921, 316067, 455849
2096921,2096921, 316069, 456085
2096921,2096921, 316031, 456295
2096921,2096921, 316161, 456405
2096921,2096921, 316199, 456309
2096921,2096921, 316334, 456257
2096921,2096921, 316540, 456027
2096921,2096921, 316288, 456240
2096921,2096921, 316229, 456231
2096921,2096921, 316273, 456272
2096921,2096921, 316146, 456080
2096921,2096921, 315961, 456056
2096921,2096921, 316156, 456210
2096921,2096921, 316305, 456413
2096921,2096921, 316639, 456220
2096921,2096921, 316463, 456418
2096921,2096921, 316477, 456344
2096921,2096921, 316601, 456125
2096921,2096921, 316658, 456170
2096921,2096921, 316106, 456134
2096921,2096921, 316262, 456172
2096921,2096921, 316382, 455906
2096921,2096921, 316498, 456030
2096921,2096921, 316648, 456211
2096921,2096921, 316760, 456191
2096921,2096921, 316480, 456442
2096921,2096921, 316819, 456736
2096921,2096921, 316553, 456400
2096921,2096921, 316599, 456406
2096921,2096921, 316367, 456067
2096921,2096921, 316376, 456490
2096921,2096921, 316495, 456282
2096921,2096921, 316390, 456525
2096921,2096921, 316607, 456470
2096921,2096921, 316719, 456395
2096921,2096921, 316850, 456265
2096921,2096921, 316831, 456769
2096921,2096921, 316626, 456468
2096921,2096921, 316617, 456140
2096921,2096921, 316404, 456392
2096921,2096921, 316327, 456443
2096921,2096921, 316287, 456556
2096921,2096921, 316502, 456411
2096921,2096921, 316707, 456288
2096921,2096921, 316524, 456281
2096921,2096921, 316788, 456633
2096921,2096921, 316473, 456401
2096921,2096921, 316561, 456615
2096921,2096921, 316305, 456312
2096921,2096921, 316416, 456476
2096921,2096921, 316485, 456355
2096921,2096921, 316431, 456214
2096921,2096921, 316733, 456215
2096921,2096921, 316865, 456109
2096921,2096921, 316841, 456392
2096921,2096921, 316792, 456482
2096921,2096921, 316947, 456525
2096921,2096921, 316584, 456315
2096921,2096921, 316656, 456211
2096921,2096921, 316447, 456382
2096921,2096921, 316344, 456351
2096921,2096921, 316517, 456223
2096921,2096921, 316791, 456362
2096921,2096921, 316877, 456377
2096921,2096921, 316669, 456248
2096921,2096921, 316657, 456343
2096921,2096921, 316723, 456614
2096921,2096921, 316519, 456297
2096921,2096921, 316503, 456202
2096921,2096921, 316669, 456211
2096921,2096921, 316413, 456177
2096921,2096921, 316328, 456009
2096921,2096921, 316451, 456221
2096921,2096921, 316674, 456412
2096921,2096921, 316509, 456471
2096921,2096921, 316616, 456508
2096921,2096921, 316837, 456695
2096921,2096921, 316541, 456508
2096921,2096921, 316043, 456064
2096921,2096921, 315987, 455754
2096921,2096921, 316035, 455902
2096921,2096921, 315764, 455726
2096921,2096921, 315850, 455805
2096921,2096921, 315784, 455923
2096921,2096921, 315913, 455472
2096921,2096921, 316076, 455433
2096921,2096921, 315946, 455715
2096921,2096921, 315674, 455819
2096921,2096921, 314755, 455250
2096921,2096921, 314809, 455026
2096921,2096921, 314433, 454938
2096921,2096921, 314701, 454824
2096921,2096921, 314708, 454890
2096921,2096921, 313847, 455033
2096921,2096921, 313928, 454364
2096921,2096921, 313764, 454347
2096921,2096921, 313981, 454353
2096921,2096921, 313827, 453933
2096921,2096921, 312943, 453831
2096921,2096921, 312983, 453421
2096921,2096921, 312476, 453370
2096921,2096921, 312777, 453067
2096921,2096921, 312662, 452946
2096921,2096921, 311007, 452282
2096921,2096921, 310552, 451570
2096921,2096921, 310393, 451362
2096921,2096921, 310341, 451352
2096921,2096921, 310424, 450978
2096921,2096921, 307875, 450237
2096921,2096921, 307326, 448813
2096921,2096921, 307198, 448660
2096921,2096921, 307527, 448518
2096921,2096921, 307450, 448783
2096921,2096921, 305749, 448203
2096921,2096921, 305341, 447219
2096921,2096921, 305313, 447222
2096921,2096921, 305518, 446971
2096921,2096921, 305057, 446788
2096921,2096921, 303616, 446274
2096921,2096921, 303442, 445871
2096921,2096921, 303390, 445353
2096921,2096921, 303507, 445429
2096921,2096921, 303512, 445509
2096921,2096921, 302370, 445037
2096921,2096921, 302401, 444212
2096921,2096921, 302519, 444699
2096921,2096921, 302539, 444735
2096921,2096921, 302193, 444588
2096921,2096921, 301631, 444321
2096921,2096921, 301278, 443664
2096921,2096921, 301255, 443667
2096921,2096921, 301393, 443748
2096921,2096921, 301372, 443499
2096921,2096921, 301229, 443346
2096921,2096921, 300999, 443273
2096921,2096921, 300961, 443151
2096921,2096921, 300681, 443309
2096921,2096921, 300562, 443142
2096921,2096921, 300286, 443327
2096921,2096921, 300200, 442826
2096921,2096921, 299956, 443083
2096921,2096921, 300173, 442638
2096921,2096921, 300268, 442776
2096921,2096921, 300081, 442528
2096921,2096921, 300313, 442659
2096921,2096921, 300337, 442723
2096921,2096921, 300227, 442995
2096921,2096921, 300181, 442792
2096921,2096921, 300102, 442768
2096921,2096921, 300375, 442621
2096921,2096921, 300345, 442797
2096921,2096921, 300359, 442653
2096921,2096921, 299909, 442806
2096921,2096921, 300262, 442788
2096921,2096921, 300403, 442881
2096921,2096921, 300542, 442869
2096921,2096921, 300587, 442936
2096921,2096921, 300624, 443147
2096921,2096921, 300689, 442746
2096921,2096921, 300392, 443010
2096921,2096921, 300626, 442969
2096921,2096921, 300830, 443045
2096921,2096921, 300733, 443059
2096921,2096921, 300819, 443188
2096921,2096921, 300846, 443344
2096921,2096921, 301045, 443389
2096921,2096921, 300899, 443264
2096921,2096921, 300733, 443420
2096921,2096921, 301096, 443193
2096921,2096921, 301209, 443409
2096921,2096921, 301094, 443361
2096921,2096921, 301210, 443466
2096921,2096921, 301524, 443600
2096921,2096921, 301686, 443631
2096921,2096921, 302019, 443935
2096921,2096921, 301970, 444119
2096921,2096921, 301905, 444215
2096921,2096921, 301484, 444130
2096921,2096921, 302180, 444014
2096921,2096921, 302059, 444256
2096921,2096921, 302344, 444270
2096921,2096921, 302086, 444406
2096921,2096921, 302270, 444259
2096921,2096921, 302650, 444447
2096921,2096921, 302930, 445242
2096921,2096921, 303027, 444936
2096921,2096921, 303037, 444900
2096921,2096921, 303018, 444829
2096921,2096921, 303118, 445018
2096921,2096921, 303085, 445046
2096921,2096921, 303407, 445268
2096921,2096921, 303159, 445075
2096921,2096921, 303235, 445289
2096921,2096921, 303812, 445260
2096921,2096921, 304092, 445718
2096921,2096921, 303879, 446216
2096921,2096921, 303606, 445888
2096921,2096921, 303884, 445822
2096921,2096921, 304128, 445784
2096921,2096921, 304373, 446065
2096921,2096921, 303661, 446169
2096921,2096921, 304137, 445971
2096921,2096921, 304220, 446121
2096921,2096921, 304762, 445983
2096921,2096921, 304812, 446567
2096921,2096921, 305077, 446476
2096921,2096921, 304942, 446477
2096921,2096921, 305159, 446584
2096921,2096921, 305176, 446550
2096921,2096921, 305218, 446851
2096921,2096921, 305107, 446651
2096921,2096921, 305273, 446703
2096921,2096921, 305239, 446829
2096921,2096921, 305566, 447209
2096921,2096921, 306155, 447303
2096921,2096921, 306300, 447479
2096921,2096921, 305819, 447678
2096921,2096921, 305785, 447600
2096921,2096921, 306173, 447453
2096921,2096921, 306335, 447852
2096921,2096921, 306207, 447679
2096921,2096921, 306259, 447696
2096921,2096921, 306328, 447760
2096921,2096921, 307178, 448237
2096921,2096921, 307016, 448420
2096921,2096921, 307340, 448961
2096921,2096921, 307348, 448593
2096921,2096921, 307056, 448695
2096921,2096921, 307179, 448540
2096921,2096921, 306876, 448813
2096921,2096921, 307296, 448557
2096921,2096921, 307453, 448633
2096921,2096921, 307455, 448533
2096921,2096921, 307829, 448942
2096921,2096921, 308002, 448989
2096921,2096921, 307997, 448902
2096921,2096921, 307792, 449038
2096921,2096921, 307800, 449044
2096921,2096921, 307958, 449157
2096921,2096921, 308038, 449246
2096921,2096921, 307855, 449155
2096921,2096921, 307864, 449234
2096921,2096921, 307945, 449093
2096921,2096921, 308441, 449310
2096921,2096921, 308388, 449515
2096921,2096921, 308313, 449512
2096921,2096921, 308116, 449574
2096921,2096921, 308190, 449373
2096921,2096921, 308392, 449617
2096921,2096921, 308402, 449290
2096921,2096921, 308547, 449729
2096921,2096921, 308638, 449554
2096921,2096921, 308441, 449385
2096921,2096921, 308418, 449436
2096921,2096921, 308634, 449440
2096921,2096921, 309056, 449421
2096921,2096921, 308572, 449621
2096921,2096921, 308341, 449627
2096921,2096921, 308315, 449592
2096921,2096921, 308611, 449481
2096921,2096921, 308203, 449555
2096921,2096921, 308460, 449713
2096921,2096921, 308368, 449712
2096921,2096921, 308304, 449570
2096921,2096921, 308353, 449731
2096921,2096921, 308581, 449669
2096921,2096921, 308466, 449747
2096921,2096921, 308334, 449462
2096921,2096921, 308187, 449290
2096921,2096921, 308117, 449302
2096921,2096921, 307766, 449255
2096921,2096921, 308006, 449584
2096921,2096921, 308000, 449376
2096921,2096921, 308094, 449093
2096921,2096921, 308005, 449419
2096921,2096921, 308226, 449371
2096921,2096921, 307929, 449437
2096921,2096921, 307911, 449317
2096921,2096921, 307777, 448889
2096921,2096921, 307391, 449132
2096921,2096921, 307850, 448986
2096921,2096921, 307623, 448884
2096921,2096921, 307836, 448901
2096921,2096921, 307569, 449120
2096921,2096921, 307616, 448875
2096921,2096921, 307716, 449025
2096921,2096921, 307727, 448753
2096921,2096921, 307412, 448934
2096921,2096921, 307626, 448833
2096921,2096921, 307204, 449001
2096921,2096921, 307207, 448891
2096921,2096921, 307440, 448714
2096921,2096921, 307678, 448670
2096921,2096921, 307695, 449029
2096921,2096921, 307642, 449138
2096921,2096921, 307629, 449060
2096921,2096921, 307599, 448950
2096921,2096921, 307543, 448830
2096921,2096921, 307530, 448631
2096921,2096921, 307763, 448598
2096921,2096921, 307315, 448768
2096921,2096921, 307638, 448680
2096921,2096921, 307542, 448753
2096921,2096921, 307877, 449024
2096921,2096921, 307940, 449252
2096921,2096921, 308171, 449535
2096921,2096921, 307984, 449451
2096921,2096921, 307907, 449094
2096921,2096921, 307701, 449081
2096921,2096921, 307600, 449019
2096921,2096921, 307343, 448889
2096921,2096921, 307485, 449073
2096921,2096921, 308015, 449496
2096921,2096921, 308433, 449376
2096921,2096921, 308593, 449608
2096921,2096921, 308621, 449529
2096921,2096921, 308474, 449457
2096921,2096921, 308322, 449619
2096921,2096921, 308366, 449767
2096921,2096921, 308404, 449940
2096921,2096921, 308609, 449837
2096921,2096921, 308818, 449697
2096921,2096921, 308801, 449899
2096921,2096921, 309090, 450001
2096921,2096921, 309407, 450113
2096921,2096921, 309312, 450197
2096921,2096921, 309232, 450037
2096921,2096921, 309082, 450221
2096921,2096921, 309208, 450478
2096921,2096921, 309405, 450191
2096921,2096921, 309402, 450461
2096921,2096921, 309270, 450054
2096921,2096921, 309442, 450284
2096921,2096921, 309951, 450423
2096921,2096921, 309765, 450910
2096921,2096921, 310262, 450903
2096921,2096921, 309809, 450883
2096921,2096921, 309865, 450810
2096921,2096921, 310131, 450771
2096921,2096921, 310068, 450577
2096921,2096921, 309772, 450830
2096921,2096921, 309982, 450556
2096921,2096921, 309912, 450946
2096921,2096921, 310534, 450928
2096921,2096921, 310609, 451108
2096921,2096921, 310489, 451092
2096921,2096921, 310247, 451380
2096921,2096921, 310211, 451082
2096921,2096921, 310737, 451215
2096921,2096921, 310373, 451462
2096921,2096921, 310396, 451057
2096921,2096921, 310580, 451297
2096921,2096921, 310874, 451229
2096921,2096921, 311122, 451471
2096921,2096921, 311010, 452016
2096921,2096921, 311326, 452030
2096921,2096921, 310863, 451731
2096921,2096921, 311005, 451849
2096921,2096921, 311353, 451883
2096921,2096921, 311417, 452135
2096921,2096921, 310879, 451987
2096921,2096921, 310931, 452059
2096921,2096921, 311407, 452062
2096921,2096921, 311639, 452093
2096921,2096921, 311498, 452247
2096921,2096921, 311951, 452193
2096921,2096921, 311390, 452287
2096921,2096921, 311541, 452404
2096921,2096921, 311529, 452054
2096921,2096921, 311429, 452344
2096921,2096921, 311459, 452656
2096921,2096921, 311749, 452466
2096921,2096921, 311724, 452670
2096921,2096921, 311909, 452573
2096921,2096921, 312119, 452666
2096921,2096921, 312445, 452777
2096921,2096921, 312185, 452742
2096921,2096921, 312013, 452802
2096921,2096921, 312075, 452510
2096921,2096921, 312117, 453005
2096921,2096921, 312039, 452948
2096921,2096921, 312336, 452656
2096921,2096921, 312384, 452776
2096921,2096921, 312499, 452740
2096921,2096921, 312808, 453079
2096921,2096921, 312789, 453079
2096921,2096921, 312806, 452800
2096921,2096921, 312898, 453081
2096921,2096921, 312815, 453071
2096921,2096921, 313000, 453396
2096921,2096921, 312714, 453246
2096921,2096921, 312692, 453188
2096921,2096921, 312807, 453153
2096921,2096921, 313413, 453506
2096921,2096921, 313394, 453816
2096921,2096921, 313514, 453586
2096921,2096921, 313496, 453649
2096921,2096921, 312827, 453535
2096921,2096921, 312949, 453347
2096921,2096921, 312986, 453858
2096921,2096921, 312968, 453540
2096921,2096921, 313225, 453487
2096921,2096921, 313700, 453925
2096921,2096921, 313764, 453949
2096921,2096921, 313742, 454108
2096921,2096921, 313550, 454044
2096921,2096921, 313714, 453899
2096921,2096921, 313731, 453882
2096921,2096921, 313702, 453974
2096921,2096921, 313766, 453632
2096921,2096921, 313567, 453716
2096921,2096921, 313740, 453872
2096921,2096921, 313547, 454035
2096921,2096921, 313844, 454099
2096921,2096921, 314233, 454280
2096921,2096921, 314184, 454201
2096921,2096921, 313811, 454485
2096921,2096921, 314027, 454336
2096921,2096921, 313945, 454186
2096921,2096921, 313887, 454183
2096921,2096921, 313877, 453927
2096921,2096921, 313707, 454258
2096921,2096921, 314125, 454332
2096921,2096921, 314319, 454810
2096921,2096921, 314706, 454756
2096921,2096921, 314539, 454728
2096921,2096921, 314569, 454545
2096921,2096921, 314399, 454645
2096921,2096921, 314379, 454286
2096921,2096921, 314381, 454624
2096921,2096921, 314278, 454758
2096921,2096921, 314488, 454814
2096921,2096921, 314715, 454981
2096921,2096921, 314986, 454982
2096921,2096921, 315057, 454942
2096921,2096921, 315079, 455113
2096921,2096921, 314908, 454790
2096921,2096921, 314719, 454788
2096921,2096921, 314741, 455037
2096921,2096921, 314798, 454966
2096921,2096921, 315021, 454859
2096921,2096921, 314590, 454815
2096921,2096921, 314981, 455037
2096921,2096921, 314963, 454963
2096921,2096921, 315076, 455176
2096921,2096921, 315142, 455087
2096921,2096921, 315111, 455303
2096921,2096921, 315001, 455009
2096921,2096921, 314953, 454893
2096921,2096921, 314939, 455043
2096921,2096921, 314807, 455272
2096921,2096921, 314871, 455146
2096921,2096921, 315149, 455066
2096921,2096921, 315413, 455252
2096921,2096921, 315488, 455480
2096921,2096921, 315475, 455437
