2096921,2096921,303832,385095
2096921,2096921,304000,385366
2096921,2096921,303862,385077
2096921,2096921,303801,385246
2096921,2096921,303737,385339
2096921,2096921,304429,385271
2096921,2096921,304186,385444
2096921,2096921,304116,385544
2096921,2096921,303976,385561
2096921,2096921,304088,385415
2096921,2096921,304275,385635
2096921,2096921,304416,385923
2096921,2096921,304398,385788
2096921,2096921,304609,385625
2096921,2096921,304419,385651
2096921,2096921,304583,385915
2096921,2096921,304503,385869
2096921,2096921,304673,385997
2096921,2096921,304695,385889
2096921,2096921,304332,385988
2096921,2096921,304542,385854
2096921,2096921,304671,386000
2096921,2096921,304758,385932
2096921,2096921,304934,386434
2096921,2096921,304966,386366
2096921,2096921,304955,386531
2096921,2096921,304778,386480
2096921,2096921,304738,386575
2096921,2096921,304844,386310
2096921,2096921,304840,386465
2096921,2096921,304958,386649
2096921,2096921,305040,386651
2096921,2096921,304980,386467
2096921,2096921,305320,386778
2096921,2096921,305151,386488
2096921,2096921,305307,386717
2096921,2096921,305362,386761
2096921,2096921,305214,386705
2096921,2096921,305129,386716
2096921,2096921,305506,386656
2096921,2096921,305411,387007
2096921,2096921,305360,387084
2096921,2096921,305576,387028
2096921,2096921,305562,386902
2096921,2096921,305609,387179
2096921,2096921,305745,387423
2096921,2096921,305955,387347
2096921,2096921,305792,387338
2096921,2096921,305749,387527
2096921,2096921,305661,387173
2096921,2096921,305969,387277
2096921,2096921,305691,387396
2096921,2096921,306080,387502
2096921,2096921,305846,387534
2096921,2096921,306056,387516
2096921,2096921,306459,387802
2096921,2096921,306368,387965
2096921,2096921,306143,387964
2096921,2096921,306428,387633
2096921,2096921,306278,387707
2096921,2096921,306166,388078
2096921,2096921,306216,388037
2096921,2096921,306418,388042
2096921,2096921,306248,387875
2096921,2096921,306233,387997
2096921,2096921,306420,388053
2096921,2096921,306503,388356
2096921,2096921,306434,388246
2096921,2096921,306807,388293
2096921,2096921,306638,388149
2096921,2096921,306616,388252
2096921,2096921,306410,388009
2096921,2096921,306824,388468
2096921,2096921,306966,388514
2096921,2096921,306690,388545
2096921,2096921,306931,388579
2096921,2096921,306855,388817
2096921,2096921,306931,388550
2096921,2096921,306840,388397
2096921,2096921,306755,388604
2096921,2096921,306820,388589
2096921,2096921,306942,388540
2096921,2096921,307173,388964
2096921,2096921,307172,388933
2096921,2096921,307121,388907
2096921,2096921,307299,388962
2096921,2096921,307046,388988
2096921,2096921,307275,389027
2096921,2096921,307137,389082
2096921,2096921,307281,388965
2096921,2096921,307595,388984
2096921,2096921,307432,389139
2096921,2096921,307556,389156
2096921,2096921,307480,389299
2096921,2096921,307255,388830
2096921,2096921,307467,389362
2096921,2096921,307633,389502
2096921,2096921,307479,389387
2096921,2096921,307569,389393
2096921,2096921,307478,389521
2096921,2096921,307627,389610
2096921,2096921,307368,389430
2096921,2096921,307828,389425
2096921,2096921,307481,389329
2096921,2096921,307776,389489
2096921,2096921,307898,389582
2096921,2096921,307886,389620
2096921,2096921,307765,389634
2096921,2096921,307739,389693
2096921,2096921,307770,389782
2096921,2096921,308138,389992
2096921,2096921,308056,389964
2096921,2096921,307956,389973
2096921,2096921,308200,390003
2096921,2096921,308048,389681
2096921,2096921,308199,390211
2096921,2096921,308251,390177
2096921,2096921,308466,390233
2096921,2096921,308232,390164
2096921,2096921,307981,389947
2096921,2096921,308382,390278
2096921,2096921,308177,390147
2096921,2096921,308281,390373
2096921,2096921,308433,390512
2096921,2096921,308850,390109
2096921,2096921,308823,390523
2096921,2096921,308661,390507
2096921,2096921,308566,390454
2096921,2096921,308497,390765
2096921,2096921,308323,390598
2096921,2096921,308742,390556
2096921,2096921,308806,390799
2096921,2096921,308856,390800
2096921,2096921,308909,390585
2096921,2096921,308789,390885
2096921,2096921,308707,391027
2096921,2096921,309006,390823
2096921,2096921,308794,390972
2096921,2096921,309003,391036
2096921,2096921,308788,391059
2096921,2096921,308798,390864
2096921,2096921,308772,391152
2096921,2096921,308862,391401
2096921,2096921,309032,391337
2096921,2096921,309283,391154
2096921,2096921,309129,391152
2096921,2096921,309168,391217
2096921,2096921,309203,391198
2096921,2096921,309433,391398
2096921,2096921,308961,391233
2096921,2096921,309371,391466
2096921,2096921,309306,391110
2096921,2096921,309292,391516
2096921,2096921,309226,391385
2096921,2096921,309435,391423
2096921,2096921,309565,391539
2096921,2096921,309479,391612
2096921,2096921,309388,391444
2096921,2096921,309324,391644
2096921,2096921,309442,391629
2096921,2096921,309373,391883
2096921,2096921,309443,391802
2096921,2096921,309586,391526
2096921,2096921,309701,391584
2096921,2096921,309533,391551
2096921,2096921,309723,391910
2096921,2096921,309585,391880
2096921,2096921,309573,391799
2096921,2096921,309746,391957
2096921,2096921,309493,391811
2096921,2096921,309667,391844
2096921,2096921,309591,392114
2096921,2096921,309829,392153
2096921,2096921,310026,392154
2096921,2096921,309851,392253
2096921,2096921,309855,392392
2096921,2096921,309837,392215
2096921,2096921,309780,392107
2096921,2096921,309842,392192
2096921,2096921,309976,391948
2096921,2096921,309771,391906
2096921,2096921,310033,392227
2096921,2096921,310014,392058
2096921,2096921,309999,392445
2096921,2096921,310055,392222
2096921,2096921,309953,392342
2096921,2096921,310220,392372
2096921,2096921,309804,392494
2096921,2096921,309779,392182
2096921,2096921,309947,392210
2096921,2096921,310304,392440
2096921,2096921,310202,392632
2096921,2096921,310269,392437
2096921,2096921,310230,392423
2096921,2096921,310163,392646
2096921,2096921,310207,392286
2096921,2096921,310267,392302
2096921,2096921,310259,392208
2096921,2096921,310093,392098
2096921,2096921,310249,392465
2096921,2096921,309947,392254
2096921,2096921,309750,392325
2096921,2096921,310001,392131
2096921,2096921,309927,392386
2096921,2096921,309901,392331
2096921,2096921,309264,392033
2096921,2096921,309699,392080
2096921,2096921,309331,392260
2096921,2096921,309544,391857
2096921,2096921,309672,391905
2096921,2096921,309406,391606
2096921,2096921,309082,391731
2096921,2096921,308950,391737
2096921,2096921,309179,392011
2096921,2096921,308937,391681
2096921,2096921,308929,391234
2096921,2096921,308798,391419
2096921,2096921,308593,391184
2096921,2096921,308708,391205
2096921,2096921,308227,391080
2096921,2096921,307320,390199
2096921,2096921,307255,390032
2096921,2096921,307380,389995
2096921,2096921,307599,390027
2096921,2096921,307091,390226
2096921,2096921,306061,388930
2096921,2096921,305691,388606
2096921,2096921,305742,388703
2096921,2096921,305655,388417
2096921,2096921,305346,388678
2096921,2096921,304807,387536
2096921,2096921,304454,387253
2096921,2096921,304388,387644
2096921,2096921,304753,387445
2096921,2096921,304405,387619
2096921,2096921,303990,386821
2096921,2096921,303752,386526
2096921,2096921,303504,386521
2096921,2096921,303462,386710
2096921,2096921,303640,386473
2096921,2096921,303292,386024
2096921,2096921,303163,385948
2096921,2096921,302808,385970
2096921,2096921,303457,385753
2096921,2096921,302863,385914
2096921,2096921,302751,385783
2096921,2096921,302428,385862
2096921,2096921,302469,385763
2096921,2096921,302401,385788
2096921,2096921,302566,385766
2096921,2096921,302392,385340
2096921,2096921,302195,385346
2096921,2096921,302182,385569
2096921,2096921,302269,385264
2096921,2096921,302191,385284
2096921,2096921,302113,385295
2096921,2096921,302170,385386
2096921,2096921,302277,385231
2096921,2096921,302226,385185
2096921,2096921,302286,385213
2096921,2096921,302042,385397
2096921,2096921,301960,385252
2096921,2096921,301949,384858
2096921,2096921,302367,385444
2096921,2096921,301892,385183
2096921,2096921,302345,385383
2096921,2096921,302425,385780
2096921,2096921,302214,385478
2096921,2096921,302331,385497
2096921,2096921,302402,385445
2096921,2096921,302542,385804
2096921,2096921,302803,385647
2096921,2096921,302828,385872
2096921,2096921,302941,385718
2096921,2096921,302775,385709
2096921,2096921,302641,385898
2096921,2096921,302655,385904
2096921,2096921,302610,385575
2096921,2096921,302546,385778
2096921,2096921,302933,385797
2096921,2096921,303230,385942
2096921,2096921,302980,386406
2096921,2096921,302881,386080
2096921,2096921,303079,386153
2096921,2096921,302928,386147
2096921,2096921,303459,386641
2096921,2096921,303541,386748
2096921,2096921,303326,386643
2096921,2096921,303494,386671
2096921,2096921,303230,386716
2096921,2096921,303713,386894
2096921,2096921,303546,386862
2096921,2096921,303673,386933
2096921,2096921,303809,387019
2096921,2096921,303904,386923
2096921,2096921,304194,387310
2096921,2096921,304203,387542
2096921,2096921,304149,387462
2096921,2096921,304267,387312
2096921,2096921,304349,387398
2096921,2096921,304384,387791
2096921,2096921,304484,387697
2096921,2096921,304543,387760
2096921,2096921,304648,387688
2096921,2096921,304791,387920
2096921,2096921,304990,388104
2096921,2096921,304892,388190
2096921,2096921,304982,388388
2096921,2096921,305196,388366
2096921,2096921,304861,388111
2096921,2096921,304959,388429
2096921,2096921,305336,388263
2096921,2096921,304898,388693
2096921,2096921,305312,388452
2096921,2096921,305509,388657
2096921,2096921,305685,388825
2096921,2096921,305728,389105
2096921,2096921,305564,388928
2096921,2096921,305667,389186
2096921,2096921,305550,389176
2096921,2096921,305839,389284
2096921,2096921,306082,389212
2096921,2096921,306198,389412
2096921,2096921,306160,389311
2096921,2096921,306156,389567
2096921,2096921,306569,389589
2096921,2096921,306423,389815
2096921,2096921,306199,389635
2096921,2096921,306575,389903
2096921,2096921,306348,389584
2096921,2096921,306930,390270
2096921,2096921,306831,390208
2096921,2096921,306962,390162
2096921,2096921,306884,390261
2096921,2096921,306669,390277
2096921,2096921,307167,390797
2096921,2096921,307518,390667
2096921,2096921,307599,390701
2096921,2096921,307395,390523
2096921,2096921,307285,390688
2096921,2096921,307274,390839
2096921,2096921,307383,391090
2096921,2096921,307582,391513
2096921,2096921,307556,391091
2096921,2096921,307597,391038
2096921,2096921,307777,391495
2096921,2096921,308265,391392
2096921,2096921,308224,391175
2096921,2096921,308016,391174
2096921,2096921,307859,391311
2096921,2096921,307836,391520
2096921,2096921,308137,391642
2096921,2096921,308354,391713
2096921,2096921,308005,391547
2096921,2096921,308002,391606
2096921,2096921,308660,391952
2096921,2096921,308623,392025
2096921,2096921,308725,391842
2096921,2096921,308636,392160
2096921,2096921,308614,392038
2096921,2096921,308526,391974
2096921,2096921,308532,392447
2096921,2096921,308697,392108
2096921,2096921,308704,392195
2096921,2096921,308821,392221
2096921,2096921,308981,392448
2096921,2096921,308955,392364
2096921,2096921,309001,392584
2096921,2096921,309116,392374
2096921,2096921,308958,392459
2096921,2096921,309026,392245
2096921,2096921,309028,392289
2096921,2096921,308842,392430
2096921,2096921,309178,392554
2096921,2096921,309104,392735
2096921,2096921,309105,392462
2096921,2096921,308950,392681
2096921,2096921,308757,392556
2096921,2096921,309109,392438
2096921,2096921,309099,392722
2096921,2096921,309095,392365
2096921,2096921,309162,392347
2096921,2096921,309149,392650
2096921,2096921,309212,392267
2096921,2096921,309090,392640
2096921,2096921,309033,392563
2096921,2096921,308872,392480
2096921,2096921,308843,392577
2096921,2096921,308740,392508
2096921,2096921,308770,392449
2096921,2096921,308905,392501
2096921,2096921,309302,392398
2096921,2096921,309182,392461
2096921,2096921,309166,392780
2096921,2096921,308939,392472
2096921,2096921,308630,392491
2096921,2096921,308801,392629
2096921,2096921,308805,392347
2096921,2096921,309105,392533
2096921,2096921,308763,392401
2096921,2096921,308695,392407
2096921,2096921,308699,392312
2096921,2096921,309043,392376
2096921,2096921,308891,392285
2096921,2096921,309104,392617
2096921,2096921,308957,392476
2096921,2096921,309241,392188
2096921,2096921,309003,392373
2096921,2096921,309003,392342
2096921,2096921,309046,392276
2096921,2096921,308997,392517
2096921,2096921,308918,392689
2096921,2096921,309166,392352
2096921,2096921,308633,392663
2096921,2096921,308785,392353
2096921,2096921,309145,392347
2096921,2096921,309312,392476
2096921,2096921,309262,392454
2096921,2096921,308996,392478
2096921,2096921,308866,392493
2096921,2096921,308975,392529
2096921,2096921,309031,392799
2096921,2096921,308925,392729
2096921,2096921,309097,392756
2096921,2096921,309425,393019
2096921,2096921,309350,392964
2096921,2096921,309249,392756
2096921,2096921,309336,392933
2096921,2096921,309379,392687
2096921,2096921,309243,392980
2096921,2096921,309294,392892
2096921,2096921,309386,392869
2096921,2096921,309576,392870
2096921,2096921,309538,393180
2096921,2096921,309824,392909
2096921,2096921,309903,393435
2096921,2096921,309937,393533
2096921,2096921,309884,393616
2096921,2096921,309559,393397
2096921,2096921,309921,393116
2096921,2096921,309963,393257
2096921,2096921,310170,393574
2096921,2096921,310071,393401
2096921,2096921,310483,393857
2096921,2096921,310036,393671
2096921,2096921,310132,393752
2096921,2096921,310285,393763
2096921,2096921,310176,393747
2096921,2096921,310215,393438
2096921,2096921,310022,393856
2096921,2096921,310321,394014
2096921,2096921,310445,394119
2096921,2096921,310315,394113
2096921,2096921,310335,394137
2096921,2096921,310386,394093
2096921,2096921,310600,393928
2096921,2096921,310759,394098
2096921,2096921,310865,394097
2096921,2096921,310770,394092
2096921,2096921,310733,394175
2096921,2096921,310720,394444
2096921,2096921,310756,394349
2096921,2096921,310935,394494
2096921,2096921,311152,394421
2096921,2096921,310856,394363
2096921,2096921,311142,394813
2096921,2096921,311234,394826
2096921,2096921,310935,394548
2096921,2096921,311018,394696
2096921,2096921,311173,394777
2096921,2096921,311136,394831
2096921,2096921,311358,394651
2096921,2096921,311450,394660
2096921,2096921,311189,394872
2096921,2096921,311441,394915
2096921,2096921,311629,394729
2096921,2096921,311267,395121
2096921,2096921,311173,395172
2096921,2096921,311074,394974
2096921,2096921,311156,394822
2096921,2096921,311345,394703
2096921,2096921,311485,394885
2096921,2096921,311379,395054
2096921,2096921,311653,395067
2096921,2096921,311677,395157
2096921,2096921,311865,395147
2096921,2096921,311710,395396
2096921,2096921,311639,395226
2096921,2096921,311407,395258
2096921,2096921,311744,395243
2096921,2096921,311643,395286
2096921,2096921,311593,395561
2096921,2096921,311795,395526
2096921,2096921,312219,395574
2096921,2096921,312007,395612
2096921,2096921,312222,395737
2096921,2096921,311801,395527
2096921,2096921,312153,395387
2096921,2096921,311888,395463
2096921,2096921,312142,395406
2096921,2096921,312027,395460
2096921,2096921,312272,395620
2096921,2096921,311892,396007
2096921,2096921,312163,395666
2096921,2096921,312224,395981
2096921,2096921,312075,395921
2096921,2096921,312172,395623
2096921,2096921,312560,395902
2096921,2096921,312520,396030
2096921,2096921,312487,395898
2096921,2096921,312680,396131
2096921,2096921,312882,396014
2096921,2096921,312615,396300
2096921,2096921,312823,396345
2096921,2096921,312684,396153
2096921,2096921,312704,396177
2096921,2096921,312516,396300
2096921,2096921,312426,396107
2096921,2096921,312441,396085
2096921,2096921,312745,396149
2096921,2096921,312751,396324
2096921,2096921,312903,396266
2096921,2096921,312748,396367
2096921,2096921,312863,396244
2096921,2096921,312946,396417
2096921,2096921,313169,396333
2096921,2096921,313059,396601
2096921,2096921,312921,396593
2096921,2096921,313075,396261
2096921,2096921,313013,396296
2096921,2096921,312854,396440
2096921,2096921,312917,396543
2096921,2096921,312875,396656
2096921,2096921,312967,396655
2096921,2096921,312966,396556
2096921,2096921,313302,396536
2096921,2096921,313048,396745
2096921,2096921,312950,397055
2096921,2096921,312933,396576
2096921,2096921,312913,396687
2096921,2096921,312991,396785
2096921,2096921,313103,396615
2096921,2096921,313337,396748
2096921,2096921,313576,396876
2096921,2096921,313220,396937
2096921,2096921,313150,396942
2096921,2096921,313504,397061
2096921,2096921,313391,397014
2096921,2096921,313453,396952
2096921,2096921,313482,396792
2096921,2096921,313493,397113
2096921,2096921,313481,396815
2096921,2096921,313770,396899
2096921,2096921,313626,396950
2096921,2096921,313648,397225
2096921,2096921,313609,397042
2096921,2096921,313512,397045
2096921,2096921,313728,397013
2096921,2096921,313523,397169
2096921,2096921,313525,396944
2096921,2096921,313935,397138
2096921,2096921,313628,397104
2096921,2096921,313853,396898
2096921,2096921,313885,397113
2096921,2096921,313553,397195
2096921,2096921,313353,397138
2096921,2096921,313762,397153
2096921,2096921,313562,397163
2096921,2096921,313669,397216
2096921,2096921,313819,397155
2096921,2096921,313525,397177
2096921,2096921,313652,397072
2096921,2096921,313851,397156
2096921,2096921,313660,397266
2096921,2096921,313696,397277
2096921,2096921,313449,397250
2096921,2096921,313765,397348
2096921,2096921,313898,397419
2096921,2096921,313833,397646
2096921,2096921,313917,397326
2096921,2096921,314135,397402
2096921,2096921,313723,397298
2096921,2096921,314160,397244
2096921,2096921,313913,397413
2096921,2096921,313990,397289
2096921,2096921,313979,397578
2096921,2096921,314099,397413
2096921,2096921,313906,397515
2096921,2096921,313874,397641
2096921,2096921,313877,397536
2096921,2096921,314088,397449
2096921,2096921,313962,397399
2096921,2096921,314070,397113
2096921,2096921,313946,397525
2096921,2096921,314010,397593
2096921,2096921,314063,397723
2096921,2096921,314312,397924
2096921,2096921,314117,397776
2096921,2096921,313992,397785
2096921,2096921,314097,397564
2096921,2096921,314234,397426
2096921,2096921,314078,397490
2096921,2096921,314351,397526
2096921,2096921,314260,397495
2096921,2096921,314213,397617
2096921,2096921,314267,397615
2096921,2096921,314442,397595
2096921,2096921,314257,397618
2096921,2096921,314337,397236
2096921,2096921,314247,397479
2096921,2096921,314063,397851
2096921,2096921,314181,397730
2096921,2096921,314412,397841
2096921,2096921,314506,397732
2096921,2096921,314419,397875
2096921,2096921,314372,397960
2096921,2096921,314216,397956
2096921,2096921,314261,397912
2096921,2096921,314455,397873
2096921,2096921,314370,397820
2096921,2096921,314215,397577
2096921,2096921,314355,397817
2096921,2096921,314438,397779
2096921,2096921,314342,397902
2096921,2096921,314573,397875
2096921,2096921,314416,398077
2096921,2096921,314472,398042
2096921,2096921,314423,397875
2096921,2096921,314479,397858
2096921,2096921,314243,398174
2096921,2096921,314258,397812
2096921,2096921,314367,397594
2096921,2096921,314484,397825
2096921,2096921,314473,397643
2096921,2096921,314557,397609
2096921,2096921,314548,397776
2096921,2096921,314491,397711
2096921,2096921,314521,397736
2096921,2096921,314363,398055
2096921,2096921,314797,398073
2096921,2096921,314566,397955
2096921,2096921,314395,398199
2096921,2096921,314441,397848
2096921,2096921,314145,398103
2096921,2096921,314427,397870
2096921,2096921,314567,397709
2096921,2096921,314435,397543
2096921,2096921,314581,397779
2096921,2096921,314539,397772
2096921,2096921,314440,397643
2096921,2096921,314228,397659
2096921,2096921,314357,397857
2096921,2096921,314412,397882
2096921,2096921,314465,397855
2096921,2096921,314415,398093
2096921,2096921,314158,398075
2096921,2096921,314310,397914
2096921,2096921,314445,397795
2096921,2096921,314486,397994
2096921,2096921,314448,397992
2096921,2096921,314445,397707
2096921,2096921,314422,397942
2096921,2096921,314400,397750
2096921,2096921,314166,397928
2096921,2096921,314349,397835
2096921,2096921,314435,397776
2096921,2096921,314378,397782
2096921,2096921,314393,397704
2096921,2096921,314117,397516
2096921,2096921,314022,397641
2096921,2096921,314381,397601
2096921,2096921,314262,397961
2096921,2096921,314543,397684
2096921,2096921,314436,397793
2096921,2096921,314232,397693
2096921,2096921,314366,397782
2096921,2096921,314087,397841
2096921,2096921,314126,397925
2096921,2096921,314199,397649
2096921,2096921,314328,397753
2096921,2096921,313807,397820
2096921,2096921,314230,397834
2096921,2096921,314027,397650
2096921,2096921,314296,397573
2096921,2096921,314137,397632
2096921,2096921,314369,397551
2096921,2096921,314062,397547
2096921,2096921,314607,397601
2096921,2096921,314108,397412
2096921,2096921,314264,397630
2096921,2096921,313953,397496
2096921,2096921,314444,397328
2096921,2096921,314116,397580
2096921,2096921,314220,397534
2096921,2096921,314166,397646
2096921,2096921,313923,397251
2096921,2096921,313850,397063
2096921,2096921,313920,396960
2096921,2096921,313568,397234
2096921,2096921,313981,397173
2096921,2096921,313388,396799
2096921,2096921,313177,397334
2096921,2096921,313518,396970
2096921,2096921,313579,397016
2096921,2096921,313412,397017
2096921,2096921,313257,396791
2096921,2096921,312995,396441
2096921,2096921,313302,396484
2096921,2096921,312884,396441
2096921,2096921,313002,396140
2096921,2096921,312458,395705
2096921,2096921,312443,395769
2096921,2096921,312542,395744
2096921,2096921,312711,395651
2096921,2096921,312253,395838
2096921,2096921,311593,395355
2096921,2096921,311800,395137
2096921,2096921,311497,394965
2096921,2096921,311465,394833
2096921,2096921,311100,394896
2096921,2096921,310414,393859
2096921,2096921,310281,393617
2096921,2096921,310206,393584
2096921,2096921,310302,393453
2096921,2096921,309882,393627
2096921,2096921,308510,392254
2096921,2096921,308221,391633
2096921,2096921,308492,391847
2096921,2096921,308476,391795
2096921,2096921,308066,391935
2096921,2096921,307283,390668
2096921,2096921,306904,390574
2096921,2096921,307064,390572
2096921,2096921,306848,390334
2096921,2096921,306607,390572
2096921,2096921,306070,389670
2096921,2096921,305967,389629
2096921,2096921,305882,389479
2096921,2096921,305822,389455
2096921,2096921,305611,389527
2096921,2096921,305027,388711
2096921,2096921,304791,388578
2096921,2096921,305048,388394
2096921,2096921,304714,388509
2096921,2096921,304972,388630
2096921,2096921,304542,388265
2096921,2096921,304404,388021
2096921,2096921,304534,388012
2096921,2096921,304586,387895
2096921,2096921,304244,388246
2096921,2096921,303953,387825
2096921,2096921,303869,387520
2096921,2096921,303994,387716
2096921,2096921,304194,387543
2096921,2096921,304062,387654
2096921,2096921,303807,387414
2096921,2096921,303820,387465
2096921,2096921,303777,387108
2096921,2096921,303807,387086
2096921,2096921,303569,386880
2096921,2096921,303513,386698
2096921,2096921,303502,386852
2096921,2096921,303836,387248
2096921,2096921,303496,387165
2096921,2096921,303542,386926
2096921,2096921,303499,386917
2096921,2096921,303539,387074
2096921,2096921,303476,387307
2096921,2096921,303468,386910
2096921,2096921,303812,387271
2096921,2096921,303765,387165
2096921,2096921,303700,386887
2096921,2096921,303589,387024
2096921,2096921,303793,387195
2096921,2096921,303690,386864
2096921,2096921,303466,386542
2096921,2096921,303706,386888
2096921,2096921,303653,386837
2096921,2096921,303460,386707
2096921,2096921,303021,386674
2096921,2096921,303283,386819
2096921,2096921,303492,386695
2096921,2096921,303446,386986
2096921,2096921,303593,387056
2096921,2096921,303672,387067
2096921,2096921,303716,386889
2096921,2096921,303823,387309
2096921,2096921,303601,387002
2096921,2096921,303939,387157
2096921,2096921,303872,387125
2096921,2096921,303818,387098
2096921,2096921,304011,387101
2096921,2096921,304068,387470
2096921,2096921,303864,387205
2096921,2096921,303999,387445
2096921,2096921,304321,387609
2096921,2096921,304477,387558
2096921,2096921,304150,387468
2096921,2096921,303963,387350
2096921,2096921,304203,387344
2096921,2096921,304398,387748
2096921,2096921,304343,387757
2096921,2096921,304466,387783
2096921,2096921,304440,387893
2096921,2096921,304372,387891
2096921,2096921,304747,387902
2096921,2096921,304582,387879
2096921,2096921,304825,387686
2096921,2096921,304742,387838
2096921,2096921,304702,387791
2096921,2096921,304591,387821
2096921,2096921,304742,388106
2096921,2096921,304838,388245
2096921,2096921,304896,388016
2096921,2096921,304817,387882
2096921,2096921,304723,388026
2096921,2096921,304794,388159
2096921,2096921,304963,388144
2096921,2096921,305051,388057
2096921,2096921,304965,388229
2096921,2096921,305180,388161
2096921,2096921,305207,388155
2096921,2096921,305214,388598
2096921,2096921,305027,388208
2096921,2096921,305331,388516
2096921,2096921,305246,388389
2096921,2096921,305279,388410
2096921,2096921,305232,388642
2096921,2096921,305324,388357
2096921,2096921,305478,388628
2096921,2096921,305322,388480
2096921,2096921,305360,388675
2096921,2096921,305617,388655
2096921,2096921,305689,388618
2096921,2096921,305691,388868
2096921,2096921,305879,388885
2096921,2096921,305852,388908
2096921,2096921,305747,388918
2096921,2096921,305791,388924
2096921,2096921,305915,388996
2096921,2096921,306109,388671
2096921,2096921,306194,388851
2096921,2096921,306126,388879
2096921,2096921,305923,388814
2096921,2096921,306193,389191
2096921,2096921,306181,389169
2096921,2096921,306307,389273
2096921,2096921,306220,389213
2096921,2096921,306162,389002
2096921,2096921,306133,388861
2096921,2096921,306188,388774
2096921,2096921,306157,389108
2096921,2096921,306213,389106
2096921,2096921,306446,389184
2096921,2096921,306269,389122
2096921,2096921,306169,389288
2096921,2096921,306491,389198
2096921,2096921,306090,389303
2096921,2096921,306176,389056
2096921,2096921,306201,389103
2096921,2096921,306318,388715
2096921,2096921,305931,389134
2096921,2096921,306045,389083
2096921,2096921,306382,389285
2096921,2096921,306366,389255
2096921,2096921,306397,389187
2096921,2096921,306406,389191
2096921,2096921,306379,389093
2096921,2096921,306279,389000
2096921,2096921,306392,389039
2096921,2096921,306112,388939
2096921,2096921,306037,388683
2096921,2096921,306368,388646
2096921,2096921,306232,389042
2096921,2096921,306061,388808
2096921,2096921,306053,388789
2096921,2096921,306245,388891
2096921,2096921,306074,388906
2096921,2096921,305855,388668
2096921,2096921,306306,388851
2096921,2096921,305771,388453
2096921,2096921,305730,388350
2096921,2096921,305869,388448
2096921,2096921,305790,388609
2096921,2096921,305769,388469
2096921,2096921,305696,388214
2096921,2096921,305781,388332
2096921,2096921,305705,388579
2096921,2096921,305699,388471
2096921,2096921,305411,388437
2096921,2096921,305340,387842
2096921,2096921,305512,387987
2096921,2096921,305352,388092
2096921,2096921,305481,388056
2096921,2096921,305364,388193
2096921,2096921,305252,387872
2096921,2096921,305378,387970
2096921,2096921,305071,388016
2096921,2096921,305233,388059
2096921,2096921,305200,387815
2096921,2096921,304976,387443
2096921,2096921,304946,387362
2096921,2096921,305050,387492
2096921,2096921,305071,387552
2096921,2096921,304949,387362
2096921,2096921,304998,387307
2096921,2096921,304741,387670
2096921,2096921,304921,387571
2096921,2096921,304680,387247
2096921,2096921,304884,387299
2096921,2096921,304714,387262
2096921,2096921,304703,387371
2096921,2096921,304724,387347
2096921,2096921,304794,387574
2096921,2096921,304671,387298
2096921,2096921,304720,387189
2096921,2096921,304697,386914
2096921,2096921,304730,387261
2096921,2096921,304897,387103
2096921,2096921,304810,387136
2096921,2096921,304514,387193
2096921,2096921,304638,387152
2096921,2096921,304758,387189
2096921,2096921,304747,387229
2096921,2096921,304715,387070
2096921,2096921,304813,387064
2096921,2096921,304600,386827
2096921,2096921,304589,387024
2096921,2096921,304548,386982
2096921,2096921,304677,386929
2096921,2096921,304677,387191
2096921,2096921,304882,387194
2096921,2096921,304756,387392
2096921,2096921,304998,387194
2096921,2096921,304779,387233
2096921,2096921,304972,387110
2096921,2096921,305014,387557
2096921,2096921,304976,387307
2096921,2096921,305257,387286
2096921,2096921,305104,387288
2096921,2096921,304846,387422
2096921,2096921,304910,387342
2096921,2096921,305077,387149
2096921,2096921,305171,386807
2096921,2096921,304971,387227
2096921,2096921,305532,387457
2096921,2096921,305221,387467
2096921,2096921,305263,387410
2096921,2096921,305095,387793
2096921,2096921,305089,387697
2096921,2096921,305386,387356
2096921,2096921,305362,387256
2096921,2096921,304906,387371
2096921,2096921,305118,387561
2096921,2096921,305005,387611
2096921,2096921,305149,387267
2096921,2096921,305117,387289
2096921,2096921,305378,387036
2096921,2096921,305067,387276
2096921,2096921,304910,387203
2096921,2096921,305111,387225
2096921,2096921,305121,387428
2096921,2096921,305138,387455
2096921,2096921,305197,387654
2096921,2096921,305524,387297
2096921,2096921,305460,387356
2096921,2096921,305266,387241
2096921,2096921,305279,387245
2096921,2096921,305237,387344
2096921,2096921,305471,387241
2096921,2096921,305391,387422
2096921,2096921,305299,387401
2096921,2096921,305240,387443
2096921,2096921,305443,387313
2096921,2096921,305403,387581
2096921,2096921,305104,387493
2096921,2096921,305405,387764
2096921,2096921,305572,387447
2096921,2096921,305425,387428
2096921,2096921,305621,387508
2096921,2096921,305432,387410
2096921,2096921,305696,387699
2096921,2096921,305659,387613
2096921,2096921,305502,387375
2096921,2096921,305270,387481
2096921,2096921,305388,387361
2096921,2096921,305519,387429
2096921,2096921,305427,387493
2096921,2096921,305282,387523
2096921,2096921,305384,387240
2096921,2096921,305489,387531
2096921,2096921,305403,387142
2096921,2096921,305279,387442
2096921,2096921,305543,387327
2096921,2096921,305590,387487
2096921,2096921,305711,387686
2096921,2096921,305592,387400
2096921,2096921,305529,387318
2096921,2096921,305487,387552
2096921,2096921,305405,387518
2096921,2096921,305589,387430
2096921,2096921,305334,387393
2096921,2096921,305725,387583
2096921,2096921,305597,387350
2096921,2096921,305709,387524
2096921,2096921,305665,387532
2096921,2096921,305674,387467
2096921,2096921,305402,387415
2096921,2096921,305372,387524
2096921,2096921,305713,387336
2096921,2096921,305699,387298
2096921,2096921,305640,387338
2096921,2096921,305723,387455
2096921,2096921,305727,387528
2096921,2096921,305698,387426
2096921,2096921,305845,387558
2096921,2096921,305745,387275
2096921,2096921,305550,387145
2096921,2096921,305568,387547
2096921,2096921,305806,387630
2096921,2096921,305638,387568
2096921,2096921,305616,387286
2096921,2096921,305737,387557
2096921,2096921,305894,387599
2096921,2096921,305931,387434
2096921,2096921,305500,387430
2096921,2096921,305403,387558
2096921,2096921,305507,387399
2096921,2096921,305636,387541
2096921,2096921,305887,387406
2096921,2096921,305470,387533
2096921,2096921,305650,387273
2096921,2096921,305805,387342
2096921,2096921,306028,387421
2096921,2096921,305952,387211
2096921,2096921,306097,387623
2096921,2096921,305937,387853
2096921,2096921,305652,387460
2096921,2096921,306114,387591
2096921,2096921,305659,387543
2096921,2096921,305692,387344
2096921,2096921,305820,387400
2096921,2096921,305687,387322
2096921,2096921,305739,387182
2096921,2096921,305937,387456
2096921,2096921,305820,387566
2096921,2096921,305814,387530
2096921,2096921,305562,387468
2096921,2096921,305701,387179
2096921,2096921,305727,387463
2096921,2096921,305717,387565
2096921,2096921,305772,387307
2096921,2096921,305800,387605
2096921,2096921,305850,387477
2096921,2096921,306035,387279
2096921,2096921,305829,387344
2096921,2096921,305943,387148
2096921,2096921,305762,387353
2096921,2096921,305773,387311
2096921,2096921,305677,387456
2096921,2096921,305957,387172
2096921,2096921,305801,387376
2096921,2096921,305773,387465
2096921,2096921,305654,387374
2096921,2096921,305855,387022
2096921,2096921,305663,387217
2096921,2096921,305936,387258
2096921,2096921,305518,387003
2096921,2096921,305528,386915
2096921,2096921,305818,387168
2096921,2096921,305697,387144
2096921,2096921,305802,387217
2096921,2096921,305803,387223
2096921,2096921,305773,387084
2096921,2096921,305820,386970
2096921,2096921,305621,387117
2096921,2096921,305392,387034
2096921,2096921,305411,387125
2096921,2096921,305729,387076
2096921,2096921,305785,386930
2096921,2096921,305890,386898
2096921,2096921,305775,387139
2096921,2096921,305877,386562
2096921,2096921,305791,387014
2096921,2096921,305828,387204
2096921,2096921,305570,387251
2096921,2096921,305723,387105
2096921,2096921,305645,387069
2096921,2096921,305854,387097
2096921,2096921,305683,386960
2096921,2096921,305397,386929
2096921,2096921,305390,386854
2096921,2096921,305661,387032
2096921,2096921,305677,386782
2096921,2096921,305469,386734
2096921,2096921,305629,387025
2096921,2096921,305732,386926
2096921,2096921,305620,387028
2096921,2096921,305519,386845
2096921,2096921,305492,387142
2096921,2096921,305547,386605
2096921,2096921,305421,386860
2096921,2096921,305457,386848
2096921,2096921,305680,386577
2096921,2096921,305933,386919
2096921,2096921,305697,386929
2096921,2096921,305525,386851
2096921,2096921,305649,386778
2096921,2096921,305598,386922
2096921,2096921,305572,386986
2096921,2096921,305572,386745
2096921,2096921,305402,386890
2096921,2096921,305246,386772
2096921,2096921,305655,386741
2096921,2096921,305558,386865
2096921,2096921,305578,387054
2096921,2096921,305731,387098
2096921,2096921,305490,386594
2096921,2096921,305590,386438
2096921,2096921,305689,386946
2096921,2096921,305722,386847
2096921,2096921,305539,386590
2096921,2096921,305718,386698
2096921,2096921,305560,386778
2096921,2096921,305617,386770
2096921,2096921,305700,386779
2096921,2096921,305728,386858
2096921,2096921,305445,386780
2096921,2096921,305575,386665
2096921,2096921,305553,386644
2096921,2096921,305331,386758
2096921,2096921,305235,386580
2096921,2096921,305295,386730
2096921,2096921,305492,386651
2096921,2096921,305677,386569
2096921,2096921,305438,386620
2096921,2096921,305569,386658
2096921,2096921,305234,386801
2096921,2096921,305528,386729
2096921,2096921,305516,386559
2096921,2096921,305505,386749
2096921,2096921,305442,386654
2096921,2096921,305556,386409
2096921,2096921,305235,386619
2096921,2096921,305438,386557
2096921,2096921,305580,386471
2096921,2096921,305402,386630
2096921,2096921,305328,386633
2096921,2096921,305465,386484
2096921,2096921,305473,386467
2096921,2096921,305243,386406
2096921,2096921,305293,386541
2096921,2096921,305356,386504
2096921,2096921,305439,386558
2096921,2096921,305371,386745
2096921,2096921,305491,386765
2096921,2096921,305414,386671
2096921,2096921,305289,386467
2096921,2096921,305100,386317
2096921,2096921,305012,386292
2096921,2096921,305031,386307
2096921,2096921,305240,386478
2096921,2096921,305359,386292
2096921,2096921,305568,386399
2096921,2096921,305190,386209
2096921,2096921,304999,386116
2096921,2096921,305239,386420
2096921,2096921,305162,386399
2096921,2096921,305295,386353
2096921,2096921,305334,385873
2096921,2096921,304914,385872
2096921,2096921,305143,386042
2096921,2096921,305289,386288
2096921,2096921,305387,386317
2096921,2096921,305119,386329
2096921,2096921,305047,386183
2096921,2096921,304995,386364
2096921,2096921,305183,386284
2096921,2096921,305309,386019
2096921,2096921,304951,386151
2096921,2096921,305138,386230
2096921,2096921,305256,386114
2096921,2096921,305009,386097
2096921,2096921,305347,386046
2096921,2096921,305482,386309
2096921,2096921,305162,386380
2096921,2096921,305056,386045
2096921,2096921,305043,386190
2096921,2096921,305180,386395
2096921,2096921,305074,385954
2096921,2096921,304843,386127
2096921,2096921,305119,386082
2096921,2096921,305152,386040
2096921,2096921,305073,386044
2096921,2096921,304959,385693
2096921,2096921,305114,385834
2096921,2096921,304845,385877
2096921,2096921,304887,385978
2096921,2096921,304672,385592
2096921,2096921,304492,385753
2096921,2096921,304170,385572
2096921,2096921,304328,385632
2096921,2096921,304351,385460
2096921,2096921,304497,385724
2096921,2096921,304275,385665
2096921,2096921,303939,385310
2096921,2096921,303915,385008
2096921,2096921,303871,385003
2096921,2096921,304016,385117
2096921,2096921,303464,384755
2096921,2096921,303406,384391
2096921,2096921,303422,384360
2096921,2096921,303522,384742
2096921,2096921,303545,384408
2096921,2096921,303405,384508
2096921,2096921,302660,383935
2096921,2096921,302699,383996
2096921,2096921,302659,384134
2096921,2096921,302707,383901
2096921,2096921,302392,383862
2096921,2096921,301688,382785
2096921,2096921,301446,382441
2096921,2096921,301225,382358
2096921,2096921,301500,382640
2096921,2096921,301072,382570
2096921,2096921,299981,381108
2096921,2096921,299568,381033
2096921,2096921,299398,380764
2096921,2096921,299263,380632
2096921,2096921,299372,380587
2096921,2096921,298390,379972
2096921,2096921,298284,379541
2096921,2096921,298487,379616
2096921,2096921,298201,379774
2096921,2096921,297930,380044
2096921,2096921,297664,379292
2096921,2096921,297636,379098
2096921,2096921,297250,378778
2096921,2096921,297462,378819
2096921,2096921,296839,378529
2096921,2096921,296439,378195
2096921,2096921,296585,377996
2096921,2096921,296522,377875
2096921,2096921,296800,377783
2096921,2096921,296704,377839
2096921,2096921,296278,377719
2096921,2096921,295988,377570
2096921,2096921,296277,377238
2096921,2096921,296133,377374
2096921,2096921,295893,377269
2096921,2096921,296026,377200
2096921,2096921,296054,377061
2096921,2096921,295916,377265
2096921,2096921,295799,377071
2096921,2096921,295561,377023
2096921,2096921,295407,376916
2096921,2096921,295158,376908
2096921,2096921,295551,376658
2096921,2096921,295594,376638
2096921,2096921,295462,376726
2096921,2096921,295632,376752
2096921,2096921,295361,376676
2096921,2096921,295215,376886
2096921,2096921,295244,376883
2096921,2096921,295476,376968
2096921,2096921,295390,376879
2096921,2096921,295592,377053
2096921,2096921,295391,376916
2096921,2096921,295394,376828
2096921,2096921,295348,376645
2096921,2096921,295616,376693
2096921,2096921,295520,376779
2096921,2096921,295531,377010
2096921,2096921,295807,377067
2096921,2096921,295644,376853
2096921,2096921,295793,377177
2096921,2096921,295770,377185
2096921,2096921,295514,376883
2096921,2096921,295586,376753
2096921,2096921,295681,376750
2096921,2096921,295427,377003
2096921,2096921,295664,377075
2096921,2096921,295859,377161
2096921,2096921,295996,377099
2096921,2096921,295769,377517
2096921,2096921,295843,377564
2096921,2096921,296154,377593
2096921,2096921,295981,377481
2096921,2096921,295932,377269
2096921,2096921,295924,377323
2096921,2096921,296345,377536
2096921,2096921,296175,377666
2096921,2096921,296392,377777
2096921,2096921,296392,377630
2096921,2096921,296424,377959
2096921,2096921,296720,378043
2096921,2096921,296812,378037
2096921,2096921,296588,377937
2096921,2096921,296578,377722
2096921,2096921,296915,377803
2096921,2096921,296721,378168
2096921,2096921,296823,378135
2096921,2096921,297030,378321
2096921,2096921,296910,378258
2096921,2096921,297045,378053
2096921,2096921,297151,378594
2096921,2096921,297306,378505
2096921,2096921,297411,378675
2096921,2096921,297158,378410
2096921,2096921,297312,378638
2096921,2096921,297490,378819
2096921,2096921,297862,378688
2096921,2096921,297845,378784
2096921,2096921,297479,378938
2096921,2096921,297663,378784
2096921,2096921,297852,379179
2096921,2096921,297959,379096
2096921,2096921,297741,378747
2096921,2096921,297619,379035
2096921,2096921,297914,379004
2096921,2096921,297916,379309
2096921,2096921,298367,379181
2096921,2096921,298113,379450
2096921,2096921,298111,379301
2096921,2096921,298396,379515
2096921,2096921,298355,379903
2096921,2096921,298404,379661
2096921,2096921,298474,379652
2096921,2096921,298662,379480
2096921,2096921,298398,379783
2096921,2096921,298381,379570
2096921,2096921,298569,379920
2096921,2096921,298672,379975
2096921,2096921,298665,380054
2096921,2096921,298898,379945
2096921,2096921,299100,380283
2096921,2096921,298945,380127
2096921,2096921,298911,380392
2096921,2096921,299116,380293
2096921,2096921,299119,380397
2096921,2096921,299342,380162
2096921,2096921,299465,380363
2096921,2096921,299182,380566
2096921,2096921,299245,380677
2096921,2096921,299371,380660
2096921,2096921,299331,380969
2096921,2096921,299382,380830
2096921,2096921,299571,380695
2096921,2096921,299491,380383
2096921,2096921,299609,380767
2096921,2096921,299661,380892
2096921,2096921,299825,380988
2096921,2096921,299948,381117
2096921,2096921,300070,381129
2096921,2096921,299920,380964
2096921,2096921,299847,381161
2096921,2096921,299890,380932
2096921,2096921,299982,381284
2096921,2096921,299877,381233
2096921,2096921,299981,381080
2096921,2096921,300081,381144
2096921,2096921,300172,381233
2096921,2096921,300345,381228
2096921,2096921,300236,381173
2096921,2096921,300228,381299
2096921,2096921,300414,381240
2096921,2096921,300040,381181
2096921,2096921,300116,381459
2096921,2096921,300492,381544
2096921,2096921,300209,381058
2096921,2096921,300149,381385
2096921,2096921,300006,381621
2096921,2096921,300039,381170
2096921,2096921,300393,381229
2096921,2096921,300451,381137
2096921,2096921,300183,381403
2096921,2096921,300234,381405
2096921,2096921,300359,381751
2096921,2096921,300209,381191
2096921,2096921,300114,381425
2096921,2096921,299849,381225
2096921,2096921,300034,381179
2096921,2096921,300237,381208
2096921,2096921,300431,381450
2096921,2096921,300072,381342
2096921,2096921,300283,381034
2096921,2096921,300187,381161
2096921,2096921,300136,381375
2096921,2096921,300098,381092
2096921,2096921,299947,381188
2096921,2096921,300165,381256
2096921,2096921,300091,380989
2096921,2096921,300245,381188
2096921,2096921,300093,381244
2096921,2096921,299950,381092
2096921,2096921,300142,381023
2096921,2096921,299849,381164
2096921,2096921,299865,381018
2096921,2096921,300015,381133
2096921,2096921,299961,381068
2096921,2096921,299728,381103
2096921,2096921,299895,380926
2096921,2096921,299792,380939
2096921,2096921,299860,381262
2096921,2096921,299636,381303
2096921,2096921,300089,381248
2096921,2096921,299999,381249
2096921,2096921,299799,380879
2096921,2096921,299788,381064
2096921,2096921,299788,381234
2096921,2096921,299645,380901
2096921,2096921,300061,380910
2096921,2096921,299861,380972
2096921,2096921,300040,381140
2096921,2096921,299823,381102
2096921,2096921,300095,381128
2096921,2096921,299871,381269
2096921,2096921,299795,381046
2096921,2096921,299824,381155
2096921,2096921,299900,380992
2096921,2096921,299948,381409
2096921,2096921,300089,381281
2096921,2096921,299997,381230
2096921,2096921,300240,381439
2096921,2096921,300083,381471
2096921,2096921,300088,381507
2096921,2096921,299816,381599
2096921,2096921,300098,381274
2096921,2096921,299849,381423
2096921,2096921,300122,381506
2096921,2096921,300382,381530
2096921,2096921,300357,381664
2096921,2096921,300410,381606
2096921,2096921,300399,382063
2096921,2096921,300588,381688
2096921,2096921,300746,382024
2096921,2096921,300701,381843
2096921,2096921,300984,381854
2096921,2096921,300641,382008
2096921,2096921,300695,382087
2096921,2096921,300841,382102
2096921,2096921,300985,382069
2096921,2096921,300794,382067
2096921,2096921,301073,382155
2096921,2096921,301148,382158
2096921,2096921,301171,382716
2096921,2096921,301067,382712
2096921,2096921,301466,382729
2096921,2096921,301439,382613
2096921,2096921,301229,382653
2096921,2096921,301560,382795
2096921,2096921,301448,382344
2096921,2096921,301516,382461
2096921,2096921,301526,382613
2096921,2096921,301473,382923
2096921,2096921,301631,383109
2096921,2096921,301497,383074
2096921,2096921,301418,383100
2096921,2096921,301626,382997
2096921,2096921,301649,382875
2096921,2096921,301623,383040
2096921,2096921,301634,382825
2096921,2096921,302087,382775
2096921,2096921,302071,382944
2096921,2096921,301904,383218
2096921,2096921,301944,383428
2096921,2096921,302081,383091
2096921,2096921,301899,383324
2096921,2096921,301961,383338
2096921,2096921,302189,383630
2096921,2096921,302550,383898
2096921,2096921,302458,383559
2096921,2096921,302455,383726
2096921,2096921,302395,383740
2096921,2096921,302297,383693
2096921,2096921,302580,384042
2096921,2096921,302707,384310
2096921,2096921,302614,383994
2096921,2096921,302378,383743
2096921,2096921,302603,383780
2096921,2096921,302736,384085
2096921,2096921,302669,384192
2096921,2096921,302708,384342
2096921,2096921,302904,383955
2096921,2096921,303122,384071
2096921,2096921,303089,384232
2096921,2096921,303123,384265
2096921,2096921,303049,384441
2096921,2096921,303000,384245
2096921,2096921,303113,384255
2096921,2096921,303420,384411
2096921,2096921,303369,384508
2096921,2096921,303422,384753
2096921,2096921,303204,384898
2096921,2096921,303333,384755
2096921,2096921,303593,384652
2096921,2096921,303520,384735
2096921,2096921,303614,384977
2096921,2096921,303552,384729
2096921,2096921,303687,384811
2096921,2096921,303837,385106
2096921,2096921,303482,384899
2096921,2096921,303713,384958
2096921,2096921,303510,385198
2096921,2096921,303785,384733
2096921,2096921,304040,385126
2096921,2096921,303862,385301
2096921,2096921,303761,385497
2096921,2096921,303795,385290
2096921,2096921,303994,385329
2096921,2096921,304067,385325
2096921,2096921,304385,385353
2096921,2096921,304280,385513
2096921,2096921,303856,385820
2096921,2096921,304026,385745
2096921,2096921,304288,385899
2096921,2096921,304117,385803
2096921,2096921,304098,385749
2096921,2096921,304328,385571
2096921,2096921,304080,385465
2096921,2096921,304387,385957
2096921,2096921,304498,385832
2096921,2096921,304586,386254
2096921,2096921,304540,386098
2096921,2096921,304658,386056
2096921,2096921,304673,386421
2096921,2096921,304540,386071
2096921,2096921,304449,386309
2096921,2096921,304891,385907
2096921,2096921,304983,386194
2096921,2096921,304878,386198
2096921,2096921,304672,386305
2096921,2096921,304789,386485
2096921,2096921,305006,386383
2096921,2096921,305136,386445
2096921,2096921,305336,386459
2096921,2096921,305033,386607
2096921,2096921,305040,386589
2096921,2096921,305287,386786
2096921,2096921,305102,386666
2096921,2096921,305361,386716
2096921,2096921,305426,386717
2096921,2096921,305609,386914
2096921,2096921,305521,386663
2096921,2096921,305499,387020
2096921,2096921,305587,387367
2096921,2096921,305609,387333
2096921,2096921,305490,387321
2096921,2096921,305679,387135
2096921,2096921,305615,386798
2096921,2096921,305973,386907
2096921,2096921,305710,387251
2096921,2096921,305958,387313
2096921,2096921,305816,387252
2096921,2096921,306187,387329
2096921,2096921,305794,387739
2096921,2096921,305936,387444
2096921,2096921,305751,387405
2096921,2096921,305896,387523
2096921,2096921,305822,387653
2096921,2096921,305956,387750
2096921,2096921,306385,387669
2096921,2096921,306364,387592
2096921,2096921,305753,387698
2096921,2096921,305989,387754
2096921,2096921,306341,388009
2096921,2096921,306461,387762
2096921,2096921,306383,387821
2096921,2096921,306220,387989
2096921,2096921,306093,387895
2096921,2096921,306192,388110
2096921,2096921,306532,388293
2096921,2096921,306352,388173
2096921,2096921,306555,388254
2096921,2096921,306469,388026
2096921,2096921,306520,388391
2096921,2096921,306749,388470
2096921,2096921,306377,388582
2096921,2096921,306486,388606
2096921,2096921,306619,388539
2096921,2096921,306620,388314
2096921,2096921,306685,388659
2096921,2096921,306897,388593
2096921,2096921,306766,388882
2096921,2096921,306776,388659
2096921,2096921,306959,388841
2096921,2096921,307091,388803
2096921,2096921,307136,388779
2096921,2096921,306966,388778
2096921,2096921,306787,388571
2096921,2096921,307142,388518
2096921,2096921,307204,388738
2096921,2096921,307121,388821
2096921,2096921,307266,389259
2096921,2096921,307275,389095
2096921,2096921,307404,389276
2096921,2096921,307339,388877
2096921,2096921,307304,389065
2096921,2096921,307303,389009
2096921,2096921,307213,389167
2096921,2096921,307659,389356
2096921,2096921,307608,389338
2096921,2096921,307528,389353
2096921,2096921,307564,389576
2096921,2096921,307863,389208
2096921,2096921,307693,389451
2096921,2096921,307620,389378
2096921,2096921,307674,389395
2096921,2096921,307643,389598
2096921,2096921,307875,389386
2096921,2096921,307779,389708
2096921,2096921,307995,389960
2096921,2096921,307958,389974
2096921,2096921,307970,389741
2096921,2096921,307851,389625
2096921,2096921,308132,389761
2096921,2096921,307941,389873
2096921,2096921,307785,389868
2096921,2096921,307733,390093
2096921,2096921,308129,390052
2096921,2096921,308294,390132
2096921,2096921,308307,390126
2096921,2096921,308378,389980
2096921,2096921,308139,390214
2096921,2096921,308160,390265
2096921,2096921,308441,390509
2096921,2096921,308490,390213
2096921,2096921,308364,390091
2096921,2096921,308457,390043
2096921,2096921,308313,390268
2096921,2096921,308427,390375
2096921,2096921,308662,390466
2096921,2096921,308496,390434
2096921,2096921,308765,390528
2096921,2096921,308827,390351
2096921,2096921,308662,390584
2096921,2096921,308553,390929
2096921,2096921,308738,390813
2096921,2096921,308673,390435
2096921,2096921,308876,390546
2096921,2096921,308770,390632
2096921,2096921,308863,390755
2096921,2096921,308863,390973
2096921,2096921,309110,390813
2096921,2096921,308793,390963
2096921,2096921,309088,390776
2096921,2096921,309183,390964
2096921,2096921,309061,391001
2096921,2096921,308854,391058
2096921,2096921,309138,391018
2096921,2096921,308841,391221
2096921,2096921,308897,391175
2096921,2096921,309323,391232
2096921,2096921,309202,391183
2096921,2096921,309028,391200
2096921,2096921,309251,391398
2096921,2096921,309333,391477
2096921,2096921,309180,391264
2096921,2096921,309007,391300
2096921,2096921,309180,391106
2096921,2096921,309486,391313
2096921,2096921,309469,391300
2096921,2096921,309094,391633
2096921,2096921,309132,391821
2096921,2096921,309196,391505
2096921,2096921,309614,391627
2096921,2096921,309522,391703
2096921,2096921,309169,391669
2096921,2096921,309438,391402
2096921,2096921,309259,391571
2096921,2096921,309226,391311
2096921,2096921,309562,391448
2096921,2096921,309590,392045
2096921,2096921,309723,391876
2096921,2096921,309537,391864
2096921,2096921,309742,391897
2096921,2096921,309559,391931
2096921,2096921,309639,391645
2096921,2096921,309450,391665
2096921,2096921,309629,391945
2096921,2096921,309573,391707
2096921,2096921,309592,392015
2096921,2096921,309671,391913
2096921,2096921,309776,392153
2096921,2096921,309806,391965
2096921,2096921,310298,392043
2096921,2096921,309714,392308
2096921,2096921,309721,392099
2096921,2096921,309762,392116
2096921,2096921,309890,392313
2096921,2096921,309837,392236
2096921,2096921,309858,392212
2096921,2096921,309903,392065
2096921,2096921,310141,392073
2096921,2096921,309842,392374
2096921,2096921,309856,392303
2096921,2096921,309735,392198
2096921,2096921,309532,392106
2096921,2096921,309831,392194
2096921,2096921,309651,392325
2096921,2096921,309788,392174
2096921,2096921,309820,392135
2096921,2096921,309788,392221
2096921,2096921,309800,392034
2096921,2096921,309558,392067
2096921,2096921,309422,391827
2096921,2096921,309140,391783
2096921,2096921,309212,391860
2096921,2096921,309423,391679
2096921,2096921,309010,391884
2096921,2096921,309077,391654
2096921,2096921,308923,391356
2096921,2096921,309050,391346
2096921,2096921,308826,391101
2096921,2096921,308778,391326
2096921,2096921,308520,390967
2096921,2096921,308528,391024
2096921,2096921,308434,391043
2096921,2096921,308470,391143
2096921,2096921,308174,390983
2096921,2096921,307279,390097
2096921,2096921,306957,389661
2096921,2096921,306959,389717
2096921,2096921,307013,389592
2096921,2096921,306709,389893
2096921,2096921,305706,388634
2096921,2096921,305522,388419
2096921,2096921,305345,388243
2096921,2096921,305218,388073
2096921,2096921,304798,387917
2096921,2096921,304533,387531
2096921,2096921,304314,387088
2096921,2096921,304355,386997
2096921,2096921,304552,387059
2096921,2096921,303872,387016
2096921,2096921,303632,386650
2096921,2096921,303433,386319
2096921,2096921,303135,386268
2096921,2096921,303495,386260
2096921,2096921,303039,386185
2096921,2096921,302723,385749
2096921,2096921,302760,385697
2096921,2096921,302706,385658
2096921,2096921,302982,385759
2096921,2096921,302620,385698
2096921,2096921,302459,385568
2096921,2096921,302398,385380
2096921,2096921,302401,385464
2096921,2096921,302450,385318
2096921,2096921,302162,385518
2096921,2096921,302189,385067
2096921,2096921,302059,384942
2096921,2096921,302258,384983
2096921,2096921,301983,384896
2096921,2096921,301985,385034
2096921,2096921,301762,385336
2096921,2096921,302121,385029
2096921,2096921,301900,385050
2096921,2096921,301970,385056
2096921,2096921,301946,385132
2096921,2096921,302216,385152
2096921,2096921,301884,385056
2096921,2096921,302096,385461
2096921,2096921,302082,385395
2096921,2096921,302332,385134
2096921,2096921,302088,385148
2096921,2096921,302286,385339
2096921,2096921,301964,385161
2096921,2096921,301844,385312
2096921,2096921,302040,385198
2096921,2096921,302371,385360
2096921,2096921,302438,385427
2096921,2096921,302284,385514
2096921,2096921,302283,385524
2096921,2096921,302304,385614
2096921,2096921,302545,385736
2096921,2096921,302495,385831
2096921,2096921,302587,386000
2096921,2096921,302570,385677
2096921,2096921,302771,386008
2096921,2096921,302920,386094
2096921,2096921,302620,386190
2096921,2096921,302847,385874
2096921,2096921,302789,385872
2096921,2096921,303077,385917
2096921,2096921,303126,386456
2096921,2096921,303171,386696
2096921,2096921,302998,386313
2096921,2096921,303308,386232
2096921,2096921,303140,386287
2096921,2096921,303229,386348
2096921,2096921,303501,386477
2096921,2096921,303827,386670
2096921,2096921,303917,386802
2096921,2096921,303767,386872
2096921,2096921,304008,387264
2096921,2096921,304158,387069
2096921,2096921,303821,387356
2096921,2096921,303801,387419
2096921,2096921,303776,386992
2096921,2096921,304197,387311
2096921,2096921,304230,387565
2096921,2096921,304381,387424
2096921,2096921,304438,387618
2096921,2096921,304714,387820
2096921,2096921,304505,387854
2096921,2096921,304627,388180
2096921,2096921,304556,388217
2096921,2096921,304826,388159
2096921,2096921,304779,388164
2096921,2096921,304964,388208
2096921,2096921,305236,388769
2096921,2096921,305546,388259
2096921,2096921,304927,388629
2096921,2096921,305361,388377
2096921,2096921,305540,388606
2096921,2096921,305372,388809
2096921,2096921,305156,388925
2096921,2096921,305626,388701
2096921,2096921,305643,388764
2096921,2096921,305939,389066
2096921,2096921,305955,389342
2096921,2096921,305999,389310
2096921,2096921,305952,389514
2096921,2096921,306157,389226
2096921,2096921,306414,389765
2096921,2096921,305984,389536
2096921,2096921,306223,389753
2096921,2096921,306369,389462
2096921,2096921,306417,389522
2096921,2096921,306753,389600
2096921,2096921,306790,389732
2096921,2096921,306674,389961
2096921,2096921,306690,390110
2096921,2096921,306882,389989
2096921,2096921,306738,390427
2096921,2096921,307003,390314
2096921,2096921,306952,390429
2096921,2096921,307120,390183
2096921,2096921,307217,390685
2096921,2096921,307536,390687
2096921,2096921,307339,390766
2096921,2096921,307329,390683
2096921,2096921,307788,391039
2096921,2096921,307580,390694
2096921,2096921,307719,391120
2096921,2096921,308022,390891
2096921,2096921,307888,391277
2096921,2096921,307828,391074
2096921,2096921,307902,391116
2096921,2096921,308464,391295
2096921,2096921,308371,391420
2096921,2096921,308189,391251
2096921,2096921,307986,391614
2096921,2096921,308207,391574
2096921,2096921,308078,391816
2096921,2096921,308365,391827
2096921,2096921,308468,391768
2096921,2096921,308465,391456
2096921,2096921,308350,391733
2096921,2096921,308424,391844
2096921,2096921,308743,391847
2096921,2096921,308719,391713
2096921,2096921,308670,391905
2096921,2096921,308941,392188
2096921,2096921,308770,392330
2096921,2096921,308737,392196
2096921,2096921,308806,392240
2096921,2096921,308735,391983
2096921,2096921,308907,392082
2096921,2096921,308926,392192
2096921,2096921,308818,392331
2096921,2096921,308832,392485
2096921,2096921,308940,392335
2096921,2096921,308802,392405
2096921,2096921,308788,392098
2096921,2096921,308835,392237
2096921,2096921,308717,392229
2096921,2096921,308801,392376
2096921,2096921,308817,392515
2096921,2096921,309107,392459
2096921,2096921,308879,392338
2096921,2096921,308928,392316
2096921,2096921,309217,392383
2096921,2096921,308748,392254
2096921,2096921,308746,392533
2096921,2096921,308736,392457
2096921,2096921,309272,392301
2096921,2096921,308871,392276
2096921,2096921,308701,392449
2096921,2096921,308714,392147
2096921,2096921,308929,392096
2096921,2096921,308851,391936
2096921,2096921,308922,392288
2096921,2096921,308799,392235
2096921,2096921,308875,392450
2096921,2096921,308756,392230
2096921,2096921,308670,392068
2096921,2096921,308439,392153
2096921,2096921,308669,392304
2096921,2096921,308498,392194
2096921,2096921,308707,392202
2096921,2096921,308418,392263
2096921,2096921,308863,392390
2096921,2096921,308806,392331
2096921,2096921,308978,392372
2096921,2096921,308893,392378
2096921,2096921,308801,392465
2096921,2096921,308691,392236
2096921,2096921,309053,392171
2096921,2096921,308806,392711
2096921,2096921,308769,392186
2096921,2096921,308740,392392
2096921,2096921,308791,392485
2096921,2096921,308736,392345
2096921,2096921,308827,392712
2096921,2096921,308997,392734
2096921,2096921,308704,392565
2096921,2096921,308549,392656
2096921,2096921,308828,392610
2096921,2096921,308987,392727
2096921,2096921,309064,392445
2096921,2096921,309061,392910
2096921,2096921,309185,392581
2096921,2096921,309152,392819
2096921,2096921,309301,392860
2096921,2096921,309058,392608
2096921,2096921,309193,392565
2096921,2096921,308961,392708
2096921,2096921,309452,392819
2096921,2096921,309174,393010
2096921,2096921,309438,392761
2096921,2096921,309560,393237
2096921,2096921,309408,393120
2096921,2096921,309576,393336
2096921,2096921,309627,393570
2096921,2096921,309575,393305
2096921,2096921,309550,393015
2096921,2096921,309553,393201
2096921,2096921,309706,393309
2096921,2096921,310018,393448
2096921,2096921,309833,393473
2096921,2096921,310032,393592
2096921,2096921,310027,393629
2096921,2096921,309950,393749
2096921,2096921,310200,393721
2096921,2096921,310240,394011
2096921,2096921,310372,393580
2096921,2096921,310214,393655
2096921,2096921,310157,393725
2096921,2096921,310333,394020
2096921,2096921,310500,393944
2096921,2096921,310374,393971
2096921,2096921,310169,393951
2096921,2096921,310430,394059
2096921,2096921,310285,393919
2096921,2096921,310258,394319
2096921,2096921,310497,394081
2096921,2096921,310606,394322
2096921,2096921,310624,394173
2096921,2096921,311026,394585
2096921,2096921,310663,394407
2096921,2096921,310615,394265
2096921,2096921,310702,394372
2096921,2096921,310896,394593
2096921,2096921,311334,394683
2096921,2096921,311012,394454
2096921,2096921,310952,394444
2096921,2096921,310953,394605
2096921,2096921,311146,394218
2096921,2096921,311083,394553
2096921,2096921,311369,394657
2096921,2096921,311208,394826
2096921,2096921,310805,394853
2096921,2096921,311337,395022
2096921,2096921,311591,394906
2096921,2096921,311465,395001
2096921,2096921,311655,394885
2096921,2096921,311055,394959
2096921,2096921,311093,394993
2096921,2096921,311295,395080
2096921,2096921,311463,395097
2096921,2096921,311710,395292
2096921,2096921,311771,395092
2096921,2096921,311542,395416
2096921,2096921,311692,395349
2096921,2096921,311723,395318
2096921,2096921,312024,395136
2096921,2096921,311931,395204
2096921,2096921,311670,395417
2096921,2096921,312000,395462
2096921,2096921,312006,395465
2096921,2096921,311962,395296
2096921,2096921,311823,395424
2096921,2096921,312005,395603
2096921,2096921,311633,395599
2096921,2096921,312093,395786
2096921,2096921,312101,395336
2096921,2096921,312062,395546
2096921,2096921,311743,395233
2096921,2096921,312013,395582
2096921,2096921,312083,395655
2096921,2096921,312146,395602
2096921,2096921,312126,395754
2096921,2096921,312063,395752
2096921,2096921,312478,395684
2096921,2096921,312495,395818
2096921,2096921,312475,395894
2096921,2096921,312441,395679
2096921,2096921,312352,395938
2096921,2096921,312397,395790
2096921,2096921,312542,396181
2096921,2096921,312500,396210
2096921,2096921,312644,396184
2096921,2096921,312786,396015
2096921,2096921,312763,395828
2096921,2096921,312736,396205
2096921,2096921,312620,395821
2096921,2096921,312557,396052
2096921,2096921,312626,396298
2096921,2096921,312709,396379
2096921,2096921,312446,396245
2096921,2096921,312916,396421
2096921,2096921,312970,396205
2096921,2096921,312964,396129
2096921,2096921,313045,396628
2096921,2096921,312924,396588
2096921,2096921,312770,396260
2096921,2096921,312851,396193
2096921,2096921,312768,396089
2096921,2096921,313290,396498
2096921,2096921,312974,396580
2096921,2096921,313039,396558
2096921,2096921,312903,396525
2096921,2096921,313049,396669
2096921,2096921,313389,396773
2096921,2096921,313139,396476
2096921,2096921,312956,396491
2096921,2096921,312984,396573
2096921,2096921,313031,396472
2096921,2096921,312843,396554
2096921,2096921,313167,396612
2096921,2096921,313013,396859
2096921,2096921,313084,396692
2096921,2096921,313291,396676
2096921,2096921,313109,396729
2096921,2096921,313384,396853
2096921,2096921,313410,396799
2096921,2096921,313348,396638
2096921,2096921,313121,396615
2096921,2096921,313337,396969
2096921,2096921,313526,396762
2096921,2096921,313579,396647
2096921,2096921,313291,397129
2096921,2096921,313237,396874
2096921,2096921,313451,397148
2096921,2096921,313375,397129
2096921,2096921,313290,397082
2096921,2096921,313382,397041
2096921,2096921,313435,397192
2096921,2096921,313354,397004
2096921,2096921,313617,397040
2096921,2096921,313786,397101
2096921,2096921,313527,397324
2096921,2096921,313830,397146
2096921,2096921,313816,397295
2096921,2096921,313663,397267
2096921,2096921,313582,396961
2096921,2096921,313764,397115
2096921,2096921,313689,397240
2096921,2096921,313688,397329
2096921,2096921,313664,397388
2096921,2096921,313712,397458
2096921,2096921,314015,397404
2096921,2096921,313959,397351
2096921,2096921,313580,397415
2096921,2096921,313920,397251
2096921,2096921,313587,397233
2096921,2096921,313826,397221
2096921,2096921,313837,397272
2096921,2096921,314106,397083
2096921,2096921,313968,397295
2096921,2096921,313904,397287
2096921,2096921,313849,397217
2096921,2096921,313860,397272
2096921,2096921,313932,397268
2096921,2096921,313626,397252
2096921,2096921,314073,397558
2096921,2096921,313943,397507
2096921,2096921,314080,397198
2096921,2096921,314101,397485
2096921,2096921,314117,397338
2096921,2096921,314005,397434
2096921,2096921,314018,397346
2096921,2096921,314168,397539
2096921,2096921,314049,397684
2096921,2096921,314179,397673
2096921,2096921,313963,397617
2096921,2096921,314213,397378
2096921,2096921,314108,397471
2096921,2096921,314105,397557
2096921,2096921,313998,397800
2096921,2096921,314001,397505
2096921,2096921,314157,397539
2096921,2096921,314317,397796
2096921,2096921,314122,397684
2096921,2096921,314511,397605
2096921,2096921,314313,397517
2096921,2096921,314060,397520
2096921,2096921,314030,397448
2096921,2096921,314143,397834
2096921,2096921,314044,397781
2096921,2096921,314254,397706
2096921,2096921,314244,397840
2096921,2096921,314219,397786
2096921,2096921,314304,397627
2096921,2096921,314317,397516
2096921,2096921,314372,397485
2096921,2096921,314075,397668
2096921,2096921,314340,397791
2096921,2096921,314488,398035
2096921,2096921,314406,397974
2096921,2096921,314362,398056
2096921,2096921,314405,397875
2096921,2096921,314223,397958
2096921,2096921,314304,398098
2096921,2096921,314224,397969
2096921,2096921,314528,397696
2096921,2096921,314373,397891
2096921,2096921,314247,397786
2096921,2096921,314425,397858
2096921,2096921,314502,397770
2096921,2096921,314457,397749
2096921,2096921,314470,397925
2096921,2096921,314473,398065
2096921,2096921,314687,397999
2096921,2096921,314385,397898
2096921,2096921,314536,397851
2096921,2096921,314461,397931
2096921,2096921,314418,398171
2096921,2096921,314339,398087
2096921,2096921,314464,397784
2096921,2096921,314510,397897
2096921,2096921,314433,397648
2096921,2096921,314469,397872
2096921,2096921,314795,397897
2096921,2096921,314899,397743
2096921,2096921,314616,397898
2096921,2096921,314773,398072
2096921,2096921,314659,397939
2096921,2096921,314439,397729
2096921,2096921,314500,397576
2096921,2096921,314171,397791
2096921,2096921,314328,398089
2096921,2096921,314141,398011
2096921,2096921,314545,397983
2096921,2096921,314516,398383
2096921,2096921,314547,398111
2096921,2096921,314374,398024
2096921,2096921,314577,397648
2096921,2096921,314403,397686
2096921,2096921,314227,397678
2096921,2096921,314373,397814
2096921,2096921,314323,397712
2096921,2096921,314390,397977
2096921,2096921,314374,397639
2096921,2096921,314103,397750
2096921,2096921,314216,397578
2096921,2096921,314334,397802
2096921,2096921,314186,397667
2096921,2096921,314178,397720
2096921,2096921,314378,397607
2096921,2096921,314248,397799
2096921,2096921,314151,397807
2096921,2096921,314492,397784
2096921,2096921,314291,397916
2096921,2096921,314062,397575
2096921,2096921,314029,397676
2096921,2096921,314188,397399
2096921,2096921,314352,397527
2096921,2096921,313853,397531
2096921,2096921,314067,397489
2096921,2096921,314328,398031
2096921,2096921,314320,397812
2096921,2096921,314276,397939
2096921,2096921,314349,397516
2096921,2096921,314228,397854
2096921,2096921,313959,397585
2096921,2096921,314097,397739
2096921,2096921,314557,397305
2096921,2096921,314496,397808
2096921,2096921,314148,397925
2096921,2096921,314362,397611
2096921,2096921,314311,397687
2096921,2096921,313951,397764
2096921,2096921,313997,397532
2096921,2096921,314003,397587
2096921,2096921,313769,397501
2096921,2096921,314014,397390
2096921,2096921,313745,397169
2096921,2096921,313606,397134
2096921,2096921,313632,397136
2096921,2096921,313773,397051
2096921,2096921,313701,396816
2096921,2096921,313698,397092
2096921,2096921,313354,396373
2096921,2096921,313345,396746
2096921,2096921,313326,396505
2096921,2096921,313093,396407
2096921,2096921,312775,396433
2096921,2096921,312576,395897
2096921,2096921,312529,395933
2096921,2096921,312632,395997
2096921,2096921,312612,395587
2096921,2096921,312348,396050
2096921,2096921,311646,395249
2096921,2096921,311664,395197
2096921,2096921,311559,395376
2096921,2096921,311530,395186
2096921,2096921,311196,395032
2096921,2096921,310531,394021
2096921,2096921,310373,393552
2096921,2096921,310423,393633
2096921,2096921,310069,393812
2096921,2096921,309482,393859
2096921,2096921,308493,392421
2096921,2096921,308496,392156
2096921,2096921,308451,391826
2096921,2096921,308432,392029
2096921,2096921,307901,391737
2096921,2096921,307540,390616
2096921,2096921,306983,390429
2096921,2096921,306834,390647
2096921,2096921,306935,390413
2096921,2096921,306649,390545
2096921,2096921,306385,389779
2096921,2096921,306166,389492
2096921,2096921,305977,389478
2096921,2096921,305814,389478
2096921,2096921,305377,389343
2096921,2096921,305163,388789
2096921,2096921,305205,388903
2096921,2096921,305483,388881
2096921,2096921,305164,388491
2096921,2096921,305142,388617
2096921,2096921,304826,388211
2096921,2096921,304643,388175
2096921,2096921,304586,388302
2096921,2096921,304507,388192
2096921,2096921,304302,388025
2096921,2096921,304034,387895
2096921,2096921,304006,387833
2096921,2096921,304159,387899
2096921,2096921,304056,387815
2096921,2096921,304140,387954
2096921,2096921,303724,387430
2096921,2096921,304083,387537
2096921,2096921,303995,387542
2096921,2096921,303936,387332
2096921,2096921,303826,387494
2096921,2096921,303700,387410
2096921,2096921,303783,387348
2096921,2096921,303571,387107
2096921,2096921,303659,387210
2096921,2096921,303701,387110
2096921,2096921,303629,387267
2096921,2096921,303562,387295
2096921,2096921,303476,387173
2096921,2096921,303605,387045
2096921,2096921,303666,387012
2096921,2096921,303920,386946
2096921,2096921,303797,387088
2096921,2096921,303608,387105
2096921,2096921,303586,387025
2096921,2096921,303764,387269
2096921,2096921,303571,387097
2096921,2096921,303453,386744
2096921,2096921,303644,387125
2096921,2096921,303611,387125
2096921,2096921,303742,387247
2096921,2096921,303636,387174
2096921,2096921,303491,387017
2096921,2096921,303653,387096
2096921,2096921,303851,386815
2096921,2096921,303881,387187
2096921,2096921,303891,387448
2096921,2096921,304112,387103
2096921,2096921,303686,387353
2096921,2096921,303766,387514
2096921,2096921,303892,387508
2096921,2096921,303841,387306
2096921,2096921,304194,387594
2096921,2096921,304227,387428
2096921,2096921,304065,387455
2096921,2096921,304205,387469
2096921,2096921,304337,387770
2096921,2096921,304580,387459
2096921,2096921,304303,387585
2096921,2096921,304190,387555
2096921,2096921,304699,387817
2096921,2096921,304451,387839
2096921,2096921,304478,387717
2096921,2096921,304387,387747
2096921,2096921,304401,387864
2096921,2096921,304664,387911
2096921,2096921,304799,388012
2096921,2096921,304595,387789
2096921,2096921,304540,388178
2096921,2096921,304826,387984
2096921,2096921,304767,388090
2096921,2096921,304848,387838
2096921,2096921,305096,388097
2096921,2096921,305091,388195
2096921,2096921,305183,388199
2096921,2096921,305083,388058
2096921,2096921,305336,388333
2096921,2096921,305222,388407
2096921,2096921,305024,388258
2096921,2096921,305179,388015
2096921,2096921,305348,388126
2096921,2096921,305131,388178
2096921,2096921,305209,388471
2096921,2096921,305261,388576
2096921,2096921,305330,388639
2096921,2096921,305393,388550
2096921,2096921,305524,388737
2096921,2096921,305511,388556
2096921,2096921,305401,388425
2096921,2096921,305533,388498
2096921,2096921,305541,388763
2096921,2096921,305772,388766
2096921,2096921,305819,389121
2096921,2096921,305876,388833
2096921,2096921,305846,388970
2096921,2096921,306076,388711
2096921,2096921,305865,388711
2096921,2096921,306091,388999
2096921,2096921,305968,388637
2096921,2096921,305902,388784
2096921,2096921,306092,389080
2096921,2096921,306069,389189
2096921,2096921,306307,389088
2096921,2096921,306249,389132
2096921,2096921,306261,389070
2096921,2096921,306360,389103
2096921,2096921,306076,389374
2096921,2096921,306137,389201
2096921,2096921,306347,389405
2096921,2096921,306241,389391
2096921,2096921,306638,389078
2096921,2096921,306376,389093
2096921,2096921,306537,389096
2096921,2096921,306636,389503
2096921,2096921,306460,389336
2096921,2096921,306676,389318
2096921,2096921,306522,389593
2096921,2096921,306473,389461
2096921,2096921,306713,389423
2096921,2096921,306466,389439
2096921,2096921,306539,389363
2096921,2096921,306600,389278
2096921,2096921,306438,389513
2096921,2096921,306297,389152
2096921,2096921,306704,389173
2096921,2096921,306659,389460
2096921,2096921,306474,389443
2096921,2096921,306456,389134
2096921,2096921,306398,389162
2096921,2096921,306381,389270
2096921,2096921,306600,389338
2096921,2096921,306394,389193
2096921,2096921,306250,389251
2096921,2096921,306348,389361
2096921,2096921,306329,389114
2096921,2096921,306403,389338
2096921,2096921,306432,388980
2096921,2096921,306288,389069
2096921,2096921,306349,388912
2096921,2096921,306388,389082
2096921,2096921,306330,389201
2096921,2096921,305949,388763
2096921,2096921,306045,388704
2096921,2096921,306195,388977
2096921,2096921,306345,389000
2096921,2096921,305978,388857
2096921,2096921,305701,388667
2096921,2096921,305665,388667
2096921,2096921,305766,388570
2096921,2096921,305704,388368
2096921,2096921,306024,388659
2096921,2096921,305775,388434
2096921,2096921,305627,388260
2096921,2096921,305617,388545
2096921,2096921,305633,388413
2096921,2096921,305675,388468
2096921,2096921,305390,388440
2096921,2096921,305305,388276
2096921,2096921,305359,387858
2096921,2096921,305439,388002
2096921,2096921,305148,388146
2096921,2096921,305237,387621
2096921,2096921,305051,387811
2096921,2096921,305367,387759
2096921,2096921,305044,387577
2096921,2096921,305188,387886
2096921,2096921,304961,387730
2096921,2096921,305223,387617
2096921,2096921,305065,387457
2096921,2096921,304835,387779
2096921,2096921,305084,387771
2096921,2096921,304626,387648
2096921,2096921,304949,387480
2096921,2096921,305210,387572
2096921,2096921,305156,387541
2096921,2096921,305141,387586
2096921,2096921,304917,387291
2096921,2096921,304584,387320
2096921,2096921,304874,387289
2096921,2096921,304678,387240
2096921,2096921,304890,387235
2096921,2096921,304932,387259
2096921,2096921,304918,387091
2096921,2096921,305142,387440
2096921,2096921,305134,387256
2096921,2096921,304767,387108
2096921,2096921,304565,387251
2096921,2096921,304844,387402
2096921,2096921,304782,387116
2096921,2096921,304678,387212
2096921,2096921,304850,387518
2096921,2096921,305070,387288
2096921,2096921,305191,387032
2096921,2096921,305228,387320
2096921,2096921,304962,387361
2096921,2096921,305057,387392
2096921,2096921,305040,387651
2096921,2096921,305146,387520
2096921,2096921,304882,387332
2096921,2096921,305205,387469
2096921,2096921,305129,387372
2096921,2096921,305067,387460
2096921,2096921,305175,387378
2096921,2096921,305329,387498
2096921,2096921,305102,387703
2096921,2096921,305374,387791
2096921,2096921,305248,387625
2096921,2096921,305391,387706
2096921,2096921,305270,387406
2096921,2096921,305238,387562
2096921,2096921,305262,387500
2096921,2096921,305174,387483
2096921,2096921,305409,387712
2096921,2096921,305504,387702
2096921,2096921,305350,387653
2096921,2096921,305273,387462
2096921,2096921,305424,387450
2096921,2096921,305454,387204
2096921,2096921,305410,387639
2096921,2096921,305697,387465
2096921,2096921,305214,387561
2096921,2096921,305483,387654
2096921,2096921,305452,387496
2096921,2096921,305652,387424
2096921,2096921,305427,387575
2096921,2096921,305578,387847
2096921,2096921,305479,387511
2096921,2096921,305643,387441
2096921,2096921,305408,387698
2096921,2096921,305483,387709
2096921,2096921,305635,387725
2096921,2096921,305469,387507
2096921,2096921,305529,387585
2096921,2096921,305684,387752
2096921,2096921,305688,387668
2096921,2096921,305957,387521
2096921,2096921,305609,387716
2096921,2096921,305452,387776
2096921,2096921,305695,387661
2096921,2096921,305751,387768
2096921,2096921,305576,387474
2096921,2096921,305591,387354
2096921,2096921,305757,387830
2096921,2096921,305969,387568
2096921,2096921,305536,387832
2096921,2096921,305803,387867
2096921,2096921,305576,387552
2096921,2096921,305380,387499
2096921,2096921,305608,387749
2096921,2096921,305575,387598
2096921,2096921,305767,387753
2096921,2096921,305710,387502
2096921,2096921,305633,387764
2096921,2096921,305720,387941
2096921,2096921,305441,387843
2096921,2096921,305705,387724
2096921,2096921,305812,387666
2096921,2096921,305868,387694
2096921,2096921,306007,387908
2096921,2096921,305987,388083
2096921,2096921,305833,387824
2096921,2096921,305896,387608
2096921,2096921,305731,387824
2096921,2096921,305896,387642
2096921,2096921,306046,387884
2096921,2096921,305900,387720
2096921,2096921,305597,387870
2096921,2096921,305784,387817
2096921,2096921,305723,387695
2096921,2096921,305894,387776
2096921,2096921,306035,387714
2096921,2096921,306025,387764
2096921,2096921,305835,387559
2096921,2096921,305931,387714
2096921,2096921,306033,387842
2096921,2096921,305984,387748
2096921,2096921,305907,387993
2096921,2096921,305613,387957
2096921,2096921,305671,387655
2096921,2096921,305636,387444
2096921,2096921,305752,387512
2096921,2096921,305836,387388
2096921,2096921,305935,387854
2096921,2096921,306131,388066
2096921,2096921,306181,387917
2096921,2096921,306056,387621
2096921,2096921,305991,387755
2096921,2096921,306046,387569
2096921,2096921,305775,387632
2096921,2096921,305815,387553
2096921,2096921,305979,387640
2096921,2096921,306201,387493
2096921,2096921,306223,387503
2096921,2096921,305906,387460
2096921,2096921,306048,387921
2096921,2096921,306038,387692
2096921,2096921,306128,387706
2096921,2096921,306153,387703
2096921,2096921,305883,387731
2096921,2096921,305811,387447
2096921,2096921,305977,387783
2096921,2096921,305857,387506
2096921,2096921,305888,387657
2096921,2096921,306012,387519
2096921,2096921,306363,387705
2096921,2096921,306399,387491
2096921,2096921,305851,387631
2096921,2096921,305942,387647
2096921,2096921,305964,387756
2096921,2096921,305710,387582
2096921,2096921,305728,387723
2096921,2096921,305797,387664
2096921,2096921,306023,387730
2096921,2096921,306258,387440
2096921,2096921,306050,387657
2096921,2096921,306155,387323
2096921,2096921,305949,387425
2096921,2096921,305736,387350
2096921,2096921,305439,387427
2096921,2096921,305773,387108
2096921,2096921,305734,387469
2096921,2096921,305988,387225
2096921,2096921,305996,387737
2096921,2096921,305910,387373
2096921,2096921,306091,387729
2096921,2096921,305572,387571
2096921,2096921,305630,387416
2096921,2096921,305529,387632
2096921,2096921,305711,387549
2096921,2096921,305958,387482
2096921,2096921,306206,387447
2096921,2096921,305983,387359
2096921,2096921,305941,387366
2096921,2096921,306047,387407
2096921,2096921,306073,387155
2096921,2096921,306005,387309
2096921,2096921,305745,387328
2096921,2096921,305938,387411
2096921,2096921,305839,387348
2096921,2096921,305584,387305
2096921,2096921,305790,387515
2096921,2096921,306025,387100
2096921,2096921,305970,387059
2096921,2096921,305837,387125
2096921,2096921,306153,387031
2096921,2096921,305893,387331
2096921,2096921,306013,387297
2096921,2096921,305744,387196
2096921,2096921,305750,387236
2096921,2096921,305990,387341
2096921,2096921,305883,387083
2096921,2096921,305532,386878
2096921,2096921,305695,387028
2096921,2096921,305540,387171
2096921,2096921,305763,387611
2096921,2096921,305841,387258
2096921,2096921,305996,387380
2096921,2096921,305662,387013
2096921,2096921,305634,387127
2096921,2096921,305773,387248
2096921,2096921,305846,387065
2096921,2096921,305785,386809
2096921,2096921,305672,387014
2096921,2096921,305594,387131
2096921,2096921,305802,387054
2096921,2096921,305774,386991
2096921,2096921,305723,387035
2096921,2096921,305685,387167
2096921,2096921,305670,387066
2096921,2096921,305750,386896
2096921,2096921,305942,386952
2096921,2096921,305557,386850
2096921,2096921,305836,386911
2096921,2096921,305677,386981
2096921,2096921,305738,386937
2096921,2096921,305735,386724
2096921,2096921,305561,386923
2096921,2096921,305856,386932
2096921,2096921,305549,386972
2096921,2096921,305719,387039
2096921,2096921,305523,387033
2096921,2096921,305704,386936
2096921,2096921,305746,386802
2096921,2096921,305603,387150
2096921,2096921,305722,386854
2096921,2096921,305739,387041
2096921,2096921,305710,386858
2096921,2096921,305734,386824
2096921,2096921,305577,386881
2096921,2096921,305779,386815
2096921,2096921,305629,386844
2096921,2096921,305487,386622
2096921,2096921,305439,386731
2096921,2096921,305495,386815
2096921,2096921,305513,386845
2096921,2096921,305736,386716
2096921,2096921,305647,387115
2096921,2096921,305591,387066
2096921,2096921,305484,386747
2096921,2096921,305644,386933
2096921,2096921,305651,386781
2096921,2096921,305445,386583
2096921,2096921,305663,386740
2096921,2096921,305585,386365
2096921,2096921,305677,386656
2096921,2096921,305641,386783
2096921,2096921,305702,386451
2096921,2096921,305291,386377
2096921,2096921,305266,386651
2096921,2096921,305397,386756
2096921,2096921,305296,386539
2096921,2096921,305198,386582
2096921,2096921,304919,386425
2096921,2096921,305285,386440
2096921,2096921,305275,386487
2096921,2096921,305532,386545
2096921,2096921,305513,386307
2096921,2096921,305414,386230
2096921,2096921,305164,386513
2096921,2096921,305189,386428
2096921,2096921,305344,386544
2096921,2096921,305351,386540
2096921,2096921,305379,386576
2096921,2096921,305372,386722
2096921,2096921,305377,386516
2096921,2096921,305270,386595
2096921,2096921,305207,386347
2096921,2096921,305245,386243
2096921,2096921,305290,386120
2096921,2096921,305393,386061
2096921,2096921,305226,386175
2096921,2096921,305201,386204
2096921,2096921,305099,386465
2096921,2096921,305222,386476
2096921,2096921,305001,386583
2096921,2096921,305152,386337
2096921,2096921,305303,386047
2096921,2096921,305363,386139
2096921,2096921,304910,386348
2096921,2096921,304848,386279
2096921,2096921,305002,386187
2096921,2096921,305352,386214
2096921,2096921,305003,386105
2096921,2096921,305444,386071
2096921,2096921,305491,386289
2096921,2096921,305155,386190
2096921,2096921,304999,386136
2096921,2096921,305208,386205
2096921,2096921,305267,386212
2096921,2096921,305309,386493
2096921,2096921,305027,386086
2096921,2096921,305071,386171
2096921,2096921,304945,386167
2096921,2096921,305095,386167
2096921,2096921,305085,386028
2096921,2096921,305080,386031
2096921,2096921,304886,385840
2096921,2096921,305077,385840
2096921,2096921,304830,385695
2096921,2096921,304819,385995
2096921,2096921,304544,385835
2096921,2096921,304619,385559
2096921,2096921,304425,385341
2096921,2096921,304631,385512
2096921,2096921,304192,385472
2096921,2096921,304264,385566
2096921,2096921,304237,385563
2096921,2096921,304077,385448
2096921,2096921,303668,384958
2096921,2096921,303781,384933
2096921,2096921,303698,385117
2096921,2096921,303360,384465
2096921,2096921,303534,384395
2096921,2096921,303792,384359
2096921,2096921,303490,384816
2096921,2096921,303277,384558
2096921,2096921,302639,383798
2096921,2096921,302651,383692
2096921,2096921,302815,383747
2096921,2096921,302760,383558
2096921,2096921,302092,383938
2096921,2096921,301498,382900
2096921,2096921,301567,382621
2096921,2096921,301789,382441
2096921,2096921,301349,382724
2096921,2096921,300820,382518
2096921,2096921,299826,381045
2096921,2096921,299854,380881
2096921,2096921,299646,380872
2096921,2096921,299559,380879
2096921,2096921,299007,380810
2096921,2096921,298550,379730
2096921,2096921,298231,379489
2096921,2096921,298625,379818
2096921,2096921,298451,379647
2096921,2096921,298124,379518
2096921,2096921,297582,378990
2096921,2096921,297367,378662
2096921,2096921,297544,378616
2096921,2096921,297426,378694
2096921,2096921,296846,378719
2096921,2096921,296663,378050
2096921,2096921,296394,377798
2096921,2096921,296428,377843
2096921,2096921,296480,378147
2096921,2096921,296699,378170
2096921,2096921,296270,377666
2096921,2096921,295996,377444
2096921,2096921,295937,377591
2096921,2096921,296130,377159
2096921,2096921,295813,377324
2096921,2096921,295788,377247
2096921,2096921,295878,377230
2096921,2096921,295546,377092
2096921,2096921,295517,377256
2096921,2096921,295588,377106
2096921,2096921,295418,376957
2096921,2096921,295431,376940
2096921,2096921,295627,376888
2096921,2096921,295455,376728
2096921,2096921,295312,376942
2096921,2096921,295357,376750
2096921,2096921,295473,376800
2096921,2096921,295494,376767
2096921,2096921,295891,376637
2096921,2096921,295568,376692
2096921,2096921,295433,377051
2096921,2096921,295258,376754
2096921,2096921,295626,377007
2096921,2096921,295573,376734
2096921,2096921,295566,376564
2096921,2096921,295222,376758
2096921,2096921,295727,377129
2096921,2096921,295551,376768
2096921,2096921,295734,377155
2096921,2096921,295908,376976
2096921,2096921,295849,377123
2096921,2096921,295523,377015
2096921,2096921,295727,376963
2096921,2096921,295680,376776
2096921,2096921,295529,377101
2096921,2096921,295989,377072
2096921,2096921,296083,377170
2096921,2096921,295933,377326
2096921,2096921,295870,377202
2096921,2096921,296074,377183
2096921,2096921,296140,377229
2096921,2096921,295869,377251
2096921,2096921,295851,377301
2096921,2096921,296117,377508
2096921,2096921,296230,377479
2096921,2096921,296354,377700
2096921,2096921,296325,377648
2096921,2096921,296166,377981
2096921,2096921,296291,377647
2096921,2096921,296597,378043
2096921,2096921,296666,378013
2096921,2096921,296530,377870
2096921,2096921,296569,377883
2096921,2096921,296720,377976
2096921,2096921,296705,377881
2096921,2096921,296811,378113
2096921,2096921,297064,378158
2096921,2096921,296922,378334
2096921,2096921,297054,378380
2096921,2096921,297058,378205
2096921,2096921,297187,378262
2096921,2096921,297188,378474
2096921,2096921,297268,378294
2096921,2096921,296850,378592
2096921,2096921,297238,378642
2096921,2096921,297592,378866
2096921,2096921,297580,378785
2096921,2096921,297605,379166
2096921,2096921,297495,379004
2096921,2096921,297639,379105
2096921,2096921,297548,379111
2096921,2096921,297355,378992
2096921,2096921,297769,378818
2096921,2096921,297593,379000
2096921,2096921,297889,379357
2096921,2096921,298110,379390
2096921,2096921,298326,379485
2096921,2096921,298130,379505
2096921,2096921,298462,379646
2096921,2096921,298527,379540
2096921,2096921,298401,379596
2096921,2096921,298350,379575
2096921,2096921,298461,379785
2096921,2096921,298324,379657
2096921,2096921,298470,379407
2096921,2096921,298683,380026
2096921,2096921,298754,379938
2096921,2096921,298651,379943
2096921,2096921,298625,379950
2096921,2096921,299015,379930
2096921,2096921,299093,380122
2096921,2096921,298859,380453
2096921,2096921,299135,380250
2096921,2096921,298805,380421
2096921,2096921,299026,380211
2096921,2096921,299051,380318
2096921,2096921,299342,380597
2096921,2096921,299518,380512
2096921,2096921,299262,380341
2096921,2096921,299492,380584
2096921,2096921,299637,380583
2096921,2096921,299571,380601
2096921,2096921,299492,380727
2096921,2096921,299769,380884
2096921,2096921,299649,380746
2096921,2096921,299819,380862
2096921,2096921,299732,380959
2096921,2096921,299745,381302
2096921,2096921,299749,381030
2096921,2096921,299901,381068
2096921,2096921,300199,381149
2096921,2096921,299663,381098
2096921,2096921,299716,381339
2096921,2096921,300024,381321
2096921,2096921,300152,381077
2096921,2096921,300067,381187
2096921,2096921,299926,381069
2096921,2096921,300057,381392
2096921,2096921,300161,381366
2096921,2096921,300282,381293
2096921,2096921,300153,381326
2096921,2096921,300170,381427
2096921,2096921,300033,381297
2096921,2096921,300135,381662
2096921,2096921,299848,381256
2096921,2096921,300390,381564
2096921,2096921,300306,381282
2096921,2096921,300178,381254
2096921,2096921,300229,381377
2096921,2096921,300250,381361
2096921,2096921,300115,381512
2096921,2096921,300101,381425
2096921,2096921,299884,381393
2096921,2096921,300021,381401
2096921,2096921,300104,381167
2096921,2096921,300244,381412
2096921,2096921,300288,381296
2096921,2096921,300289,381433
2096921,2096921,300407,381232
2096921,2096921,300152,381268
2096921,2096921,300090,381510
2096921,2096921,299716,381477
2096921,2096921,299975,381127
2096921,2096921,299839,381262
2096921,2096921,299638,381324
2096921,2096921,299674,381152
2096921,2096921,300095,381108
2096921,2096921,300208,381262
2096921,2096921,300186,381058
2096921,2096921,300013,381090
2096921,2096921,299860,380891
2096921,2096921,299869,381109
2096921,2096921,299569,380986
2096921,2096921,299605,381139
2096921,2096921,299739,380874
2096921,2096921,299823,380803
2096921,2096921,299651,380921
2096921,2096921,299549,380957
2096921,2096921,299861,380701
2096921,2096921,299715,381075
2096921,2096921,299675,380724
2096921,2096921,299849,381246
2096921,2096921,299839,381033
2096921,2096921,299859,380959
2096921,2096921,299769,380921
2096921,2096921,299774,381039
2096921,2096921,299842,380971
2096921,2096921,299982,381208
2096921,2096921,299965,381241
2096921,2096921,299763,381117
2096921,2096921,299819,381320
2096921,2096921,299847,381381
2096921,2096921,299538,381029
2096921,2096921,299961,381180
2096921,2096921,299846,380996
2096921,2096921,299902,380790
2096921,2096921,299852,380959
2096921,2096921,299980,381360
2096921,2096921,299847,381363
2096921,2096921,299983,381225
2096921,2096921,299956,381456
2096921,2096921,300059,381363
2096921,2096921,299746,381168
2096921,2096921,299748,380926
2096921,2096921,299758,380911
2096921,2096921,300207,381408
2096921,2096921,300368,381305
2096921,2096921,300410,381510
2096921,2096921,300356,381820
2096921,2096921,300445,381554
2096921,2096921,300479,381790
2096921,2096921,300431,381839
2096921,2096921,300368,381513
2096921,2096921,300627,381905
2096921,2096921,300745,381638
2096921,2096921,300843,381924
2096921,2096921,300874,381949
2096921,2096921,301048,382232
2096921,2096921,301055,382191
2096921,2096921,301144,382145
2096921,2096921,300843,382137
2096921,2096921,300902,382052
2096921,2096921,301090,382474
2096921,2096921,301094,382106
2096921,2096921,300837,382017
2096921,2096921,301114,382275
2096921,2096921,301181,382149
2096921,2096921,301410,382405
2096921,2096921,301230,382303
2096921,2096921,301392,382115
2096921,2096921,301518,382804
2096921,2096921,301497,382698
2096921,2096921,301418,382756
2096921,2096921,301657,382618
2096921,2096921,301610,382855
2096921,2096921,301614,382891
2096921,2096921,301513,382887
2096921,2096921,301609,383078
2096921,2096921,301654,383149
2096921,2096921,302034,383066
2096921,2096921,301666,383242
2096921,2096921,302036,383300
2096921,2096921,301822,383175
2096921,2096921,301652,383141
2096921,2096921,302170,383060
2096921,2096921,302335,383339
2096921,2096921,302193,383526
2096921,2096921,302112,383511
2096921,2096921,302332,383450
2096921,2096921,302377,383560
2096921,2096921,302398,383541
2096921,2096921,302089,383757
2096921,2096921,302457,383589
2096921,2096921,302451,383579
2096921,2096921,302277,383533
2096921,2096921,302505,383712
2096921,2096921,302763,384052
2096921,2096921,302896,383981
2096921,2096921,302817,383884
2096921,2096921,302803,383972
2096921,2096921,302852,384166
2096921,2096921,302674,384320
2096921,2096921,302902,384062
2096921,2096921,302741,384089
2096921,2096921,302889,384176
2096921,2096921,303175,384296
2096921,2096921,303219,384439
2096921,2096921,303258,384225
2096921,2096921,302986,384490
2096921,2096921,303253,384319
2096921,2096921,303318,384392
2096921,2096921,303287,384598
2096921,2096921,303231,385043
2096921,2096921,303276,384530
2096921,2096921,303179,384702
2096921,2096921,303303,384811
2096921,2096921,303460,384815
2096921,2096921,303522,384901
2096921,2096921,303622,384853
2096921,2096921,303843,384772
2096921,2096921,303766,385195
2096921,2096921,303814,384892
2096921,2096921,304042,385134
2096921,2096921,303701,385122
2096921,2096921,303697,384966
2096921,2096921,303732,385094
2096921,2096921,303982,385332
2096921,2096921,303828,385413
2096921,2096921,304024,385336
2096921,2096921,303842,385476
2096921,2096921,304353,385719
2096921,2096921,304326,385561
2096921,2096921,303980,385736
2096921,2096921,304321,385469
2096921,2096921,304007,385479
2096921,2096921,304309,385567
2096921,2096921,304101,385599
2096921,2096921,304200,385677
2096921,2096921,304421,385806
2096921,2096921,304309,385593
2096921,2096921,304414,386046
2096921,2096921,304550,386104
2096921,2096921,304468,385995
2096921,2096921,304506,385790
2096921,2096921,304826,385823
2096921,2096921,304800,385859
2096921,2096921,304515,386035
2096921,2096921,304596,386097
2096921,2096921,304597,386153
2096921,2096921,305051,386215
2096921,2096921,305055,386214
2096921,2096921,304900,386261
2096921,2096921,305029,386177
2096921,2096921,304923,386415
2096921,2096921,304748,386186
2096921,2096921,304816,386528
2096921,2096921,305083,386287
2096921,2096921,305053,386582
2096921,2096921,305280,386748
2096921,2096921,305292,386465
2096921,2096921,305463,386590
2096921,2096921,305331,386828
2096921,2096921,305211,386689
2096921,2096921,305066,386681
2096921,2096921,305405,386848
2096921,2096921,305592,386999
2096921,2096921,305573,387043
2096921,2096921,305636,387007
2096921,2096921,305614,387091
2096921,2096921,305716,387020
2096921,2096921,305917,387073
2096921,2096921,305830,387119
2096921,2096921,305862,387124
2096921,2096921,305713,387068
2096921,2096921,305906,387024
2096921,2096921,306269,387442
2096921,2096921,305981,387604
2096921,2096921,305828,387439
2096921,2096921,305892,387477
2096921,2096921,306034,387440
2096921,2096921,306131,387481
2096921,2096921,305938,387592
2096921,2096921,306042,387600
2096921,2096921,305926,387542
2096921,2096921,306123,387642
2096921,2096921,306133,387798
2096921,2096921,306137,387873
2096921,2096921,306186,387815
2096921,2096921,306217,387683
2096921,2096921,306531,387879
2096921,2096921,306328,388158
2096921,2096921,306340,387945
2096921,2096921,306388,387969
2096921,2096921,306020,387816
2096921,2096921,306096,388006
2096921,2096921,306388,388076
2096921,2096921,306517,388094
2096921,2096921,306643,388061
2096921,2096921,306572,388190
2096921,2096921,306666,388221
2096921,2096921,306989,388296
2096921,2096921,306785,388458
2096921,2096921,306926,388594
2096921,2096921,306817,388044
2096921,2096921,306660,388117
2096921,2096921,306671,388417
2096921,2096921,306915,388550
2096921,2096921,307097,388674
2096921,2096921,307077,388490
2096921,2096921,307153,388479
2096921,2096921,307340,388907
2096921,2096921,307049,388838
2096921,2096921,306774,388880
2096921,2096921,307071,388889
2096921,2096921,306790,388781
2096921,2096921,307227,389125
2096921,2096921,307223,389195
2096921,2096921,307271,388992
2096921,2096921,307459,389018
2096921,2096921,307490,388872
2096921,2096921,307541,389258
2096921,2096921,307270,389064
2096921,2096921,307177,389037
2096921,2096921,307609,389014
2096921,2096921,307450,388969
2096921,2096921,307645,389544
2096921,2096921,307795,389457
2096921,2096921,307723,389561
2096921,2096921,307665,389485
2096921,2096921,307920,389537
2096921,2096921,307934,389357
2096921,2096921,307724,389590
2096921,2096921,307585,389529
2096921,2096921,307695,389845
2096921,2096921,307730,389663
2096921,2096921,307869,389661
2096921,2096921,307986,389665
2096921,2096921,307883,389916
2096921,2096921,308035,390054
2096921,2096921,307969,390025
2096921,2096921,308223,389940
2096921,2096921,308381,389948
2096921,2096921,307991,389792
2096921,2096921,307761,390114
2096921,2096921,307896,389692
2096921,2096921,308214,389993
2096921,2096921,308351,389904
2096921,2096921,308286,390066
2096921,2096921,308042,390132
2096921,2096921,308436,390236
2096921,2096921,308476,390345
2096921,2096921,308478,390428
2096921,2096921,308330,390357
2096921,2096921,308445,390490
2096921,2096921,308459,390245
2096921,2096921,308378,390605
2096921,2096921,308730,390493
2096921,2096921,308729,390454
2096921,2096921,308635,390402
2096921,2096921,308986,390475
2096921,2096921,308674,390608
2096921,2096921,309057,390721
2096921,2096921,308819,390562
2096921,2096921,308698,390538
2096921,2096921,308818,390367
2096921,2096921,309054,390879
2096921,2096921,308990,390784
2096921,2096921,309026,390754
2096921,2096921,308889,391069
2096921,2096921,309003,390703
2096921,2096921,308858,391053
2096921,2096921,308808,390989
2096921,2096921,308619,390776
2096921,2096921,309182,390985
2096921,2096921,309046,390718
2096921,2096921,309163,390946
2096921,2096921,309145,391000
2096921,2096921,309016,391130
2096921,2096921,309123,391027
2096921,2096921,309080,390957
2096921,2096921,309271,391115
2096921,2096921,309466,391179
2096921,2096921,309145,391357
2096921,2096921,309123,391337
2096921,2096921,309223,391455
2096921,2096921,309367,391575
2096921,2096921,309421,391466
2096921,2096921,309299,391439
2096921,2096921,309320,391557
2096921,2096921,309705,391551
2096921,2096921,309084,391538
2096921,2096921,309555,391708
2096921,2096921,309451,391747
2096921,2096921,309471,391896
2096921,2096921,309490,391517
2096921,2096921,309698,391718
2096921,2096921,309789,391990
2096921,2096921,309372,391792
2096921,2096921,309268,391694
2096921,2096921,309826,391904
2096921,2096921,309754,392117
2096921,2096921,309875,391914
2096921,2096921,309698,391938
2096921,2096921,309809,391742
2096921,2096921,309665,391735
2096921,2096921,309811,391767
2096921,2096921,309876,392122
2096921,2096921,309883,392386
2096921,2096921,309816,392126
2096921,2096921,309835,392003
2096921,2096921,309885,392073
2096921,2096921,309695,391786
2096921,2096921,309380,391773
2096921,2096921,309272,391798
2096921,2096921,309274,391704
2096921,2096921,309400,391814
2096921,2096921,309614,391740
2096921,2096921,309481,391863
2096921,2096921,309354,391783
2096921,2096921,309286,391933
2096921,2096921,309277,391711
2096921,2096921,309073,391264
2096921,2096921,309073,391476
2096921,2096921,308982,391733
2096921,2096921,308564,391232
2096921,2096921,308850,391223
2096921,2096921,308536,391167
2096921,2096921,308767,390898
2096921,2096921,308565,391159
2096921,2096921,308446,390932
2096921,2096921,307976,390734
2096921,2096921,307863,390575
2096921,2096921,307957,390658
2096921,2096921,308049,390537
2096921,2096921,307314,390451
2096921,2096921,306915,389421
2096921,2096921,306628,389651
2096921,2096921,306872,389152
2096921,2096921,306808,389470
2096921,2096921,306002,389288
2096921,2096921,305436,388177
2096921,2096921,305324,387675
2096921,2096921,305319,387821
2096921,2096921,305159,388002
2096921,2096921,304194,387772
2096921,2096921,303900,386826
2096921,2096921,304233,386999
2096921,2096921,304046,386758
2096921,2096921,304092,386709
2096921,2096921,303478,386707
2096921,2096921,303163,386180
2096921,2096921,303064,385889
2096921,2096921,303138,385922
2096921,2096921,302991,385907
2096921,2096921,302676,385957
2096921,2096921,302556,385337
2096921,2096921,302453,385654
2096921,2096921,302647,385593
2096921,2096921,302553,385592
2096921,2096921,302264,385815
2096921,2096921,301921,385134
2096921,2096921,302027,384991
2096921,2096921,302281,385175
2096921,2096921,302132,385041
2096921,2096921,302163,385013
2096921,2096921,302148,384901
2096921,2096921,302147,384800
2096921,2096921,301815,384955
2096921,2096921,301845,384851
2096921,2096921,301628,384823
2096921,2096921,302038,384753
2096921,2096921,301775,384665
2096921,2096921,301573,385023
2096921,2096921,301772,384556
2096921,2096921,301718,384647
2096921,2096921,301611,384584
2096921,2096921,301774,384669
2096921,2096921,301960,384823
2096921,2096921,301828,384973
2096921,2096921,302079,384577
2096921,2096921,301991,385016
2096921,2096921,301713,384945
2096921,2096921,301935,385113
2096921,2096921,301911,384947
2096921,2096921,302197,384654
2096921,2096921,302206,385055
2096921,2096921,302152,385143
2096921,2096921,302162,385334
2096921,2096921,302353,385098
2096921,2096921,302014,385275
2096921,2096921,302364,385465
2096921,2096921,302519,385342
2096921,2096921,302299,385178
2096921,2096921,302256,385316
2096921,2096921,302255,385257
2096921,2096921,302505,385601
2096921,2096921,302462,385702
2096921,2096921,302577,385780
2096921,2096921,302919,385653
2096921,2096921,302918,385795
2096921,2096921,302731,386085
2096921,2096921,302615,386092
2096921,2096921,302948,385962
2096921,2096921,303164,386246
2096921,2096921,303110,386188
2096921,2096921,303169,386401
2096921,2096921,303470,386468
2096921,2096921,303115,386752
2096921,2096921,303297,386508
2096921,2096921,303298,386508
2096921,2096921,303558,386801
2096921,2096921,303440,386936
2096921,2096921,303429,387068
2096921,2096921,303730,386930
2096921,2096921,303587,386992
2096921,2096921,303767,387155
2096921,2096921,304037,387230
2096921,2096921,303968,387257
2096921,2096921,303760,387189
2096921,2096921,304268,387717
2096921,2096921,304591,387905
2096921,2096921,304276,387698
2096921,2096921,304669,387790
2096921,2096921,304435,387523
2096921,2096921,304860,387526
2096921,2096921,304491,387927
2096921,2096921,305099,388094
2096921,2096921,305038,388101
2096921,2096921,305138,388220
2096921,2096921,305502,388303
2096921,2096921,305097,388572
2096921,2096921,305141,388297
2096921,2096921,305060,388191
2096921,2096921,305070,388387
2096921,2096921,305377,388459
2096921,2096921,305504,388903
2096921,2096921,305562,388940
2096921,2096921,305725,389020
2096921,2096921,305662,389231
2096921,2096921,306016,388999
2096921,2096921,306042,389203
2096921,2096921,306097,389440
2096921,2096921,306230,389370
2096921,2096921,306007,389407
2096921,2096921,306182,388947
2096921,2096921,306561,389556
2096921,2096921,306645,390326
2096921,2096921,306532,389936
2096921,2096921,306530,389704
2096921,2096921,306536,389775
2096921,2096921,307108,390306
2096921,2096921,307061,390314
2096921,2096921,306994,390444
2096921,2096921,306964,390068
2096921,2096921,306978,390280
2096921,2096921,307332,390482
2096921,2096921,307172,390653
2096921,2096921,307450,390581
2096921,2096921,307381,390622
2096921,2096921,307719,390613
2096921,2096921,307695,390735
2096921,2096921,307782,391073
2096921,2096921,307630,390940
2096921,2096921,307537,391013
2096921,2096921,307536,390551
2096921,2096921,307897,391354
2096921,2096921,307905,391343
2096921,2096921,308086,391530
2096921,2096921,308262,391455
2096921,2096921,308260,391313
2096921,2096921,308235,391528
2096921,2096921,308279,391701
2096921,2096921,308230,391654
2096921,2096921,308266,391560
2096921,2096921,308316,391460
2096921,2096921,308646,391747
2096921,2096921,308753,391862
2096921,2096921,308863,392063
2096921,2096921,308739,391728
2096921,2096921,308612,391872
2096921,2096921,308630,391894
2096921,2096921,308622,391990
2096921,2096921,308581,391718
2096921,2096921,308650,391991
2096921,2096921,308863,391884
2096921,2096921,308873,392054
2096921,2096921,308990,392141
2096921,2096921,308668,392173
2096921,2096921,308669,391949
2096921,2096921,308897,392203
2096921,2096921,308828,392252
2096921,2096921,308717,392388
2096921,2096921,308682,392240
2096921,2096921,308775,391976
2096921,2096921,308536,391913
2096921,2096921,308705,392240
2096921,2096921,308775,391966
2096921,2096921,308959,392059
2096921,2096921,308790,392092
2096921,2096921,308785,392366
2096921,2096921,308731,392302
2096921,2096921,308861,392077
2096921,2096921,308596,392109
2096921,2096921,308668,392016
2096921,2096921,308753,392496
2096921,2096921,309062,392276
2096921,2096921,308609,392016
2096921,2096921,308729,392118
2096921,2096921,308596,392260
2096921,2096921,308804,392224
2096921,2096921,308656,392241
2096921,2096921,308587,392179
2096921,2096921,308797,392179
2096921,2096921,308768,391872
2096921,2096921,308578,392162
2096921,2096921,308562,392341
2096921,2096921,308626,392109
2096921,2096921,308849,392450
2096921,2096921,308748,392371
2096921,2096921,308658,392311
2096921,2096921,308674,392249
2096921,2096921,308545,391964
2096921,2096921,309061,391964
2096921,2096921,308732,392137
2096921,2096921,308772,392175
2096921,2096921,308828,392409
2096921,2096921,308789,392451
2096921,2096921,309125,392249
2096921,2096921,308672,392176
2096921,2096921,308798,392056
2096921,2096921,308595,392427
2096921,2096921,308533,392301
2096921,2096921,308655,392449
2096921,2096921,308794,392427
2096921,2096921,308733,392418
2096921,2096921,308767,392812
2096921,2096921,308866,392670
2096921,2096921,309029,392302
2096921,2096921,308828,392496
2096921,2096921,308946,392585
2096921,2096921,308766,392723
2096921,2096921,308885,392530
2096921,2096921,308938,392512
2096921,2096921,309080,392644
2096921,2096921,308909,392524
2096921,2096921,309143,392543
2096921,2096921,309208,392831
2096921,2096921,309327,392944
2096921,2096921,309080,392872
2096921,2096921,309390,392705
2096921,2096921,309496,393036
2096921,2096921,309702,393093
2096921,2096921,309599,393222
2096921,2096921,309730,393115
2096921,2096921,309554,393123
2096921,2096921,309902,393139
2096921,2096921,309729,393185
2096921,2096921,309664,393346
2096921,2096921,309605,393445
2096921,2096921,309840,393481
2096921,2096921,310124,393670
2096921,2096921,310150,393959
2096921,2096921,309966,393610
2096921,2096921,309774,393753
2096921,2096921,310200,393882
2096921,2096921,310387,393838
2096921,2096921,310347,394204
2096921,2096921,310510,394079
2096921,2096921,310180,394221
2096921,2096921,310506,394144
2096921,2096921,310409,394394
2096921,2096921,310601,394133
2096921,2096921,310670,394099
2096921,2096921,310522,394135
2096921,2096921,310480,394111
2096921,2096921,310528,394391
2096921,2096921,310691,394489
2096921,2096921,310940,394419
2096921,2096921,311077,394434
2096921,2096921,310897,394346
2096921,2096921,310968,394712
2096921,2096921,310778,394527
2096921,2096921,310744,394627
2096921,2096921,310786,394463
2096921,2096921,311261,394696
2096921,2096921,310973,394914
2096921,2096921,310875,394616
2096921,2096921,311249,394650
2096921,2096921,311172,394956
2096921,2096921,311439,394690
2096921,2096921,311436,395112
2096921,2096921,311417,394860
2096921,2096921,311269,395056
2096921,2096921,311476,394858
2096921,2096921,311364,394900
2096921,2096921,311420,395212
2096921,2096921,311336,395236
2096921,2096921,311537,395235
2096921,2096921,311624,395058
2096921,2096921,311705,395182
2096921,2096921,311968,395453
2096921,2096921,311738,395470
2096921,2096921,311825,395306
2096921,2096921,312000,395124
2096921,2096921,311947,395109
2096921,2096921,311608,395419
2096921,2096921,311724,395381
2096921,2096921,311838,395304
2096921,2096921,312070,395429
2096921,2096921,312290,395573
2096921,2096921,312136,395654
2096921,2096921,312181,395717
2096921,2096921,312226,395450
2096921,2096921,311988,395318
2096921,2096921,312071,395531
2096921,2096921,312094,395669
2096921,2096921,312382,395918
2096921,2096921,312199,395629
2096921,2096921,312324,395540
2096921,2096921,312353,395690
2096921,2096921,312248,395651
2096921,2096921,312142,395918
2096921,2096921,312124,395974
2096921,2096921,312090,395796
2096921,2096921,312380,395905
2096921,2096921,312511,396052
2096921,2096921,312664,395952
2096921,2096921,312706,396221
2096921,2096921,312636,396147
2096921,2096921,312587,395895
2096921,2096921,312471,396027
2096921,2096921,312428,396155
2096921,2096921,312748,396114
2096921,2096921,312900,396149
2096921,2096921,312729,395806
2096921,2096921,312896,396297
2096921,2096921,312846,396515
2096921,2096921,312714,396201
2096921,2096921,312629,396072
2096921,2096921,313081,396186
2096921,2096921,313014,396363
2096921,2096921,312965,396486
2096921,2096921,312949,396404
2096921,2096921,312818,396519
2096921,2096921,312807,396321
2096921,2096921,312883,396163
2096921,2096921,312926,396271
2096921,2096921,313012,396545
2096921,2096921,313270,396620
2096921,2096921,313018,396516
2096921,2096921,313146,396894
2096921,2096921,313133,396760
2096921,2096921,313153,396458
2096921,2096921,312935,396648
2096921,2096921,313339,396405
2096921,2096921,313093,396600
2096921,2096921,313263,396728
2096921,2096921,313271,396713
2096921,2096921,313580,396966
2096921,2096921,313434,396655
2096921,2096921,313455,397023
2096921,2096921,313031,397197
2096921,2096921,313121,397015
2096921,2096921,313362,396945
2096921,2096921,313328,396728
2096921,2096921,313298,397030
2096921,2096921,313749,397098
2096921,2096921,313661,397074
2096921,2096921,313142,397263
2096921,2096921,313346,397141
2096921,2096921,313645,397269
2096921,2096921,313542,397013
2096921,2096921,313348,397226
2096921,2096921,313627,397140
2096921,2096921,313430,397279
2096921,2096921,313665,397090
2096921,2096921,313642,396919
2096921,2096921,313599,397212
2096921,2096921,313754,397139
2096921,2096921,313669,396981
2096921,2096921,313490,397160
2096921,2096921,313648,397090
2096921,2096921,313766,397173
2096921,2096921,313663,397107
2096921,2096921,313743,396922
2096921,2096921,313656,397166
2096921,2096921,313844,397204
2096921,2096921,313697,397268
2096921,2096921,313709,397292
2096921,2096921,313979,397121
2096921,2096921,313944,397250
2096921,2096921,314021,397328
2096921,2096921,313759,397109
2096921,2096921,313766,397649
2096921,2096921,313707,397222
2096921,2096921,313613,397388
2096921,2096921,313972,397503
2096921,2096921,313874,397598
2096921,2096921,313847,397288
2096921,2096921,314199,397473
2096921,2096921,314112,397433
2096921,2096921,313796,397490
2096921,2096921,313872,397425
2096921,2096921,313527,397593
2096921,2096921,313532,397458
2096921,2096921,313792,397355
2096921,2096921,313751,397303
2096921,2096921,313992,397264
2096921,2096921,314127,397516
2096921,2096921,313825,397667
2096921,2096921,313842,397646
2096921,2096921,313997,397666
2096921,2096921,314118,397594
2096921,2096921,313656,397549
2096921,2096921,314093,397597
2096921,2096921,314117,397553
2096921,2096921,314079,397659
2096921,2096921,314301,397782
2096921,2096921,314269,397723
2096921,2096921,314200,397822
2096921,2096921,314218,397788
2096921,2096921,314088,397471
2096921,2096921,313959,397673
2096921,2096921,314214,397547
2096921,2096921,314043,397498
2096921,2096921,314616,397831
2096921,2096921,314361,397772
2096921,2096921,314638,397678
2096921,2096921,314480,397939
2096921,2096921,314300,397713
2096921,2096921,314122,397744
2096921,2096921,314055,397734
2096921,2096921,314062,397664
2096921,2096921,314203,397635
2096921,2096921,313942,397863
2096921,2096921,314370,397884
2096921,2096921,314359,397808
2096921,2096921,314412,397612
2096921,2096921,314376,397874
2096921,2096921,314195,397730
2096921,2096921,314130,397656
2096921,2096921,314381,397455
2096921,2096921,314451,397835
2096921,2096921,314327,397786
2096921,2096921,314707,397700
2096921,2096921,314719,397836
2096921,2096921,314185,397752
2096921,2096921,314567,397905
2096921,2096921,314276,397897
2096921,2096921,314225,397990
2096921,2096921,314547,398137
2096921,2096921,314646,398144
2096921,2096921,314497,397965
2096921,2096921,314593,397810
2096921,2096921,314346,397772
2096921,2096921,314302,398035
2096921,2096921,314421,397897
2096921,2096921,314533,398072
2096921,2096921,314463,397835
2096921,2096921,314474,398053
2096921,2096921,314470,398109
2096921,2096921,314509,398256
2096921,2096921,314605,398112
2096921,2096921,314595,398077
2096921,2096921,314197,397864
2096921,2096921,314421,397620
2096921,2096921,314559,397884
2096921,2096921,314545,397934
2096921,2096921,314126,397824
2096921,2096921,314357,398007
2096921,2096921,314471,397889
2096921,2096921,314308,397841
2096921,2096921,314514,397972
2096921,2096921,314547,398026
2096921,2096921,314607,398022
2096921,2096921,314295,397719
2096921,2096921,314257,397931
2096921,2096921,314585,398011
2096921,2096921,314419,397948
2096921,2096921,314492,397970
2096921,2096921,314822,397859
2096921,2096921,314684,397821
2096921,2096921,314354,397915
2096921,2096921,314288,397702
2096921,2096921,314252,398018
2096921,2096921,314312,397458
2096921,2096921,314284,397459
2096921,2096921,314362,397736
2096921,2096921,314541,398065
2096921,2096921,314659,398031
2096921,2096921,314360,397856
2096921,2096921,314628,397796
2096921,2096921,314335,397982
2096921,2096921,314295,397707
2096921,2096921,314311,397698
2096921,2096921,314288,397727
2096921,2096921,314248,397874
2096921,2096921,314492,397830
2096921,2096921,314659,397784
2096921,2096921,314254,397783
2096921,2096921,314416,397846
2096921,2096921,314199,397739
2096921,2096921,314283,397681
2096921,2096921,314270,397646
2096921,2096921,314283,397506
2096921,2096921,314186,397310
2096921,2096921,314251,397665
2096921,2096921,314397,398081
2096921,2096921,314553,397690
2096921,2096921,314246,397717
2096921,2096921,314078,397818
2096921,2096921,313906,397444
2096921,2096921,314040,397236
2096921,2096921,313985,397273
2096921,2096921,313720,397276
2096921,2096921,313760,397029
2096921,2096921,313850,397052
2096921,2096921,313813,396876
2096921,2096921,313717,397343
2096921,2096921,313486,396766
2096921,2096921,313153,396413
2096921,2096921,312786,396306
2096921,2096921,313024,396399
2096921,2096921,313025,396690
2096921,2096921,313015,396248
2096921,2096921,312766,395879
2096921,2096921,312304,396030
2096921,2096921,312625,395872
2096921,2096921,312207,395737
2096921,2096921,312462,395952
2096921,2096921,311878,395368
2096921,2096921,311996,395299
2096921,2096921,311663,395365
2096921,2096921,311702,395177
2096921,2096921,310890,395193
2096921,2096921,309882,394173
2096921,2096921,310361,393945
2096921,2096921,310443,393768
2096921,2096921,310600,393742
2096921,2096921,309593,394146
2096921,2096921,308931,392554
2096921,2096921,308501,391868
2096921,2096921,308404,392117
2096921,2096921,308494,392174
2096921,2096921,307678,392023
2096921,2096921,307346,390855
2096921,2096921,307166,390722
2096921,2096921,307267,390670
2096921,2096921,307310,390825
2096921,2096921,306760,390918
2096921,2096921,306418,389903
2096921,2096921,305990,389776
2096921,2096921,305975,389907
2096921,2096921,305877,389651
2096921,2096921,305318,389610
2096921,2096921,304975,389068
2096921,2096921,305249,388862
2096921,2096921,305114,388617
2096921,2096921,305296,388572
2096921,2096921,304810,388848
2096921,2096921,304816,388757
2096921,2096921,304703,387962
2096921,2096921,304452,387965
2096921,2096921,304454,388183
2096921,2096921,304520,388446
2096921,2096921,304196,387907
2096921,2096921,304567,388049
2096921,2096921,304226,388128
2096921,2096921,304505,387696
2096921,2096921,304293,387878
2096921,2096921,304133,387741
2096921,2096921,303982,387504
2096921,2096921,304002,387722
2096921,2096921,303923,387384
2096921,2096921,303651,387737
2096921,2096921,303891,387706
2096921,2096921,304114,387467
2096921,2096921,303999,387608
2096921,2096921,304015,387430
2096921,2096921,303980,387484
2096921,2096921,303838,387698
2096921,2096921,303479,387415
2096921,2096921,303559,387468
2096921,2096921,303708,387370
2096921,2096921,303900,387475
2096921,2096921,303746,387449
2096921,2096921,303687,387510
2096921,2096921,303926,387458
2096921,2096921,303859,387463
2096921,2096921,303789,387450
2096921,2096921,304008,387328
2096921,2096921,303867,387169
2096921,2096921,303961,387265
2096921,2096921,303802,387349
2096921,2096921,303583,387138
2096921,2096921,303559,387530
2096921,2096921,303927,387213
2096921,2096921,303781,387677
2096921,2096921,304028,387392
2096921,2096921,304205,387771
2096921,2096921,304286,387656
2096921,2096921,304124,387687
2096921,2096921,304031,387527
2096921,2096921,304275,387732
2096921,2096921,304006,387623
2096921,2096921,304128,387691
2096921,2096921,304435,387610
2096921,2096921,304397,387691
2096921,2096921,304192,387600
2096921,2096921,304434,387684
2096921,2096921,304607,388029
2096921,2096921,304627,387952
2096921,2096921,304678,387581
2096921,2096921,304592,387921
2096921,2096921,304570,387536
2096921,2096921,304535,387984
2096921,2096921,304789,388006
2096921,2096921,304900,388166
2096921,2096921,304865,388179
2096921,2096921,304966,388114
2096921,2096921,304900,388232
2096921,2096921,304779,388366
2096921,2096921,305019,388214
2096921,2096921,304956,388049
2096921,2096921,305293,387947
2096921,2096921,304907,388069
2096921,2096921,305100,388211
2096921,2096921,305028,388493
2096921,2096921,305010,388218
2096921,2096921,305165,388554
2096921,2096921,305125,388466
2096921,2096921,305180,388396
2096921,2096921,305106,388606
2096921,2096921,305197,388594
2096921,2096921,305452,388418
2096921,2096921,305439,388701
2096921,2096921,305464,388581
2096921,2096921,305600,388691
2096921,2096921,305749,388772
2096921,2096921,305549,388871
2096921,2096921,305988,388806
2096921,2096921,305869,389079
2096921,2096921,305769,389107
2096921,2096921,305746,389097
2096921,2096921,305953,388643
2096921,2096921,305807,389214
2096921,2096921,306036,389081
2096921,2096921,305986,389034
2096921,2096921,305998,388704
2096921,2096921,306204,389507
2096921,2096921,306452,389413
2096921,2096921,306460,389241
2096921,2096921,306452,389234
2096921,2096921,306309,389238
2096921,2096921,306144,389251
2096921,2096921,306542,389522
2096921,2096921,306423,389281
2096921,2096921,306360,389503
2096921,2096921,306406,389686
2096921,2096921,306695,389660
2096921,2096921,306155,389555
2096921,2096921,306502,389442
2096921,2096921,306455,389398
2096921,2096921,306609,389709
2096921,2096921,306491,389497
2096921,2096921,306499,389691
2096921,2096921,306939,389745
2096921,2096921,306829,389697
2096921,2096921,306758,389838
2096921,2096921,306818,389696
2096921,2096921,306463,389575
2096921,2096921,306658,389547
2096921,2096921,306511,389600
2096921,2096921,306738,389653
2096921,2096921,306607,389637
2096921,2096921,306839,389731
2096921,2096921,306670,389644
2096921,2096921,306606,389584
2096921,2096921,306839,389554
2096921,2096921,306650,389712
2096921,2096921,306734,389497
2096921,2096921,306684,389679
2096921,2096921,306569,389538
2096921,2096921,306806,389325
2096921,2096921,306511,389442
2096921,2096921,306516,389402
2096921,2096921,306503,389180
2096921,2096921,306788,389392
2096921,2096921,306839,389439
2096921,2096921,306776,389664
2096921,2096921,306641,389225
2096921,2096921,306752,389306
2096921,2096921,306401,389220
2096921,2096921,306858,389339
2096921,2096921,306482,389254
2096921,2096921,306519,389174
2096921,2096921,306111,389019
2096921,2096921,306413,389097
2096921,2096921,306336,389479
2096921,2096921,306118,389482
2096921,2096921,305874,389334
2096921,2096921,306129,389017
2096921,2096921,306130,388951
2096921,2096921,305939,388966
2096921,2096921,305917,388622
2096921,2096921,305734,388810
2096921,2096921,305853,388522
2096921,2096921,305953,388519
2096921,2096921,306160,388670
2096921,2096921,305794,388540
2096921,2096921,305457,388232
2096921,2096921,305623,388507
2096921,2096921,305443,388394
2096921,2096921,305513,388644
2096921,2096921,305646,388286
2096921,2096921,305742,388397
2096921,2096921,305662,388400
2096921,2096921,305454,388009
2096921,2096921,305679,388178
2096921,2096921,305404,388112
2096921,2096921,305361,388032
2096921,2096921,305594,388064
2096921,2096921,305307,388097
2096921,2096921,305269,388081
2096921,2096921,305228,388011
2096921,2096921,305077,387702
2096921,2096921,305163,387756
2096921,2096921,305116,388042
2096921,2096921,305412,388152
2096921,2096921,304975,387793
2096921,2096921,305153,387723
2096921,2096921,305115,387678
2096921,2096921,304910,387466
2096921,2096921,304954,387758
2096921,2096921,305074,387724
2096921,2096921,305088,387847
2096921,2096921,305291,387578
2096921,2096921,305103,387544
2096921,2096921,305206,387801
2096921,2096921,305240,387433
2096921,2096921,305083,387828
2096921,2096921,304975,387729
2096921,2096921,305016,387806
2096921,2096921,304989,387219
2096921,2096921,304994,387404
2096921,2096921,304990,387441
2096921,2096921,305431,387479
2096921,2096921,305513,387627
2096921,2096921,305385,387645
2096921,2096921,305305,387748
2096921,2096921,305500,387971
2096921,2096921,305340,387736
2096921,2096921,305354,387853
2096921,2096921,305271,387551
2096921,2096921,305385,387849
2096921,2096921,305479,387977
2096921,2096921,305456,387945
2096921,2096921,304956,387831
2096921,2096921,305599,387730
2096921,2096921,305700,387622
2096921,2096921,305543,387809
2096921,2096921,305553,387806
2096921,2096921,305289,387975
2096921,2096921,305385,387683
2096921,2096921,305189,387691
2096921,2096921,305116,387824
2096921,2096921,305385,387813
2096921,2096921,305380,387979
2096921,2096921,305600,387898
2096921,2096921,305734,387762
2096921,2096921,305465,387688
2096921,2096921,305363,387850
2096921,2096921,305650,387903
2096921,2096921,305533,387854
2096921,2096921,305917,387884
2096921,2096921,305823,387894
2096921,2096921,305884,388065
2096921,2096921,305832,388261
2096921,2096921,305768,388081
2096921,2096921,305962,388140
2096921,2096921,305745,387772
2096921,2096921,305733,387743
2096921,2096921,305845,387987
2096921,2096921,305421,387713
2096921,2096921,305785,387904
2096921,2096921,305919,387802
2096921,2096921,305920,387828
2096921,2096921,305547,387833
2096921,2096921,306145,387819
2096921,2096921,305919,387844
2096921,2096921,306056,387937
2096921,2096921,305546,387972
2096921,2096921,305685,387908
2096921,2096921,305854,388206
2096921,2096921,306025,388206
2096921,2096921,305612,387970
2096921,2096921,305927,388042
2096921,2096921,306017,387916
2096921,2096921,305958,388036
2096921,2096921,306034,388056
2096921,2096921,306004,388215
2096921,2096921,306114,388054
2096921,2096921,306036,387960
2096921,2096921,305950,388112
2096921,2096921,306159,387913
2096921,2096921,305944,387906
2096921,2096921,306187,387984
2096921,2096921,306173,388019
2096921,2096921,306161,388140
2096921,2096921,305951,388299
2096921,2096921,305937,388233
2096921,2096921,305829,387805
2096921,2096921,306136,388028
2096921,2096921,305802,388195
2096921,2096921,306274,388079
