2096921,2096921,180258,598198,0
2096921,2096921,180055,598229,0
2096921,2096921,180125,597891,0
2096921,2096921,179689,597545,0
2096921,2096921,179677,597244,0
2096921,2096921,179721,597262,0
2096921,2096921,179648,597381,0
2096921,2096921,179524,597311,0
2096921,2096921,179690,597238,0
2096921,2096921,179852,596970,0
2096921,2096921,179663,596650,0
2096921,2096921,179573,596557,0
2096921,2096921,179510,596576,0
2096921,2096921,178956,595999,0
2096921,2096921,178962,595662,0
2096921,2096921,179354,595591,0
2096921,2096921,179183,595435,0
2096921,2096921,179053,595344,0
2096921,2096921,178749,594493,0
2096921,2096921,178847,594158,0
2096921,2096921,178528,594400,0
2096921,2096921,178737,594427,0
2096921,2096921,178861,594544,0
2096921,2096921,178213,593235,0
2096921,2096921,178121,592625,0
2096921,2096921,178315,592898,0
2096921,2096921,178237,592779,0
2096921,2096921,178230,593044,0
2096921,2096921,177213,590638,0
2096921,2096921,177036,589706,0
2096921,2096921,177100,589429,0
2096921,2096921,177144,589527,0
2096921,2096921,177169,589211,0
2096921,2096921,175782,586823,0
2096921,2096921,175861,585415,0
2096921,2096921,175798,585376,0
2096921,2096921,175897,585668,0
2096921,2096921,175924,585466,0
2096921,2096921,175105,583433,0
2096921,2096921,174840,582439,0
2096921,2096921,174657,582180,0
2096921,2096921,174672,581987,0
2096921,2096921,174955,582009,0
2096921,2096921,174298,580489,0
2096921,2096921,173812,579767,0
2096921,2096921,173630,579715,0
2096921,2096921,174113,579777,0
2096921,2096921,173887,579792,0
2096921,2096921,173775,578498,0
2096921,2096921,173652,578034,0
2096921,2096921,173547,578062,0
2096921,2096921,173389,578067,0
2096921,2096921,173553,578039,0
2096921,2096921,173215,577418,0
2096921,2096921,172949,577148,0
2096921,2096921,173174,577105,0
2096921,2096921,172957,576794,0
2096921,2096921,172936,576787,0
2096921,2096921,172791,576416,0
2096921,2096921,172590,575920,0
2096921,2096921,172565,575972,0
2096921,2096921,172850,575801,0
2096921,2096921,172597,575897,0
2096921,2096921,172495,575491,0
2096921,2096921,172363,575572,0
2096921,2096921,172429,575204,0
2096921,2096921,172319,575291,0
2096921,2096921,172607,575676,0
2096921,2096921,172614,575177,0
2096921,2096921,172475,575336,0
2096921,2096921,172582,575119,0
2096921,2096921,172826,575166,0
2096921,2096921,172366,574947,0
2096921,2096921,172559,575096,0
2096921,2096921,172510,575365,0
2096921,2096921,172505,575208,0
2096921,2096921,172542,575187,0
2096921,2096921,172434,575205,0
2096921,2096921,172509,575466,0
2096921,2096921,172874,575779,0
2096921,2096921,172853,575694,0
2096921,2096921,172622,575625,0
2096921,2096921,172507,575439,0
2096921,2096921,172639,575681,0
2096921,2096921,172858,575752,0
2096921,2096921,172879,575657,0
2096921,2096921,172803,575849,0
2096921,2096921,172455,575799,0
2096921,2096921,172721,576076,0
2096921,2096921,172766,576256,0
2096921,2096921,172703,576096,0
2096921,2096921,172847,576002,0
2096921,2096921,172677,576273,0
2096921,2096921,172906,576502,0
2096921,2096921,172789,576647,0
2096921,2096921,172886,576566,0
2096921,2096921,172763,577080,0
2096921,2096921,172819,576932,0
2096921,2096921,173239,577048,0
2096921,2096921,173113,577435,0
2096921,2096921,173058,577534,0
2096921,2096921,173376,577626,0
2096921,2096921,173215,577534,0
2096921,2096921,173328,577951,0
2096921,2096921,173361,578075,0
2096921,2096921,173601,577981,0
2096921,2096921,173504,578013,0
2096921,2096921,173387,578193,0
2096921,2096921,173329,578870,0
2096921,2096921,173684,579010,0
2096921,2096921,173565,579082,0
2096921,2096921,173657,579005,0
2096921,2096921,173493,579152,0
2096921,2096921,173929,579564,0
2096921,2096921,173911,579994,0
2096921,2096921,173786,579895,0
2096921,2096921,173738,579728,0
2096921,2096921,173840,579824,0
2096921,2096921,174285,580111,0
2096921,2096921,174249,580503,0
2096921,2096921,174149,580558,0
2096921,2096921,174193,580587,0
2096921,2096921,174443,580644,0
2096921,2096921,174400,581003,0
2096921,2096921,174310,581161,0
2096921,2096921,174533,581390,0
2096921,2096921,174522,581125,0
2096921,2096921,174388,581029,0
2096921,2096921,174624,581937,0
2096921,2096921,174841,582047,0
2096921,2096921,174603,582251,0
2096921,2096921,174665,582032,0
2096921,2096921,174638,582057,0
2096921,2096921,175216,582498,0
2096921,2096921,174919,582706,0
2096921,2096921,174963,582552,0
2096921,2096921,174937,582579,0
2096921,2096921,175058,582458,0
2096921,2096921,175045,583307,0
2096921,2096921,175098,583698,0
2096921,2096921,175273,583891,0
2096921,2096921,175142,583668,0
2096921,2096921,175067,583827,0
2096921,2096921,175450,584428,0
2096921,2096921,175599,584545,0
2096921,2096921,175470,584411,0
2096921,2096921,175761,584422,0
2096921,2096921,175482,584708,0
2096921,2096921,175745,585073,0
2096921,2096921,175663,585522,0
2096921,2096921,175719,585469,0
2096921,2096921,175923,585525,0
2096921,2096921,175993,585337,0
2096921,2096921,175807,585716,0
2096921,2096921,175916,585854,0
2096921,2096921,176045,585880,0
2096921,2096921,175927,586049,0
2096921,2096921,175897,585932,0
2096921,2096921,176229,586423,0
2096921,2096921,176048,586741,0
2096921,2096921,176417,586740,0
2096921,2096921,176317,586950,0
2096921,2096921,176460,586770,0
2096921,2096921,176692,587126,0
2096921,2096921,176445,587364,0
2096921,2096921,176228,587168,0
2096921,2096921,176388,587202,0
2096921,2096921,176545,587213,0
2096921,2096921,176705,587373,0
2096921,2096921,176424,587676,0
2096921,2096921,176673,587793,0
2096921,2096921,176787,587696,0
2096921,2096921,176600,587702,0
2096921,2096921,176409,587891,0
2096921,2096921,176654,588198,0
2096921,2096921,176184,588286,0
2096921,2096921,176452,588137,0
2096921,2096921,176302,588002,0
2096921,2096921,176729,588340,0
2096921,2096921,176634,588462,0
2096921,2096921,176601,588430,0
2096921,2096921,176673,588378,0
2096921,2096921,176546,588375,0
2096921,2096921,176535,588585,0
2096921,2096921,176563,588323,0
2096921,2096921,176841,588203,0
2096921,2096921,176729,588226,0
2096921,2096921,176675,588526,0
2096921,2096921,176756,588131,0
2096921,2096921,176670,588653,0
2096921,2096921,176700,588547,0
2096921,2096921,176785,588523,0
2096921,2096921,176892,588482,0
2096921,2096921,176672,588291,0
2096921,2096921,176694,588233,0
2096921,2096921,176929,588258,0
2096921,2096921,176924,588088,0
2096921,2096921,176606,588325,0
2096921,2096921,176771,588047,0
2096921,2096921,176932,588263,0
2096921,2096921,176892,588268,0
2096921,2096921,176742,588541,0
2096921,2096921,176847,588487,0
2096921,2096921,176720,588139,0
2096921,2096921,176399,587991,0
2096921,2096921,176711,587988,0
2096921,2096921,176888,588166,0
2096921,2096921,176596,588083,0
2096921,2096921,176691,588167,0
2096921,2096921,176752,588230,0
2096921,2096921,176844,588007,0
2096921,2096921,176820,588254,0
2096921,2096921,176565,587881,0
2096921,2096921,176921,588179,0
2096921,2096921,176712,588071,0
2096921,2096921,176529,587867,0
2096921,2096921,176721,588149,0
2096921,2096921,176587,588392,0
2096921,2096921,176765,588320,0
2096921,2096921,176705,588442,0
2096921,2096921,176677,588347,0
2096921,2096921,176722,588334,0
2096921,2096921,176974,588575,0
2096921,2096921,176760,588814,0
2096921,2096921,176838,588376,0
2096921,2096921,176580,588642,0
2096921,2096921,176840,588560,0
2096921,2096921,176909,588771,0
2096921,2096921,176911,589059,0
2096921,2096921,177231,589375,0
2096921,2096921,177015,589189,0
2096921,2096921,177009,589160,0
2096921,2096921,176882,589168,0
2096921,2096921,177144,589121,0
2096921,2096921,177098,589453,0
2096921,2096921,177319,589628,0
2096921,2096921,176989,589181,0
2096921,2096921,177009,589545,0
2096921,2096921,177241,589861,0
2096921,2096921,177542,590245,0
2096921,2096921,177412,590544,0
2096921,2096921,177659,590140,0
2096921,2096921,177621,590355,0
2096921,2096921,177571,590766,0
2096921,2096921,177866,591068,0
2096921,2096921,177696,591079,0
2096921,2096921,177581,591202,0
2096921,2096921,177566,591211,0
2096921,2096921,177556,591601,0
2096921,2096921,177701,591595,0
2096921,2096921,178251,592082,0
2096921,2096921,177983,591994,0
2096921,2096921,178013,591917,0
2096921,2096921,178139,592260,0
2096921,2096921,177686,592555,0
2096921,2096921,177857,592627,0
2096921,2096921,177873,592632,0
2096921,2096921,178060,592444,0
2096921,2096921,178408,592817,0
2096921,2096921,178425,593249,0
2096921,2096921,178215,593363,0
2096921,2096921,178400,593536,0
2096921,2096921,178425,593376,0
2096921,2096921,178572,593391,0
2096921,2096921,178497,593662,0
2096921,2096921,178474,593554,0
2096921,2096921,178331,593901,0
2096921,2096921,178589,594160,0
2096921,2096921,178847,594531,0
2096921,2096921,178858,594691,0
2096921,2096921,178823,594523,0
2096921,2096921,178774,594552,0
2096921,2096921,178859,594672,0
2096921,2096921,178982,595063,0
2096921,2096921,178974,595096,0
2096921,2096921,178834,595109,0
2096921,2096921,178890,595147,0
2096921,2096921,178962,595178,0
2096921,2096921,179117,595643,0
2096921,2096921,179183,596257,0
2096921,2096921,179299,596006,0
2096921,2096921,179000,596048,0
2096921,2096921,178803,596138,0
2096921,2096921,179382,596346,0
2096921,2096921,179280,596920,0
2096921,2096921,179601,596609,0
2096921,2096921,179560,596716,0
2096921,2096921,179630,596567,0
2096921,2096921,179716,597070,0
2096921,2096921,179730,597321,0
2096921,2096921,179731,597545,0
2096921,2096921,179569,597554,0
2096921,2096921,179696,597470,0
2096921,2096921,179733,597458,0
2096921,2096921,179847,597882,0
2096921,2096921,179746,597855,0
2096921,2096921,180052,597788,0
2096921,2096921,179676,597826,0
2096921,2096921,179689,598331,0
2096921,2096921,180290,598370,0
2096921,2096921,180018,598727,0
2096921,2096921,180209,598723,0
2096921,2096921,180031,598774,0
2096921,2096921,180080,599096,0
2096921,2096921,179967,599304,0
2096921,2096921,180367,599163,0
2096921,2096921,180069,599270,0
2096921,2096921,180338,599188,0
2096921,2096921,180330,599731,0
2096921,2096921,180421,599853,0
2096921,2096921,180645,599636,0
2096921,2096921,180624,599965,0
2096921,2096921,180507,599920,0
2096921,2096921,180428,600406,0
2096921,2096921,180721,600383,0
2096921,2096921,180473,600543,0
2096921,2096921,180487,600632,0
2096921,2096921,180625,600542,0
2096921,2096921,181116,600856,0
2096921,2096921,181040,601301,0
2096921,2096921,181057,601164,0
2096921,2096921,180591,601363,0
2096921,2096921,181045,601136,0
2096921,2096921,180987,601596,0
2096921,2096921,181037,601760,0
2096921,2096921,180964,601686,0
2096921,2096921,180863,601681,0
2096921,2096921,181220,601718,0
2096921,2096921,181440,602188,0
2096921,2096921,181462,602343,0
2096921,2096921,181487,602596,0
2096921,2096921,181401,602362,0
2096921,2096921,181504,602759,0
2096921,2096921,181681,602830,0
2096921,2096921,181319,602924,0
2096921,2096921,181152,603031,0
2096921,2096921,181472,602962,0
2096921,2096921,181478,603022,0
2096921,2096921,181866,603468,0
2096921,2096921,181967,603727,0
2096921,2096921,181918,603699,0
2096921,2096921,181371,603630,0
2096921,2096921,181752,603714,0
2096921,2096921,181969,603812,0
2096921,2096921,181802,604082,0
2096921,2096921,181691,603991,0
2096921,2096921,182040,604247,0
2096921,2096921,181926,604094,0
2096921,2096921,182154,604322,0
2096921,2096921,182219,604695,0
2096921,2096921,182529,604965,0
2096921,2096921,182171,604945,0
2096921,2096921,182079,604902,0
2096921,2096921,181950,604972,0
2096921,2096921,182135,605304,0
2096921,2096921,182247,605348,0
2096921,2096921,182329,605464,0
2096921,2096921,182421,605307,0
2096921,2096921,182523,605744,0
2096921,2096921,182515,605832,0
2096921,2096921,182671,605645,0
2096921,2096921,182494,605951,0
2096921,2096921,182372,605757,0
2096921,2096921,182525,606172,0
2096921,2096921,182621,606282,0
2096921,2096921,182592,606189,0
2096921,2096921,182514,606135,0
2096921,2096921,182539,606549,0
2096921,2096921,182935,606745,0
2096921,2096921,183095,607114,0
2096921,2096921,182666,606849,0
2096921,2096921,182676,607144,0
2096921,2096921,182923,607209,0
2096921,2096921,183296,607245,0
2096921,2096921,182728,607077,0
2096921,2096921,182730,607303,0
2096921,2096921,182914,607518,0
2096921,2096921,182961,607639,0
2096921,2096921,183152,607669,0
2096921,2096921,183128,608017,0
2096921,2096921,183034,607991,0
2096921,2096921,183074,607975,0
2096921,2096921,183071,608027,0
2096921,2096921,183180,608289,0
2096921,2096921,183217,608370,0
2096921,2096921,183247,608490,0
2096921,2096921,183120,608414,0
2096921,2096921,183109,608255,0
2096921,2096921,183347,608393,0
2096921,2096921,183628,608844,0
2096921,2096921,183332,608858,0
2096921,2096921,183154,608844,0
2096921,2096921,183261,608693,0
2096921,2096921,183463,609014,0
2096921,2096921,183254,609192,0
2096921,2096921,183488,609000,0
2096921,2096921,183587,609171,0
2096921,2096921,183541,609247,0
2096921,2096921,183590,609417,0
2096921,2096921,183786,609814,0
2096921,2096921,183923,609842,0
2096921,2096921,183674,609824,0
2096921,2096921,183520,609875,0
2096921,2096921,183928,610185,0
2096921,2096921,183768,610046,0
2096921,2096921,183730,610133,0
2096921,2096921,183636,610200,0
2096921,2096921,183900,610097,0
2096921,2096921,183780,610364,0
2096921,2096921,184004,610489,0
2096921,2096921,184174,610617,0
2096921,2096921,184100,610766,0
2096921,2096921,183773,610797,0
2096921,2096921,184074,611019,0
2096921,2096921,183972,610833,0
2096921,2096921,184012,610886,0
2096921,2096921,184146,610896,0
2096921,2096921,183961,611006,0
2096921,2096921,184269,611318,0
2096921,2096921,184264,611431,0
2096921,2096921,184116,611278,0
2096921,2096921,183842,611650,0
2096921,2096921,183997,611671,0
2096921,2096921,184162,611749,0
2096921,2096921,184136,611890,0
2096921,2096921,184436,611735,0
2096921,2096921,184347,611903,0
2096921,2096921,184423,611814,0
2096921,2096921,184304,612091,0
2096921,2096921,184892,612249,0
2096921,2096921,184591,612270,0
2096921,2096921,184637,612386,0
2096921,2096921,184435,612289,0
2096921,2096921,184572,612487,0
2096921,2096921,184655,612574,0
2096921,2096921,184650,612857,0
2096921,2096921,184473,612811,0
2096921,2096921,184773,612881,0
2096921,2096921,184442,613359,0
2096921,2096921,184770,613565,0
2096921,2096921,184715,613227,0
2096921,2096921,184928,613555,0
2096921,2096921,184925,613275,0
2096921,2096921,185035,613696,0
2096921,2096921,184955,613513,0
2096921,2096921,184648,613628,0
2096921,2096921,184967,613472,0
2096921,2096921,184779,613626,0
2096921,2096921,184816,613918,0
2096921,2096921,185057,614154,0
2096921,2096921,185002,614233,0
2096921,2096921,185068,613834,0
2096921,2096921,185123,613902,0
2096921,2096921,185061,614259,0
2096921,2096921,185109,614203,0
2096921,2096921,184997,614359,0
2096921,2096921,185098,614042,0
2096921,2096921,185085,614290,0
2096921,2096921,185208,614502,0
2096921,2096921,185249,614788,0
2096921,2096921,185411,614781,0
2096921,2096921,185146,614798,0
2096921,2096921,184934,614394,0
2096921,2096921,185015,614833,0
2096921,2096921,185027,615066,0
2096921,2096921,185464,614883,0
2096921,2096921,185261,615094,0
2096921,2096921,185265,614826,0
2096921,2096921,185567,615132,0
2096921,2096921,185498,614989,0
2096921,2096921,185416,615274,0
2096921,2096921,185742,615273,0
2096921,2096921,185480,615127,0
2096921,2096921,185409,615311,0
2096921,2096921,185456,615555,0
2096921,2096921,185458,615301,0
2096921,2096921,185537,615746,0
2096921,2096921,185192,615525,0
2096921,2096921,185575,615981,0
2096921,2096921,185720,615868,0
2096921,2096921,185654,615920,0
2096921,2096921,185757,615783,0
2096921,2096921,186022,615738,0
2096921,2096921,185644,615928,0
2096921,2096921,185421,616382,0
2096921,2096921,185791,616318,0
2096921,2096921,185560,615944,0
2096921,2096921,185508,615702,0
2096921,2096921,185653,616086,0
2096921,2096921,185676,616208,0
2096921,2096921,185738,616615,0
2096921,2096921,185850,616497,0
2096921,2096921,185597,616462,0
2096921,2096921,185844,616507,0
2096921,2096921,185593,616770,0
2096921,2096921,185632,616775,0
2096921,2096921,185913,616790,0
2096921,2096921,185987,616730,0
2096921,2096921,186092,616686,0
2096921,2096921,185970,616777,0
2096921,2096921,185563,616670,0
2096921,2096921,185748,617085,0
2096921,2096921,185626,617148,0
2096921,2096921,185889,616609,0
2096921,2096921,185680,616317,0
2096921,2096921,185461,616218,0
2096921,2096921,185406,616273,0
2096921,2096921,185745,616336,0
2096921,2096921,185922,616321,0
2096921,2096921,185583,616007,0
2096921,2096921,185762,616116,0
2096921,2096921,185698,615874,0
2096921,2096921,185465,616080,0
2096921,2096921,185230,616309,0
2096921,2096921,185192,615470,0
2096921,2096921,185330,615251,0
2096921,2096921,185157,614962,0
2096921,2096921,185405,615207,0
2096921,2096921,185194,614087,0
2096921,2096921,184945,614103,0
2096921,2096921,185329,614240,0
2096921,2096921,185049,613994,0
2096921,2096921,184979,614147,0
2096921,2096921,184662,613198,0
2096921,2096921,184661,612762,0
2096921,2096921,184585,612800,0
2096921,2096921,184511,612726,0
2096921,2096921,184050,612769,0
2096921,2096921,183632,610410,0
2096921,2096921,183774,609835,0
2096921,2096921,183517,609572,0
2096921,2096921,183241,609897,0
2096921,2096921,183247,609521,0
2096921,2096921,182227,606840,0
2096921,2096921,182017,606006,0
2096921,2096921,181937,605593,0
2096921,2096921,182347,605494,0
2096921,2096921,181945,605299,0
2096921,2096921,181357,603583,0
2096921,2096921,180968,602819,0
2096921,2096921,181071,602728,0
2096921,2096921,180934,602729,0
2096921,2096921,181002,602293,0
2096921,2096921,180311,601067,0
2096921,2096921,180038,600161,0
2096921,2096921,180445,600399,0
2096921,2096921,180208,600434,0
2096921,2096921,180219,600141,0
2096921,2096921,179804,598887,0
2096921,2096921,179833,598772,0
2096921,2096921,179608,598685,0
2096921,2096921,179771,598853,0
2096921,2096921,179891,598708,0
2096921,2096921,179370,597946,0
2096921,2096921,179339,597229,0
2096921,2096921,179296,597311,0
2096921,2096921,179191,597720,0
2096921,2096921,179370,597483,0
2096921,2096921,179348,596934,0
2096921,2096921,179112,596773,0
2096921,2096921,179097,597115,0
2096921,2096921,179508,596764,0
2096921,2096921,179498,596931,0
2096921,2096921,179188,596373,0
2096921,2096921,178978,596672,0
2096921,2096921,178852,596382,0
2096921,2096921,179218,596340,0
2096921,2096921,178998,596523,0
2096921,2096921,179127,596524,0
2096921,2096921,179248,596628,0
2096921,2096921,179162,596390,0
2096921,2096921,178909,596475,0
2096921,2096921,179231,596542,0
2096921,2096921,179181,596545,0
2096921,2096921,179238,596629,0
2096921,2096921,179109,596797,0
2096921,2096921,179160,596658,0
2096921,2096921,179020,596832,0
2096921,2096921,179100,596952,0
2096921,2096921,179205,597387,0
2096921,2096921,179404,597198,0
2096921,2096921,179287,597536,0
2096921,2096921,179321,597258,0
2096921,2096921,179558,597580,0
2096921,2096921,179306,597475,0
2096921,2096921,179288,597526,0
2096921,2096921,179003,597436,0
2096921,2096921,179420,597555,0
2096921,2096921,179542,597933,0
2096921,2096921,179508,598092,0
2096921,2096921,179896,598112,0
2096921,2096921,179627,598125,0
2096921,2096921,179263,598164,0
2096921,2096921,179715,598775,0
2096921,2096921,180121,598796,0
2096921,2096921,179904,598919,0
2096921,2096921,179690,599135,0
2096921,2096921,179921,599050,0
2096921,2096921,179949,599433,0
2096921,2096921,180252,599812,0
2096921,2096921,179960,600005,0
2096921,2096921,180002,599917,0
2096921,2096921,179732,599817,0
2096921,2096921,180422,600307,0
2096921,2096921,180335,600554,0
2096921,2096921,180415,600393,0
2096921,2096921,180236,600552,0
2096921,2096921,180065,600724,0
2096921,2096921,180627,601081,0
2096921,2096921,180936,601569,0
2096921,2096921,181030,601735,0
2096921,2096921,180856,601511,0
2096921,2096921,180722,601470,0
2096921,2096921,180897,602124,0
2096921,2096921,180829,602336,0
2096921,2096921,180987,602264,0
2096921,2096921,180881,602476,0
2096921,2096921,181062,602385,0
2096921,2096921,181244,602903,0
2096921,2096921,181286,603081,0
2096921,2096921,181180,603279,0
2096921,2096921,181493,603409,0
2096921,2096921,181377,603422,0
2096921,2096921,181434,603786,0
2096921,2096921,181332,603929,0
2096921,2096921,181482,603613,0
2096921,2096921,181455,603911,0
2096921,2096921,181505,604004,0
2096921,2096921,181700,604529,0
2096921,2096921,181788,605042,0
2096921,2096921,181698,604784,0
2096921,2096921,182073,605025,0
2096921,2096921,181757,605020,0
2096921,2096921,182114,605833,0
2096921,2096921,182088,605726,0
2096921,2096921,181815,605742,0
2096921,2096921,181893,605592,0
2096921,2096921,182036,605645,0
2096921,2096921,182434,606660,0
2096921,2096921,182530,607110,0
2096921,2096921,182442,606970,0
2096921,2096921,182514,606685,0
2096921,2096921,182377,606778,0
2096921,2096921,182642,607353,0
2096921,2096921,182532,607392,0
2096921,2096921,182758,607578,0
2096921,2096921,182898,607392,0
2096921,2096921,182498,607416,0
2096921,2096921,183095,608323,0
2096921,2096921,183140,608364,0
2096921,2096921,182971,608472,0
2096921,2096921,183031,608206,0
2096921,2096921,183046,608314,0
2096921,2096921,183238,608744,0
2096921,2096921,183067,609199,0
2096921,2096921,183088,608790,0
2096921,2096921,183247,608957,0
2096921,2096921,183009,609125,0
2096921,2096921,183570,609363,0
2096921,2096921,183453,609610,0
2096921,2096921,183629,610145,0
2096921,2096921,183587,609953,0
2096921,2096921,183707,609885,0
2096921,2096921,183567,609864,0
2096921,2096921,183396,610303,0
2096921,2096921,183351,610170,0
2096921,2096921,183546,610692,0
2096921,2096921,183763,610330,0
2096921,2096921,183788,610661,0
2096921,2096921,183529,610440,0
2096921,2096921,183623,610490,0
2096921,2096921,183524,610486,0
2096921,2096921,183660,610695,0
2096921,2096921,183639,610991,0
2096921,2096921,183601,610900,0
2096921,2096921,183211,610572,0
2096921,2096921,183651,610913,0
2096921,2096921,183906,611062,0
2096921,2096921,183622,611026,0
2096921,2096921,183867,611132,0
2096921,2096921,183716,610941,0
2096921,2096921,183748,611017,0
2096921,2096921,183672,610864,0
2096921,2096921,183723,611040,0
2096921,2096921,183761,610959,0
2096921,2096921,183582,611053,0
2096921,2096921,183775,610947,0
2096921,2096921,183884,611113,0
2096921,2096921,183681,610902,0
2096921,2096921,183860,610932,0
2096921,2096921,183845,610886,0
2096921,2096921,183666,610805,0
2096921,2096921,183589,610783,0
2096921,2096921,183822,610658,0
2096921,2096921,183789,610424,0
2096921,2096921,183694,610515,0
2096921,2096921,183482,610359,0
2096921,2096921,183605,610500,0
2096921,2096921,183618,610493,0
2096921,2096921,183501,610325,0
2096921,2096921,183868,610566,0
2096921,2096921,183644,610598,0
2096921,2096921,183555,610473,0
2096921,2096921,183422,610163,0
2096921,2096921,183289,610263,0
2096921,2096921,183505,610097,0
2096921,2096921,183653,610041,0
2096921,2096921,183385,610407,0
2096921,2096921,183504,610001,0
2096921,2096921,183392,609800,0
2096921,2096921,183502,610023,0
2096921,2096921,183479,610020,0
2096921,2096921,183522,609820,0
2096921,2096921,183359,609946,0
2096921,2096921,183355,609675,0
2096921,2096921,183582,609826,0
2096921,2096921,183526,609992,0
2096921,2096921,183343,610012,0
2096921,2096921,183639,609909,0
2096921,2096921,183187,609879,0
2096921,2096921,183381,609869,0
2096921,2096921,183256,609953,0
2096921,2096921,183526,610105,0
2096921,2096921,183641,609999,0
2096921,2096921,183533,609832,0
2096921,2096921,183396,610218,0
2096921,2096921,183488,610019,0
2096921,2096921,183541,610192,0
2096921,2096921,183722,610277,0
2096921,2096921,183583,610299,0
2096921,2096921,183315,610468,0
2096921,2096921,183457,610280,0
2096921,2096921,183645,610093,0
2096921,2096921,183435,610579,0
2096921,2096921,183494,610272,0
2096921,2096921,183858,610566,0
2096921,2096921,183613,610514,0
2096921,2096921,183516,610430,0
2096921,2096921,183461,610778,0
2096921,2096921,183828,610806,0
2096921,2096921,184031,611096,0
2096921,2096921,184087,611235,0
2096921,2096921,183974,610827,0
2096921,2096921,183909,611456,0
2096921,2096921,184097,611499,0
2096921,2096921,184114,611523,0
2096921,2096921,184061,611556,0
2096921,2096921,184038,611462,0
2096921,2096921,184491,611896,0
2096921,2096921,184294,612300,0
2096921,2096921,184110,612332,0
2096921,2096921,184119,612202,0
2096921,2096921,184030,611858,0
2096921,2096921,184298,612279,0
2096921,2096921,184323,612438,0
2096921,2096921,184535,612455,0
2096921,2096921,184534,612565,0
2096921,2096921,184761,612438,0
2096921,2096921,184840,612979,0
2096921,2096921,184636,612860,0
2096921,2096921,184673,613202,0
2096921,2096921,184452,613007,0
2096921,2096921,184665,613070,0
2096921,2096921,184522,613282,0
2096921,2096921,184417,613126,0
2096921,2096921,184409,613340,0
2096921,2096921,184611,613331,0
2096921,2096921,184842,613577,0
2096921,2096921,184664,613796,0
2096921,2096921,184758,613934,0
2096921,2096921,184982,613791,0
2096921,2096921,184849,613789,0
2096921,2096921,184487,613810,0
2096921,2096921,184725,614193,0
2096921,2096921,184908,614376,0
2096921,2096921,184840,614400,0
2096921,2096921,184863,614281,0
2096921,2096921,184924,614006,0
2096921,2096921,184866,614493,0
2096921,2096921,185208,614827,0
2096921,2096921,184970,614749,0
2096921,2096921,185096,614851,0
2096921,2096921,185035,614904,0
2096921,2096921,185445,614813,0
2096921,2096921,185104,615140,0
2096921,2096921,185416,615281,0
2096921,2096921,185186,615313,0
2096921,2096921,185067,615172,0
2096921,2096921,185103,615639,0
2096921,2096921,185335,615928,0
2096921,2096921,185252,615671,0
2096921,2096921,185069,615858,0
2096921,2096921,185109,615560,0
2096921,2096921,185513,615564,0
2096921,2096921,185159,615880,0
2096921,2096921,185559,616055,0
2096921,2096921,185458,615973,0
2096921,2096921,185659,615981,0
2096921,2096921,185414,616114,0
2096921,2096921,185573,616287,0
2096921,2096921,185590,616605,0
2096921,2096921,185714,616554,0
2096921,2096921,185431,616520,0
2096921,2096921,185411,616469,0
2096921,2096921,185559,616745,0
2096921,2096921,185279,616717,0
2096921,2096921,185593,616981,0
2096921,2096921,185959,616638,0
2096921,2096921,185822,617192,0
2096921,2096921,186000,617141,0
2096921,2096921,185691,617131,0
2096921,2096921,185834,617116,0
2096921,2096921,185904,617339,0
2096921,2096921,186148,617500,0
2096921,2096921,186181,617751,0
2096921,2096921,185798,617612,0
2096921,2096921,185677,617867,0
2096921,2096921,186073,617586,0
2096921,2096921,186096,617838,0
2096921,2096921,186066,617842,0
2096921,2096921,186081,618109,0
2096921,2096921,186003,618058,0
2096921,2096921,185899,617882,0
2096921,2096921,186080,617989,0
2096921,2096921,186300,618073,0
2096921,2096921,186183,617868,0
2096921,2096921,186223,618017,0
2096921,2096921,186384,618123,0
2096921,2096921,186508,618303,0
2096921,2096921,186428,618603,0
2096921,2096921,186296,618778,0
2096921,2096921,186283,618570,0
2096921,2096921,186157,618598,0
2096921,2096921,186311,618646,0
2096921,2096921,186515,618819,0
2096921,2096921,186585,618925,0
2096921,2096921,186424,618819,0
2096921,2096921,186425,618734,0
2096921,2096921,186524,619160,0
2096921,2096921,186398,619095,0
2096921,2096921,186537,619159,0
2096921,2096921,186719,619150,0
2096921,2096921,186386,619243,0
2096921,2096921,186523,619034,0
2096921,2096921,186517,619339,0
2096921,2096921,186743,619347,0
2096921,2096921,186659,619471,0
2096921,2096921,186674,619388,0
2096921,2096921,186774,619818,0
2096921,2096921,186686,619763,0
2096921,2096921,186694,619672,0
2096921,2096921,186819,619934,0
2096921,2096921,186540,619834,0
2096921,2096921,186845,619750,0
2096921,2096921,186703,619884,0
2096921,2096921,186683,619955,0
2096921,2096921,186790,619882,0
2096921,2096921,186855,619810,0
2096921,2096921,186988,620311,0
2096921,2096921,187025,620097,0
2096921,2096921,186693,619972,0
2096921,2096921,186527,620055,0
2096921,2096921,186793,619942,0
2096921,2096921,186773,620184,0
2096921,2096921,186951,620040,0
2096921,2096921,186866,619889,0
2096921,2096921,186829,620057,0
2096921,2096921,186933,620102,0
2096921,2096921,186996,620326,0
2096921,2096921,187218,620360,0
2096921,2096921,186967,620700,0
2096921,2096921,186971,620339,0
2096921,2096921,187060,620197,0
2096921,2096921,186917,620482,0
2096921,2096921,186942,620554,0
2096921,2096921,186865,620098,0
2096921,2096921,186812,620556,0
2096921,2096921,186885,620279,0
2096921,2096921,187014,620495,0
2096921,2096921,187042,620421,0
2096921,2096921,187272,620485,0
2096921,2096921,187107,620761,0
2096921,2096921,187341,620637,0
2096921,2096921,187005,620441,0
2096921,2096921,187305,620729,0
2096921,2096921,186997,620589,0
2096921,2096921,187245,620775,0
2096921,2096921,186946,620795,0
2096921,2096921,187034,620850,0
2096921,2096921,186963,620506,0
2096921,2096921,187258,620797,0
2096921,2096921,187133,620895,0
2096921,2096921,187035,620846,0
2096921,2096921,186991,620739,0
2096921,2096921,186803,620849,0
2096921,2096921,186849,620860,0
2096921,2096921,186922,620678,0
2096921,2096921,186895,620926,0
2096921,2096921,187114,620957,0
2096921,2096921,187112,620795,0
2096921,2096921,187111,621003,0
2096921,2096921,187098,621046,0
2096921,2096921,187291,620904,0
2096921,2096921,186943,620750,0
2096921,2096921,187321,620876,0
2096921,2096921,187064,620960,0
2096921,2096921,187166,620812,0
2096921,2096921,187121,620814,0
2096921,2096921,187285,620798,0
2096921,2096921,186854,620868,0
2096921,2096921,187070,620830,0
2096921,2096921,187054,621136,0
2096921,2096921,187031,620999,0
2096921,2096921,187043,620898,0
2096921,2096921,187128,620778,0
2096921,2096921,187093,620876,0
2096921,2096921,186996,621034,0
2096921,2096921,186866,621120,0
2096921,2096921,187163,621190,0
2096921,2096921,187398,620884,0
2096921,2096921,187196,621115,0
2096921,2096921,187210,621054,0
2096921,2096921,187249,620752,0
2096921,2096921,187256,620679,0
2096921,2096921,187364,620941,0
2096921,2096921,187224,621128,0
2096921,2096921,187235,620774,0
2096921,2096921,187222,620946,0
2096921,2096921,187432,621050,0
2096921,2096921,187200,621001,0
2096921,2096921,187401,621094,0
2096921,2096921,187566,621217,0
2096921,2096921,187367,620887,0
2096921,2096921,187024,621078,0
2096921,2096921,187007,620843,0
2096921,2096921,187034,620752,0
2096921,2096921,186944,620721,0
2096921,2096921,187141,621094,0
2096921,2096921,187450,620724,0
2096921,2096921,187161,620837,0
2096921,2096921,187234,620816,0
2096921,2096921,187011,620981,0
2096921,2096921,187168,620900,0
2096921,2096921,187199,620899,0
2096921,2096921,187253,620686,0
2096921,2096921,186991,620654,0
2096921,2096921,186653,620443,0
2096921,2096921,187029,620564,0
2096921,2096921,187321,620793,0
2096921,2096921,187153,620790,0
2096921,2096921,187113,620552,0
2096921,2096921,187177,620703,0
2096921,2096921,187078,620654,0
2096921,2096921,186905,620751,0
2096921,2096921,186895,620389,0
2096921,2096921,186962,620457,0
2096921,2096921,187223,620429,0
2096921,2096921,187093,620523,0
2096921,2096921,186692,620356,0
2096921,2096921,187108,620142,0
2096921,2096921,187288,620170,0
2096921,2096921,186895,620312,0
2096921,2096921,187107,620663,0
2096921,2096921,186889,620122,0
2096921,2096921,186686,620018,0
2096921,2096921,186823,620172,0
2096921,2096921,187185,620331,0
2096921,2096921,186752,620028,0
2096921,2096921,186927,620069,0
2096921,2096921,186892,619869,0
2096921,2096921,186828,619977,0
2096921,2096921,186928,619911,0
2096921,2096921,186880,620298,0
2096921,2096921,186922,619994,0
2096921,2096921,187017,620268,0
2096921,2096921,186943,619966,0
2096921,2096921,186556,619769,0
2096921,2096921,186987,619754,0
2096921,2096921,186871,620122,0
2096921,2096921,186827,620273,0
2096921,2096921,186803,619749,0
2096921,2096921,186824,619438,0
2096921,2096921,186669,619727,0
2096921,2096921,186947,619447,0
2096921,2096921,186621,619361,0
2096921,2096921,186885,619590,0
2096921,2096921,186691,619390,0
2096921,2096921,186736,619348,0
2096921,2096921,186718,619288,0
2096921,2096921,186853,619184,0
2096921,2096921,186894,619480,0
2096921,2096921,186892,619471,0
2096921,2096921,186862,619271,0
2096921,2096921,186466,619300,0
2096921,2096921,186514,619261,0
2096921,2096921,186544,619369,0
2096921,2096921,186354,619131,0
2096921,2096921,186710,619153,0
2096921,2096921,186517,619136,0
2096921,2096921,186609,618982,0
2096921,2096921,186631,618860,0
2096921,2096921,186796,618962,0
2096921,2096921,186350,619057,0
2096921,2096921,186127,618075,0
2096921,2096921,185999,617957,0
2096921,2096921,185803,617586,0
2096921,2096921,186112,617549,0
2096921,2096921,186256,617585,0
2096921,2096921,186010,617296,0
2096921,2096921,186276,617137,0
2096921,2096921,186320,617222,0
2096921,2096921,185944,617107,0
2096921,2096921,185998,617255,0
2096921,2096921,185585,615892,0
2096921,2096921,185320,615411,0
2096921,2096921,185277,615501,0
2096921,2096921,185681,615653,0
2096921,2096921,185393,615440,0
2096921,2096921,185255,615734,0
2096921,2096921,184702,614215,0
2096921,2096921,184879,614386,0
2096921,2096921,184813,614166,0
2096921,2096921,185260,613937,0
2096921,2096921,184736,612639,0
2096921,2096921,184612,612538,0
2096921,2096921,184406,612177,0
2096921,2096921,184669,612130,0
2096921,2096921,184501,612096,0
2096921,2096921,183564,609773,0
2096921,2096921,183295,608967,0
2096921,2096921,182948,608451,0
2096921,2096921,182956,608368,0
2096921,2096921,183138,608560,0
2096921,2096921,181981,605201,0
2096921,2096921,181863,604168,0
2096921,2096921,181673,603790,0
2096921,2096921,181709,603910,0
2096921,2096921,181480,603632,0
2096921,2096921,180712,601603,0
2096921,2096921,180642,600840,0
2096921,2096921,180493,600863,0
2096921,2096921,180183,600660,0
2096921,2096921,180512,600614,0
2096921,2096921,179813,598633,0
2096921,2096921,179638,597968,0
2096921,2096921,179626,597901,0
2096921,2096921,179431,597858,0
2096921,2096921,179417,597656,0
2096921,2096921,178914,596388,0
2096921,2096921,179037,595921,0
2096921,2096921,178855,595874,0
2096921,2096921,178873,595731,0
2096921,2096921,178825,595663,0
2096921,2096921,178497,594630,0
2096921,2096921,178577,594270,0
2096921,2096921,178297,594004,0
2096921,2096921,178377,594136,0
2096921,2096921,178118,594254,0
2096921,2096921,178021,593374,0
2096921,2096921,178031,592990,0
2096921,2096921,178276,593049,0
2096921,2096921,178254,592906,0
2096921,2096921,178056,593162,0
2096921,2096921,177506,592344,0
2096921,2096921,177711,592176,0
2096921,2096921,177655,592057,0
2096921,2096921,177553,592107,0
2096921,2096921,177796,592274,0
2096921,2096921,177606,592041,0
2096921,2096921,177530,591929,0
2096921,2096921,177666,591496,0
2096921,2096921,177493,591759,0
2096921,2096921,177572,591686,0
2096921,2096921,177458,591546,0
2096921,2096921,177354,591551,0
2096921,2096921,177318,591772,0
2096921,2096921,177783,591514,0
2096921,2096921,177531,591152,0
2096921,2096921,177600,591575,0
2096921,2096921,177478,591425,0
2096921,2096921,177548,591549,0
2096921,2096921,177461,591578,0
2096921,2096921,177464,591582,0
2096921,2096921,177309,591230,0
2096921,2096921,177668,591441,0
2096921,2096921,177520,591258,0
2096921,2096921,177554,591369,0
2096921,2096921,177456,591437,0
2096921,2096921,177690,591286,0
2096921,2096921,177620,591247,0
2096921,2096921,177877,591440,0
2096921,2096921,177403,591250,0
2096921,2096921,177710,591551,0
2096921,2096921,177774,591646,0
2096921,2096921,177615,591651,0
2096921,2096921,177644,591879,0
2096921,2096921,177829,591935,0
2096921,2096921,178058,591707,0
2096921,2096921,177984,592165,0
2096921,2096921,177832,592566,0
2096921,2096921,177970,592359,0
2096921,2096921,177999,592493,0
2096921,2096921,178025,591959,0
2096921,2096921,177942,592291,0
2096921,2096921,178099,592525,0
2096921,2096921,178150,592730,0
2096921,2096921,178210,592743,0
2096921,2096921,177851,592709,0
2096921,2096921,177895,593047,0
2096921,2096921,178269,593251,0
2096921,2096921,178289,593169,0
2096921,2096921,178335,593261,0
2096921,2096921,178090,593028,0
2096921,2096921,178051,593538,0
2096921,2096921,177877,593514,0
2096921,2096921,178317,593477,0
2096921,2096921,178205,593404,0
2096921,2096921,178117,593445,0
2096921,2096921,178392,593794,0
2096921,2096921,178361,593729,0
2096921,2096921,178419,593855,0
2096921,2096921,178405,593915,0
2096921,2096921,178266,593647,0
2096921,2096921,178554,593939,0
2096921,2096921,178479,594019,0
2096921,2096921,178276,593980,0
2096921,2096921,178270,593900,0
2096921,2096921,178491,594154,0
2096921,2096921,178851,594567,0
2096921,2096921,178680,594896,0
2096921,2096921,178860,594674,0
2096921,2096921,178552,594823,0
2096921,2096921,178786,594700,0
2096921,2096921,178830,594966,0
2096921,2096921,178661,594847,0
2096921,2096921,178832,595340,0
2096921,2096921,178801,595227,0
2096921,2096921,178783,595160,0
2096921,2096921,179046,595529,0
2096921,2096921,178758,595775,0
2096921,2096921,178986,595914,0
2096921,2096921,179083,595869,0
2096921,2096921,178868,595717,0
2096921,2096921,179127,595877,0
2096921,2096921,179115,595861,0
2096921,2096921,179290,596020,0
2096921,2096921,178941,596171,0
2096921,2096921,179017,596197,0
2096921,2096921,179315,596566,0
2096921,2096921,179277,596668,0
2096921,2096921,179198,596773,0
2096921,2096921,179441,596580,0
2096921,2096921,179316,596371,0
2096921,2096921,179628,596859,0
2096921,2096921,179588,596997,0
2096921,2096921,179539,596938,0
2096921,2096921,179406,596679,0
2096921,2096921,179583,596741,0
2096921,2096921,179675,597115,0
2096921,2096921,179525,597039,0
2096921,2096921,179625,597232,0
2096921,2096921,179484,596986,0
2096921,2096921,179548,597063,0
2096921,2096921,179815,597230,0
2096921,2096921,179584,597087,0
2096921,2096921,179705,597088,0
2096921,2096921,179759,597317,0
2096921,2096921,179652,597463,0
2096921,2096921,179512,597366,0
2096921,2096921,179495,597209,0
2096921,2096921,179501,597285,0
2096921,2096921,179367,597505,0
2096921,2096921,179507,597363,0
2096921,2096921,179446,597060,0
2096921,2096921,179298,596978,0
2096921,2096921,179534,597150,0
2096921,2096921,179642,597178,0
2096921,2096921,179631,597286,0
2096921,2096921,179588,597328,0
2096921,2096921,179630,596983,0
2096921,2096921,179408,596897,0
2096921,2096921,179476,596950,0
2096921,2096921,179561,597061,0
2096921,2096921,179334,596669,0
2096921,2096921,179329,596424,0
2096921,2096921,179390,596530,0
2096921,2096921,179346,596619,0
2096921,2096921,179646,596405,0
2096921,2096921,179418,596292,0
2096921,2096921,179421,596177,0
2096921,2096921,179419,596223,0
2096921,2096921,179273,595964,0
2096921,2096921,179112,596356,0
2096921,2096921,179059,595814,0
2096921,2096921,178954,595847,0
2096921,2096921,178905,595718,0
2096921,2096921,178898,595371,0
2096921,2096921,179187,595206,0
2096921,2096921,178907,595528,0
2096921,2096921,178874,595170,0
2096921,2096921,178857,594986,0
2096921,2096921,178739,594935,0
2096921,2096921,178777,595141,0
2096921,2096921,178623,594753,0
2096921,2096921,178806,594301,0
2096921,2096921,178653,594263,0
2096921,2096921,178549,594430,0
2096921,2096921,178741,594349,0
2096921,2096921,178546,594224,0
2096921,2096921,178528,594224,0
2096921,2096921,178691,594176,0
2096921,2096921,178362,593695,0
2096921,2096921,178590,593612,0
2096921,2096921,178410,593575,0
2096921,2096921,178357,593341,0
2096921,2096921,178209,593326,0
2096921,2096921,178485,593657,0
2096921,2096921,178416,593571,0
2096921,2096921,178224,593582,0
2096921,2096921,178239,593122,0
2096921,2096921,178430,593594,0
2096921,2096921,178490,593592,0
2096921,2096921,178328,593366,0
2096921,2096921,178221,593396,0
2096921,2096921,178079,593112,0
2096921,2096921,178223,593222,0
2096921,2096921,178055,593224,0
2096921,2096921,177978,593000,0
2096921,2096921,178220,593071,0
2096921,2096921,178155,593166,0
2096921,2096921,178275,593135,0
2096921,2096921,178289,593008,0
2096921,2096921,178334,593093,0
2096921,2096921,178074,593304,0
2096921,2096921,178157,593033,0
2096921,2096921,178037,592785,0
2096921,2096921,178589,592960,0
2096921,2096921,178176,593010,0
2096921,2096921,178364,593405,0
2096921,2096921,178153,593445,0
2096921,2096921,178177,593463,0
2096921,2096921,178494,593540,0
2096921,2096921,178206,593335,0
2096921,2096921,178203,593339,0
2096921,2096921,178382,593451,0
2096921,2096921,178202,593331,0
2096921,2096921,178515,593348,0
2096921,2096921,178444,593514,0
2096921,2096921,178478,593585,0
2096921,2096921,178436,593883,0
2096921,2096921,178590,593907,0
2096921,2096921,178674,593928,0
2096921,2096921,178513,594074,0
2096921,2096921,178444,593813,0
2096921,2096921,178475,593829,0
2096921,2096921,178344,594147,0
2096921,2096921,178328,593967,0
2096921,2096921,178503,594238,0
2096921,2096921,178701,594202,0
2096921,2096921,178531,593913,0
2096921,2096921,178719,594045,0
2096921,2096921,178834,594300,0
2096921,2096921,178872,594032,0
2096921,2096921,178547,594559,0
2096921,2096921,178749,594256,0
2096921,2096921,178810,594294,0
2096921,2096921,178782,594221,0
2096921,2096921,178636,594333,0
2096921,2096921,178662,594534,0
2096921,2096921,178668,594761,0
2096921,2096921,178852,594392,0
2096921,2096921,178968,594560,0
2096921,2096921,178843,594642,0
2096921,2096921,178874,594659,0
2096921,2096921,178714,594862,0
2096921,2096921,178653,594596,0
2096921,2096921,178625,594532,0
2096921,2096921,178771,594481,0
2096921,2096921,178968,594836,0
2096921,2096921,178977,595192,0
2096921,2096921,179074,595108,0
2096921,2096921,178863,594908,0
2096921,2096921,178697,594581,0
2096921,2096921,178767,595417,0
2096921,2096921,178847,594855,0
2096921,2096921,179012,595191,0
2096921,2096921,178875,594983,0
2096921,2096921,178922,594991,0
2096921,2096921,179227,595191,0
2096921,2096921,179208,595174,0
2096921,2096921,179154,595249,0
2096921,2096921,179028,595534,0
2096921,2096921,178932,595334,0
2096921,2096921,178939,595356,0
2096921,2096921,178920,595026,0
2096921,2096921,178631,595374,0
2096921,2096921,178903,595572,0
2096921,2096921,179070,595145,0
2096921,2096921,179062,595451,0
2096921,2096921,178742,595638,0
2096921,2096921,179044,595562,0
2096921,2096921,179135,595380,0
2096921,2096921,179145,595641,0
2096921,2096921,179055,595603,0
2096921,2096921,179188,595864,0
2096921,2096921,179021,595614,0
2096921,2096921,179095,595501,0
2096921,2096921,179273,595738,0
2096921,2096921,179285,596075,0
2096921,2096921,179093,596098,0
2096921,2096921,179372,595886,0
2096921,2096921,178991,595793,0
2096921,2096921,179130,595839,0
2096921,2096921,179201,595812,0
2096921,2096921,179373,595617,0
2096921,2096921,179158,595916,0
2096921,2096921,179188,595764,0
2096921,2096921,179040,596126,0
2096921,2096921,179061,595881,0
2096921,2096921,179315,596344,0
2096921,2096921,179578,596356,0
2096921,2096921,179634,596292,0
2096921,2096921,179329,596250,0
2096921,2096921,179431,596481,0
2096921,2096921,179446,596238,0
2096921,2096921,179404,596293,0
2096921,2096921,179261,596139,0
2096921,2096921,179572,596233,0
2096921,2096921,179348,596341,0
2096921,2096921,179504,596673,0
2096921,2096921,179493,596425,0
2096921,2096921,179688,596087,0
2096921,2096921,179658,596340,0
2096921,2096921,179509,596460,0
2096921,2096921,179241,596460,0
2096921,2096921,179333,596411,0
2096921,2096921,179515,596413,0
2096921,2096921,179301,596182,0
2096921,2096921,179301,596386,0
2096921,2096921,179552,596332,0
2096921,2096921,179572,596545,0
2096921,2096921,179526,596576,0
2096921,2096921,179634,596283,0
2096921,2096921,179599,596593,0
2096921,2096921,179646,596651,0
2096921,2096921,179528,596642,0
2096921,2096921,179578,596849,0
2096921,2096921,179512,596375,0
2096921,2096921,179458,597065,0
2096921,2096921,179601,597037,0
2096921,2096921,179467,596780,0
2096921,2096921,179795,597136,0
2096921,2096921,179544,596858,0
2096921,2096921,179586,596833,0
2096921,2096921,179405,596865,0
2096921,2096921,179406,596781,0
2096921,2096921,179588,596830,0
2096921,2096921,179583,596963,0
2096921,2096921,179760,596984,0
2096921,2096921,179477,596926,0
2096921,2096921,179475,596858,0
2096921,2096921,179642,597092,0
2096921,2096921,179435,596917,0
2096921,2096921,179382,596941,0
2096921,2096921,179528,597145,0
2096921,2096921,179680,596859,0
2096921,2096921,179899,597060,0
2096921,2096921,179660,597119,0
2096921,2096921,179706,597228,0
2096921,2096921,179726,597249,0
2096921,2096921,179472,597097,0
2096921,2096921,179819,597253,0
2096921,2096921,179780,597208,0
2096921,2096921,179576,597094,0
2096921,2096921,179630,597091,0
2096921,2096921,179651,597146,0
2096921,2096921,179712,597217,0
2096921,2096921,179534,597142,0
2096921,2096921,180034,597677,0
2096921,2096921,180105,597191,0
2096921,2096921,179921,597342,0
2096921,2096921,179673,597145,0
2096921,2096921,179460,597382,0
2096921,2096921,179529,596978,0
2096921,2096921,179628,597189,0
2096921,2096921,179527,597028,0
2096921,2096921,179523,597136,0
2096921,2096921,179536,597098,0
2096921,2096921,179922,597505,0
2096921,2096921,180099,597488,0
2096921,2096921,180139,597582,0
2096921,2096921,179856,597524,0
2096921,2096921,179900,597399,0
2096921,2096921,179926,597185,0
2096921,2096921,179587,597570,0
2096921,2096921,179448,597074,0
2096921,2096921,179726,597472,0
2096921,2096921,179766,597402,0
2096921,2096921,179780,597566,0
2096921,2096921,180180,597352,0
2096921,2096921,180034,597581,0
2096921,2096921,179794,597702,0
2096921,2096921,179537,597494,0
2096921,2096921,179819,597294,0
2096921,2096921,179574,597210,0
2096921,2096921,179706,597342,0
2096921,2096921,179595,597552,0
2096921,2096921,179935,597310,0
2096921,2096921,179576,597416,0
2096921,2096921,179883,597486,0
2096921,2096921,179904,597404,0
2096921,2096921,180000,597272,0
2096921,2096921,179740,597229,0
2096921,2096921,179638,597554,0
2096921,2096921,179913,597794,0
2096921,2096921,179562,597483,0
2096921,2096921,179874,597498,0
2096921,2096921,179951,597714,0
2096921,2096921,180202,597839,0
2096921,2096921,179821,597636,0
2096921,2096921,180049,597543,0
2096921,2096921,180009,597491,0
2096921,2096921,179973,597465,0
2096921,2096921,179811,597619,0
2096921,2096921,179894,597685,0
2096921,2096921,179941,597274,0
2096921,2096921,179707,597702,0
2096921,2096921,180031,597743,0
2096921,2096921,179955,597995,0
2096921,2096921,180015,597723,0
2096921,2096921,179995,597896,0
2096921,2096921,179790,598081,0
2096921,2096921,180152,597909,0
2096921,2096921,179982,597447,0
2096921,2096921,180285,597700,0
2096921,2096921,179941,597523,0
2096921,2096921,179697,597522,0
2096921,2096921,179761,597841,0
2096921,2096921,180079,598016,0
2096921,2096921,179929,597832,0
2096921,2096921,180176,597743,0
2096921,2096921,180007,597981,0
2096921,2096921,180057,598008,0
2096921,2096921,179806,598199,0
2096921,2096921,180133,597973,0
2096921,2096921,179793,597816,0
2096921,2096921,179989,598023,0
2096921,2096921,179728,598067,0
2096921,2096921,179945,598228,0
2096921,2096921,179950,598170,0
2096921,2096921,180132,598083,0
2096921,2096921,179910,598225,0
2096921,2096921,179894,597942,0
2096921,2096921,179801,598322,0
2096921,2096921,179777,598131,0
2096921,2096921,179919,598026,0
2096921,2096921,179795,597985,0
2096921,2096921,179997,598394,0
2096921,2096921,179978,598294,0
2096921,2096921,179975,598060,0
2096921,2096921,180128,598018,0
2096921,2096921,180188,598287,0
2096921,2096921,180068,598175,0
2096921,2096921,180122,598266,0
2096921,2096921,179845,597966,0
2096921,2096921,180218,597977,0
2096921,2096921,179960,598052,0
2096921,2096921,180242,598477,0
2096921,2096921,179806,598360,0
2096921,2096921,180065,598238,0
2096921,2096921,179985,598183,0
2096921,2096921,180236,598301,0
2096921,2096921,180139,598096,0
2096921,2096921,180011,598081,0
2096921,2096921,180313,597857,0
2096921,2096921,180107,598036,0
2096921,2096921,180136,598126,0
2096921,2096921,179869,598009,0
2096921,2096921,179989,597899,0
2096921,2096921,180102,598311,0
2096921,2096921,179968,598019,0
2096921,2096921,180176,598253,0
2096921,2096921,180029,597840,0
2096921,2096921,179984,597949,0
2096921,2096921,180071,597827,0
2096921,2096921,180007,598034,0
2096921,2096921,180014,598126,0
2096921,2096921,180024,598126,0
2096921,2096921,180012,598200,0
2096921,2096921,179954,598207,0
2096921,2096921,180126,598067,0
2096921,2096921,179932,598079,0
2096921,2096921,179982,598211,0
2096921,2096921,179864,597924,0
2096921,2096921,180071,597646,0
2096921,2096921,180034,598010,0
2096921,2096921,179925,598061,0
2096921,2096921,179993,598150,0
2096921,2096921,179921,598204,0
2096921,2096921,179761,598148,0
2096921,2096921,179850,598068,0
2096921,2096921,180300,598093,0
2096921,2096921,180138,598333,0
2096921,2096921,179927,597489,0
2096921,2096921,179797,597349,0
2096921,2096921,179864,597464,0
2096921,2096921,179785,597280,0
2096921,2096921,179832,597285,0
2096921,2096921,179488,596971,0
2096921,2096921,179863,596639,0
2096921,2096921,179729,596768,0
2096921,2096921,179760,596666,0
2096921,2096921,179798,596840,0
2096921,2096921,179366,595886,0
2096921,2096921,179242,595794,0
2096921,2096921,179241,595552,0
2096921,2096921,179079,595850,0
2096921,2096921,179405,595745,0
2096921,2096921,179000,595102,0
2096921,2096921,179074,594544,0
2096921,2096921,178792,594143,0
2096921,2096921,178673,594053,0
2096921,2096921,178736,594128,0
2096921,2096921,178715,594089,0
2096921,2096921,178399,592971,0
2096921,2096921,178137,592781,0
2096921,2096921,178214,593078,0
2096921,2096921,178555,592730,0
2096921,2096921,177627,590298,0
2096921,2096921,177435,589594,0
2096921,2096921,176735,589800,0
2096921,2096921,177217,589652,0
2096921,2096921,177037,589674,0
2096921,2096921,176069,586521,0
2096921,2096921,175687,585245,0
2096921,2096921,175617,585626,0
2096921,2096921,175675,585325,0
2096921,2096921,175529,585456,0
2096921,2096921,175020,583363,0
2096921,2096921,175205,582274,0
2096921,2096921,174765,582180,0
2096921,2096921,174808,582323,0
2096921,2096921,174903,582135,0
2096921,2096921,174284,580720,0
2096921,2096921,174101,580181,0
2096921,2096921,174126,579744,0
2096921,2096921,173864,579724,0
2096921,2096921,173736,579783,0
2096921,2096921,173647,578471,0
2096921,2096921,173526,578246,0
2096921,2096921,173475,578418,0
2096921,2096921,173681,578132,0
2096921,2096921,173246,577732,0
2096921,2096921,172764,576964,0
2096921,2096921,172827,576769,0
2096921,2096921,173032,576815,0
2096921,2096921,172939,577088,0
2096921,2096921,172917,576872,0
2096921,2096921,173013,576483,0
2096921,2096921,172738,576177,0
2096921,2096921,172776,576277,0
2096921,2096921,173152,575914,0
2096921,2096921,172755,575878,0
2096921,2096921,172576,575370,0
2096921,2096921,172604,575402,0
2096921,2096921,172701,575348,0
2096921,2096921,172390,575548,0
2096921,2096921,172376,575142,0
2096921,2096921,172177,575190,0
2096921,2096921,172532,575211,0
2096921,2096921,172208,575235,0
2096921,2096921,172356,575160,0
2096921,2096921,172555,575521,0
2096921,2096921,172394,575045,0
2096921,2096921,172310,575098,0
2096921,2096921,172197,575074,0
2096921,2096921,172471,575153,0
2096921,2096921,172484,575080,0
2096921,2096921,172459,575550,0
2096921,2096921,172343,575322,0
2096921,2096921,172648,575406,0
2096921,2096921,172240,575588,0
2096921,2096921,172403,575584,0
2096921,2096921,172936,575684,0
2096921,2096921,172868,575825,0
2096921,2096921,172392,576031,0
2096921,2096921,172646,575815,0
2096921,2096921,172895,575846,0
2096921,2096921,172804,575876,0
2096921,2096921,172668,575903,0
2096921,2096921,172742,576026,0
2096921,2096921,172704,575744,0
2096921,2096921,172797,576168,0
2096921,2096921,172914,576533,0
2096921,2096921,172908,576247,0
2096921,2096921,172941,576773,0
2096921,2096921,172920,576663,0
2096921,2096921,173021,576820,0
2096921,2096921,173105,577461,0
2096921,2096921,173294,577381,0
2096921,2096921,173331,577363,0
2096921,2096921,173247,577562,0
2096921,2096921,173373,577256,0
2096921,2096921,173530,577955,0
2096921,2096921,173207,578033,0
2096921,2096921,173537,577962,0
2096921,2096921,173449,578030,0
2096921,2096921,173449,577798,0
2096921,2096921,173724,578769,0
2096921,2096921,173872,579194,0
2096921,2096921,173757,578752,0
2096921,2096921,173655,578802,0
2096921,2096921,173751,578856,0
2096921,2096921,173758,579317,0
2096921,2096921,173747,579435,0
2096921,2096921,173559,579759,0
2096921,2096921,174035,579504,0
2096921,2096921,173857,579634,0
2096921,2096921,174323,580481,0
2096921,2096921,174451,580609,0
2096921,2096921,174452,580464,0
2096921,2096921,174178,580185,0
2096921,2096921,174341,580088,0
2096921,2096921,174283,580969,0
2096921,2096921,174340,581223,0
2096921,2096921,174305,581007,0
2096921,2096921,174387,581035,0
2096921,2096921,174541,581111,0
2096921,2096921,174511,581532,0
2096921,2096921,174539,581809,0
2096921,2096921,174966,582322,0
2096921,2096921,174643,582018,0
2096921,2096921,174469,581806,0
2096921,2096921,174831,582261,0
2096921,2096921,174962,582390,0
2096921,2096921,175136,582556,0
2096921,2096921,175070,582742,0
2096921,2096921,175147,582524,0
2096921,2096921,174785,583355,0
2096921,2096921,175321,583651,0
2096921,2096921,175407,583631,0
2096921,2096921,175526,583613,0
2096921,2096921,175456,583438,0
2096921,2096921,175368,584094,0
2096921,2096921,175615,584145,0
2096921,2096921,175310,584430,0
2096921,2096921,175456,584371,0
2096921,2096921,175461,584449,0
2096921,2096921,175801,585163,0
2096921,2096921,175893,585158,0
2096921,2096921,175842,585211,0
2096921,2096921,175850,585317,0
2096921,2096921,175950,585081,0
2096921,2096921,176014,585768,0
2096921,2096921,175683,585674,0
2096921,2096921,175932,585886,0
2096921,2096921,175993,585813,0
2096921,2096921,175883,586071,0
2096921,2096921,176040,586740,0
2096921,2096921,176196,586876,0
2096921,2096921,175943,586518,0
2096921,2096921,176155,586476,0
2096921,2096921,176082,586620,0
2096921,2096921,176236,586977,0
2096921,2096921,176160,587214,0
2096921,2096921,176334,587318,0
2096921,2096921,176233,587288,0
2096921,2096921,176460,587139,0
2096921,2096921,176565,587430,0
2096921,2096921,176519,587880,0
2096921,2096921,176557,587834,0
2096921,2096921,176581,587567,0
2096921,2096921,176330,587848,0
2096921,2096921,176661,587925,0
2096921,2096921,176384,587917,0
2096921,2096921,176286,587726,0
2096921,2096921,176716,587775,0
2096921,2096921,176637,587730,0
2096921,2096921,176702,588057,0
2096921,2096921,176843,588207,0
2096921,2096921,176837,587983,0
2096921,2096921,176741,588220,0
2096921,2096921,176842,588309,0
2096921,2096921,176747,588190,0
2096921,2096921,176641,588264,0
2096921,2096921,176363,588401,0
2096921,2096921,176679,588130,0
2096921,2096921,176477,587898,0
2096921,2096921,176494,588323,0
2096921,2096921,176807,588400,0
2096921,2096921,176927,588301,0
2096921,2096921,176554,588049,0
2096921,2096921,176773,588239,0
2096921,2096921,176985,588099,0
2096921,2096921,176730,588091,0
2096921,2096921,177036,588052,0
2096921,2096921,176794,588167,0
2096921,2096921,177018,588066,0
2096921,2096921,176478,588337,0
2096921,2096921,176853,588275,0
2096921,2096921,176765,588368,0
2096921,2096921,176731,588098,0
2096921,2096921,176622,587791,0
2096921,2096921,176675,587641,0
2096921,2096921,176540,587945,0
2096921,2096921,176691,587783,0
2096921,2096921,176925,588026,0
2096921,2096921,176733,587922,0
2096921,2096921,176634,587764,0
2096921,2096921,176389,587974,0
2096921,2096921,176777,587707,0
2096921,2096921,176656,587763,0
2096921,2096921,176722,588016,0
2096921,2096921,176793,587330,0
2096921,2096921,176719,587771,0
2096921,2096921,176568,587789,0
2096921,2096921,176601,587691,0
2096921,2096921,176712,587885,0
2096921,2096921,176599,588001,0
2096921,2096921,176816,588098,0
2096921,2096921,176931,588138,0
2096921,2096921,176774,587986,0
2096921,2096921,176717,588108,0
2096921,2096921,176686,588463,0
2096921,2096921,176704,588351,0
2096921,2096921,176692,588526,0
2096921,2096921,176807,588466,0
2096921,2096921,176594,588299,0
2096921,2096921,176818,588890,0
2096921,2096921,176836,588970,0
2096921,2096921,177110,589258,0
2096921,2096921,177127,589099,0
2096921,2096921,176900,588882,0
2096921,2096921,177025,589155,0
2096921,2096921,177049,589287,0
2096921,2096921,176907,589359,0
2096921,2096921,176932,589398,0
2096921,2096921,177050,589224,0
2096921,2096921,177407,589893,0
2096921,2096921,177154,590252,0
2096921,2096921,177417,590244,0
2096921,2096921,177279,590002,0
2096921,2096921,177344,590067,0
2096921,2096921,177223,590337,0
2096921,2096921,177621,590803,0
2096921,2096921,177490,590863,0
2096921,2096921,177552,590966,0
2096921,2096921,177733,590780,0
2096921,2096921,177641,591382,0
2096921,2096921,177868,591394,0
2096921,2096921,178023,591885,0
2096921,2096921,178113,591547,0
2096921,2096921,178004,591711,0
2096921,2096921,178057,591990,0
2096921,2096921,178000,592268,0
2096921,2096921,177862,591745,0
2096921,2096921,178140,592203,0
2096921,2096921,178198,592331,0
2096921,2096921,177901,592770,0
2096921,2096921,178116,592953,0
2096921,2096921,178358,592725,0
2096921,2096921,177816,592885,0
2096921,2096921,178425,593148,0
2096921,2096921,178284,593532,0
2096921,2096921,178505,593676,0
2096921,2096921,178351,593718,0
2096921,2096921,178434,593609,0
2096921,2096921,178627,593614,0
2096921,2096921,178657,594208,0
2096921,2096921,178577,594344,0
2096921,2096921,178733,594245,0
2096921,2096921,178605,594019,0
2096921,2096921,178622,594224,0
2096921,2096921,178788,594906,0
2096921,2096921,178799,594978,0
2096921,2096921,179026,594894,0
2096921,2096921,179094,594785,0
2096921,2096921,179123,594611,0
2096921,2096921,179376,595524,0
2096921,2096921,179509,595850,0
2096921,2096921,179508,595611,0
2096921,2096921,179433,595775,0
2096921,2096921,179353,595479,0
2096921,2096921,179003,595937,0
2096921,2096921,179243,596192,0
2096921,2096921,179448,596424,0
2096921,2096921,179506,596737,0
2096921,2096921,179264,596368,0
2096921,2096921,179306,597077,0
2096921,2096921,179597,597093,0
2096921,2096921,179937,596991,0
2096921,2096921,179757,597132,0
2096921,2096921,179788,596867,0
2096921,2096921,179640,597501,0
2096921,2096921,179717,597554,0
2096921,2096921,179809,597627,0
2096921,2096921,179760,597972,0
2096921,2096921,179896,597606,0
2096921,2096921,179668,598026,0
2096921,2096921,179807,598289,0
2096921,2096921,179985,598252,0
2096921,2096921,179814,598044,0
2096921,2096921,179676,598305,0
2096921,2096921,180101,598433,0
2096921,2096921,180288,598840,0
2096921,2096921,179976,598371,0
2096921,2096921,180063,598962,0
2096921,2096921,180313,598708,0
2096921,2096921,180372,599419,0
2096921,2096921,180494,599257,0
2096921,2096921,180942,599355,0
2096921,2096921,180342,599436,0
2096921,2096921,180397,599590,0
2096921,2096921,180290,599811,0
2096921,2096921,180489,600058,0
2096921,2096921,180312,600082,0
2096921,2096921,180468,600008,0
2096921,2096921,180441,599985,0
2096921,2096921,180867,600604,0
2096921,2096921,180883,600822,0
2096921,2096921,180652,600881,0
2096921,2096921,180835,600682,0
2096921,2096921,180668,600953,0
2096921,2096921,180788,600826,0
2096921,2096921,181063,600987,0
2096921,2096921,180736,601245,0
2096921,2096921,180811,601295,0
2096921,2096921,180794,601367,0
2096921,2096921,181141,601712,0
2096921,2096921,180944,601883,0
2096921,2096921,181223,602007,0
2096921,2096921,180958,601966,0
2096921,2096921,180949,601848,0
2096921,2096921,181317,602022,0
2096921,2096921,181337,602090,0
2096921,2096921,181511,602405,0
2096921,2096921,181384,602543,0
2096921,2096921,181348,602130,0
2096921,2096921,181589,602718,0
2096921,2096921,181545,603222,0
2096921,2096921,181618,603100,0
2096921,2096921,181717,602931,0
2096921,2096921,181621,602899,0
2096921,2096921,181675,603385,0
2096921,2096921,181895,603408,0
2096921,2096921,181658,603613,0
2096921,2096921,181809,603579,0
2096921,2096921,181659,603845,0
2096921,2096921,181827,604266,0
2096921,2096921,182154,604405,0
2096921,2096921,182036,604145,0
2096921,2096921,182151,604342,0
2096921,2096921,181922,604037,0
2096921,2096921,181896,604363,0
2096921,2096921,181802,604857,0
2096921,2096921,182133,604310,0
2096921,2096921,181912,604713,0
2096921,2096921,182096,604845,0
2096921,2096921,182100,605005,0
2096921,2096921,182386,605206,0
2096921,2096921,182489,605263,0
2096921,2096921,182547,605141,0
2096921,2096921,182043,605293,0
2096921,2096921,182331,605488,0
2096921,2096921,182271,605664,0
2096921,2096921,182261,605766,0
2096921,2096921,182767,605567,0
2096921,2096921,182791,605673,0
2096921,2096921,182723,605985,0
2096921,2096921,182531,606185,0
2096921,2096921,182381,606201,0
2096921,2096921,182897,606301,0
2096921,2096921,182684,606158,0
2096921,2096921,182321,606638,0
2096921,2096921,182509,606802,0
2096921,2096921,182691,606660,0
2096921,2096921,182587,606800,0
2096921,2096921,182887,606598,0
2096921,2096921,182735,607292,0
2096921,2096921,182842,607398,0
2096921,2096921,183000,607331,0
2096921,2096921,182825,607401,0
2096921,2096921,182739,607241,0
2096921,2096921,182968,607460,0
2096921,2096921,183018,607557,0
2096921,2096921,183221,607536,0
2096921,2096921,183073,607584,0
2096921,2096921,182972,607887,0
2096921,2096921,182951,607973,0
2096921,2096921,183092,608317,0
2096921,2096921,183222,608616,0
2096921,2096921,183155,608641,0
2096921,2096921,183094,608368,0
2096921,2096921,183186,608431,0
2096921,2096921,183213,608503,0
2096921,2096921,183162,608646,0
2096921,2096921,183236,608647,0
2096921,2096921,183278,608755,0
2096921,2096921,183226,608992,0
2096921,2096921,183413,608710,0
2096921,2096921,183317,608939,0
2096921,2096921,183343,608673,0
2096921,2096921,183542,609254,0
2096921,2096921,183398,609307,0
2096921,2096921,183307,609523,0
2096921,2096921,183805,609511,0
2096921,2096921,183741,609531,0
2096921,2096921,183498,609248,0
2096921,2096921,183611,609463,0
2096921,2096921,183816,609838,0
2096921,2096921,183801,610200,0
2096921,2096921,183783,610088,0
2096921,2096921,183778,610266,0
2096921,2096921,183731,610073,0
2096921,2096921,183822,609940,0
2096921,2096921,183726,610605,0
2096921,2096921,183769,610455,0
2096921,2096921,183994,610131,0
2096921,2096921,184048,610714,0
2096921,2096921,184121,610960,0
2096921,2096921,184513,611264,0
2096921,2096921,184169,611152,0
2096921,2096921,184289,610577,0
2096921,2096921,183882,610894,0
2096921,2096921,183976,611247,0
2096921,2096921,184019,611333,0
2096921,2096921,184292,611258,0
2096921,2096921,184292,611449,0
2096921,2096921,184473,611918,0
2096921,2096921,184618,611954,0
2096921,2096921,184324,611923,0
2096921,2096921,184277,611989,0
2096921,2096921,184141,612023,0
2096921,2096921,184304,611925,0
2096921,2096921,184525,612161,0
2096921,2096921,184484,612257,0
2096921,2096921,184579,612092,0
2096921,2096921,184455,612031,0
2096921,2096921,184549,612519,0
2096921,2096921,184440,612422,0
2096921,2096921,184646,612485,0
2096921,2096921,184639,612365,0
2096921,2096921,184614,612481,0
2096921,2096921,184557,612560,0
2096921,2096921,184396,612928,0
2096921,2096921,184258,612759,0
2096921,2096921,184631,613056,0
2096921,2096921,184355,612846,0
2096921,2096921,184960,613507,0
2096921,2096921,184552,613546,0
2096921,2096921,184613,613345,0
2096921,2096921,184513,613149,0
2096921,2096921,184796,613413,0
2096921,2096921,184903,613598,0
2096921,2096921,184817,613646,0
2096921,2096921,184858,613683,0
2096921,2096921,184946,613799,0
2096921,2096921,184965,613558,0
2096921,2096921,184945,614134,0
2096921,2096921,185152,614270,0
2096921,2096921,185064,614152,0
2096921,2096921,184932,614237,0
2096921,2096921,184965,614092,0
2096921,2096921,184987,614256,0
2096921,2096921,184996,614094,0
2096921,2096921,185101,614444,0
2096921,2096921,185053,614383,0
2096921,2096921,184940,614706,0
2096921,2096921,185386,614881,0
2096921,2096921,185112,614852,0
2096921,2096921,185355,614664,0
2096921,2096921,185385,614370,0
2096921,2096921,185107,614969,0
2096921,2096921,185164,614823,0
2096921,2096921,184894,614669,0
2096921,2096921,184923,614911,0
2096921,2096921,185112,614835,0
2096921,2096921,185032,614757,0
2096921,2096921,185326,614900,0
2096921,2096921,185371,615394,0
2096921,2096921,185745,615471,0
2096921,2096921,185506,615482,0
2096921,2096921,185305,615232,0
2096921,2096921,185470,615425,0
2096921,2096921,185577,615548,0
2096921,2096921,185516,615338,0
2096921,2096921,185505,615570,0
2096921,2096921,185418,615377,0
2096921,2096921,185510,615769,0
2096921,2096921,185586,615735,0
2096921,2096921,185697,616129,0
2096921,2096921,185645,615949,0
2096921,2096921,185691,615808,0
2096921,2096921,185364,615879,0
2096921,2096921,185549,615815,0
2096921,2096921,185401,615941,0
2096921,2096921,185641,615862,0
2096921,2096921,185703,616015,0
2096921,2096921,185744,616258,0
2096921,2096921,185813,616394,0
2096921,2096921,185849,616331,0
2096921,2096921,185730,616605,0
2096921,2096921,185739,616890,0
2096921,2096921,185421,616175,0
2096921,2096921,185440,615848,0
2096921,2096921,185663,616175,0
2096921,2096921,185745,615974,0
2096921,2096921,185790,616098,0
2096921,2096921,185459,615710,0
2096921,2096921,185450,615580,0
2096921,2096921,185556,615527,0
2096921,2096921,185605,615791,0
2096921,2096921,185558,615474,0
2096921,2096921,185387,614838,0
2096921,2096921,185102,614656,0
2096921,2096921,185249,614478,0
2096921,2096921,185320,614723,0
2096921,2096921,185262,614785,0
2096921,2096921,185034,613529,0
2096921,2096921,184805,613950,0
2096921,2096921,184803,613547,0
2096921,2096921,185018,613837,0
2096921,2096921,184583,613637,0
2096921,2096921,184549,612674,0
2096921,2096921,184503,612393,0
2096921,2096921,184356,612424,0
2096921,2096921,184499,612049,0
2096921,2096921,184323,612224,0
2096921,2096921,183321,612455,0
2096921,2096921,183519,609820,0
2096921,2096921,183342,609233,0
2096921,2096921,183363,608696,0
2096921,2096921,183385,608691,0
2096921,2096921,182257,605918,0
2096921,2096921,182352,605071,0
2096921,2096921,182049,605233,0
2096921,2096921,181999,604965,0
2096921,2096921,181778,604998,0
2096921,2096921,181231,602767,0
2096921,2096921,181006,602026,0
2096921,2096921,180904,602166,0
2096921,2096921,180995,601928,0
2096921,2096921,181012,601919,0
2096921,2096921,180373,600292,0
2096921,2096921,180006,600020,0
2096921,2096921,180317,599804,0
2096921,2096921,180116,599923,0
2096921,2096921,180296,599753,0
2096921,2096921,179843,598896,0
2096921,2096921,179878,598386,0
2096921,2096921,179712,598120,0
2096921,2096921,179934,598352,0
2096921,2096921,179511,598404,0
2096921,2096921,179366,597725,0
2096921,2096921,179280,597210,0
2096921,2096921,179483,597182,0
2096921,2096921,179320,597140,0
2096921,2096921,179503,597085,0
2096921,2096921,179258,596694,0
2096921,2096921,179277,596579,0
2096921,2096921,179364,596546,0
2096921,2096921,179153,596473,0
2096921,2096921,179141,596793,0
2096921,2096921,178878,596218,0
2096921,2096921,178736,596052,0
2096921,2096921,179010,596339,0
2096921,2096921,179150,596161,0
2096921,2096921,179010,596310,0
2096921,2096921,179053,596170,0
2096921,2096921,179020,596306,0
2096921,2096921,179153,596366,0
2096921,2096921,178939,596263,0
2096921,2096921,178863,596474,0
2096921,2096921,178920,596294,0
2096921,2096921,178874,596704,0
2096921,2096921,179173,596402,0
2096921,2096921,179047,596422,0
2096921,2096921,179163,596438,0
2096921,2096921,179122,597075,0
2096921,2096921,179236,596770,0
2096921,2096921,179107,597129,0
2096921,2096921,179270,597149,0
2096921,2096921,179476,596769,0
2096921,2096921,179226,596977,0
2096921,2096921,179408,597432,0
2096921,2096921,179040,597306,0
2096921,2096921,178945,597497,0
2096921,2096921,179304,597414,0
2096921,2096921,179538,597879,0
2096921,2096921,179624,597952,0
2096921,2096921,179418,598125,0
2096921,2096921,179622,597838,0
2096921,2096921,179612,597966,0
2096921,2096921,179821,598326,0
2096921,2096921,179875,598811,0
2096921,2096921,179762,598673,0
2096921,2096921,179925,598637,0
2096921,2096921,180033,598641,0
2096921,2096921,180048,599505,0
2096921,2096921,180176,599579,0
2096921,2096921,180198,599903,0
2096921,2096921,179932,599653,0
2096921,2096921,179996,599478,0
2096921,2096921,180128,600025,0
2096921,2096921,180171,600175,0
2096921,2096921,180134,600311,0
2096921,2096921,180098,600625,0
2096921,2096921,180320,600437,0
2096921,2096921,180376,601098,0
2096921,2096921,180728,601219,0
2096921,2096921,180852,601555,0
2096921,2096921,180717,601437,0
2096921,2096921,180687,601556,0
2096921,2096921,180757,602113,0
2096921,2096921,180991,602292,0
2096921,2096921,181019,602532,0
2096921,2096921,181024,602489,0
2096921,2096921,181311,602256,0
2096921,2096921,181321,603271,0
2096921,2096921,181364,603580,0
2096921,2096921,181555,603551,0
2096921,2096921,181582,603479,0
2096921,2096921,181283,603553,0
2096921,2096921,181688,604044,0
2096921,2096921,181513,604259,0
2096921,2096921,181890,604314,0
2096921,2096921,181604,604360,0
2096921,2096921,181689,604275,0
2096921,2096921,181805,604998,0
2096921,2096921,181899,605382,0
2096921,2096921,182065,605109,0
2096921,2096921,182128,605147,0
2096921,2096921,181884,605540,0
2096921,2096921,182204,605952,0
2096921,2096921,182202,606219,0
2096921,2096921,182149,606121,0
2096921,2096921,182013,606022,0
2096921,2096921,182228,606334,0
2096921,2096921,182688,606947,0
2096921,2096921,182519,607044,0
2096921,2096921,182390,607071,0
2096921,2096921,182425,607043,0
2096921,2096921,182765,607179,0
2096921,2096921,182541,607925,0
2096921,2096921,182770,608384,0
2096921,2096921,182740,608071,0
2096921,2096921,182942,608041,0
2096921,2096921,182833,608011,0
2096921,2096921,183129,608932,0
2096921,2096921,183041,609199,0
2096921,2096921,183287,609092,0
2096921,2096921,182864,608869,0
2096921,2096921,182980,608882,0
2096921,2096921,183232,609204,0
2096921,2096921,183504,609468,0
2096921,2096921,183713,609641,0
2096921,2096921,183243,609461,0
2096921,2096921,183192,609740,0
2096921,2096921,183759,610291,0
2096921,2096921,183586,610632,0
2096921,2096921,183635,610305,0
2096921,2096921,183538,610440,0
2096921,2096921,183497,610671,0
2096921,2096921,183561,610671,0
2096921,2096921,183720,610893,0
2096921,2096921,183677,610654,0
2096921,2096921,183753,611059,0
2096921,2096921,183894,610934,0
2096921,2096921,183877,610956,0
2096921,2096921,184123,611147,0
2096921,2096921,184172,611154,0
2096921,2096921,183835,611073,0
2096921,2096921,183856,611250,0
2096921,2096921,183763,611229,0
2096921,2096921,183836,611445,0
2096921,2096921,183867,611387,0
2096921,2096921,184109,611588,0
2096921,2096921,184113,611409,0
2096921,2096921,184048,611464,0
2096921,2096921,184149,611264,0
2096921,2096921,184053,611549,0
2096921,2096921,184075,611613,0
2096921,2096921,183836,611622,0
2096921,2096921,184092,611575,0
2096921,2096921,183811,611541,0
2096921,2096921,183806,611251,0
2096921,2096921,183746,611485,0
2096921,2096921,184062,611629,0
2096921,2096921,184062,611337,0
2096921,2096921,184036,611395,0
2096921,2096921,183919,611288,0
2096921,2096921,183780,611558,0
2096921,2096921,183572,611330,0
2096921,2096921,183755,611174,0
2096921,2096921,183801,611322,0
2096921,2096921,183884,611145,0
2096921,2096921,183908,610940,0
2096921,2096921,184021,611333,0
2096921,2096921,184146,611134,0
2096921,2096921,184061,611166,0
2096921,2096921,183791,610956,0
2096921,2096921,183901,611315,0
2096921,2096921,183793,610952,0
2096921,2096921,183475,610716,0
2096921,2096921,183753,610566,0
2096921,2096921,183699,610554,0
2096921,2096921,183917,610534,0
2096921,2096921,183844,610503,0
2096921,2096921,183863,610198,0
2096921,2096921,183867,610671,0
2096921,2096921,183711,610582,0
2096921,2096921,183689,610759,0
2096921,2096921,183566,610702,0
2096921,2096921,183786,610519,0
2096921,2096921,183598,610284,0
2096921,2096921,183756,610299,0
2096921,2096921,183359,610393,0
2096921,2096921,183811,610603,0
2096921,2096921,184190,610334,0
2096921,2096921,183547,610334,0
2096921,2096921,183464,610526,0
2096921,2096921,183551,610705,0
2096921,2096921,183646,610756,0
2096921,2096921,183561,610678,0
2096921,2096921,183657,610810,0
2096921,2096921,183614,610684,0
2096921,2096921,183509,610510,0
2096921,2096921,183526,610469,0
2096921,2096921,183833,610883,0
2096921,2096921,183781,610796,0
2096921,2096921,184110,610797,0
2096921,2096921,183937,610618,0
2096921,2096921,183774,610642,0
2096921,2096921,183669,611059,0
2096921,2096921,183941,611005,0
2096921,2096921,183861,610757,0
2096921,2096921,183736,610969,0
2096921,2096921,183858,611078,0
2096921,2096921,183901,611479,0
2096921,2096921,184301,611491,0
2096921,2096921,184049,611686,0
2096921,2096921,184141,611534,0
2096921,2096921,183938,611648,0
2096921,2096921,184144,612081,0
2096921,2096921,184071,611981,0
2096921,2096921,184064,612016,0
2096921,2096921,183985,611969,0
2096921,2096921,183959,612095,0
2096921,2096921,184316,612538,0
2096921,2096921,184565,612436,0
2096921,2096921,184580,612874,0
2096921,2096921,184523,612919,0
2096921,2096921,184510,612904,0
2096921,2096921,184764,613486,0
2096921,2096921,184648,613233,0
2096921,2096921,184507,613087,0
2096921,2096921,184679,613271,0
2096921,2096921,184742,613400,0
2096921,2096921,184665,613690,0
2096921,2096921,184853,613644,0
2096921,2096921,184703,613889,0
2096921,2096921,184835,613525,0
2096921,2096921,184723,613910,0
2096921,2096921,184881,614064,0
2096921,2096921,184746,614225,0
2096921,2096921,184846,613950,0
2096921,2096921,184701,613960,0
2096921,2096921,184738,614229,0
2096921,2096921,184994,614463,0
2096921,2096921,184894,614466,0
2096921,2096921,184777,614663,0
2096921,2096921,184821,614574,0
2096921,2096921,185026,614301,0
2096921,2096921,185137,614871,0
2096921,2096921,184995,614973,0
2096921,2096921,184822,614836,0
2096921,2096921,184943,614946,0
2096921,2096921,185052,614819,0
2096921,2096921,185169,615388,0
2096921,2096921,185444,615267,0
2096921,2096921,185464,615544,0
2096921,2096921,185433,615516,0
2096921,2096921,185117,615401,0
2096921,2096921,185431,615640,0
2096921,2096921,185332,615807,0
2096921,2096921,185375,615942,0
2096921,2096921,185239,616227,0
2096921,2096921,185347,615962,0
2096921,2096921,185557,616257,0
2096921,2096921,185512,616257,0
2096921,2096921,185418,616379,0
2096921,2096921,185473,616244,0
2096921,2096921,185208,616430,0
2096921,2096921,185360,616550,0
2096921,2096921,185645,616314,0
2096921,2096921,185625,616464,0
2096921,2096921,185801,616333,0
2096921,2096921,185628,616530,0
2096921,2096921,185880,616451,0
2096921,2096921,185903,616863,0
2096921,2096921,185695,617033,0
2096921,2096921,185538,616814,0
2096921,2096921,185991,616835,0
2096921,2096921,185926,617112,0
2096921,2096921,185755,617296,0
2096921,2096921,185927,617152,0
2096921,2096921,185788,617279,0
2096921,2096921,185793,617144,0
2096921,2096921,186051,618025,0
2096921,2096921,186223,617885,0
2096921,2096921,186020,618064,0
2096921,2096921,185960,617911,0
2096921,2096921,185859,617733,0
2096921,2096921,186100,617794,0
2096921,2096921,186301,618032,0
2096921,2096921,185817,617975,0
2096921,2096921,186249,618014,0
2096921,2096921,186208,617910,0
2096921,2096921,186379,618293,0
2096921,2096921,186340,618430,0
2096921,2096921,186385,618655,0
2096921,2096921,186162,618247,0
2096921,2096921,186279,618179,0
2096921,2096921,186169,618511,0
2096921,2096921,185949,618588,0
2096921,2096921,186534,618829,0
2096921,2096921,186407,618854,0
2096921,2096921,186252,618523,0
2096921,2096921,186285,618915,0
2096921,2096921,186381,619080,0
2096921,2096921,186529,619131,0
2096921,2096921,186477,619340,0
2096921,2096921,186464,619090,0
2096921,2096921,186530,619184,0
2096921,2096921,186530,619491,0
2096921,2096921,186578,619356,0
2096921,2096921,186688,619344,0
2096921,2096921,186533,619564,0
2096921,2096921,186596,619762,0
2096921,2096921,186644,619793,0
2096921,2096921,187047,620062,0
2096921,2096921,186890,619839,0
2096921,2096921,186744,619784,0
2096921,2096921,186790,619783,0
2096921,2096921,186763,619755,0
2096921,2096921,186593,619914,0
2096921,2096921,186757,620041,0
2096921,2096921,187013,619852,0
2096921,2096921,187030,620103,0
2096921,2096921,186962,620240,0
2096921,2096921,186991,620005,0
2096921,2096921,186995,620109,0
2096921,2096921,187002,620429,0
2096921,2096921,186894,620292,0
2096921,2096921,186877,620367,0
2096921,2096921,187047,620629,0
2096921,2096921,186743,620198,0
2096921,2096921,186827,620600,0
2096921,2096921,186978,620791,0
2096921,2096921,187109,621011,0
2096921,2096921,187221,621087,0
2096921,2096921,186922,620868,0
2096921,2096921,186818,620875,0
2096921,2096921,186922,621146,0
2096921,2096921,187366,620947,0
2096921,2096921,186976,621033,0
2096921,2096921,186925,620945,0
2096921,2096921,187042,620808,0
2096921,2096921,187317,620805,0
2096921,2096921,187349,620740,0
2096921,2096921,187312,620881,0
2096921,2096921,187166,621058,0
2096921,2096921,187108,621135,0
2096921,2096921,187112,621263,0
2096921,2096921,187129,621115,0
2096921,2096921,187222,621229,0
2096921,2096921,187322,621131,0
2096921,2096921,187446,621324,0
2096921,2096921,187317,621274,0
2096921,2096921,187533,621423,0
2096921,2096921,187356,621263,0
2096921,2096921,187217,621124,0
2096921,2096921,187156,621407,0
2096921,2096921,187224,621496,0
2096921,2096921,187070,621281,0
2096921,2096921,187387,621351,0
2096921,2096921,187186,621348,0
2096921,2096921,187344,621457,0
2096921,2096921,187291,621577,0
2096921,2096921,187594,621616,0
2096921,2096921,187139,621675,0
2096921,2096921,187364,621752,0
2096921,2096921,187247,621662,0
2096921,2096921,187364,621502,0
2096921,2096921,187253,621315,0
2096921,2096921,187249,621383,0
2096921,2096921,187329,621511,0
2096921,2096921,187158,621533,0
2096921,2096921,187441,621444,0
2096921,2096921,187502,621300,0
2096921,2096921,187359,621576,0
2096921,2096921,187265,621741,0
2096921,2096921,187171,621762,0
2096921,2096921,187236,621611,0
2096921,2096921,187308,621708,0
2096921,2096921,187639,621947,0
2096921,2096921,187491,621822,0
2096921,2096921,187397,621502,0
2096921,2096921,187303,621992,0
2096921,2096921,187215,621666,0
2096921,2096921,187154,621732,0
2096921,2096921,187418,621512,0
2096921,2096921,187572,621604,0
2096921,2096921,187463,621661,0
2096921,2096921,187677,621674,0
2096921,2096921,187483,621477,0
2096921,2096921,187708,621394,0
2096921,2096921,187402,621755,0
2096921,2096921,187517,621879,0
2096921,2096921,187505,621865,0
2096921,2096921,187374,621813,0
2096921,2096921,187425,621664,0
2096921,2096921,187357,621753,0
2096921,2096921,187591,621610,0
2096921,2096921,187220,621795,0
2096921,2096921,187308,621692,0
2096921,2096921,187271,621595,0
2096921,2096921,187632,621354,0
2096921,2096921,187544,621693,0
2096921,2096921,187580,621750,0
2096921,2096921,187586,622003,0
2096921,2096921,187539,621860,0
2096921,2096921,187094,621862,0
2096921,2096921,187312,621522,0
2096921,2096921,187370,621723,0
2096921,2096921,187674,621904,0
2096921,2096921,187298,621777,0
2096921,2096921,187637,621770,0
2096921,2096921,187192,621710,0
2096921,2096921,187180,621759,0
2096921,2096921,187434,621580,0
2096921,2096921,187295,621673,0
2096921,2096921,187145,621587,0
2096921,2096921,187235,621516,0
2096921,2096921,187233,621820,0
2096921,2096921,187339,621647,0
2096921,2096921,187655,621583,0
2096921,2096921,187552,621444,0
2096921,2096921,187627,621519,0
2096921,2096921,187438,621550,0
2096921,2096921,187161,621832,0
2096921,2096921,187376,621710,0
2096921,2096921,187199,621448,0
2096921,2096921,187215,621356,0
2096921,2096921,187205,621414,0
2096921,2096921,186982,621359,0
2096921,2096921,187306,621445,0
2096921,2096921,187480,621214,0
2096921,2096921,187112,621375,0
2096921,2096921,187315,621456,0
2096921,2096921,187451,621379,0
2096921,2096921,187246,621289,0
2096921,2096921,187298,621496,0
2096921,2096921,186980,621377,0
2096921,2096921,187044,621417,0
2096921,2096921,187036,621417,0
2096921,2096921,187131,621335,0
2096921,2096921,187484,621158,0
2096921,2096921,187085,621035,0
2096921,2096921,187031,620887,0
2096921,2096921,186723,620963,0
2096921,2096921,187017,620799,0
2096921,2096921,187239,620949,0
2096921,2096921,187052,620949,0
2096921,2096921,186934,620607,0
2096921,2096921,187086,620551,0
2096921,2096921,187357,620790,0
2096921,2096921,187269,620842,0
2096921,2096921,187352,620713,0
2096921,2096921,187086,620662,0
2096921,2096921,187091,620734,0
2096921,2096921,187068,620548,0
2096921,2096921,186861,620615,0
2096921,2096921,186798,620418,0
2096921,2096921,187152,620324,0
2096921,2096921,187037,620076,0
2096921,2096921,186875,620228,0
2096921,2096921,186973,620116,0
2096921,2096921,186853,620113,0
2096921,2096921,186919,619972,0
2096921,2096921,186795,620123,0
2096921,2096921,186916,619739,0
2096921,2096921,186556,619884,0
2096921,2096921,186630,619776,0
2096921,2096921,186608,619639,0
2096921,2096921,186922,619689,0
2096921,2096921,186806,619824,0
2096921,2096921,186518,619630,0
2096921,2096921,186828,619755,0
2096921,2096921,186791,619662,0
2096921,2096921,186680,619819,0
2096921,2096921,186618,619699,0
2096921,2096921,186808,619775,0
2096921,2096921,186544,618737,0
2096921,2096921,186514,618544,0
2096921,2096921,186424,618632,0
2096921,2096921,186541,618418,0
2096921,2096921,186586,618703,0
2096921,2096921,186452,618001,0
2096921,2096921,186064,617813,0
2096921,2096921,186354,617936,0
2096921,2096921,186109,617950,0
2096921,2096921,186233,617825,0
2096921,2096921,185631,616585,0
2096921,2096921,185805,616073,0
2096921,2096921,185649,616392,0
2096921,2096921,185650,616397,0
2096921,2096921,185396,616455,0
2096921,2096921,185556,615448,0
2096921,2096921,185113,614935,0
2096921,2096921,185255,614899,0
2096921,2096921,184841,614851,0
2096921,2096921,184958,614543,0
2096921,2096921,184932,613357,0
2096921,2096921,184728,613150,0
2096921,2096921,184351,613062,0
2096921,2096921,184693,612911,0
2096921,2096921,184438,612830,0
2096921,2096921,183721,610029,0
2096921,2096921,183588,609521,0
2096921,2096921,183698,609336,0
2096921,2096921,183242,609008,0
2096921,2096921,183320,609289,0
2096921,2096921,181930,609054,0
2096921,2096921,181843,605540,0
2096921,2096921,181745,604865,0
2096921,2096921,181833,604840,0
2096921,2096921,181802,604699,0
2096921,2096921,180819,601809,0
2096921,2096921,180714,601430,0
2096921,2096921,180871,601117,0
2096921,2096921,180471,601222,0
2096921,2096921,180718,601302,0
2096921,2096921,180162,599044,0
2096921,2096921,179809,598388,0
2096921,2096921,179539,598296,0
2096921,2096921,179931,598611,0
2096921,2096921,179834,598579,0
2096921,2096921,179307,597025,0
2096921,2096921,179147,596702,0
2096921,2096921,179175,596323,0
2096921,2096921,179234,596338,0
2096921,2096921,178900,596467,0
2096921,2096921,178571,594950,0
2096921,2096921,178219,594698,0
2096921,2096921,178522,594760,0
2096921,2096921,178717,594716,0
2096921,2096921,178675,594976,0
2096921,2096921,178286,594300,0
2096921,2096921,178132,594171,0
2096921,2096921,178364,593650,0
2096921,2096921,178287,593951,0
2096921,2096921,178334,593543,0
2096921,2096921,177865,592990,0
2096921,2096921,177835,592536,0
2096921,2096921,177999,592453,0
2096921,2096921,178045,592675,0
2096921,2096921,178016,593113,0
2096921,2096921,177856,592532,0
2096921,2096921,177759,592385,0
2096921,2096921,177822,592578,0
2096921,2096921,177677,592829,0
2096921,2096921,177690,592584,0
2096921,2096921,177696,592243,0
2096921,2096921,177656,592405,0
2096921,2096921,177647,592169,0
2096921,2096921,177577,592074,0
2096921,2096921,177949,592181,0
2096921,2096921,177818,592382,0
2096921,2096921,177754,592275,0
2096921,2096921,177891,592053,0
2096921,2096921,177673,592234,0
2096921,2096921,177561,592215,0
2096921,2096921,177787,592205,0
2096921,2096921,177719,592131,0
2096921,2096921,177971,592126,0
2096921,2096921,177718,592165,0
2096921,2096921,177775,592120,0
2096921,2096921,178030,592491,0
2096921,2096921,177802,592295,0
2096921,2096921,177632,591851,0
2096921,2096921,177712,592063,0
2096921,2096921,177627,592149,0
2096921,2096921,177693,592655,0
2096921,2096921,177700,592338,0
2096921,2096921,177506,592355,0
2096921,2096921,177855,592381,0
2096921,2096921,177581,592162,0
2096921,2096921,177955,592602,0
2096921,2096921,177907,592781,0
2096921,2096921,178007,592931,0
2096921,2096921,178087,593021,0
2096921,2096921,177815,593085,0
2096921,2096921,178284,593222,0
2096921,2096921,178145,593532,0
2096921,2096921,177916,593657,0
2096921,2096921,178044,593180,0
2096921,2096921,178072,593344,0
2096921,2096921,178125,593680,0
2096921,2096921,178143,593807,0
2096921,2096921,178401,593814,0
2096921,2096921,178185,593884,0
2096921,2096921,178242,593680,0
2096921,2096921,178483,594177,0
2096921,2096921,178443,594144,0
2096921,2096921,178394,594264,0
2096921,2096921,178808,594298,0
2096921,2096921,178476,594361,0
2096921,2096921,178532,594734,0
2096921,2096921,178715,594605,0
2096921,2096921,178671,594433,0
2096921,2096921,178792,594800,0
2096921,2096921,178416,594665,0
2096921,2096921,178603,595071,0
2096921,2096921,178369,594811,0
2096921,2096921,178603,595092,0
2096921,2096921,178735,594852,0
2096921,2096921,178892,595205,0
2096921,2096921,178909,595566,0
2096921,2096921,178918,595303,0
2096921,2096921,178744,595385,0
2096921,2096921,179021,595456,0
2096921,2096921,178604,595543,0
2096921,2096921,178917,595726,0
2096921,2096921,179080,595802,0
2096921,2096921,179180,595837,0
2096921,2096921,179083,595968,0
2096921,2096921,178951,595815,0
2096921,2096921,179379,596562,0
2096921,2096921,179431,596841,0
2096921,2096921,179231,596983,0
2096921,2096921,179408,596621,0
2096921,2096921,179190,596888,0
2096921,2096921,179357,597150,0
2096921,2096921,179406,597328,0
2096921,2096921,179466,596935,0
2096921,2096921,179379,597246,0
2096921,2096921,179756,596939,0
2096921,2096921,179575,597444,0
2096921,2096921,179636,597475,0
2096921,2096921,179614,597838,0
2096921,2096921,179429,597619,0
2096921,2096921,179671,597332,0
2096921,2096921,179423,597657,0
2096921,2096921,179602,597839,0
2096921,2096921,179939,597557,0
2096921,2096921,179814,597894,0
2096921,2096921,179715,597826,0
2096921,2096921,179767,598057,0
2096921,2096921,179616,598389,0
2096921,2096921,180074,598422,0
2096921,2096921,179829,598191,0
2096921,2096921,179662,598027,0
2096921,2096921,179704,598033,0
2096921,2096921,179535,598361,0
2096921,2096921,179724,598140,0
2096921,2096921,179799,598198,0
2096921,2096921,179948,598239,0
2096921,2096921,179962,598515,0
2096921,2096921,179879,598356,0
2096921,2096921,179884,598422,0
2096921,2096921,179939,598382,0
2096921,2096921,179904,598133,0
2096921,2096921,179630,598200,0
2096921,2096921,179542,598146,0
2096921,2096921,179574,598035,0
2096921,2096921,179753,598114,0
2096921,2096921,179807,598134,0
2096921,2096921,179898,598055,0
2096921,2096921,179892,598031,0
2096921,2096921,179734,597974,0
2096921,2096921,179810,597768,0
2096921,2096921,179576,597848,0
2096921,2096921,179374,597651,0
2096921,2096921,179565,597608,0
2096921,2096921,179545,597280,0
2096921,2096921,179831,597546,0
2096921,2096921,179829,597455,0
2096921,2096921,179975,597421,0
2096921,2096921,179617,597108,0
2096921,2096921,179488,597172,0
2096921,2096921,179354,597335,0
2096921,2096921,179362,597228,0
2096921,2096921,179573,596595,0
2096921,2096921,179346,596126,0
2096921,2096921,178945,596315,0
2096921,2096921,179205,596431,0
2096921,2096921,179356,596395,0
2096921,2096921,179322,596275,0
2096921,2096921,179226,596078,0
2096921,2096921,179202,596106,0
2096921,2096921,179054,595916,0
2096921,2096921,179120,595987,0
2096921,2096921,178915,595651,0
2096921,2096921,178939,595391,0
2096921,2096921,179077,595551,0
2096921,2096921,179002,595243,0
2096921,2096921,178976,595240,0
2096921,2096921,178684,594781,0
2096921,2096921,178915,594842,0
2096921,2096921,179081,594786,0
2096921,2096921,178927,595257,0
2096921,2096921,178754,594757,0
2096921,2096921,178525,594482,0
2096921,2096921,178753,594493,0
2096921,2096921,178623,594662,0
2096921,2096921,178719,594556,0
2096921,2096921,178958,594513,0
2096921,2096921,178525,594548,0
2096921,2096921,178668,594512,0
2096921,2096921,178722,594241,0
2096921,2096921,178708,594267,0
2096921,2096921,178737,594370,0
2096921,2096921,178365,594125,0
2096921,2096921,178426,594040,0
2096921,2096921,178475,594123,0
2096921,2096921,178430,594131,0
2096921,2096921,178466,593952,0
2096921,2096921,178702,594033,0
2096921,2096921,178394,594076,0
2096921,2096921,178550,593805,0
2096921,2096921,178446,593729,0
2096921,2096921,178616,593622,0
2096921,2096921,178622,594106,0
2096921,2096921,178463,593771,0
2096921,2096921,178479,593971,0
2096921,2096921,178332,593855,0
2096921,2096921,178527,594027,0
2096921,2096921,178744,594235,0
2096921,2096921,178671,594260,0
2096921,2096921,178490,594244,0
2096921,2096921,178538,594189,0
2096921,2096921,178555,594318,0
2096921,2096921,178629,594443,0
2096921,2096921,178647,594478,0
2096921,2096921,178500,594256,0
2096921,2096921,178640,594230,0
2096921,2096921,178926,594531,0
2096921,2096921,178894,594768,0
2096921,2096921,178995,594888,0
2096921,2096921,178847,594697,0
2096921,2096921,178655,594849,0
2096921,2096921,178789,594476,0
2096921,2096921,178534,594728,0
2096921,2096921,178807,594656,0
2096921,2096921,178815,594657,0
2096921,2096921,178774,594626,0
2096921,2096921,178785,594750,0
2096921,2096921,179157,594871,0
2096921,2096921,178935,594967,0
2096921,2096921,178990,594984,0
2096921,2096921,178923,595059,0
2096921,2096921,178615,594967,0
2096921,2096921,178752,594840,0
2096921,2096921,178852,594833,0
2096921,2096921,178951,595063,0
2096921,2096921,178880,595072,0
2096921,2096921,178912,594983,0
2096921,2096921,178864,595172,0
2096921,2096921,178970,595206,0
2096921,2096921,179106,595418,0
2096921,2096921,178981,595400,0
2096921,2096921,178733,595306,0
2096921,2096921,178732,595218,0
2096921,2096921,178870,595245,0
2096921,2096921,178838,595407,0
2096921,2096921,178994,595561,0
2096921,2096921,179153,595339,0
2096921,2096921,179212,595794,0
2096921,2096921,179103,595819,0
2096921,2096921,179188,595595,0
2096921,2096921,179361,595584,0
2096921,2096921,179439,595618,0
2096921,2096921,179059,595984,0
2096921,2096921,179165,595857,0
2096921,2096921,179269,595551,0
2096921,2096921,179512,595835,0
2096921,2096921,179321,595741,0
2096921,2096921,179304,596138,0
2096921,2096921,179226,596130,0
2096921,2096921,179101,596071,0
2096921,2096921,179284,595941,0
2096921,2096921,179268,596136,0
2096921,2096921,179473,596210,0
2096921,2096921,179187,596283,0
2096921,2096921,179551,596348,0
2096921,2096921,179144,595996,0
2096921,2096921,179300,596343,0
2096921,2096921,179407,596373,0
2096921,2096921,179270,596403,0
2096921,2096921,179537,596541,0
2096921,2096921,179475,596612,0
2096921,2096921,179111,596185,0
2096921,2096921,179439,596582,0
2096921,2096921,179070,596509,0
2096921,2096921,179310,596872,0
2096921,2096921,179146,596246,0
2096921,2096921,179366,596378,0
2096921,2096921,179251,596548,0
2096921,2096921,179759,596833,0
2096921,2096921,179474,596458,0
2096921,2096921,179634,596727,0
2096921,2096921,179495,596554,0
2096921,2096921,179489,596677,0
2096921,2096921,179517,596625,0
2096921,2096921,179503,596669,0
2096921,2096921,179271,596645,0
2096921,2096921,179643,596696,0
2096921,2096921,179340,597144,0
2096921,2096921,179554,596870,0
2096921,2096921,179353,596767,0
2096921,2096921,179408,597238,0
2096921,2096921,179516,597078,0
2096921,2096921,179665,596874,0
2096921,2096921,179255,596837,0
2096921,2096921,179590,596784,0
2096921,2096921,179704,597038,0
2096921,2096921,179793,597240,0
2096921,2096921,179621,597299,0
2096921,2096921,179698,596952,0
2096921,2096921,179626,596990,0
2096921,2096921,179717,597017,0
2096921,2096921,179616,597033,0
2096921,2096921,179681,596955,0
2096921,2096921,179567,596982,0
2096921,2096921,179649,596986,0
2096921,2096921,179664,597102,0
2096921,2096921,179440,596885,0
2096921,2096921,179834,597193,0
2096921,2096921,179738,597235,0
2096921,2096921,179815,597248,0
2096921,2096921,179678,597251,0
2096921,2096921,180033,597171,0
2096921,2096921,179764,597147,0
2096921,2096921,179665,597151,0
2096921,2096921,179707,597200,0
2096921,2096921,179491,597257,0
2096921,2096921,179733,597061,0
2096921,2096921,179782,597247,0
2096921,2096921,179880,597366,0
2096921,2096921,179764,597479,0
2096921,2096921,179742,597525,0
2096921,2096921,179733,597507,0
2096921,2096921,179751,597464,0
2096921,2096921,179657,597360,0
2096921,2096921,179654,597466,0
2096921,2096921,179909,597293,0
2096921,2096921,180026,597432,0
2096921,2096921,179766,597287,0
2096921,2096921,180065,597560,0
2096921,2096921,179975,597821,0
2096921,2096921,179838,597597,0
2096921,2096921,179879,597433,0
2096921,2096921,179649,597321,0
2096921,2096921,179775,597709,0
2096921,2096921,179704,597366,0
2096921,2096921,179952,597242,0
2096921,2096921,180212,597531,0
2096921,2096921,179965,597636,0
2096921,2096921,180160,597828,0
2096921,2096921,180002,597776,0
2096921,2096921,179881,597581,0
2096921,2096921,179824,597702,0
2096921,2096921,179480,597395,0
2096921,2096921,179845,597796,0
2096921,2096921,179812,597583,0
2096921,2096921,179992,597778,0
2096921,2096921,180115,597761,0
2096921,2096921,179919,597712,0
2096921,2096921,180092,597409,0
2096921,2096921,179793,597563,0
2096921,2096921,179819,597880,0
2096921,2096921,179954,597706,0
2096921,2096921,179846,597531,0
2096921,2096921,180068,597723,0
2096921,2096921,179759,597864,0
2096921,2096921,180043,597791,0
2096921,2096921,179694,597429,0
2096921,2096921,180015,597514,0
2096921,2096921,180071,597812,0
2096921,2096921,179801,597765,0
2096921,2096921,179932,597227,0
2096921,2096921,180084,597633,0
2096921,2096921,179767,597770,0
2096921,2096921,179916,597568,0
2096921,2096921,179850,597733,0
2096921,2096921,179586,597887,0
2096921,2096921,179866,597901,0
2096921,2096921,180106,598105,0
2096921,2096921,179954,598026,0
2096921,2096921,179818,598026,0
2096921,2096921,180046,597822,0
2096921,2096921,179946,597540,0
2096921,2096921,179975,597640,0
2096921,2096921,179823,597475,0
2096921,2096921,179950,597768,0
2096921,2096921,180027,597605,0
2096921,2096921,179989,597737,0
2096921,2096921,180035,597821,0
2096921,2096921,179928,597705,0
2096921,2096921,180090,597735,0
2096921,2096921,180045,598011,0
2096921,2096921,180018,597933,0
2096921,2096921,180094,597816,0
2096921,2096921,179687,597719,0
2096921,2096921,179821,598182,0
2096921,2096921,180153,598046,0
2096921,2096921,180012,597829,0
2096921,2096921,180087,597951,0
2096921,2096921,179761,598051,0
2096921,2096921,180030,598044,0
2096921,2096921,180122,598060,0
2096921,2096921,179758,598189,0
2096921,2096921,179725,598105,0
2096921,2096921,179540,597714,0
2096921,2096921,179828,597934,0
2096921,2096921,180007,598026,0
2096921,2096921,179813,598118,0
2096921,2096921,179982,598199,0
2096921,2096921,180112,598173,0
2096921,2096921,179993,598425,0
2096921,2096921,179886,598212,0
2096921,2096921,179948,597996,0
2096921,2096921,180030,598074,0
2096921,2096921,179998,598047,0
2096921,2096921,179890,598076,0
2096921,2096921,179853,598297,0
2096921,2096921,179922,598123,0
2096921,2096921,180043,598264,0
2096921,2096921,179952,598259,0
2096921,2096921,180148,598529,0
2096921,2096921,180280,598402,0
2096921,2096921,179937,598137,0
2096921,2096921,179907,598059,0
2096921,2096921,179962,597784,0
2096921,2096921,179912,598054,0
2096921,2096921,180024,598236,0
2096921,2096921,180187,598405,0
2096921,2096921,180296,598510,0
2096921,2096921,180316,598538,0
2096921,2096921,180225,598153,0
2096921,2096921,180394,598338,0
2096921,2096921,180034,598470,0
2096921,2096921,180051,598402,0
2096921,2096921,179681,598291,0
2096921,2096921,180168,598476,0
2096921,2096921,180163,598169,0
2096921,2096921,180240,598280,0
2096921,2096921,180104,598337,0
2096921,2096921,180368,598237,0
2096921,2096921,180091,598437,0
2096921,2096921,179949,598167,0
2096921,2096921,179935,598349,0
2096921,2096921,180123,598112,0
2096921,2096921,180283,598402,0
2096921,2096921,180284,598379,0
2096921,2096921,179975,598416,0
2096921,2096921,180024,598241,0
2096921,2096921,179789,598545,0
2096921,2096921,179920,598427,0
2096921,2096921,179686,598371,0
2096921,2096921,179859,598516,0
2096921,2096921,179904,598230,0
2096921,2096921,180316,598333,0
2096921,2096921,180131,598268,0
2096921,2096921,180231,598036,0
2096921,2096921,180182,598472,0
2096921,2096921,180003,598359,0
2096921,2096921,180345,598594,0
2096921,2096921,179959,598496,0
2096921,2096921,180208,598512,0
2096921,2096921,180270,598582,0
2096921,2096921,180200,598629,0
2096921,2096921,180151,598429,0
2096921,2096921,179843,598109,0
2096921,2096921,180058,598308,0
2096921,2096921,180012,598132,0
2096921,2096921,180134,598417,0
2096921,2096921,180259,598395,0
2096921,2096921,180248,598303,0
2096921,2096921,180166,598281,0
2096921,2096921,180131,598626,0
2096921,2096921,179979,598168,0
2096921,2096921,180229,598439,0
2096921,2096921,180236,598438,0
2096921,2096921,179949,598296,0
2096921,2096921,180005,598145,0
2096921,2096921,179917,598497,0
2096921,2096921,180135,598408,0
2096921,2096921,180352,598377,0
2096921,2096921,180125,598323,0
2096921,2096921,179984,598490,0
2096921,2096921,180055,598491,0
2096921,2096921,179743,597670,0
2096921,2096921,179722,597755,0
2096921,2096921,179765,597399,0
2096921,2096921,179949,597427,0
2096921,2096921,180002,597675,0
2096921,2096921,179660,596937,0
2096921,2096921,179733,596922,0
2096921,2096921,179930,597154,0
2096921,2096921,179824,597104,0
2096921,2096921,179762,596799,0
2096921,2096921,179366,596079,0
2096921,2096921,179293,595842,0
2096921,2096921,179248,595908,0
2096921,2096921,179164,596256,0
2096921,2096921,179288,595803,0
2096921,2096921,179119,595011,0
2096921,2096921,178977,594605,0
2096921,2096921,178730,594816,0
2096921,2096921,178867,594637,0
2096921,2096921,178699,594894,0
2096921,2096921,178732,593157,0
2096921,2096921,178499,592988,0
2096921,2096921,178334,592725,0
2096921,2096921,178193,592926,0
2096921,2096921,178306,593055,0
2096921,2096921,177862,590556,0
2096921,2096921,177486,589803,0
2096921,2096921,177396,589708,0
2096921,2096921,177163,589820,0
2096921,2096921,177120,589776,0
2096921,2096921,176292,586534,0
2096921,2096921,176031,585772,0
2096921,2096921,175628,585545,0
2096921,2096921,175748,585440,0
2096921,2096921,175861,585353,0
2096921,2096921,175017,585666,0
2096921,2096921,175135,583371,0
2096921,2096921,174832,582550,0
2096921,2096921,174706,582589,0
2096921,2096921,174710,582455,0
2096921,2096921,173907,580325,0
2096921,2096921,173954,580014,0
2096921,2096921,174084,580100,0
2096921,2096921,174179,580217,0
2096921,2096921,174168,579976,0
2096921,2096921,173768,578669,0
2096921,2096921,173614,578463,0
2096921,2096921,173709,578583,0
2096921,2096921,173434,578531,0
2096921,2096921,173463,578587,0
2096921,2096921,173167,576994,0
2096921,2096921,173106,576981,0
2096921,2096921,173028,576802,0
2096921,2096921,172929,577130,0
2096921,2096921,173238,577114,0
2096921,2096921,172852,576059,0
2096921,2096921,173153,576464,0
2096921,2096921,172884,576313,0
2096921,2096921,172810,576205,0
2096921,2096921,172729,576084,0
2096921,2096921,172423,575495,0
2096921,2096921,172487,575777,0
2096921,2096921,172662,575542,0
2096921,2096921,172579,575761,0
2096921,2096921,172336,575513,0
2096921,2096921,172344,575657,0
2096921,2096921,172422,575791,0
2096921,2096921,172317,575733,0
2096921,2096921,172229,575558,0
2096921,2096921,172770,575575,0
2096921,2096921,172679,575285,0
2096921,2096921,172769,575294,0
2096921,2096921,172618,575453,0
2096921,2096921,172846,575808,0
2096921,2096921,172572,575558,0
2096921,2096921,172985,575805,0
2096921,2096921,172616,575880,0
2096921,2096921,172691,575964,0
2096921,2096921,172507,575981,0
2096921,2096921,172855,575787,0
2096921,2096921,172791,575742,0
2096921,2096921,172966,575917,0
2096921,2096921,172839,575789,0
2096921,2096921,172611,575750,0
2096921,2096921,172709,576411,0
2096921,2096921,172836,576515,0
2096921,2096921,172965,576423,0
2096921,2096921,172993,576518,0
2096921,2096921,172922,576415,0
2096921,2096921,172733,576478,0
2096921,2096921,173055,576799,0
2096921,2096921,172962,576839,0
2096921,2096921,172829,576897,0
2096921,2096921,172955,576946,0
2096921,2096921,172970,577041,0
2096921,2096921,173123,577497,0
2096921,2096921,173267,577751,0
2096921,2096921,173142,577856,0
2096921,2096921,173237,577515,0
2096921,2096921,173387,577578,0
2096921,2096921,173247,578295,0
2096921,2096921,173516,578379,0
2096921,2096921,173459,578429,0
2096921,2096921,173400,578614,0
2096921,2096921,173565,578188,0
2096921,2096921,173832,578849,0
2096921,2096921,173889,579172,0
2096921,2096921,173851,578976,0
2096921,2096921,173706,578823,0
2096921,2096921,174005,579088,0
2096921,2096921,173987,579828,0
2096921,2096921,174106,579693,0
2096921,2096921,174119,579956,0
2096921,2096921,173879,579768,0
2096921,2096921,173798,579781,0
2096921,2096921,174225,580443,0
2096921,2096921,174081,580535,0
2096921,2096921,174319,580495,0
2096921,2096921,174321,580589,0
2096921,2096921,174182,580372,0
2096921,2096921,174333,581129,0
2096921,2096921,174436,581053,0
2096921,2096921,174427,581101,0
2096921,2096921,174543,581214,0
2096921,2096921,174448,581313,0
2096921,2096921,174798,581899,0
2096921,2096921,174618,581994,0
2096921,2096921,174945,582322,0
2096921,2096921,174460,582175,0
2096921,2096921,174693,582084,0
2096921,2096921,174824,582878,0
2096921,2096921,175275,582677,0
2096921,2096921,175240,582808,0
2096921,2096921,175087,582977,0
2096921,2096921,174983,582941,0
2096921,2096921,175006,583372,0
2096921,2096921,175364,583681,0
2096921,2096921,175140,583646,0
2096921,2096921,175426,583635,0
2096921,2096921,175295,583590,0
2096921,2096921,175525,584368,0
2096921,2096921,175307,584453,0
2096921,2096921,175668,584478,0
2096921,2096921,175592,584515,0
2096921,2096921,175500,584459,0
2096921,2096921,175601,584982,0
2096921,2096921,175882,585176,0
2096921,2096921,175697,585253,0
2096921,2096921,175738,585273,0
2096921,2096921,175748,585499,0
2096921,2096921,175842,585646,0
2096921,2096921,175814,585579,0
2096921,2096921,175758,585809,0
2096921,2096921,175966,586134,0
2096921,2096921,176267,586165,0
2096921,2096921,176098,586530,0
2096921,2096921,176199,586640,0
2096921,2096921,176046,586650,0
2096921,2096921,176194,586508,0
2096921,2096921,176194,586339,0
2096921,2096921,176146,586818,0
2096921,2096921,176079,586822,0
2096921,2096921,176214,586920,0
2096921,2096921,176099,587071,0
2096921,2096921,176504,587003,0
2096921,2096921,176553,587475,0
2096921,2096921,176746,587766,0
2096921,2096921,176648,587653,0
2096921,2096921,176503,587295,0
2096921,2096921,176486,587399,0
2096921,2096921,176625,587864,0
2096921,2096921,176644,587839,0
2096921,2096921,176897,587655,0
2096921,2096921,176707,587793,0
2096921,2096921,176628,587867,0
2096921,2096921,176849,588332,0
2096921,2096921,177113,588060,0
2096921,2096921,176712,587842,0
2096921,2096921,176518,588149,0
2096921,2096921,176570,588188,0
2096921,2096921,176558,588362,0
2096921,2096921,176696,588302,0
2096921,2096921,176604,588288,0
2096921,2096921,176532,588225,0
2096921,2096921,176771,587745,0
2096921,2096921,176939,588214,0
2096921,2096921,176995,588368,0
2096921,2096921,176947,588299,0
2096921,2096921,176708,588067,0
2096921,2096921,176633,587918,0
2096921,2096921,176677,588059,0
2096921,2096921,176432,587890,0
2096921,2096921,176641,587831,0
2096921,2096921,176677,587769,0
2096921,2096921,176831,587951,0
2096921,2096921,176628,588060,0
2096921,2096921,176825,587649,0
2096921,2096921,176500,588213,0
2096921,2096921,176694,587973,0
2096921,2096921,176433,588162,0
2096921,2096921,176799,587825,0
2096921,2096921,176535,587915,0
2096921,2096921,176604,587749,0
2096921,2096921,176452,588049,0
2096921,2096921,176691,587787,0
2096921,2096921,176718,587715,0
2096921,2096921,176517,587657,0
2096921,2096921,176705,587806,0
2096921,2096921,176987,587824,0
2096921,2096921,176520,587891,0
2096921,2096921,176613,587817,0
2096921,2096921,176618,587863,0
2096921,2096921,176573,587807,0
2096921,2096921,176734,588069,0
2096921,2096921,176872,588024,0
2096921,2096921,176839,588266,0
2096921,2096921,176784,588487,0
2096921,2096921,176693,588658,0
2096921,2096921,176668,588238,0
2096921,2096921,176678,588384,0
2096921,2096921,176458,588284,0
2096921,2096921,176695,588260,0
2096921,2096921,176784,588071,0
2096921,2096921,176873,588384,0
2096921,2096921,177224,588411,0
2096921,2096921,177063,588653,0
2096921,2096921,176992,588902,0
2096921,2096921,176689,588909,0
2096921,2096921,176567,589060,0
2096921,2096921,176887,588614,0
2096921,2096921,177044,589043,0
2096921,2096921,177341,589080,0
2096921,2096921,176805,588906,0
2096921,2096921,177059,589107,0
2096921,2096921,177060,589060,0
2096921,2096921,177328,589839,0
2096921,2096921,177213,590157,0
2096921,2096921,177371,590001,0
2096921,2096921,177546,590257,0
2096921,2096921,177205,589919,0
2096921,2096921,177611,590461,0
2096921,2096921,177558,590778,0
2096921,2096921,177583,590500,0
2096921,2096921,177491,590486,0
2096921,2096921,177606,590506,0
2096921,2096921,177792,591142,0
2096921,2096921,178024,591283,0
2096921,2096921,177681,591656,0
2096921,2096921,177586,591483,0
2096921,2096921,177493,591464,0
2096921,2096921,177950,591916,0
2096921,2096921,177940,592257,0
2096921,2096921,178183,592180,0
2096921,2096921,177885,592315,0
2096921,2096921,177972,592109,0
2096921,2096921,178383,592742,0
2096921,2096921,178078,592594,0
2096921,2096921,178343,592992,0
2096921,2096921,178090,592973,0
2096921,2096921,178096,592666,0
2096921,2096921,178108,593128,0
2096921,2096921,178347,593327,0
2096921,2096921,178171,593111,0
2096921,2096921,178695,593314,0
2096921,2096921,178526,593320,0
2096921,2096921,178691,594239,0
2096921,2096921,178596,594040,0
2096921,2096921,178628,594161,0
2096921,2096921,178710,594198,0
2096921,2096921,178708,594227,0
2096921,2096921,178672,594455,0
2096921,2096921,178839,594506,0
2096921,2096921,178714,594833,0
2096921,2096921,178650,594634,0
2096921,2096921,178895,595051,0
2096921,2096921,179363,595433,0
2096921,2096921,179270,595687,0
2096921,2096921,179095,595385,0
2096921,2096921,178859,595724,0
2096921,2096921,179117,595451,0
2096921,2096921,179344,595916,0
2096921,2096921,179188,595980,0
2096921,2096921,179107,596425,0
2096921,2096921,179264,596235,0
2096921,2096921,179458,596325,0
2096921,2096921,179473,596479,0
2096921,2096921,179383,597018,0
2096921,2096921,179763,596956,0
2096921,2096921,179481,596873,0
2096921,2096921,179546,596752,0
2096921,2096921,179586,597095,0
2096921,2096921,179644,597515,0
2096921,2096921,179794,597440,0
2096921,2096921,179666,597608,0
2096921,2096921,179800,597711,0
2096921,2096921,179757,597831,0
2096921,2096921,180197,597850,0
2096921,2096921,180224,598111,0
2096921,2096921,179796,598246,0
2096921,2096921,179726,598256,0
2096921,2096921,179656,598735,0
2096921,2096921,180000,598813,0
2096921,2096921,180223,598655,0
2096921,2096921,179738,598742,0
2096921,2096921,180396,598986,0
2096921,2096921,180430,599167,0
2096921,2096921,180384,599217,0
2096921,2096921,180450,599410,0
2096921,2096921,180223,599411,0
2096921,2096921,180212,599511,0
2096921,2096921,180443,600173,0
2096921,2096921,180379,600234,0
2096921,2096921,180291,599826,0
2096921,2096921,180433,599724,0
2096921,2096921,180492,599940,0
2096921,2096921,180833,600322,0
2096921,2096921,180780,600655,0
2096921,2096921,180478,600801,0
2096921,2096921,180646,600656,0
2096921,2096921,180792,600553,0
2096921,2096921,181167,601217,0
2096921,2096921,180887,601109,0
2096921,2096921,180823,601279,0
2096921,2096921,180994,601267,0
2096921,2096921,181109,601195,0
2096921,2096921,181251,601718,0
2096921,2096921,181312,601901,0
2096921,2096921,181352,601858,0
2096921,2096921,181213,601892,0
2096921,2096921,181026,601660,0
2096921,2096921,181147,602244,0
2096921,2096921,181247,602358,0
2096921,2096921,181419,602437,0
2096921,2096921,180989,602508,0
2096921,2096921,181154,602512,0
2096921,2096921,181520,602961,0
2096921,2096921,181787,602981,0
2096921,2096921,181908,602881,0
2096921,2096921,181476,602876,0
2096921,2096921,181480,602786,0
2096921,2096921,181481,603457,0
2096921,2096921,181387,603624,0
2096921,2096921,181757,603467,0
2096921,2096921,181648,603355,0
2096921,2096921,181668,603437,0
2096921,2096921,181961,604364,0
2096921,2096921,182044,604411,0
2096921,2096921,181853,604168,0
2096921,2096921,181785,604184,0
2096921,2096921,181725,604279,0
2096921,2096921,181935,604377,0
2096921,2096921,181886,604683,0
2096921,2096921,182154,604747,0
2096921,2096921,181833,604894,0
2096921,2096921,181916,604782,0
2096921,2096921,182062,604981,0
2096921,2096921,182184,605161,0
2096921,2096921,182050,605133,0
2096921,2096921,182347,605218,0
2096921,2096921,182356,605365,0
2096921,2096921,182094,605628,0
2096921,2096921,182470,605436,0
2096921,2096921,182437,605834,0
2096921,2096921,182649,605592,0
2096921,2096921,182347,605825,0
2096921,2096921,182814,606295,0
2096921,2096921,182548,605957,0
2096921,2096921,182438,606216,0
2096921,2096921,182390,606227,0
2096921,2096921,182224,606179,0
2096921,2096921,182610,606574,0
2096921,2096921,182619,606702,0
2096921,2096921,182540,606720,0
2096921,2096921,182371,606805,0
2096921,2096921,182759,606857,0
2096921,2096921,182893,607395,0
2096921,2096921,182939,607516,0
2096921,2096921,182817,607446,0
2096921,2096921,182784,607229,0
2096921,2096921,182694,606947,0
2096921,2096921,182717,607483,0
2096921,2096921,182969,607776,0
2096921,2096921,182938,607411,0
2096921,2096921,182816,607362,0
2096921,2096921,182941,607622,0
2096921,2096921,182933,607746,0
2096921,2096921,183149,607948,0
2096921,2096921,183207,608080,0
2096921,2096921,183407,608105,0
2096921,2096921,182717,608005,0
2096921,2096921,183272,608179,0
2096921,2096921,183161,608409,0
2096921,2096921,183299,608684,0
2096921,2096921,183226,608591,0
2096921,2096921,183536,608707,0
2096921,2096921,183411,608783,0
2096921,2096921,183582,609087,0
2096921,2096921,183358,609024,0
2096921,2096921,183657,609226,0
2096921,2096921,183407,609091,0
2096921,2096921,183541,609291,0
2096921,2096921,183600,609280,0
2096921,2096921,183532,609304,0
2096921,2096921,183701,609263,0
2096921,2096921,183842,609376,0
2096921,2096921,183906,609926,0
2096921,2096921,183835,609854,0
2096921,2096921,183755,609736,0
2096921,2096921,183925,609728,0
2096921,2096921,183708,609879,0
2096921,2096921,183754,610156,0
2096921,2096921,183824,610216,0
2096921,2096921,183731,610195,0
2096921,2096921,183708,610291,0
2096921,2096921,183772,610374,0
2096921,2096921,183855,610694,0
2096921,2096921,183842,610889,0
2096921,2096921,184022,610695,0
2096921,2096921,184160,610731,0
2096921,2096921,183825,610773,0
2096921,2096921,183646,611055,0
2096921,2096921,184172,611186,0
2096921,2096921,184104,611357,0
2096921,2096921,184296,611434,0
2096921,2096921,184185,611413,0
2096921,2096921,184371,611241,0
2096921,2096921,184329,611632,0
2096921,2096921,184156,611793,0
2096921,2096921,184050,611649,0
2096921,2096921,184241,611680,0
2096921,2096921,184176,611797,0
2096921,2096921,184491,611849,0
2096921,2096921,184390,612130,0
2096921,2096921,184538,612164,0
2096921,2096921,184425,612027,0
2096921,2096921,184660,612480,0
2096921,2096921,184514,612427,0
2096921,2096921,184567,612618,0
2096921,2096921,184669,612691,0
2096921,2096921,184605,612700,0
2096921,2096921,184392,612666,0
2096921,2096921,184521,612879,0
2096921,2096921,184481,612920,0
2096921,2096921,184659,612595,0
2096921,2096921,184459,612937,0
2096921,2096921,184614,613329,0
2096921,2096921,184774,613669,0
2096921,2096921,184790,613315,0
2096921,2096921,184577,613560,0
2096921,2096921,184673,613182,0
2096921,2096921,184540,613931,0
2096921,2096921,184762,613602,0
2096921,2096921,184684,613553,0
2096921,2096921,184733,613695,0
2096921,2096921,184986,613825,0
2096921,2096921,185188,613820,0
2096921,2096921,184852,614274,0
2096921,2096921,184855,613987,0
2096921,2096921,184932,614168,0
2096921,2096921,185264,613883,0
2096921,2096921,184907,613919,0
2096921,2096921,184800,613920,0
2096921,2096921,185070,614037,0
2096921,2096921,184918,614437,0
2096921,2096921,184982,614445,0
2096921,2096921,185079,614683,0
2096921,2096921,185277,614994,0
2096921,2096921,185032,614622,0
2096921,2096921,184927,614677,0
2096921,2096921,184942,614354,0
2096921,2096921,185142,614744,0
2096921,2096921,185164,614751,0
2096921,2096921,185305,614886,0
2096921,2096921,184996,614399,0
2096921,2096921,185295,615042,0
2096921,2096921,185459,615299,0
2096921,2096921,185528,615305,0
2096921,2096921,185550,615191,0
2096921,2096921,185376,615250,0
2096921,2096921,185539,615202,0
2096921,2096921,185496,615035,0
2096921,2096921,185517,614869,0
2096921,2096921,185459,615106,0
2096921,2096921,185562,615227,0
2096921,2096921,185563,615345,0
2096921,2096921,185566,615334,0
2096921,2096921,185731,615679,0
2096921,2096921,185537,615543,0
2096921,2096921,185612,615636,0
2096921,2096921,185388,615292,0
2096921,2096921,185329,615609,0
2096921,2096921,185761,615857,0
2096921,2096921,185565,615738,0
2096921,2096921,185676,615722,0
2096921,2096921,185743,615900,0
2096921,2096921,185696,615885,0
2096921,2096921,185699,616034,0
2096921,2096921,185765,615980,0
2096921,2096921,185762,615900,0
2096921,2096921,185793,615996,0
2096921,2096921,185655,615478,0
2096921,2096921,185483,615277,0
2096921,2096921,185459,615437,0
2096921,2096921,185561,615456,0
2096921,2096921,185498,615602,0
2096921,2096921,185504,615468,0
2096921,2096921,185571,615495,0
2096921,2096921,185261,615158,0
2096921,2096921,185461,615113,0
2096921,2096921,185095,615004,0
2096921,2096921,185277,614558,0
2096921,2096921,185150,614136,0
2096921,2096921,185174,614195,0
2096921,2096921,185077,614223,0
2096921,2096921,185082,614288,0
2096921,2096921,185008,613466,0
2096921,2096921,185055,613243,0
2096921,2096921,184631,613413,0
2096921,2096921,184761,613590,0
2096921,2096921,184737,613405,0
2096921,2096921,184543,612276,0
2096921,2096921,184202,612162,0
2096921,2096921,184313,611884,0
2096921,2096921,184279,612148,0
2096921,2096921,184481,612169,0
2096921,2096921,183348,609622,0
2096921,2096921,183475,608992,0
2096921,2096921,183190,609064,0
2096921,2096921,183157,608978,0
2096921,2096921,182963,608727,0
2096921,2096921,182162,605415,0
2096921,2096921,182084,604992,0
2096921,2096921,181812,604657,0
2096921,2096921,181593,604871,0
2096921,2096921,181974,604945,0
2096921,2096921,181158,602566,0
2096921,2096921,181073,602080,0
2096921,2096921,180867,602459,0
2096921,2096921,180939,602323,0
2096921,2096921,181076,602159,0
2096921,2096921,180202,601941,0
2096921,2096921,180138,600499,0
2096921,2096921,180012,599982,0
2096921,2096921,180411,600044,0
2096921,2096921,180492,600125,0
2096921,2096921,179869,599003,0
2096921,2096921,179694,598750,0
2096921,2096921,179545,598695,0
2096921,2096921,179674,598464,0
2096921,2096921,179890,598328,0
2096921,2096921,179624,597755,0
2096921,2096921,179226,597497,0
2096921,2096921,179278,597353,0
2096921,2096921,179075,597394,0
2096921,2096921,179369,597380,0
2096921,2096921,179117,597164,0
2096921,2096921,179055,596808,0
2096921,2096921,179461,596892,0
2096921,2096921,179222,596546,0
2096921,2096921,179326,596861,0
2096921,2096921,179160,596519,0
2096921,2096921,179055,596689,0
2096921,2096921,179278,596441,0
2096921,2096921,179179,596690,0
2096921,2096921,179183,596403,0
2096921,2096921,179416,596629,0
2096921,2096921,179323,596729,0
2096921,2096921,179457,596546,0
2096921,2096921,179324,596619,0
2096921,2096921,179188,596345,0
2096921,2096921,179047,596650,0
2096921,2096921,179164,596893,0
2096921,2096921,179352,596599,0
2096921,2096921,179247,596915,0
2096921,2096921,179193,596950,0
2096921,2096921,179149,597275,0
2096921,2096921,179409,597584,0
2096921,2096921,179407,597192,0
2096921,2096921,179576,597161,0
2096921,2096921,179188,597123,0
2096921,2096921,179442,597611,0
2096921,2096921,179635,597674,0
2096921,2096921,179270,597730,0
2096921,2096921,179378,598087,0
2096921,2096921,179306,597872,0
2096921,2096921,179525,598187,0
2096921,2096921,179773,598318,0
2096921,2096921,179537,598181,0
2096921,2096921,179408,598190,0
2096921,2096921,179685,597942,0
2096921,2096921,179400,598679,0
2096921,2096921,179826,598623,0
2096921,2096921,179862,598620,0
2096921,2096921,179983,598775,0
2096921,2096921,179843,599092,0
2096921,2096921,179930,599393,0
2096921,2096921,180085,599756,0
2096921,2096921,180035,599402,0
2096921,2096921,180017,599618,0
2096921,2096921,180063,599637,0
2096921,2096921,180289,600232,0
2096921,2096921,180545,600255,0
2096921,2096921,180475,600072,0
2096921,2096921,180882,600680,0
2096921,2096921,180624,600772,0
2096921,2096921,180843,601527,0
2096921,2096921,180970,601729,0
2096921,2096921,180560,601592,0
2096921,2096921,180566,601454,0
2096921,2096921,180700,601419,0
2096921,2096921,180899,601924,0
2096921,2096921,181018,602089,0
2096921,2096921,181061,602454,0
2096921,2096921,181189,602810,0
2096921,2096921,181158,602906,0
2096921,2096921,181460,603233,0
2096921,2096921,181297,603479,0
2096921,2096921,181476,603594,0
2096921,2096921,181563,603029,0
2096921,2096921,181398,603324,0
2096921,2096921,181208,603917,0
2096921,2096921,181494,604072,0
2096921,2096921,181447,603788,0
2096921,2096921,181638,604092,0
2096921,2096921,181489,604197,0
2096921,2096921,181956,604986,0
2096921,2096921,181790,605217,0
2096921,2096921,181768,604997,0
2096921,2096921,181877,605162,0
2096921,2096921,182194,605015,0
2096921,2096921,182377,605867,0
2096921,2096921,182213,605897,0
2096921,2096921,182172,605867,0
2096921,2096921,182221,605953,0
2096921,2096921,182082,605970,0
2096921,2096921,182489,606873,0
2096921,2096921,182446,606957,0
2096921,2096921,182452,606791,0
2096921,2096921,182427,606977,0
2096921,2096921,182257,606585,0
2096921,2096921,182593,607452,0
2096921,2096921,182858,607490,0
2096921,2096921,182668,607709,0
2096921,2096921,182866,607756,0
2096921,2096921,182605,608002,0
2096921,2096921,183145,608449,0
2096921,2096921,183254,608637,0
2096921,2096921,183137,608562,0
2096921,2096921,183174,608603,0
2096921,2096921,182888,608525,0
2096921,2096921,183237,609000,0
2096921,2096921,183209,609240,0
2096921,2096921,183355,609205,0
2096921,2096921,183422,609145,0
2096921,2096921,183394,609092,0
2096921,2096921,183507,609901,0
2096921,2096921,183586,610268,0
2096921,2096921,183638,609964,0
2096921,2096921,183529,610008,0
2096921,2096921,183277,609916,0
2096921,2096921,183683,610440,0
2096921,2096921,183471,610308,0
2096921,2096921,183626,610732,0
2096921,2096921,183911,610433,0
2096921,2096921,183714,610552,0
2096921,2096921,183781,610866,0
2096921,2096921,183707,610791,0
2096921,2096921,183887,610901,0
2096921,2096921,184027,610951,0
2096921,2096921,183784,611149,0
2096921,2096921,183851,611038,0
2096921,2096921,183725,611216,0
2096921,2096921,184290,611100,0
2096921,2096921,183923,611341,0
2096921,2096921,183962,611262,0
2096921,2096921,183997,611711,0
2096921,2096921,183658,611274,0
2096921,2096921,183876,611356,0
2096921,2096921,183748,611422,0
2096921,2096921,184023,611178,0
2096921,2096921,183929,611454,0
2096921,2096921,183763,611303,0
2096921,2096921,183912,611465,0
2096921,2096921,184022,611067,0
2096921,2096921,184061,611281,0
2096921,2096921,184012,611196,0
2096921,2096921,184323,611342,0
2096921,2096921,183826,611102,0
2096921,2096921,183839,611332,0
2096921,2096921,183866,611168,0
2096921,2096921,183973,611125,0
2096921,2096921,183777,611183,0
2096921,2096921,183785,611313,0
2096921,2096921,183794,610918,0
2096921,2096921,184017,610967,0
2096921,2096921,183691,610801,0
2096921,2096921,183610,610995,0
2096921,2096921,183696,611127,0
2096921,2096921,183946,610893,0
2096921,2096921,183706,610967,0
2096921,2096921,183522,610745,0
2096921,2096921,183653,610756,0
2096921,2096921,183646,610910,0
2096921,2096921,183936,610781,0
2096921,2096921,183801,610537,0
2096921,2096921,183722,610609,0
2096921,2096921,183747,610484,0
2096921,2096921,183671,610310,0
2096921,2096921,183598,610286,0
2096921,2096921,183701,610170,0
2096921,2096921,183578,610234,0
2096921,2096921,183646,610359,0
2096921,2096921,183564,610325,0
2096921,2096921,183702,610326,0
2096921,2096921,183476,610498,0
2096921,2096921,183573,610567,0
2096921,2096921,183700,610525,0
2096921,2096921,183635,610757,0
2096921,2096921,183620,610404,0
2096921,2096921,183255,610348,0
2096921,2096921,183398,610288,0
2096921,2096921,183344,610994,0
2096921,2096921,183528,610438,0
2096921,2096921,183522,610435,0
2096921,2096921,183639,610649,0
2096921,2096921,183648,610859,0
2096921,2096921,183913,610701,0
2096921,2096921,183789,611000,0
2096921,2096921,183622,610800,0
2096921,2096921,183490,610794,0
2096921,2096921,183799,611148,0
2096921,2096921,183809,611017,0
2096921,2096921,183849,610675,0
2096921,2096921,183755,611013,0
2096921,2096921,183534,611235,0
2096921,2096921,184231,611692,0
2096921,2096921,184165,611745,0
2096921,2096921,184311,611364,0
2096921,2096921,184218,611607,0
2096921,2096921,183818,611739,0
2096921,2096921,184108,612165,0
2096921,2096921,184186,612214,0
2096921,2096921,184115,612165,0
2096921,2096921,183923,612251,0
2096921,2096921,184028,612207,0
2096921,2096921,184369,612438,0
2096921,2096921,184326,612641,0
