2096921,2096921,159082,664160,0
2096921,2096921,159200,664347,0
2096921,2096921,158968,664461,0
2096921,2096921,159134,664227,0
2096921,2096921,159130,664539,0
2096921,2096921,159095,664512,0
2096921,2096921,159288,664470,0
2096921,2096921,159107,664335,0
2096921,2096921,159176,664184,0
2096921,2096921,159047,664213,0
2096921,2096921,159263,664303,0
2096921,2096921,159135,664282,0
2096921,2096921,159069,664314,0
2096921,2096921,159221,664151,0
2096921,2096921,159193,664267,0
2096921,2096921,158900,664092,0
2096921,2096921,159268,664250,0
2096921,2096921,159412,664254,0
2096921,2096921,159073,664018,0
2096921,2096921,159405,664248,0
2096921,2096921,159199,664181,0
2096921,2096921,159731,664135,0
2096921,2096921,159309,664316,0
2096921,2096921,159270,664172,0
2096921,2096921,159107,664284,0
2096921,2096921,159372,664223,0
2096921,2096921,159357,664321,0
2096921,2096921,159065,664368,0
2096921,2096921,159095,664091,0
2096921,2096921,159068,663719,0
2096921,2096921,159364,664024,0
2096921,2096921,159215,664150,0
2096921,2096921,159143,664451,0
2096921,2096921,159144,664137,0
2096921,2096921,159058,663843,0
2096921,2096921,159258,663980,0
2096921,2096921,159182,663999,0
2096921,2096921,159043,664028,0
2096921,2096921,159322,664141,0
2096921,2096921,159234,664098,0
2096921,2096921,159255,664057,0
2096921,2096921,159249,664070,0
2096921,2096921,159440,664266,0
2096921,2096921,159360,664018,0
2096921,2096921,159543,664197,0
2096921,2096921,159494,663908,0
2096921,2096921,159102,664065,0
2096921,2096921,159382,664069,0
2096921,2096921,159575,664148,0
2096921,2096921,159224,664115,0
2096921,2096921,159469,663792,0
2096921,2096921,159217,663839,0
2096921,2096921,159281,664028,0
2096921,2096921,159321,664234,0
2096921,2096921,159359,664092,0
2096921,2096921,159397,663983,0
2096921,2096921,159029,664158,0
2096921,2096921,159255,663862,0
2096921,2096921,159224,663530,0
2096921,2096921,159399,663943,0
2096921,2096921,159300,663802,0
2096921,2096921,159358,663919,0
2096921,2096921,159355,663538,0
2096921,2096921,159298,664081,0
2096921,2096921,159303,663738,0
2096921,2096921,159300,663830,0
2096921,2096921,159182,663911,0
2096921,2096921,159258,663994,0
2096921,2096921,159439,664099,0
2096921,2096921,159503,664194,0
2096921,2096921,159268,663990,0
2096921,2096921,159631,663884,0
2096921,2096921,159367,663765,0
2096921,2096921,159310,663808,0
2096921,2096921,159141,664187,0
2096921,2096921,159212,663949,0
2096921,2096921,159292,663724,0
2096921,2096921,159182,663825,0
2096921,2096921,159074,663817,0
2096921,2096921,159240,663710,0
2096921,2096921,159433,663913,0
2096921,2096921,159437,663616,0
2096921,2096921,159270,663748,0
2096921,2096921,159205,663688,0
2096921,2096921,159398,663789,0
2096921,2096921,159500,663660,0
2096921,2096921,159295,663799,0
2096921,2096921,159357,663946,0
2096921,2096921,159124,664032,0
2096921,2096921,159301,663601,0
2096921,2096921,159256,663629,0
2096921,2096921,159086,663628,0
2096921,2096921,159219,663692,0
2096921,2096921,159477,663643,0
2096921,2096921,159228,663618,0
2096921,2096921,159361,663619,0
2096921,2096921,159369,663680,0
2096921,2096921,159350,663882,0
2096921,2096921,159124,663890,0
2096921,2096921,159133,664022,0
2096921,2096921,159532,663862,0
2096921,2096921,159569,663808,0
2096921,2096921,159314,663763,0
2096921,2096921,159199,663873,0
2096921,2096921,159283,663415,0
2096921,2096921,159165,663632,0
2096921,2096921,159480,663812,0
2096921,2096921,159410,663705,0
2096921,2096921,159276,663898,0
2096921,2096921,159432,663913,0
2096921,2096921,159382,663902,0
2096921,2096921,159517,663708,0
2096921,2096921,159587,663766,0
2096921,2096921,159321,663885,0
2096921,2096921,159061,663660,0
2096921,2096921,159176,663656,0
2096921,2096921,159332,663621,0
2096921,2096921,159076,663727,0
2096921,2096921,159554,663790,0
2096921,2096921,159694,663812,0
2096921,2096921,159579,663752,0
2096921,2096921,159599,663765,0
2096921,2096921,159234,663933,0
2096921,2096921,159351,663806,0
2096921,2096921,159386,663835,0
2096921,2096921,159344,663717,0
2096921,2096921,159252,663705,0
2096921,2096921,159331,663954,0
2096921,2096921,159282,663809,0
2096921,2096921,159725,663980,0
2096921,2096921,159249,664033,0
2096921,2096921,159711,663829,0
2096921,2096921,159573,663994,0
2096921,2096921,159521,663947,0
2096921,2096921,159327,663890,0
2096921,2096921,159319,663570,0
2096921,2096921,159223,663398,0
2096921,2096921,159223,663531,0
2096921,2096921,159151,663613,0
2096921,2096921,159716,663810,0
2096921,2096921,159389,663910,0
2096921,2096921,159234,663734,0
2096921,2096921,159399,663715,0
2096921,2096921,159264,663873,0
2096921,2096921,159178,663544,0
2096921,2096921,159213,663579,0
2096921,2096921,159441,663940,0
2096921,2096921,159266,663721,0
2096921,2096921,159169,663722,0
2096921,2096921,159325,663721,0
2096921,2096921,159368,663618,0
2096921,2096921,159305,663819,0
2096921,2096921,159488,663555,0
2096921,2096921,159443,663865,0
2096921,2096921,159421,663680,0
2096921,2096921,159547,663681,0
2096921,2096921,159222,663903,0
2096921,2096921,159360,663938,0
2096921,2096921,159427,663893,0
2096921,2096921,159266,663860,0
2096921,2096921,159446,663788,0
2096921,2096921,159307,663762,0
2096921,2096921,159411,663891,0
2096921,2096921,159369,663891,0
2096921,2096921,159419,663691,0
2096921,2096921,159404,663681,0
2096921,2096921,159126,663650,0
2096921,2096921,159267,663630,0
2096921,2096921,159549,663724,0
2096921,2096921,159389,663504,0
2096921,2096921,159662,663835,0
2096921,2096921,159298,663803,0
2096921,2096921,159393,663710,0
2096921,2096921,159563,663761,0
2096921,2096921,159195,663703,0
2096921,2096921,159391,663817,0
2096921,2096921,159517,663656,0
2096921,2096921,159099,663519,0
2096921,2096921,159094,663545,0
2096921,2096921,159125,663362,0
2096921,2096921,159287,663279,0
2096921,2096921,159018,663292,0
2096921,2096921,159257,663189,0
2096921,2096921,159109,663039,0
2096921,2096921,159027,662647,0
2096921,2096921,159261,663124,0
2096921,2096921,158746,663182,0
2096921,2096921,158741,662673,0
2096921,2096921,158959,662495,0
2096921,2096921,159040,662273,0
2096921,2096921,158818,662122,0
2096921,2096921,158877,662351,0
2096921,2096921,158581,661798,0
2096921,2096921,158715,661772,0
2096921,2096921,158532,661609,0
2096921,2096921,158519,661725,0
2096921,2096921,158162,661650,0
2096921,2096921,158179,661142,0
2096921,2096921,158047,661242,0
2096921,2096921,158129,661005,0
2096921,2096921,158150,661417,0
2096921,2096921,157763,661257,0
2096921,2096921,157489,659873,0
2096921,2096921,157524,659713,0
2096921,2096921,157450,659592,0
2096921,2096921,157394,659419,0
2096921,2096921,156805,659355,0
2096921,2096921,156642,657950,0
2096921,2096921,156515,657304,0
2096921,2096921,156691,657181,0
2096921,2096921,156680,657275,0
2096921,2096921,155921,657369,0
2096921,2096921,155679,656185,0
2096921,2096921,155976,656203,0
2096921,2096921,155712,655912,0
2096921,2096921,156090,655888,0
2096921,2096921,155313,655973,0
2096921,2096921,155430,655034,0
2096921,2096921,155369,654859,0
2096921,2096921,155246,654850,0
2096921,2096921,155227,655024,0
2096921,2096921,154885,654541,0
2096921,2096921,154787,654216,0
2096921,2096921,154864,654247,0
2096921,2096921,154762,653899,0
2096921,2096921,154898,653865,0
2096921,2096921,154596,654268,0
2096921,2096921,154631,653706,0
2096921,2096921,154701,653157,0
2096921,2096921,154947,653093,0
2096921,2096921,154752,653174,0
2096921,2096921,154781,653261,0
2096921,2096921,154440,653234,0
2096921,2096921,154068,652796,0
2096921,2096921,154486,653139,0
2096921,2096921,154544,653113,0
2096921,2096921,154148,653045,0
2096921,2096921,154334,652483,0
2096921,2096921,154271,652704,0
2096921,2096921,154259,652348,0
2096921,2096921,154461,652846,0
2096921,2096921,154487,652526,0
2096921,2096921,154522,652498,0
2096921,2096921,154429,652508,0
2096921,2096921,154044,652577,0
2096921,2096921,154324,652519,0
2096921,2096921,153994,652594,0
2096921,2096921,153795,652568,0
2096921,2096921,154460,652487,0
2096921,2096921,154281,652414,0
2096921,2096921,154246,652450,0
2096921,2096921,154355,652313,0
2096921,2096921,154359,652463,0
2096921,2096921,154302,652606,0
2096921,2096921,154302,652560,0
2096921,2096921,154326,652924,0
2096921,2096921,154187,652532,0
2096921,2096921,154263,652773,0
2096921,2096921,154374,652664,0
2096921,2096921,154614,652791,0
2096921,2096921,154325,652794,0
2096921,2096921,154455,652921,0
2096921,2096921,154314,652973,0
2096921,2096921,154268,653022,0
2096921,2096921,154253,653204,0
2096921,2096921,154612,653232,0
2096921,2096921,154529,653004,0
2096921,2096921,154851,653076,0
2096921,2096921,154567,653195,0
2096921,2096921,154716,653095,0
2096921,2096921,154589,653137,0
2096921,2096921,154722,653276,0
2096921,2096921,154803,653461,0
2096921,2096921,154917,653501,0
2096921,2096921,154562,653598,0
2096921,2096921,154967,653686,0
2096921,2096921,154706,653323,0
2096921,2096921,154932,653769,0
2096921,2096921,154661,653856,0
2096921,2096921,154751,653937,0
2096921,2096921,155096,654132,0
2096921,2096921,155240,654168,0
2096921,2096921,155005,654281,0
2096921,2096921,154914,653954,0
2096921,2096921,154980,654254,0
2096921,2096921,155134,654253,0
2096921,2096921,155149,654503,0
2096921,2096921,155139,654477,0
2096921,2096921,155156,654500,0
2096921,2096921,155272,654575,0
2096921,2096921,155219,654614,0
2096921,2096921,155270,654997,0
2096921,2096921,155367,655176,0
2096921,2096921,155400,655111,0
2096921,2096921,155409,655102,0
2096921,2096921,155374,654929,0
2096921,2096921,155328,655107,0
2096921,2096921,155542,655188,0
2096921,2096921,155383,655415,0
2096921,2096921,155270,655303,0
2096921,2096921,155431,655344,0
2096921,2096921,155622,655106,0
2096921,2096921,155729,655917,0
2096921,2096921,155351,656034,0
2096921,2096921,155658,655586,0
2096921,2096921,155640,655855,0
2096921,2096921,155815,655825,0
2096921,2096921,156017,656039,0
2096921,2096921,155814,656133,0
2096921,2096921,155808,656168,0
2096921,2096921,155934,656274,0
2096921,2096921,156136,656441,0
2096921,2096921,156152,656585,0
2096921,2096921,156278,656704,0
2096921,2096921,156183,656432,0
2096921,2096921,156088,656479,0
2096921,2096921,155968,656571,0
2096921,2096921,156078,656799,0
2096921,2096921,156209,656691,0
2096921,2096921,156436,656884,0
2096921,2096921,156228,656960,0
2096921,2096921,156297,657063,0
2096921,2096921,156326,657446,0
2096921,2096921,156320,657651,0
2096921,2096921,156471,657590,0
2096921,2096921,156447,657370,0
2096921,2096921,156258,657303,0
2096921,2096921,156390,657337,0
2096921,2096921,156494,657532,0
2096921,2096921,156621,657542,0
2096921,2096921,156539,657895,0
2096921,2096921,156589,657702,0
2096921,2096921,156758,658145,0
2096921,2096921,156684,658118,0
2096921,2096921,156784,658069,0
2096921,2096921,156681,658002,0
2096921,2096921,157018,658015,0
2096921,2096921,156895,658279,0
2096921,2096921,156902,658160,0
2096921,2096921,156920,658329,0
2096921,2096921,156812,658079,0
2096921,2096921,156711,658621,0
2096921,2096921,156982,658697,0
2096921,2096921,156976,658347,0
2096921,2096921,157164,658481,0
2096921,2096921,157023,658395,0
2096921,2096921,156950,658478,0
2096921,2096921,156941,658465,0
2096921,2096921,156960,658552,0
2096921,2096921,156998,658598,0
2096921,2096921,157096,658819,0
2096921,2096921,156775,658606,0
2096921,2096921,156777,658937,0
2096921,2096921,156921,658925,0
2096921,2096921,156906,658804,0
2096921,2096921,156989,658994,0
2096921,2096921,157003,658699,0
2096921,2096921,157018,658987,0
2096921,2096921,156910,658754,0
2096921,2096921,156736,658655,0
2096921,2096921,157145,658676,0
2096921,2096921,157000,659102,0
2096921,2096921,156989,658992,0
2096921,2096921,157026,659008,0
2096921,2096921,156823,659096,0
2096921,2096921,157046,659143,0
2096921,2096921,156896,658898,0
2096921,2096921,157005,658761,0
2096921,2096921,156971,658856,0
2096921,2096921,157259,658860,0
2096921,2096921,156883,658888,0
2096921,2096921,157426,659017,0
2096921,2096921,157192,659002,0
2096921,2096921,157016,658655,0
2096921,2096921,156890,659133,0
2096921,2096921,156677,658917,0
2096921,2096921,157015,659082,0
2096921,2096921,157146,659332,0
2096921,2096921,156907,659110,0
2096921,2096921,157031,659040,0
2096921,2096921,156957,658957,0
2096921,2096921,156926,658911,0
2096921,2096921,157074,659073,0
2096921,2096921,156945,659271,0
2096921,2096921,156865,659083,0
2096921,2096921,157179,658938,0
2096921,2096921,156659,658949,0
2096921,2096921,156934,658914,0
2096921,2096921,157051,659103,0
2096921,2096921,157192,659130,0
2096921,2096921,157058,659365,0
2096921,2096921,156823,659403,0
2096921,2096921,156779,659283,0
2096921,2096921,156679,659220,0
2096921,2096921,157060,659320,0
2096921,2096921,156979,659326,0
2096921,2096921,157082,659163,0
2096921,2096921,156967,659434,0
2096921,2096921,157126,659595,0
2096921,2096921,156856,659591,0
2096921,2096921,156793,659298,0
2096921,2096921,156928,659541,0
2096921,2096921,157046,659541,0
2096921,2096921,156716,659778,0
2096921,2096921,157193,659922,0
2096921,2096921,157034,659715,0
2096921,2096921,156864,659342,0
2096921,2096921,156903,659897,0
2096921,2096921,157310,659978,0
2096921,2096921,157607,660171,0
2096921,2096921,157353,659988,0
2096921,2096921,157321,660065,0
2096921,2096921,157288,660118,0
2096921,2096921,157618,660035,0
2096921,2096921,157012,660316,0
2096921,2096921,157306,660200,0
2096921,2096921,157402,660477,0
2096921,2096921,157642,660763,0
2096921,2096921,157467,660765,0
2096921,2096921,157705,660657,0
2096921,2096921,157511,660543,0
2096921,2096921,157715,660601,0
2096921,2096921,157767,661035,0
2096921,2096921,157545,661226,0
2096921,2096921,157518,661362,0
2096921,2096921,157687,661497,0
2096921,2096921,157731,661784,0
2096921,2096921,157840,661431,0
2096921,2096921,157869,661641,0
2096921,2096921,158033,661483,0
2096921,2096921,157616,661599,0
2096921,2096921,158053,661547,0
2096921,2096921,158180,662010,0
2096921,2096921,157717,662057,0
2096921,2096921,157919,662167,0
2096921,2096921,157884,661804,0
2096921,2096921,158011,661821,0
2096921,2096921,157953,662315,0
2096921,2096921,158147,662208,0
2096921,2096921,158139,662281,0
2096921,2096921,158241,662446,0
2096921,2096921,158164,662330,0
2096921,2096921,158200,662512,0
2096921,2096921,158156,662637,0
2096921,2096921,158351,662589,0
2096921,2096921,158146,662786,0
2096921,2096921,158274,663126,0
2096921,2096921,158389,662918,0
2096921,2096921,158178,662998,0
2096921,2096921,158121,663255,0
2096921,2096921,158011,662949,0
2096921,2096921,158224,663078,0
2096921,2096921,158521,663666,0
2096921,2096921,158648,663597,0
2096921,2096921,158508,663754,0
2096921,2096921,158473,663455,0
2096921,2096921,158459,663477,0
2096921,2096921,158832,663953,0
2096921,2096921,158754,663791,0
2096921,2096921,158633,664273,0
2096921,2096921,158719,664051,0
2096921,2096921,158809,664369,0
2096921,2096921,158705,664268,0
2096921,2096921,158881,664382,0
2096921,2096921,158802,664421,0
2096921,2096921,158583,664306,0
2096921,2096921,158678,664336,0
2096921,2096921,159066,664781,0
2096921,2096921,158967,664770,0
2096921,2096921,159163,664731,0
2096921,2096921,159058,664673,0
2096921,2096921,158997,664628,0
2096921,2096921,159341,665584,0
2096921,2096921,159161,665432,0
2096921,2096921,159080,665290,0
2096921,2096921,159228,664818,0
2096921,2096921,159298,665273,0
2096921,2096921,159064,665414,0
2096921,2096921,159230,665454,0
2096921,2096921,159278,665413,0
2096921,2096921,159261,665541,0
2096921,2096921,159449,665606,0
2096921,2096921,159526,665952,0
2096921,2096921,159653,665858,0
2096921,2096921,159429,666173,0
2096921,2096921,159590,665979,0
2096921,2096921,159583,665798,0
2096921,2096921,159515,666348,0
2096921,2096921,159439,666329,0
2096921,2096921,159458,666413,0
2096921,2096921,159557,666193,0
2096921,2096921,159559,666209,0
2096921,2096921,159761,666582,0
2096921,2096921,159447,667008,0
2096921,2096921,159394,666964,0
2096921,2096921,159622,667106,0
2096921,2096921,159612,666921,0
2096921,2096921,159492,667264,0
2096921,2096921,159534,667171,0
2096921,2096921,159690,667251,0
2096921,2096921,159819,667169,0
2096921,2096921,159791,667467,0
2096921,2096921,160115,667617,0
2096921,2096921,159867,667699,0
2096921,2096921,159921,667447,0
2096921,2096921,159947,667460,0
2096921,2096921,159864,667605,0
2096921,2096921,160049,667922,0
2096921,2096921,160019,667985,0
2096921,2096921,160196,667988,0
2096921,2096921,159932,668264,0
2096921,2096921,160334,668084,0
2096921,2096921,160104,668357,0
2096921,2096921,160142,668188,0
2096921,2096921,160072,668072,0
2096921,2096921,160487,668127,0
2096921,2096921,160425,668341,0
2096921,2096921,160299,668446,0
2096921,2096921,160303,668815,0
2096921,2096921,160558,668902,0
2096921,2096921,160217,668886,0
2096921,2096921,160401,668520,0
2096921,2096921,160254,668914,0
2096921,2096921,160348,669097,0
2096921,2096921,160435,669194,0
2096921,2096921,160417,669298,0
2096921,2096921,160568,669199,0
2096921,2096921,160413,669310,0
2096921,2096921,160320,669281,0
2096921,2096921,160688,669539,0
2096921,2096921,160733,669724,0
2096921,2096921,160805,669134,0
2096921,2096921,160872,669964,0
2096921,2096921,160607,669735,0
2096921,2096921,160662,669785,0
2096921,2096921,160485,669584,0
2096921,2096921,160967,669661,0
2096921,2096921,160780,670300,0
2096921,2096921,160712,669997,0
2096921,2096921,160581,670177,0
2096921,2096921,160740,670241,0
2096921,2096921,160769,670309,0
2096921,2096921,160779,670390,0
2096921,2096921,160633,670470,0
2096921,2096921,160702,670789,0
2096921,2096921,160473,670483,0
2096921,2096921,160829,670210,0
2096921,2096921,161181,670689,0
2096921,2096921,160912,670633,0
2096921,2096921,160944,670730,0
2096921,2096921,160937,670925,0
2096921,2096921,161192,670966,0
2096921,2096921,161003,670978,0
2096921,2096921,160924,671331,0
2096921,2096921,160756,670910,0
2096921,2096921,160905,671235,0
2096921,2096921,160566,671344,0
2096921,2096921,160852,671501,0
2096921,2096921,161014,671472,0
2096921,2096921,160923,671319,0
2096921,2096921,161121,671489,0
2096921,2096921,161113,671291,0
2096921,2096921,161076,671730,0
2096921,2096921,161396,671521,0
2096921,2096921,161126,671889,0
2096921,2096921,161535,671738,0
2096921,2096921,161373,671522,0
2096921,2096921,161150,672195,0
2096921,2096921,161263,672088,0
2096921,2096921,161316,671892,0
2096921,2096921,161172,672410,0
2096921,2096921,161445,671926,0
2096921,2096921,161210,672310,0
2096921,2096921,161320,672486,0
2096921,2096921,161487,672757,0
2096921,2096921,161375,672252,0
2096921,2096921,161397,672336,0
2096921,2096921,161412,672460,0
2096921,2096921,161496,672651,0
2096921,2096921,161801,672660,0
2096921,2096921,161648,672645,0
2096921,2096921,161710,672825,0
2096921,2096921,161651,672982,0
2096921,2096921,161908,672960,0
2096921,2096921,161668,673060,0
2096921,2096921,161472,672992,0
2096921,2096921,161553,673032,0
2096921,2096921,161618,673342,0
2096921,2096921,161688,673343,0
2096921,2096921,161843,673422,0
2096921,2096921,161673,673364,0
2096921,2096921,161639,673641,0
2096921,2096921,161904,673630,0
2096921,2096921,161841,673845,0
2096921,2096921,161961,674003,0
2096921,2096921,162000,673730,0
2096921,2096921,161805,673665,0
2096921,2096921,161899,673991,0
2096921,2096921,161831,673835,0
2096921,2096921,161609,674045,0
2096921,2096921,161824,674114,0
2096921,2096921,162234,673921,0
2096921,2096921,162081,674234,0
2096921,2096921,162165,674375,0
2096921,2096921,161823,674135,0
2096921,2096921,161859,674211,0
2096921,2096921,162112,674365,0
2096921,2096921,162098,674813,0
2096921,2096921,162060,674878,0
2096921,2096921,162115,674828,0
2096921,2096921,162044,674614,0
2096921,2096921,162260,674812,0
2096921,2096921,162193,675021,0
2096921,2096921,161923,675218,0
2096921,2096921,162362,674771,0
2096921,2096921,162265,674888,0
2096921,2096921,162115,675126,0
2096921,2096921,162139,674920,0
2096921,2096921,162539,674955,0
2096921,2096921,162419,675085,0
2096921,2096921,162251,675089,0
2096921,2096921,162149,675134,0
2096921,2096921,162465,675357,0
2096921,2096921,162060,675450,0
2096921,2096921,162042,675432,0
2096921,2096921,162173,675454,0
2096921,2096921,162430,675679,0
2096921,2096921,162583,675838,0
2096921,2096921,162552,675997,0
2096921,2096921,162304,675678,0
2096921,2096921,162380,676030,0
2096921,2096921,162455,675739,0
2096921,2096921,162639,676183,0
2096921,2096921,162311,676135,0
2096921,2096921,162333,676084,0
2096921,2096921,162330,675997,0
2096921,2096921,162563,675977,0
2096921,2096921,162361,676513,0
2096921,2096921,162649,676755,0
2096921,2096921,162459,676443,0
2096921,2096921,162594,676552,0
2096921,2096921,162771,676463,0
2096921,2096921,162574,676488,0
2096921,2096921,162512,676742,0
2096921,2096921,162473,676831,0
2096921,2096921,162822,676790,0
2096921,2096921,162573,676762,0
2096921,2096921,162708,676760,0
2096921,2096921,162691,676530,0
2096921,2096921,162750,676934,0
2096921,2096921,162628,676857,0
2096921,2096921,162443,677285,0
2096921,2096921,162583,677461,0
2096921,2096921,162884,677295,0
2096921,2096921,162499,677145,0
2096921,2096921,162902,676973,0
2096921,2096921,162767,677122,0
2096921,2096921,162927,677357,0
2096921,2096921,162882,677368,0
2096921,2096921,163227,677097,0
2096921,2096921,162488,677332,0
2096921,2096921,162656,677428,0
2096921,2096921,162582,677485,0
2096921,2096921,162912,677654,0
2096921,2096921,163036,677773,0
2096921,2096921,162804,677425,0
2096921,2096921,162845,677637,0
2096921,2096921,162765,677685,0
2096921,2096921,162665,677987,0
2096921,2096921,162891,677642,0
2096921,2096921,163005,677966,0
2096921,2096921,162936,678039,0
2096921,2096921,163000,678477,0
2096921,2096921,163291,678276,0
2096921,2096921,163024,678273,0
2096921,2096921,163103,677939,0
2096921,2096921,162717,678044,0
2096921,2096921,162730,678001,0
2096921,2096921,162977,678101,0
2096921,2096921,162747,677869,0
2096921,2096921,162611,678095,0
2096921,2096921,162837,677862,0
2096921,2096921,162879,677821,0
2096921,2096921,163009,678059,0
2096921,2096921,163121,677786,0
2096921,2096921,162946,678132,0
2096921,2096921,162919,677996,0
2096921,2096921,162586,677955,0
2096921,2096921,162413,677861,0
2096921,2096921,162455,677620,0
2096921,2096921,162699,677899,0
2096921,2096921,162535,677587,0
2096921,2096921,162287,677180,0
2096921,2096921,162352,677280,0
2096921,2096921,161987,677174,0
2096921,2096921,162117,676998,0
2096921,2096921,162080,676943,0
2096921,2096921,162181,676656,0
2096921,2096921,161909,676880,0
2096921,2096921,161923,676562,0
2096921,2096921,162308,676564,0
2096921,2096921,161547,676593,0
2096921,2096921,161473,675285,0
2096921,2096921,161364,675047,0
2096921,2096921,161459,675140,0
2096921,2096921,161284,674921,0
2096921,2096921,160666,675450,0
2096921,2096921,160503,673572,0
2096921,2096921,160289,673064,0
2096921,2096921,160657,673202,0
2096921,2096921,160620,673160,0
2096921,2096921,160140,673340,0
2096921,2096921,159590,672422,0
2096921,2096921,159639,672043,0
2096921,2096921,159757,671916,0
2096921,2096921,159643,671969,0
2096921,2096921,159358,672007,0
2096921,2096921,159324,671126,0
2096921,2096921,159484,671183,0
2096921,2096921,159215,671092,0
2096921,2096921,159252,670976,0
2096921,2096921,159014,670573,0
2096921,2096921,159131,670433,0
2096921,2096921,158716,670347,0
2096921,2096921,158892,670617,0
2096921,2096921,159010,670304,0
2096921,2096921,158620,670483,0
2096921,2096921,158673,669966,0
2096921,2096921,158808,670134,0
2096921,2096921,158817,670245,0
2096921,2096921,158723,669724,0
2096921,2096921,158572,669885,0
2096921,2096921,158724,669858,0
2096921,2096921,158494,669848,0
2096921,2096921,158571,669688,0
2096921,2096921,158259,669769,0
2096921,2096921,158310,669656,0
2096921,2096921,158402,669739,0
2096921,2096921,158268,669724,0
2096921,2096921,158453,669737,0
2096921,2096921,158674,669722,0
2096921,2096921,158359,669805,0
2096921,2096921,158452,669760,0
2096921,2096921,158443,669936,0
2096921,2096921,158431,669747,0
2096921,2096921,158452,669817,0
2096921,2096921,158541,669683,0
2096921,2096921,158457,669987,0
2096921,2096921,158527,669999,0
2096921,2096921,158513,669611,0
2096921,2096921,158420,669494,0
2096921,2096921,158608,669653,0
2096921,2096921,158744,670055,0
2096921,2096921,158930,670190,0
2096921,2096921,158641,670167,0
2096921,2096921,158772,670485,0
2096921,2096921,158818,670177,0
2096921,2096921,158887,670123,0
2096921,2096921,158790,670059,0
2096921,2096921,158722,670415,0
2096921,2096921,158486,670583,0
2096921,2096921,159105,670510,0
2096921,2096921,158818,670990,0
2096921,2096921,159003,670703,0
2096921,2096921,159087,670827,0
2096921,2096921,158729,670719,0
2096921,2096921,158940,670817,0
2096921,2096921,158965,671557,0
2096921,2096921,159164,671358,0
2096921,2096921,159013,671110,0
2096921,2096921,159553,671282,0
2096921,2096921,159486,671452,0
2096921,2096921,159562,671720,0
2096921,2096921,159176,671674,0
2096921,2096921,159330,671784,0
2096921,2096921,159194,671591,0
2096921,2096921,159372,671843,0
2096921,2096921,159100,672214,0
2096921,2096921,159387,671857,0
2096921,2096921,159519,672170,0
2096921,2096921,159445,672249,0
2096921,2096921,159546,672530,0
2096921,2096921,159835,672967,0
2096921,2096921,159591,672732,0
2096921,2096921,159649,672845,0
2096921,2096921,159566,672982,0
2096921,2096921,159694,672565,0
2096921,2096921,159535,673273,0
2096921,2096921,159875,673548,0
2096921,2096921,159981,673482,0
2096921,2096921,159802,673525,0
2096921,2096921,159864,673188,0
2096921,2096921,159983,673789,0
2096921,2096921,160308,673914,0
2096921,2096921,160109,673854,0
2096921,2096921,159955,673849,0
2096921,2096921,160034,673622,0
2096921,2096921,160008,674191,0
2096921,2096921,160337,674101,0
2096921,2096921,160396,673992,0
2096921,2096921,160200,674135,0
2096921,2096921,160543,674458,0
2096921,2096921,160411,674917,0
2096921,2096921,160464,674690,0
2096921,2096921,160337,674908,0
2096921,2096921,160533,675013,0
2096921,2096921,160281,674877,0
2096921,2096921,160385,675007,0
2096921,2096921,160500,675090,0
2096921,2096921,160474,675341,0
2096921,2096921,160439,675182,0
2096921,2096921,160794,675140,0
2096921,2096921,160672,675544,0
2096921,2096921,160755,675396,0
2096921,2096921,160788,675758,0
2096921,2096921,160843,675524,0
2096921,2096921,160931,675560,0
2096921,2096921,160984,675837,0
2096921,2096921,161027,676152,0
2096921,2096921,161147,676085,0
2096921,2096921,161234,676004,0
2096921,2096921,161209,676019,0
2096921,2096921,161636,676418,0
2096921,2096921,161384,676676,0
2096921,2096921,161524,676688,0
2096921,2096921,161337,676627,0
2096921,2096921,161509,676776,0
2096921,2096921,161221,677029,0
2096921,2096921,161582,677029,0
2096921,2096921,161375,677076,0
2096921,2096921,161278,677337,0
2096921,2096921,161311,677142,0
2096921,2096921,161630,677529,0
2096921,2096921,161586,677254,0
2096921,2096921,161547,677251,0
2096921,2096921,161629,677368,0
2096921,2096921,161798,677582,0
2096921,2096921,161736,677745,0
2096921,2096921,161371,677579,0
2096921,2096921,161628,677818,0
2096921,2096921,161607,677810,0
2096921,2096921,161646,677434,0
2096921,2096921,161631,678005,0
2096921,2096921,161812,677735,0
2096921,2096921,161455,678139,0
2096921,2096921,161646,677851,0
2096921,2096921,161604,677850,0
2096921,2096921,161570,678005,0
2096921,2096921,161598,678106,0
2096921,2096921,161821,677976,0
2096921,2096921,162059,678304,0
2096921,2096921,161979,678104,0
2096921,2096921,161850,678331,0
2096921,2096921,161959,678449,0
2096921,2096921,161895,678164,0
2096921,2096921,161813,678208,0
2096921,2096921,161676,678164,0
2096921,2096921,161804,678076,0
2096921,2096921,161682,678398,0
2096921,2096921,161807,678354,0
2096921,2096921,161994,678087,0
2096921,2096921,161837,678306,0
2096921,2096921,161644,678242,0
2096921,2096921,161800,678241,0
2096921,2096921,161766,678383,0
2096921,2096921,161869,678060,0
2096921,2096921,161719,678392,0
2096921,2096921,161839,677691,0
2096921,2096921,161689,677908,0
2096921,2096921,161909,678016,0
2096921,2096921,161799,678342,0
2096921,2096921,161758,678237,0
2096921,2096921,162020,678164,0
2096921,2096921,161833,677999,0
2096921,2096921,161705,677957,0
2096921,2096921,161698,677913,0
2096921,2096921,161483,678083,0
2096921,2096921,161537,678205,0
2096921,2096921,161859,677982,0
2096921,2096921,161629,678208,0
2096921,2096921,161699,678285,0
2096921,2096921,161710,678132,0
2096921,2096921,161929,678228,0
2096921,2096921,161848,677998,0
2096921,2096921,161786,677895,0
2096921,2096921,161801,677968,0
2096921,2096921,161612,677981,0
2096921,2096921,161583,677881,0
2096921,2096921,161499,677765,0
2096921,2096921,161337,678033,0
2096921,2096921,161517,678050,0
2096921,2096921,161510,678147,0
2096921,2096921,161791,677713,0
2096921,2096921,161481,677821,0
2096921,2096921,161514,677933,0
2096921,2096921,161582,677937,0
2096921,2096921,161338,677883,0
2096921,2096921,161493,678083,0
2096921,2096921,161473,678043,0
2096921,2096921,161682,678156,0
2096921,2096921,161661,678152,0
2096921,2096921,161997,678185,0
2096921,2096921,162029,677911,0
2096921,2096921,161738,678215,0
2096921,2096921,161486,678027,0
2096921,2096921,161600,678003,0
2096921,2096921,161581,678076,0
2096921,2096921,161662,677913,0
2096921,2096921,161397,678105,0
2096921,2096921,161867,678279,0
2096921,2096921,161416,678397,0
2096921,2096921,161723,678302,0
2096921,2096921,161828,678839,0
2096921,2096921,161835,678548,0
2096921,2096921,161765,678382,0
2096921,2096921,161669,678406,0
2096921,2096921,162209,678381,0
2096921,2096921,162094,678714,0
2096921,2096921,161867,678786,0
2096921,2096921,162120,678606,0
2096921,2096921,162050,678918,0
2096921,2096921,162094,678670,0
2096921,2096921,162110,679059,0
2096921,2096921,162116,678775,0
2096921,2096921,162071,678782,0
2096921,2096921,162125,678946,0
2096921,2096921,162296,678983,0
2096921,2096921,162237,679016,0
2096921,2096921,162362,679216,0
2096921,2096921,162293,679348,0
2096921,2096921,162332,679364,0
2096921,2096921,162183,679326,0
2096921,2096921,162245,679557,0
2096921,2096921,162190,679548,0
2096921,2096921,162319,679497,0
2096921,2096921,162200,679428,0
2096921,2096921,162286,679508,0
2096921,2096921,162447,679317,0
2096921,2096921,162534,679727,0
2096921,2096921,162539,679840,0
2096921,2096921,162385,679550,0
2096921,2096921,162517,679774,0
2096921,2096921,162639,679738,0
2096921,2096921,162406,680242,0
2096921,2096921,162469,680002,0
2096921,2096921,162450,679676,0
2096921,2096921,162636,679707,0
2096921,2096921,162341,679954,0
2096921,2096921,162766,680157,0
2096921,2096921,162688,680187,0
2096921,2096921,162688,680152,0
2096921,2096921,162891,680006,0
2096921,2096921,162712,680247,0
2096921,2096921,162636,680228,0
2096921,2096921,162818,680026,0
2096921,2096921,162921,680249,0
2096921,2096921,162598,680039,0
2096921,2096921,162678,680309,0
2096921,2096921,163056,680303,0
2096921,2096921,163128,680388,0
2096921,2096921,163074,680387,0
2096921,2096921,162964,680708,0
2096921,2096921,163239,680671,0
2096921,2096921,162887,680658,0
2096921,2096921,162964,680626,0
2096921,2096921,162772,680893,0
2096921,2096921,162869,680844,0
2096921,2096921,162762,680956,0
2096921,2096921,162902,680787,0
2096921,2096921,163004,680983,0
2096921,2096921,163005,680953,0
2096921,2096921,163129,681178,0
2096921,2096921,163246,681021,0
2096921,2096921,163040,680954,0
2096921,2096921,163004,681198,0
2096921,2096921,162925,681026,0
2096921,2096921,163405,681256,0
2096921,2096921,163131,681254,0
2096921,2096921,163204,681225,0
2096921,2096921,163008,681233,0
2096921,2096921,163231,681027,0
2096921,2096921,163121,681184,0
2096921,2096921,163124,681344,0
2096921,2096921,163238,681652,0
2096921,2096921,163377,681552,0
2096921,2096921,163281,681534,0
2096921,2096921,163242,681410,0
2096921,2096921,163084,681494,0
2096921,2096921,163231,681530,0
2096921,2096921,163288,681763,0
2096921,2096921,163284,681838,0
2096921,2096921,163244,681930,0
2096921,2096921,163357,681895,0
2096921,2096921,163240,681852,0
2096921,2096921,163410,681977,0
2096921,2096921,163516,681837,0
2096921,2096921,163292,681907,0
2096921,2096921,163633,681980,0
2096921,2096921,163583,682301,0
2096921,2096921,163647,682066,0
2096921,2096921,163141,682063,0
2096921,2096921,163371,682265,0
2096921,2096921,163381,682219,0
2096921,2096921,163699,682109,0
2096921,2096921,163752,682374,0
2096921,2096921,163827,682394,0
2096921,2096921,163619,682270,0
2096921,2096921,163516,682361,0
2096921,2096921,163599,682607,0
2096921,2096921,163448,682318,0
2096921,2096921,163510,682517,0
2096921,2096921,163492,682535,0
2096921,2096921,163595,682788,0
2096921,2096921,163521,682609,0
2096921,2096921,163378,682353,0
2096921,2096921,163709,682169,0
2096921,2096921,163701,682522,0
2096921,2096921,163931,682525,0
2096921,2096921,163947,682414,0
2096921,2096921,163792,682730,0
2096921,2096921,163927,682629,0
2096921,2096921,163613,682530,0
2096921,2096921,163958,682690,0
2096921,2096921,163787,682808,0
2096921,2096921,163944,682422,0
2096921,2096921,163971,682839,0
2096921,2096921,163874,682813,0
2096921,2096921,163863,682760,0
2096921,2096921,163991,682938,0
2096921,2096921,163622,682692,0
2096921,2096921,163652,682797,0
2096921,2096921,163808,683029,0
2096921,2096921,163863,683105,0
2096921,2096921,163787,683019,0
2096921,2096921,163957,682894,0
2096921,2096921,163623,682710,0
2096921,2096921,163848,682714,0
2096921,2096921,163802,683029,0
2096921,2096921,163855,682802,0
2096921,2096921,164075,683203,0
2096921,2096921,163971,682858,0
2096921,2096921,163870,683093,0
2096921,2096921,163844,683288,0
2096921,2096921,164052,683294,0
2096921,2096921,163942,682881,0
2096921,2096921,164238,683248,0
2096921,2096921,164167,683354,0
2096921,2096921,163936,683137,0
2096921,2096921,163945,683416,0
2096921,2096921,164270,683329,0
2096921,2096921,164239,683261,0
2096921,2096921,164358,683190,0
2096921,2096921,164585,683353,0
2096921,2096921,164189,683196,0
2096921,2096921,164216,683351,0
2096921,2096921,163973,683074,0
2096921,2096921,163778,683127,0
2096921,2096921,164019,683311,0
2096921,2096921,163847,683517,0
2096921,2096921,164151,683136,0
2096921,2096921,164126,683257,0
2096921,2096921,164255,683068,0
2096921,2096921,164193,683299,0
2096921,2096921,163963,683083,0
2096921,2096921,164107,683073,0
2096921,2096921,163936,683347,0
2096921,2096921,164108,683445,0
2096921,2096921,164084,683512,0
2096921,2096921,164355,683602,0
2096921,2096921,164035,683526,0
2096921,2096921,164247,683291,0
2096921,2096921,164240,683500,0
2096921,2096921,164111,683485,0
2096921,2096921,164257,683285,0
2096921,2096921,164263,683453,0
2096921,2096921,164069,683203,0
2096921,2096921,163953,682977,0
2096921,2096921,164029,683302,0
2096921,2096921,163911,683348,0
2096921,2096921,164471,683745,0
2096921,2096921,164334,683572,0
2096921,2096921,164184,683532,0
2096921,2096921,163968,683189,0
2096921,2096921,164207,683467,0
2096921,2096921,164101,683643,0
2096921,2096921,164201,683800,0
2096921,2096921,164294,683129,0
2096921,2096921,164206,683264,0
2096921,2096921,164118,683312,0
2096921,2096921,164132,683612,0
2096921,2096921,164252,683348,0
2096921,2096921,164264,683592,0
2096921,2096921,164252,683702,0
2096921,2096921,164215,683604,0
2096921,2096921,163748,683444,0
2096921,2096921,164168,683417,0
2096921,2096921,164177,683367,0
2096921,2096921,164305,683285,0
2096921,2096921,164586,683358,0
2096921,2096921,164329,683715,0
2096921,2096921,164099,683319,0
2096921,2096921,164039,683485,0
2096921,2096921,164198,683449,0
2096921,2096921,164402,683394,0
2096921,2096921,164382,683635,0
2096921,2096921,164142,683527,0
2096921,2096921,164156,683413,0
2096921,2096921,164285,683291,0
2096921,2096921,164009,683395,0
2096921,2096921,164273,683321,0
2096921,2096921,164261,683589,0
2096921,2096921,164529,683476,0
2096921,2096921,164443,683520,0
2096921,2096921,164369,683551,0
2096921,2096921,164309,683419,0
2096921,2096921,163979,683238,0
2096921,2096921,164368,683020,0
2096921,2096921,164197,683186,0
2096921,2096921,164070,683235,0
2096921,2096921,164251,683132,0
2096921,2096921,164309,683219,0
2096921,2096921,164199,683132,0
2096921,2096921,164459,683191,0
2096921,2096921,164268,683219,0
2096921,2096921,164226,683085,0
2096921,2096921,163992,682826,0
2096921,2096921,164463,683208,0
2096921,2096921,164129,683467,0
2096921,2096921,164150,683319,0
2096921,2096921,164342,683200,0
2096921,2096921,164282,683182,0
2096921,2096921,164290,683111,0
2096921,2096921,164516,682850,0
2096921,2096921,163994,683004,0
2096921,2096921,164151,682807,0
2096921,2096921,163933,682904,0
2096921,2096921,164105,683021,0
2096921,2096921,164176,682906,0
2096921,2096921,164126,682819,0
2096921,2096921,164489,682674,0
2096921,2096921,164180,682725,0
2096921,2096921,164283,682991,0
2096921,2096921,164200,683112,0
2096921,2096921,164223,682821,0
2096921,2096921,163858,682699,0
2096921,2096921,164043,682660,0
2096921,2096921,164109,682854,0
2096921,2096921,164082,682453,0
2096921,2096921,163947,682508,0
2096921,2096921,164257,682662,0
2096921,2096921,164076,682861,0
2096921,2096921,164227,682826,0
2096921,2096921,163996,682304,0
2096921,2096921,163994,682369,0
2096921,2096921,163970,682242,0
2096921,2096921,163811,682301,0
2096921,2096921,164207,682094,0
2096921,2096921,164090,682505,0
2096921,2096921,163846,682325,0
2096921,2096921,164001,682361,0
2096921,2096921,164119,682468,0
2096921,2096921,164120,682336,0
2096921,2096921,164136,682032,0
2096921,2096921,164205,681849,0
2096921,2096921,164002,682153,0
2096921,2096921,163898,682137,0
2096921,2096921,163592,681938,0
2096921,2096921,164006,681940,0
2096921,2096921,163725,681955,0
2096921,2096921,163614,681985,0
2096921,2096921,163888,681919,0
2096921,2096921,163724,682035,0
2096921,2096921,164058,682084,0
2096921,2096921,164039,681838,0
2096921,2096921,164077,681563,0
2096921,2096921,163964,681626,0
2096921,2096921,163893,681759,0
2096921,2096921,163617,681191,0
2096921,2096921,163637,681070,0
2096921,2096921,163580,681462,0
2096921,2096921,163656,681513,0
2096921,2096921,163561,681330,0
2096921,2096921,163455,680940,0
2096921,2096921,163364,680575,0
2096921,2096921,163460,680538,0
2096921,2096921,163638,680913,0
2096921,2096921,163347,680594,0
2096921,2096921,163328,680016,0
2096921,2096921,163393,680184,0
2096921,2096921,163171,679961,0
2096921,2096921,163294,680089,0
2096921,2096921,163124,680241,0
2096921,2096921,162673,679511,0
2096921,2096921,162932,679395,0
2096921,2096921,162950,679543,0
2096921,2096921,162836,679048,0
2096921,2096921,162430,678981,0
2096921,2096921,162461,678350,0
2096921,2096921,162549,677961,0
2096921,2096921,162563,677986,0
2096921,2096921,162216,678658,0
2096921,2096921,161985,678613,0
2096921,2096921,161693,676949,0
2096921,2096921,161679,676429,0
2096921,2096921,161242,676289,0
2096921,2096921,161537,676233,0
2096921,2096921,160661,676603,0
2096921,2096921,160636,674674,0
2096921,2096921,160350,674313,0
2096921,2096921,160826,674367,0
2096921,2096921,160697,674262,0
2096921,2096921,160170,673983,0
2096921,2096921,159991,672726,0
2096921,2096921,159875,672304,0
2096921,2096921,159852,672488,0
2096921,2096921,159862,672513,0
2096921,2096921,159678,672571,0
2096921,2096921,159215,671296,0
2096921,2096921,159036,670872,0
2096921,2096921,159223,670649,0
2096921,2096921,159403,670904,0
2096921,2096921,158742,671163,0
2096921,2096921,158821,670275,0
2096921,2096921,159010,669892,0
2096921,2096921,158900,669666,0
2096921,2096921,159174,670018,0
2096921,2096921,158683,669815,0
2096921,2096921,158643,669082,0
2096921,2096921,158143,669107,0
2096921,2096921,158457,669118,0
2096921,2096921,158645,669098,0
2096921,2096921,158323,669118,0
2096921,2096921,158110,668648,0
2096921,2096921,158229,668614,0
2096921,2096921,158140,668544,0
2096921,2096921,158094,668386,0
2096921,2096921,158227,668367,0
2096921,2096921,158140,668244,0
2096921,2096921,158051,668070,0
2096921,2096921,158306,667949,0
2096921,2096921,158060,667823,0
2096921,2096921,158195,667993,0
2096921,2096921,158214,667715,0
2096921,2096921,158189,667553,0
2096921,2096921,158035,667584,0
2096921,2096921,158315,667546,0
2096921,2096921,157943,667567,0
2096921,2096921,157575,667799,0
2096921,2096921,157691,667314,0
2096921,2096921,158021,667565,0
2096921,2096921,158049,667379,0
2096921,2096921,157976,667668,0
2096921,2096921,158062,667504,0
2096921,2096921,158128,667331,0
2096921,2096921,158032,667264,0
2096921,2096921,157931,667117,0
2096921,2096921,157838,667321,0
2096921,2096921,158221,667102,0
2096921,2096921,158063,667399,0
2096921,2096921,157923,667109,0
2096921,2096921,157713,667230,0
2096921,2096921,157894,667233,0
2096921,2096921,157975,667126,0
2096921,2096921,158024,667174,0
2096921,2096921,158016,667067,0
2096921,2096921,158037,667152,0
2096921,2096921,158142,667080,0
2096921,2096921,157838,667121,0
2096921,2096921,157828,666990,0
2096921,2096921,157874,667183,0
2096921,2096921,158128,667063,0
2096921,2096921,158245,667223,0
2096921,2096921,158248,667130,0
2096921,2096921,157871,667031,0
2096921,2096921,158024,667329,0
2096921,2096921,158020,667442,0
2096921,2096921,158071,667574,0
2096921,2096921,158333,666820,0
2096921,2096921,158518,667338,0
2096921,2096921,158402,667458,0
2096921,2096921,158171,667260,0
2096921,2096921,158215,667356,0
2096921,2096921,158161,667720,0
2096921,2096921,158254,667582,0
2096921,2096921,158469,667609,0
2096921,2096921,158429,667459,0
2096921,2096921,158493,667565,0
2096921,2096921,158413,667730,0
2096921,2096921,158374,667662,0
2096921,2096921,158425,667591,0
2096921,2096921,158603,667659,0
2096921,2096921,158635,667996,0
2096921,2096921,158702,667614,0
2096921,2096921,158496,667704,0
2096921,2096921,158531,667888,0
2096921,2096921,158778,667833,0
2096921,2096921,158744,667581,0
2096921,2096921,158542,667610,0
2096921,2096921,158493,668059,0
2096921,2096921,158712,668049,0
2096921,2096921,158559,667687,0
2096921,2096921,158510,667765,0
2096921,2096921,158802,667969,0
2096921,2096921,158938,667933,0
2096921,2096921,158938,668079,0
2096921,2096921,159039,667981,0
2096921,2096921,158778,668088,0
2096921,2096921,158772,667983,0
2096921,2096921,158858,668400,0
2096921,2096921,158699,667864,0
2096921,2096921,158961,668215,0
2096921,2096921,159018,668174,0
2096921,2096921,158769,668252,0
2096921,2096921,158993,668363,0
2096921,2096921,158892,668170,0
2096921,2096921,158715,668125,0
2096921,2096921,158893,668250,0
2096921,2096921,158954,668250,0
2096921,2096921,158982,668127,0
2096921,2096921,159044,668515,0
2096921,2096921,159108,668227,0
2096921,2096921,159166,668395,0
2096921,2096921,159353,668396,0
2096921,2096921,159435,668438,0
2096921,2096921,159352,668452,0
2096921,2096921,159265,668548,0
2096921,2096921,159296,668301,0
2096921,2096921,159217,668440,0
2096921,2096921,159314,668294,0
2096921,2096921,159019,668654,0
2096921,2096921,159479,668495,0
2096921,2096921,159349,668778,0
2096921,2096921,159144,668620,0
2096921,2096921,159100,668653,0
2096921,2096921,158857,668296,0
2096921,2096921,159007,668496,0
2096921,2096921,159147,668571,0
2096921,2096921,159282,668264,0
2096921,2096921,159269,668187,0
2096921,2096921,159410,668630,0
2096921,2096921,159370,668515,0
2096921,2096921,159312,668506,0
2096921,2096921,159369,668557,0
2096921,2096921,159188,668383,0
2096921,2096921,159171,668387,0
2096921,2096921,159392,668163,0
2096921,2096921,159498,668263,0
2096921,2096921,159293,668523,0
2096921,2096921,159296,667943,0
2096921,2096921,159284,668036,0
2096921,2096921,159420,668044,0
2096921,2096921,159182,667906,0
2096921,2096921,159120,668070,0
2096921,2096921,159172,667828,0
2096921,2096921,159199,667829,0
2096921,2096921,159200,667867,0
2096921,2096921,159281,667998,0
2096921,2096921,159224,667575,0
2096921,2096921,159392,667748,0
2096921,2096921,159383,667382,0
2096921,2096921,159313,667990,0
2096921,2096921,158954,667506,0
2096921,2096921,159392,667267,0
2096921,2096921,158943,667299,0
2096921,2096921,159253,667302,0
2096921,2096921,159000,667377,0
2096921,2096921,159161,667336,0
2096921,2096921,158934,666969,0
2096921,2096921,159204,666672,0
2096921,2096921,158820,667170,0
2096921,2096921,158976,666870,0
2096921,2096921,158933,666751,0
2096921,2096921,158840,666644,0
2096921,2096921,158837,666717,0
2096921,2096921,158641,666588,0
2096921,2096921,158487,666879,0
2096921,2096921,158752,666363,0
2096921,2096921,158609,666211,0
2096921,2096921,158354,666129,0
2096921,2096921,158586,666219,0
2096921,2096921,158961,665994,0
2096921,2096921,158521,666232,0
2096921,2096921,158979,665808,0
2096921,2096921,158762,665798,0
2096921,2096921,158738,665847,0
2096921,2096921,158628,665694,0
2096921,2096921,158514,665825,0
2096921,2096921,158398,665559,0
2096921,2096921,158505,665654,0
2096921,2096921,158721,665584,0
2096921,2096921,158569,665616,0
2096921,2096921,158685,665323,0
2096921,2096921,158397,665216,0
2096921,2096921,158384,665319,0
2096921,2096921,158641,665216,0
2096921,2096921,158688,665397,0
2096921,2096921,158447,665177,0
2096921,2096921,158451,665005,0
2096921,2096921,158579,664952,0
2096921,2096921,158565,665092,0
2096921,2096921,158618,665182,0
2096921,2096921,158280,664915,0
2096921,2096921,158261,664806,0
2096921,2096921,158443,664942,0
2096921,2096921,158465,664894,0
2096921,2096921,158471,665127,0
2096921,2096921,158307,665056,0
2096921,2096921,158309,664806,0
2096921,2096921,158638,665143,0
2096921,2096921,158331,664916,0
2096921,2096921,158613,664841,0
2096921,2096921,158470,664661,0
2096921,2096921,158498,664865,0
2096921,2096921,158264,664831,0
2096921,2096921,158561,664833,0
2096921,2096921,158517,665006,0
2096921,2096921,158638,664990,0
2096921,2096921,158550,664940,0
2096921,2096921,158439,664803,0
2096921,2096921,158266,664744,0
2096921,2096921,158508,664752,0
2096921,2096921,158386,664926,0
2096921,2096921,158449,664662,0
2096921,2096921,158520,665019,0
2096921,2096921,158683,664875,0
2096921,2096921,158440,665031,0
2096921,2096921,158625,664878,0
2096921,2096921,158685,665054,0
2096921,2096921,158788,664903,0
2096921,2096921,158832,665059,0
2096921,2096921,158926,664980,0
2096921,2096921,158778,664963,0
2096921,2096921,158856,664826,0
2096921,2096921,158806,664852,0
2096921,2096921,158620,664927,0
2096921,2096921,158510,665120,0
2096921,2096921,158486,665042,0
2096921,2096921,158694,664965,0
2096921,2096921,158603,664996,0
2096921,2096921,158829,664732,0
2096921,2096921,158621,664869,0
2096921,2096921,158669,664848,0
2096921,2096921,158658,664922,0
2096921,2096921,158653,664601,0
2096921,2096921,158784,665224,0
2096921,2096921,158879,665029,0
2096921,2096921,158308,664734,0
2096921,2096921,158486,664943,0
2096921,2096921,159022,664834,0
2096921,2096921,158874,664613,0
2096921,2096921,158728,664949,0
2096921,2096921,158624,664797,0
2096921,2096921,158865,664807,0
2096921,2096921,158914,664752,0
2096921,2096921,158648,664553,0
2096921,2096921,158891,664896,0
2096921,2096921,159018,664610,0
2096921,2096921,158724,664767,0
2096921,2096921,158911,664766,0
2096921,2096921,158656,665005,0
2096921,2096921,158875,665021,0
2096921,2096921,158789,665052,0
2096921,2096921,158921,664930,0
2096921,2096921,158899,664920,0
2096921,2096921,158847,665156,0
2096921,2096921,158918,664966,0
2096921,2096921,158851,664965,0
2096921,2096921,158959,664752,0
2096921,2096921,158909,664765,0
2096921,2096921,159079,664692,0
2096921,2096921,159094,664718,0
2096921,2096921,159125,664989,0
2096921,2096921,159164,664687,0
2096921,2096921,158982,664852,0
2096921,2096921,158925,664492,0
2096921,2096921,158792,664690,0
2096921,2096921,158836,664540,0
2096921,2096921,159304,664665,0
2096921,2096921,158942,664809,0
2096921,2096921,159272,664502,0
2096921,2096921,158972,664520,0
2096921,2096921,159263,664687,0
2096921,2096921,159118,664454,0
2096921,2096921,159059,664518,0
2096921,2096921,159174,664764,0
2096921,2096921,159318,664967,0
2096921,2096921,159079,664679,0
2096921,2096921,158910,664493,0
2096921,2096921,158912,664734,0
2096921,2096921,158967,664477,0
2096921,2096921,159164,664375,0
2096921,2096921,159271,664466,0
2096921,2096921,159121,664794,0
2096921,2096921,159497,664619,0
2096921,2096921,158992,664626,0
2096921,2096921,158761,664670,0
2096921,2096921,158875,664959,0
2096921,2096921,158820,664472,0
2096921,2096921,158815,664879,0
2096921,2096921,159014,664877,0
2096921,2096921,159256,664729,0
2096921,2096921,159368,664648,0
2096921,2096921,159062,664564,0
2096921,2096921,159018,664404,0
2096921,2096921,158906,664386,0
2096921,2096921,159015,664418,0
2096921,2096921,158991,664665,0
2096921,2096921,159116,664552,0
2096921,2096921,159195,664632,0
2096921,2096921,159368,664466,0
2096921,2096921,159180,664441,0
2096921,2096921,159207,664764,0
2096921,2096921,159110,664416,0
2096921,2096921,159150,664289,0
2096921,2096921,159305,664526,0
2096921,2096921,159297,664623,0
2096921,2096921,159011,664483,0
2096921,2096921,158863,664169,0
2096921,2096921,159008,664368,0
2096921,2096921,159280,664155,0
2096921,2096921,159295,664300,0
2096921,2096921,159399,664562,0
2096921,2096921,159132,664177,0
2096921,2096921,159282,664539,0
2096921,2096921,159085,664254,0
2096921,2096921,159183,664462,0
2096921,2096921,159326,664401,0
2096921,2096921,159327,664550,0
2096921,2096921,159349,664394,0
2096921,2096921,159262,664488,0
2096921,2096921,159321,664164,0
2096921,2096921,159326,664245,0
2096921,2096921,159351,664462,0
2096921,2096921,159400,664319,0
2096921,2096921,159076,664124,0
2096921,2096921,159142,664222,0
2096921,2096921,158930,664494,0
2096921,2096921,159291,664186,0
2096921,2096921,159290,664377,0
2096921,2096921,159131,664164,0
2096921,2096921,159290,664516,0
2096921,2096921,159271,664370,0
2096921,2096921,159483,664531,0
2096921,2096921,159455,664331,0
2096921,2096921,159039,664284,0
2096921,2096921,159332,664206,0
2096921,2096921,159424,664114,0
2096921,2096921,159415,664201,0
2096921,2096921,159329,664307,0
2096921,2096921,159301,664375,0
2096921,2096921,159292,664234,0
2096921,2096921,159232,664269,0
2096921,2096921,159289,663855,0
2096921,2096921,159330,664124,0
2096921,2096921,159442,664146,0
2096921,2096921,159180,664083,0
2096921,2096921,159356,664049,0
2096921,2096921,159128,663864,0
2096921,2096921,159422,664060,0
2096921,2096921,159266,663910,0
2096921,2096921,159307,664297,0
2096921,2096921,159387,664317,0
2096921,2096921,159536,664151,0
2096921,2096921,159295,663830,0
2096921,2096921,159144,663587,0
2096921,2096921,159062,663821,0
2096921,2096921,159247,664171,0
2096921,2096921,158968,663992,0
2096921,2096921,158994,664013,0
2096921,2096921,159493,664147,0
2096921,2096921,159356,664055,0
2096921,2096921,159480,664095,0
2096921,2096921,159467,664097,0
2096921,2096921,159588,664179,0
2096921,2096921,159239,664001,0
2096921,2096921,159198,663782,0
2096921,2096921,159195,663686,0
2096921,2096921,159275,663700,0
2096921,2096921,158903,663903,0
2096921,2096921,159284,663784,0
2096921,2096921,159398,664082,0
2096921,2096921,159314,663811,0
2096921,2096921,159639,663786,0
2096921,2096921,159490,663921,0
2096921,2096921,159099,663603,0
2096921,2096921,159383,663761,0
2096921,2096921,159133,663918,0
2096921,2096921,159433,663784,0
2096921,2096921,159355,663983,0
2096921,2096921,159394,663829,0
2096921,2096921,159222,663968,0
2096921,2096921,159303,663739,0
2096921,2096921,159337,663676,0
2096921,2096921,159342,663751,0
2096921,2096921,158998,663991,0
2096921,2096921,159336,663603,0
2096921,2096921,159144,663782,0
2096921,2096921,159275,663924,0
2096921,2096921,159537,663828,0
2096921,2096921,159155,663486,0
2096921,2096921,159186,663669,0
2096921,2096921,159155,663821,0
2096921,2096921,159161,663868,0
2096921,2096921,159368,663915,0
2096921,2096921,159571,664034,0
2096921,2096921,159186,663869,0
2096921,2096921,159281,663825,0
2096921,2096921,159090,663630,0
2096921,2096921,159512,663955,0
2096921,2096921,159111,663632,0
2096921,2096921,159592,663712,0
2096921,2096921,159407,663886,0
2096921,2096921,159636,664125,0
2096921,2096921,159211,664121,0
2096921,2096921,159100,663859,0
2096921,2096921,159488,664005,0
2096921,2096921,159387,664002,0
2096921,2096921,159401,664102,0
2096921,2096921,159265,663634,0
2096921,2096921,159229,663920,0
2096921,2096921,159295,663678,0
2096921,2096921,159564,663960,0
2096921,2096921,159623,663528,0
2096921,2096921,159372,663493,0
2096921,2096921,159304,663550,0
2096921,2096921,159348,663489,0
2096921,2096921,159540,663594,0
2096921,2096921,159771,663776,0
2096921,2096921,159348,663947,0
2096921,2096921,159234,663732,0
2096921,2096921,159356,663782,0
2096921,2096921,159417,664142,0
2096921,2096921,159446,663791,0
2096921,2096921,159543,663892,0
2096921,2096921,159434,663540,0
2096921,2096921,159573,663791,0
2096921,2096921,159330,663814,0
2096921,2096921,159299,663569,0
2096921,2096921,159503,663480,0
2096921,2096921,159560,663637,0
2096921,2096921,159434,663968,0
2096921,2096921,159505,663995,0
2096921,2096921,159335,663881,0
2096921,2096921,159751,663903,0
2096921,2096921,159487,663530,0
2096921,2096921,159066,663639,0
2096921,2096921,159313,663711,0
2096921,2096921,159356,663878,0
2096921,2096921,159126,663501,0
2096921,2096921,159429,663587,0
2096921,2096921,159599,663557,0
2096921,2096921,159287,663471,0
2096921,2096921,159403,663709,0
2096921,2096921,159245,663689,0
2096921,2096921,159139,663905,0
2096921,2096921,159234,663681,0
2096921,2096921,159346,663519,0
2096921,2096921,159197,663398,0
2096921,2096921,159402,663401,0
2096921,2096921,159416,663603,0
2096921,2096921,159403,663990,0
2096921,2096921,159349,663938,0
2096921,2096921,159321,663698,0
2096921,2096921,159205,663709,0
2096921,2096921,159130,663339,0
2096921,2096921,159171,663760,0
2096921,2096921,159364,663863,0
2096921,2096921,159337,663572,0
2096921,2096921,159425,663833,0
2096921,2096921,159283,663680,0
2096921,2096921,159191,663462,0
2096921,2096921,159451,663809,0
2096921,2096921,159166,663603,0
2096921,2096921,159636,663614,0
2096921,2096921,159658,663595,0
2096921,2096921,159382,663856,0
2096921,2096921,158941,663838,0
2096921,2096921,158949,663181,0
2096921,2096921,159201,663344,0
2096921,2096921,159366,663178,0
2096921,2096921,159065,663792,0
2096921,2096921,159163,663697,0
2096921,2096921,158882,663518,0
2096921,2096921,159128,663409,0
2096921,2096921,159031,663279,0
2096921,2096921,158977,663023,0
2096921,2096921,158439,663036,0
2096921,2096921,158502,662426,0
2096921,2096921,158961,662377,0
2096921,2096921,159057,662554,0
2096921,2096921,158760,662582,0
2096921,2096921,158640,662363,0
2096921,2096921,158532,661927,0
2096921,2096921,158597,661833,0
2096921,2096921,158181,661983,0
2096921,2096921,158763,661814,0
2096921,2096921,158260,661855,0
2096921,2096921,158428,661228,0
2096921,2096921,158311,661235,0
2096921,2096921,157993,661006,0
2096921,2096921,158337,661416,0
2096921,2096921,157501,660882,0
2096921,2096921,157393,659748,0
2096921,2096921,157371,659421,0
2096921,2096921,157489,659304,0
2096921,2096921,157271,659541,0
2096921,2096921,156595,659314,0
2096921,2096921,156435,657756,0
2096921,2096921,156404,657763,0
2096921,2096921,156466,657693,0
2096921,2096921,156457,657630,0
2096921,2096921,155761,657677,0
2096921,2096921,155607,656176,0
2096921,2096921,155929,656150,0
2096921,2096921,155803,655792,0
2096921,2096921,155859,656021,0
2096921,2096921,155405,655930,0
2096921,2096921,155292,655085,0
2096921,2096921,155159,654863,0
2096921,2096921,155317,654838,0
2096921,2096921,155207,654585,0
2096921,2096921,154975,654685,0
2096921,2096921,154912,654108,0
2096921,2096921,155057,654108,0
2096921,2096921,155020,653898,0
2096921,2096921,155003,654170,0
2096921,2096921,154664,653867,0
2096921,2096921,154678,653387,0
2096921,2096921,154561,653439,0
2096921,2096921,154660,653223,0
2096921,2096921,154525,653190,0
2096921,2096921,154580,653231,0
2096921,2096921,154549,653157,0
2096921,2096921,154633,653187,0
2096921,2096921,154214,652955,0
2096921,2096921,154381,652862,0
2096921,2096921,154214,652714,0
2096921,2096921,154112,652735,0
2096921,2096921,154627,652708,0
2096921,2096921,154267,652869,0
2096921,2096921,154149,652839,0
2096921,2096921,154034,652926,0
2096921,2096921,154182,652696,0
2096921,2096921,154235,652343,0
2096921,2096921,154248,652681,0
2096921,2096921,154229,652643,0
2096921,2096921,154605,652576,0
2096921,2096921,154267,652533,0
2096921,2096921,154064,652310,0
2096921,2096921,154213,652538,0
2096921,2096921,154280,652559,0
2096921,2096921,154274,652438,0
2096921,2096921,154468,652467,0
2096921,2096921,154439,652715,0
2096921,2096921,154420,652951,0
2096921,2096921,154364,652726,0
2096921,2096921,154245,652956,0
2096921,2096921,154318,652833,0
2096921,2096921,154315,652628,0
2096921,2096921,154275,652712,0
2096921,2096921,154267,652595,0
2096921,2096921,154300,652916,0
2096921,2096921,154251,652780,0
2096921,2096921,154460,652815,0
2096921,2096921,154284,652691,0
2096921,2096921,154461,652671,0
2096921,2096921,154594,652525,0
2096921,2096921,154576,653037,0
2096921,2096921,154629,653108,0
2096921,2096921,154478,653301,0
2096921,2096921,154235,653384,0
2096921,2096921,154268,653145,0
2096921,2096921,154713,653676,0
2096921,2096921,154767,653544,0
2096921,2096921,154479,653622,0
2096921,2096921,154735,653389,0
2096921,2096921,154673,653340,0
2096921,2096921,154835,654073,0
2096921,2096921,154809,653823,0
2096921,2096921,154899,653500,0
2096921,2096921,154816,654020,0
2096921,2096921,154823,654046,0
2096921,2096921,154907,654302,0
2096921,2096921,155091,654234,0
2096921,2096921,154939,654215,0
2096921,2096921,155069,654161,0
2096921,2096921,155101,654317,0
2096921,2096921,154793,654387,0
2096921,2096921,155123,654389,0
2096921,2096921,155059,654640,0
2096921,2096921,155341,654542,0
2096921,2096921,155259,654575,0
2096921,2096921,155415,654822,0
2096921,2096921,155242,654734,0
2096921,2096921,155296,654986,0
2096921,2096921,155130,655078,0
2096921,2096921,155348,654920,0
2096921,2096921,155297,655009,0
2096921,2096921,155664,655324,0
2096921,2096921,155732,655405,0
2096921,2096921,155705,655025,0
2096921,2096921,155538,655315,0
2096921,2096921,155717,655488,0
2096921,2096921,155403,655702,0
2096921,2096921,155592,655694,0
2096921,2096921,155475,655417,0
2096921,2096921,155631,655567,0
2096921,2096921,155533,655824,0
2096921,2096921,155809,655816,0
2096921,2096921,155966,656312,0
2096921,2096921,155908,656206,0
2096921,2096921,156163,656132,0
2096921,2096921,155889,656282,0
2096921,2096921,156238,656490,0
2096921,2096921,156230,656262,0
2096921,2096921,155945,656356,0
2096921,2096921,156003,656445,0
2096921,2096921,156090,656994,0
2096921,2096921,156421,656745,0
2096921,2096921,156210,656947,0
2096921,2096921,156497,656857,0
2096921,2096921,156404,656726,0
2096921,2096921,156306,657099,0
2096921,2096921,156525,657141,0
2096921,2096921,156409,657483,0
2096921,2096921,156465,657214,0
2096921,2096921,156392,657419,0
2096921,2096921,156638,657733,0
2096921,2096921,156590,657626,0
2096921,2096921,156603,657649,0
2096921,2096921,156612,657782,0
2096921,2096921,156669,657782,0
2096921,2096921,156582,658041,0
2096921,2096921,156456,657947,0
2096921,2096921,156008,657754,0
2096921,2096921,156497,657825,0
2096921,2096921,156846,657774,0
2096921,2096921,156832,657684,0
2096921,2096921,156827,658090,0
2096921,2096921,156687,658174,0
2096921,2096921,156845,657944,0
2096921,2096921,156884,658050,0
2096921,2096921,156773,658178,0
2096921,2096921,156693,658189,0
2096921,2096921,156748,658356,0
2096921,2096921,156724,658425,0
2096921,2096921,157054,658224,0
2096921,2096921,156879,658784,0
2096921,2096921,157062,658828,0
2096921,2096921,156767,658585,0
2096921,2096921,156912,658789,0
2096921,2096921,157049,658807,0
2096921,2096921,156933,658625,0
2096921,2096921,156855,659040,0
2096921,2096921,156972,658612,0
2096921,2096921,156753,658131,0
2096921,2096921,156721,658097,0
2096921,2096921,156556,658685,0
2096921,2096921,156756,658825,0
2096921,2096921,156904,659041,0
2096921,2096921,157007,659102,0
2096921,2096921,157033,658837,0
2096921,2096921,157102,658947,0
2096921,2096921,156962,658871,0
2096921,2096921,156868,658604,0
2096921,2096921,156880,658724,0
2096921,2096921,156899,658561,0
2096921,2096921,156662,658860,0
2096921,2096921,156932,658585,0
2096921,2096921,157082,658819,0
2096921,2096921,156941,658951,0
2096921,2096921,156920,658740,0
2096921,2096921,157316,658909,0
2096921,2096921,157100,658787,0
2096921,2096921,156865,658803,0
2096921,2096921,156819,658683,0
2096921,2096921,156751,658728,0
2096921,2096921,156770,658802,0
2096921,2096921,157139,658465,0
2096921,2096921,156749,658451,0
2096921,2096921,156873,658891,0
2096921,2096921,157159,658390,0
2096921,2096921,156878,658570,0
2096921,2096921,156890,658603,0
2096921,2096921,156418,658795,0
2096921,2096921,156612,658870,0
2096921,2096921,156783,658637,0
2096921,2096921,156912,658653,0
2096921,2096921,156717,658854,0
2096921,2096921,157038,658676,0
2096921,2096921,156957,658715,0
2096921,2096921,156968,658776,0
2096921,2096921,157234,658541,0
2096921,2096921,156927,658817,0
2096921,2096921,157022,658929,0
2096921,2096921,156638,658950,0
2096921,2096921,157092,658654,0
2096921,2096921,156959,658976,0
2096921,2096921,156677,658905,0
2096921,2096921,156829,659139,0
2096921,2096921,156688,659248,0
2096921,2096921,156845,659129,0
2096921,2096921,157073,659431,0
2096921,2096921,156693,659386,0
2096921,2096921,157104,659086,0
2096921,2096921,156904,659180,0
2096921,2096921,157185,659449,0
2096921,2096921,157299,659607,0
2096921,2096921,157108,659861,0
2096921,2096921,157130,659852,0
2096921,2096921,156903,659604,0
2096921,2096921,157137,659592,0
2096921,2096921,157150,659909,0
2096921,2096921,157196,660016,0
2096921,2096921,157192,660004,0
2096921,2096921,157260,659939,0
2096921,2096921,157285,659810,0
2096921,2096921,157778,660561,0
2096921,2096921,157310,660243,0
2096921,2096921,157491,660306,0
2096921,2096921,157454,660508,0
2096921,2096921,157821,660517,0
2096921,2096921,157671,660797,0
2096921,2096921,157759,660891,0
2096921,2096921,157658,660861,0
2096921,2096921,157710,660828,0
2096921,2096921,157431,660803,0
2096921,2096921,157623,661009,0
2096921,2096921,157765,661157,0
2096921,2096921,157621,661067,0
2096921,2096921,157763,661347,0
2096921,2096921,157530,661101,0
2096921,2096921,157618,661423,0
2096921,2096921,157683,661585,0
2096921,2096921,157939,661637,0
2096921,2096921,157658,661632,0
2096921,2096921,157855,661386,0
2096921,2096921,157772,661677,0
2096921,2096921,158017,661956,0
2096921,2096921,157840,661875,0
2096921,2096921,158074,661898,0
2096921,2096921,158331,662065,0
2096921,2096921,158335,662267,0
2096921,2096921,158208,662354,0
2096921,2096921,158302,662283,0
2096921,2096921,158210,662524,0
2096921,2096921,158146,662709,0
2096921,2096921,157990,662573,0
2096921,2096921,158251,662640,0
2096921,2096921,158204,663015,0
2096921,2096921,158357,662987,0
2096921,2096921,158563,663298,0
2096921,2096921,158395,663330,0
2096921,2096921,158242,663250,0
2096921,2096921,158335,663131,0
2096921,2096921,158395,663198,0
2096921,2096921,158449,663002,0
2096921,2096921,158654,663507,0
2096921,2096921,158610,663462,0
2096921,2096921,158591,663407,0
2096921,2096921,158536,663390,0
2096921,2096921,158726,663313,0
2096921,2096921,158736,663761,0
2096921,2096921,158517,663890,0
2096921,2096921,158718,664059,0
2096921,2096921,158732,663837,0
2096921,2096921,158877,663718,0
2096921,2096921,158848,664062,0
2096921,2096921,158800,664108,0
2096921,2096921,158927,664394,0
2096921,2096921,158750,664560,0
2096921,2096921,159097,664552,0
2096921,2096921,159214,664934,0
2096921,2096921,159015,664708,0
2096921,2096921,158984,664883,0
2096921,2096921,158908,664841,0
2096921,2096921,159042,664831,0
2096921,2096921,159022,664984,0
2096921,2096921,158889,664973,0
2096921,2096921,158986,665025,0
2096921,2096921,158929,665142,0
2096921,2096921,159342,664935,0
2096921,2096921,159561,665513,0
2096921,2096921,159232,665656,0
2096921,2096921,159218,665608,0
2096921,2096921,159009,665350,0
2096921,2096921,159349,665485,0
2096921,2096921,159258,665865,0
2096921,2096921,159208,665762,0
2096921,2096921,159210,666108,0
2096921,2096921,159552,666200,0
2096921,2096921,159475,666178,0
2096921,2096921,159726,666297,0
2096921,2096921,159673,666217,0
2096921,2096921,159724,666007,0
2096921,2096921,159643,666342,0
2096921,2096921,159734,666175,0
2096921,2096921,159764,666590,0
2096921,2096921,159775,666488,0
2096921,2096921,159667,666572,0
2096921,2096921,159672,666792,0
2096921,2096921,159646,666485,0
2096921,2096921,159540,666803,0
2096921,2096921,159603,667247,0
2096921,2096921,159855,667136,0
2096921,2096921,159696,667409,0
2096921,2096921,159838,667117,0
2096921,2096921,159961,667119,0
2096921,2096921,159887,667075,0
2096921,2096921,159968,667354,0
2096921,2096921,159958,667311,0
2096921,2096921,160097,667226,0
2096921,2096921,160209,667711,0
2096921,2096921,159905,667946,0
2096921,2096921,159915,667777,0
2096921,2096921,160138,667667,0
2096921,2096921,160065,667897,0
2096921,2096921,160117,667844,0
2096921,2096921,160259,668122,0
2096921,2096921,160225,668107,0
2096921,2096921,160290,668051,0
2096921,2096921,160456,668172,0
2096921,2096921,160201,668352,0
2096921,2096921,160042,668381,0
2096921,2096921,160116,668609,0
2096921,2096921,160240,668650,0
2096921,2096921,160364,668435,0
2096921,2096921,160457,668993,0
2096921,2096921,160380,669065,0
2096921,2096921,160463,669004,0
2096921,2096921,160474,669056,0
2096921,2096921,160622,669096,0
2096921,2096921,160463,669341,0
2096921,2096921,160359,669108,0
2096921,2096921,160464,669374,0
2096921,2096921,160019,669249,0
2096921,2096921,160582,669126,0
2096921,2096921,160363,669289,0
2096921,2096921,160490,669613,0
2096921,2096921,160775,669924,0
2096921,2096921,160719,669581,0
2096921,2096921,160785,669750,0
2096921,2096921,161042,670011,0
2096921,2096921,160539,669860,0
2096921,2096921,160547,670095,0
2096921,2096921,160743,670037,0
2096921,2096921,160921,670086,0
2096921,2096921,160512,670056,0
2096921,2096921,160582,670284,0
2096921,2096921,160677,669963,0
2096921,2096921,160674,670374,0
2096921,2096921,160610,670326,0
2096921,2096921,160969,670631,0
2096921,2096921,161006,670729,0
2096921,2096921,160954,670785,0
2096921,2096921,161025,670785,0
2096921,2096921,161118,670714,0
2096921,2096921,160724,670919,0
2096921,2096921,160866,670745,0
2096921,2096921,161128,670912,0
2096921,2096921,160878,670892,0
2096921,2096921,160947,671075,0
2096921,2096921,160954,671216,0
2096921,2096921,161238,671207,0
2096921,2096921,161053,671252,0
2096921,2096921,160844,670991,0
2096921,2096921,161194,671131,0
2096921,2096921,161206,671719,0
2096921,2096921,161130,671775,0
2096921,2096921,160964,671458,0
2096921,2096921,160960,671625,0
2096921,2096921,161195,671329,0
2096921,2096921,161362,672203,0
2096921,2096921,161288,672202,0
2096921,2096921,161292,671782,0
2096921,2096921,161378,672235,0
2096921,2096921,161425,672240,0
2096921,2096921,161418,672110,0
2096921,2096921,161488,672270,0
2096921,2096921,161526,672068,0
2096921,2096921,161319,672337,0
2096921,2096921,161066,672325,0
2096921,2096921,161356,672742,0
2096921,2096921,161663,672569,0
2096921,2096921,161765,672545,0
2096921,2096921,161489,672456,0
2096921,2096921,161696,672804,0
2096921,2096921,161744,672840,0
2096921,2096921,161815,672877,0
2096921,2096921,161874,672927,0
2096921,2096921,161711,672955,0
2096921,2096921,161626,673089,0
2096921,2096921,161968,672903,0
2096921,2096921,161491,673287,0
2096921,2096921,161609,672970,0
2096921,2096921,161803,672911,0
2096921,2096921,161750,673280,0
2096921,2096921,161588,673535,0
2096921,2096921,161687,673433,0
2096921,2096921,161855,673393,0
2096921,2096921,161736,673615,0
2096921,2096921,161949,673509,0
2096921,2096921,161685,673506,0
2096921,2096921,161787,673565,0
2096921,2096921,161856,673781,0
2096921,2096921,162070,673867,0
2096921,2096921,161940,673593,0
2096921,2096921,162213,674041,0
2096921,2096921,161936,673941,0
2096921,2096921,162042,673835,0
2096921,2096921,161883,674160,0
2096921,2096921,161896,674043,0
2096921,2096921,162167,674387,0
2096921,2096921,161865,674440,0
2096921,2096921,162082,674276,0
2096921,2096921,161929,674382,0
2096921,2096921,161710,674294,0
2096921,2096921,162030,674365,0
2096921,2096921,162003,674354,0
2096921,2096921,162185,674795,0
2096921,2096921,162036,674996,0
2096921,2096921,162073,674787,0
2096921,2096921,162070,675097,0
2096921,2096921,162241,675190,0
2096921,2096921,162191,675299,0
2096921,2096921,162312,675077,0
2096921,2096921,162298,675120,0
2096921,2096921,162351,675305,0
2096921,2096921,162150,675446,0
2096921,2096921,162291,675096,0
2096921,2096921,162332,675317,0
2096921,2096921,162358,675021,0
2096921,2096921,162418,675414,0
2096921,2096921,162682,675772,0
2096921,2096921,162615,675777,0
2096921,2096921,162349,675672,0
2096921,2096921,162439,675680,0
2096921,2096921,162307,675962,0
2096921,2096921,162449,676205,0
2096921,2096921,162574,675752,0
2096921,2096921,162569,675957,0
2096921,2096921,162429,676035,0
2096921,2096921,162372,676046,0
2096921,2096921,162575,675780,0
2096921,2096921,162379,676040,0
2096921,2096921,162256,676132,0
2096921,2096921,162532,676214,0
2096921,2096921,162418,676378,0
2096921,2096921,162568,676233,0
2096921,2096921,162435,676269,0
2096921,2096921,162516,676284,0
2096921,2096921,162641,676084,0
2096921,2096921,162847,676534,0
2096921,2096921,162777,676614,0
2096921,2096921,162769,676746,0
2096921,2096921,162579,676713,0
2096921,2096921,162490,676661,0
2096921,2096921,162661,676888,0
2096921,2096921,162508,677027,0
2096921,2096921,162723,677083,0
2096921,2096921,162852,676537,0
2096921,2096921,163011,676741,0
2096921,2096921,162688,677144,0
2096921,2096921,162796,677203,0
2096921,2096921,162615,677323,0
2096921,2096921,162784,677443,0
2096921,2096921,162578,677080,0
2096921,2096921,162753,676940,0
2096921,2096921,162534,677089,0
2096921,2096921,162974,677190,0
2096921,2096921,162840,677378,0
2096921,2096921,163096,677381,0
2096921,2096921,162639,677758,0
2096921,2096921,162654,677804,0
2096921,2096921,162925,677891,0
2096921,2096921,163086,677601,0
2096921,2096921,162879,677697,0
2096921,2096921,162732,677248,0
2096921,2096921,162802,677519,0
2096921,2096921,162720,677607,0
2096921,2096921,162704,677731,0
2096921,2096921,162797,677554,0
2096921,2096921,162769,677642,0
2096921,2096921,162571,677399,0
2096921,2096921,162736,677659,0
2096921,2096921,162454,677407,0
2096921,2096921,162277,677411,0
2096921,2096921,162438,677185,0
2096921,2096921,162469,677067,0
2096921,2096921,162511,677100,0
2096921,2096921,162811,677362,0
2096921,2096921,162501,677286,0
2096921,2096921,162426,677087,0
2096921,2096921,162498,676865,0
2096921,2096921,162217,677197,0
2096921,2096921,162129,676815,0
2096921,2096921,161929,676825,0
2096921,2096921,161744,676328,0
2096921,2096921,161721,676137,0
2096921,2096921,162134,676096,0
2096921,2096921,161952,676293,0
2096921,2096921,161197,676337,0
2096921,2096921,161088,675052,0
2096921,2096921,161378,674913,0
2096921,2096921,161011,674990,0
2096921,2096921,161335,674770,0
2096921,2096921,160569,674725,0
2096921,2096921,160584,673351,0
2096921,2096921,160399,672864,0
2096921,2096921,160139,672780,0
2096921,2096921,160479,672959,0
2096921,2096921,159920,672797,0
2096921,2096921,159820,671657,0
2096921,2096921,159796,671574,0
2096921,2096921,159680,671758,0
2096921,2096921,159511,671702,0
2096921,2096921,159148,671710,0
2096921,2096921,159184,670633,0
2096921,2096921,159071,670721,0
2096921,2096921,159457,670451,0
2096921,2096921,159203,670332,0
2096921,2096921,158773,670436,0
2096921,2096921,158976,670119,0
2096921,2096921,158856,670022,0
2096921,2096921,158759,669780,0
2096921,2096921,158935,669875,0
2096921,2096921,159035,669829,0
2096921,2096921,158801,669572,0
2096921,2096921,158324,669766,0
2096921,2096921,158332,669739,0
2096921,2096921,158809,669703,0
2096921,2096921,158230,669332,0
2096921,2096921,158325,669473,0
2096921,2096921,158395,669274,0
2096921,2096921,158363,669436,0
2096921,2096921,158259,669538,0
2096921,2096921,158363,669123,0
2096921,2096921,158358,669261,0
2096921,2096921,158211,669391,0
2096921,2096921,158250,669164,0
2096921,2096921,158411,669482,0
2096921,2096921,158723,669438,0
2096921,2096921,158548,669632,0
2096921,2096921,158467,669461,0
2096921,2096921,158565,669306,0
2096921,2096921,158329,669231,0
2096921,2096921,158499,669090,0
2096921,2096921,158659,669486,0
2096921,2096921,158477,669420,0
2096921,2096921,158682,669743,0
2096921,2096921,158619,669368,0
2096921,2096921,158554,669722,0
2096921,2096921,158681,669886,0
2096921,2096921,158344,669993,0
2096921,2096921,158699,669794,0
2096921,2096921,158825,669826,0
2096921,2096921,158427,669891,0
2096921,2096921,158705,670131,0
2096921,2096921,158655,670135,0
2096921,2096921,158676,670347,0
2096921,2096921,158354,670149,0
2096921,2096921,158899,670139,0
2096921,2096921,158764,670470,0
2096921,2096921,158603,670631,0
2096921,2096921,158626,670410,0
2096921,2096921,158824,670237,0
2096921,2096921,158793,670423,0
2096921,2096921,158686,670919,0
2096921,2096921,158846,671077,0
2096921,2096921,159096,670864,0
2096921,2096921,159060,671346,0
2096921,2096921,159052,671005,0
2096921,2096921,159088,671221,0
2096921,2096921,159313,671369,0
2096921,2096921,158933,671679,0
2096921,2096921,159169,671472,0
2096921,2096921,159358,671716,0
2096921,2096921,159121,672052,0
2096921,2096921,159423,671980,0
2096921,2096921,159366,671856,0
2096921,2096921,159734,671861,0
2096921,2096921,159595,672219,0
2096921,2096921,159879,672538,0
2096921,2096921,159868,672482,0
2096921,2096921,159670,672557,0
2096921,2096921,159554,672502,0
2096921,2096921,160029,672221,0
2096921,2096921,159827,672798,0
2096921,2096921,159545,673026,0
2096921,2096921,159737,673405,0
2096921,2096921,159758,672972,0
2096921,2096921,159682,673367,0
2096921,2096921,159912,673439,0
2096921,2096921,159957,673264,0
2096921,2096921,160090,673277,0
2096921,2096921,160138,673563,0
2096921,2096921,160314,673424,0
2096921,2096921,160254,673632,0
2096921,2096921,160132,673825,0
2096921,2096921,160177,674009,0
2096921,2096921,160373,673723,0
2096921,2096921,160759,673662,0
2096921,2096921,160517,674333,0
2096921,2096921,160411,674493,0
2096921,2096921,160313,674358,0
2096921,2096921,160330,674505,0
2096921,2096921,160302,674546,0
2096921,2096921,160677,674615,0
2096921,2096921,160556,674549,0
2096921,2096921,160408,674668,0
2096921,2096921,160452,674851,0
2096921,2096921,160894,675027,0
2096921,2096921,160709,675669,0
2096921,2096921,160757,675504,0
2096921,2096921,160559,675475,0
2096921,2096921,160617,675478,0
2096921,2096921,160654,675609,0
2096921,2096921,161019,675939,0
2096921,2096921,160791,675908,0
2096921,2096921,161025,676110,0
2096921,2096921,160808,676147,0
2096921,2096921,161042,675838,0
2096921,2096921,161062,676502,0
2096921,2096921,161484,676537,0
2096921,2096921,161464,676556,0
2096921,2096921,161299,676462,0
2096921,2096921,161354,676704,0
2096921,2096921,161168,677179,0
2096921,2096921,161234,676654,0
2096921,2096921,161241,676807,0
2096921,2096921,161544,676826,0
2096921,2096921,161470,676887,0
2096921,2096921,161741,677412,0
2096921,2096921,161479,677275,0
2096921,2096921,161617,676866,0
2096921,2096921,161544,676756,0
2096921,2096921,161462,677403,0
2096921,2096921,161631,677453,0
2096921,2096921,161605,677570,0
2096921,2096921,161962,677748,0
2096921,2096921,161564,677489,0
2096921,2096921,161760,677532,0
2096921,2096921,161694,677751,0
2096921,2096921,161720,677726,0
2096921,2096921,161818,677591,0
2096921,2096921,161667,677880,0
2096921,2096921,161675,677746,0
2096921,2096921,161600,678063,0
2096921,2096921,161703,678051,0
2096921,2096921,161543,677765,0
2096921,2096921,161711,678008,0
2096921,2096921,161889,678014,0
2096921,2096921,161728,677912,0
2096921,2096921,162117,677871,0
2096921,2096921,161831,678023,0
2096921,2096921,161655,678225,0
2096921,2096921,161743,677884,0
2096921,2096921,161921,678150,0
2096921,2096921,162064,678243,0
2096921,2096921,161942,677997,0
2096921,2096921,161843,678229,0
2096921,2096921,161963,678240,0
2096921,2096921,161788,678224,0
2096921,2096921,161880,678346,0
2096921,2096921,161945,678259,0
2096921,2096921,161750,678315,0
2096921,2096921,161952,678312,0
2096921,2096921,161475,678058,0
2096921,2096921,161635,677907,0
2096921,2096921,161665,677881,0
2096921,2096921,161592,677881,0
2096921,2096921,162037,678072,0
2096921,2096921,161992,677710,0
2096921,2096921,161820,677781,0
2096921,2096921,161612,677904,0
2096921,2096921,161584,677714,0
2096921,2096921,161631,678058,0
2096921,2096921,161655,677922,0
2096921,2096921,161697,677820,0
2096921,2096921,161758,677716,0
2096921,2096921,161702,677657,0
2096921,2096921,161518,677908,0
2096921,2096921,161620,677827,0
2096921,2096921,161670,678162,0
2096921,2096921,161437,677992,0
2096921,2096921,161480,677934,0
2096921,2096921,161542,677922,0
2096921,2096921,161278,677717,0
2096921,2096921,161326,677891,0
2096921,2096921,161429,677757,0
2096921,2096921,161379,677913,0
2096921,2096921,161554,678018,0
2096921,2096921,161626,677990,0
2096921,2096921,161521,678048,0
2096921,2096921,161411,677744,0
2096921,2096921,161588,677904,0
2096921,2096921,161541,677769,0
2096921,2096921,161760,677852,0
2096921,2096921,161781,677915,0
2096921,2096921,161899,678201,0
2096921,2096921,161646,677952,0
2096921,2096921,161523,677693,0
2096921,2096921,161433,677900,0
2096921,2096921,161951,677883,0
2096921,2096921,161865,677925,0
2096921,2096921,161882,677964,0
2096921,2096921,161629,677993,0
2096921,2096921,161540,678069,0
2096921,2096921,161496,678003,0
2096921,2096921,161806,677792,0
2096921,2096921,161935,678056,0
2096921,2096921,161667,678107,0
2096921,2096921,161773,678743,0
2096921,2096921,161912,678269,0
2096921,2096921,161748,678434,0
2096921,2096921,161758,678423,0
2096921,2096921,161707,678166,0
2096921,2096921,161908,678548,0
2096921,2096921,162131,678905,0
2096921,2096921,162062,679045,0
2096921,2096921,162198,678783,0
2096921,2096921,162209,678655,0
2096921,2096921,162286,678988,0
2096921,2096921,161900,679076,0
2096921,2096921,161936,679010,0
2096921,2096921,161897,678948,0
2096921,2096921,162068,679305,0
2096921,2096921,162154,679226,0
2096921,2096921,162191,679019,0
2096921,2096921,162222,679068,0
2096921,2096921,162418,679452,0
2096921,2096921,162506,679185,0
2096921,2096921,162576,679467,0
2096921,2096921,162445,679443,0
2096921,2096921,162211,679473,0
2096921,2096921,162155,679375,0
2096921,2096921,162355,679088,0
2096921,2096921,162362,679473,0
2096921,2096921,162322,679686,0
2096921,2096921,162566,679599,0
2096921,2096921,162511,679731,0
2096921,2096921,162620,679694,0
2096921,2096921,162620,679821,0
2096921,2096921,162542,679696,0
2096921,2096921,162616,679752,0
2096921,2096921,162743,679897,0
2096921,2096921,162542,679567,0
2096921,2096921,162368,680021,0
2096921,2096921,162634,679913,0
2096921,2096921,162788,679902,0
2096921,2096921,162504,679989,0
2096921,2096921,162613,680023,0
2096921,2096921,162716,680541,0
2096921,2096921,162871,680316,0
2096921,2096921,162873,680421,0
2096921,2096921,163034,680249,0
2096921,2096921,162701,680123,0
2096921,2096921,162805,680189,0
2096921,2096921,162532,680630,0
2096921,2096921,162855,680615,0
2096921,2096921,162541,680359,0
2096921,2096921,162599,680436,0
2096921,2096921,162374,680776,0
2096921,2096921,162760,680581,0
2096921,2096921,162947,680669,0
2096921,2096921,163011,680688,0
2096921,2096921,162986,680712,0
2096921,2096921,163273,680799,0
2096921,2096921,163038,681243,0
2096921,2096921,163021,680863,0
2096921,2096921,162975,681050,0
2096921,2096921,163371,680848,0
2096921,2096921,163411,681088,0
2096921,2096921,163337,681139,0
2096921,2096921,163177,681128,0
2096921,2096921,162992,681093,0
2096921,2096921,163061,680858,0
2096921,2096921,163052,681211,0
2096921,2096921,163297,681275,0
2096921,2096921,162846,681318,0
2096921,2096921,163197,681306,0
2096921,2096921,163012,681162,0
2096921,2096921,163305,681541,0
2096921,2096921,163193,681324,0
2096921,2096921,163290,681326,0
2096921,2096921,162921,681716,0
2096921,2096921,163412,681404,0
2096921,2096921,163479,682027,0
2096921,2096921,163263,681646,0
2096921,2096921,163212,681419,0
2096921,2096921,163405,681518,0
2096921,2096921,163227,681548,0
2096921,2096921,163318,681976,0
2096921,2096921,163428,681954,0
2096921,2096921,163429,682252,0
2096921,2096921,163555,681876,0
2096921,2096921,163504,681914,0
2096921,2096921,163793,681895,0
2096921,2096921,163620,681768,0
2096921,2096921,163344,681922,0
2096921,2096921,163674,682233,0
2096921,2096921,163488,682198,0
2096921,2096921,163451,682100,0
2096921,2096921,163556,681944,0
2096921,2096921,163687,682062,0
2096921,2096921,163595,681860,0
2096921,2096921,163509,682273,0
2096921,2096921,163656,682309,0
2096921,2096921,163785,682376,0
2096921,2096921,163599,682431,0
2096921,2096921,163673,682552,0
2096921,2096921,163869,682375,0
2096921,2096921,163732,682222,0
2096921,2096921,163609,682532,0
2096921,2096921,163576,682397,0
2096921,2096921,163557,682486,0
2096921,2096921,163533,682579,0
2096921,2096921,163668,682490,0
2096921,2096921,163863,682473,0
2096921,2096921,163744,682135,0
2096921,2096921,163855,682540,0
2096921,2096921,163968,682475,0
2096921,2096921,163676,682606,0
2096921,2096921,163984,682786,0
2096921,2096921,163954,682835,0
2096921,2096921,164061,682899,0
2096921,2096921,163742,682729,0
2096921,2096921,163741,683070,0
2096921,2096921,164167,682902,0
2096921,2096921,164040,683024,0
2096921,2096921,163848,682805,0
2096921,2096921,163907,683084,0
2096921,2096921,163877,682923,0
2096921,2096921,163770,682978,0
2096921,2096921,163822,683076,0
2096921,2096921,163905,683151,0
2096921,2096921,163762,682756,0
2096921,2096921,163795,682919,0
2096921,2096921,163699,683175,0
2096921,2096921,163732,683070,0
2096921,2096921,163722,683070,0
2096921,2096921,163891,683046,0
2096921,2096921,164253,682767,0
2096921,2096921,164209,683340,0
2096921,2096921,164097,683489,0
2096921,2096921,163801,683414,0
2096921,2096921,163899,683250,0
2096921,2096921,164315,683117,0
2096921,2096921,164049,683506,0
2096921,2096921,164042,683382,0
2096921,2096921,164059,683117,0
2096921,2096921,164395,683163,0
2096921,2096921,164055,683343,0
2096921,2096921,164207,683575,0
2096921,2096921,164107,683080,0
2096921,2096921,164254,683256,0
2096921,2096921,164280,683166,0
2096921,2096921,163933,683315,0
2096921,2096921,164048,683425,0
2096921,2096921,164292,683186,0
2096921,2096921,163961,683558,0
2096921,2096921,164019,683529,0
2096921,2096921,164097,683584,0
2096921,2096921,164041,683427,0
2096921,2096921,163942,683561,0
2096921,2096921,164068,683597,0
2096921,2096921,164218,683175,0
2096921,2096921,163936,683382,0
2096921,2096921,164417,683410,0
2096921,2096921,164166,683583,0
2096921,2096921,164359,683562,0
2096921,2096921,164177,683257,0
2096921,2096921,164445,683206,0
2096921,2096921,164335,683373,0
2096921,2096921,164298,683166,0
2096921,2096921,164063,683442,0
2096921,2096921,164229,683516,0
2096921,2096921,164025,683469,0
2096921,2096921,164187,683260,0
2096921,2096921,164110,683566,0
2096921,2096921,164210,683545,0
2096921,2096921,164107,683475,0
2096921,2096921,164338,683331,0
2096921,2096921,164205,683589,0
2096921,2096921,164058,683492,0
2096921,2096921,164104,683578,0
2096921,2096921,164002,683580,0
2096921,2096921,163987,683747,0
2096921,2096921,164366,683768,0
2096921,2096921,164280,683902,0
2096921,2096921,164183,683721,0
2096921,2096921,164028,683530,0
2096921,2096921,164328,683429,0
2096921,2096921,164462,683821,0
2096921,2096921,164250,683555,0
2096921,2096921,164173,683596,0
2096921,2096921,164271,683567,0
2096921,2096921,164313,683660,0
2096921,2096921,164262,683389,0
2096921,2096921,164160,683218,0
2096921,2096921,164127,683265,0
2096921,2096921,164380,683445,0
2096921,2096921,164218,683518,0
2096921,2096921,164402,683592,0
2096921,2096921,164044,683819,0
2096921,2096921,164052,683709,0
2096921,2096921,164292,683594,0
2096921,2096921,164080,683530,0
2096921,2096921,164254,683482,0
2096921,2096921,164307,683607,0
2096921,2096921,164100,683357,0
2096921,2096921,164328,683453,0
2096921,2096921,164342,683162,0
2096921,2096921,164401,683342,0
2096921,2096921,164449,683412,0
2096921,2096921,164456,683477,0
2096921,2096921,164507,683542,0
2096921,2096921,164341,683106,0
2096921,2096921,164111,683307,0
2096921,2096921,164334,683314,0
2096921,2096921,164342,683603,0
2096921,2096921,164339,683291,0
2096921,2096921,164261,683247,0
2096921,2096921,164063,683226,0
2096921,2096921,164088,683378,0
2096921,2096921,164198,683367,0
2096921,2096921,164544,683308,0
2096921,2096921,164302,683055,0
2096921,2096921,164122,683604,0
2096921,2096921,164085,683202,0
2096921,2096921,163993,683435,0
2096921,2096921,164275,683517,0
2096921,2096921,164437,683371,0
2096921,2096921,164206,683382,0
2096921,2096921,164642,683341,0
2096921,2096921,164267,683200,0
2096921,2096921,164109,683292,0
2096921,2096921,164291,683131,0
2096921,2096921,164086,682974,0
2096921,2096921,164075,683195,0
2096921,2096921,164277,683120,0
2096921,2096921,164116,683114,0
2096921,2096921,164210,683055,0
2096921,2096921,163941,682729,0
2096921,2096921,164416,682645,0
2096921,2096921,164443,682621,0
2096921,2096921,164156,682797,0
2096921,2096921,163818,682866,0
2096921,2096921,163896,682766,0
2096921,2096921,164086,683153,0
2096921,2096921,164172,683093,0
2096921,2096921,164082,682612,0
2096921,2096921,163996,682715,0
2096921,2096921,164376,682788,0
2096921,2096921,163934,682619,0
2096921,2096921,164154,682674,0
2096921,2096921,163760,682670,0
2096921,2096921,164126,682648,0
2096921,2096921,164083,682644,0
2096921,2096921,164080,682570,0
2096921,2096921,163887,682590,0
2096921,2096921,163843,682815,0
2096921,2096921,164084,682676,0
2096921,2096921,164098,682178,0
2096921,2096921,163988,682319,0
2096921,2096921,164128,682176,0
2096921,2096921,164032,682378,0
2096921,2096921,164130,682329,0
2096921,2096921,164033,682040,0
2096921,2096921,163910,682503,0
2096921,2096921,164222,682365,0
2096921,2096921,163738,682620,0
2096921,2096921,163694,682204,0
2096921,2096921,163837,682195,0
2096921,2096921,164077,682109,0
2096921,2096921,164075,681566,0
2096921,2096921,163846,681789,0
2096921,2096921,163685,681399,0
2096921,2096921,163982,681880,0
2096921,2096921,163810,681610,0
2096921,2096921,163708,681804,0
2096921,2096921,163872,681670,0
2096921,2096921,163863,681393,0
2096921,2096921,163723,681191,0
2096921,2096921,163539,681176,0
2096921,2096921,163499,681182,0
2096921,2096921,163341,680800,0
2096921,2096921,163064,680386,0
2096921,2096921,163163,680512,0
2096921,2096921,163161,680518,0
2096921,2096921,163352,680337,0
2096921,2096921,163189,680640,0
2096921,2096921,163153,679652,0
2096921,2096921,162873,679860,0
2096921,2096921,162580,679692,0
2096921,2096921,162525,679486,0
2096921,2096921,162480,679613,0
2096921,2096921,162273,678578,0
2096921,2096921,162509,678633,0
2096921,2096921,162774,678620,0
2096921,2096921,162723,678474,0
2096921,2096921,162059,678387,0
2096921,2096921,161608,677005,0
2096921,2096921,161682,676845,0
2096921,2096921,161735,676842,0
2096921,2096921,161955,676753,0
2096921,2096921,161372,677102,0
2096921,2096921,160872,675103,0
2096921,2096921,160831,674707,0
2096921,2096921,160842,674664,0
2096921,2096921,160701,674578,0
2096921,2096921,160310,674483,0
2096921,2096921,160368,672947,0
2096921,2096921,160110,672792,0
2096921,2096921,160127,672780,0
2096921,2096921,160027,672608,0
2096921,2096921,159412,672520,0
2096921,2096921,159402,671712,0
2096921,2096921,159734,671517,0
2096921,2096921,159708,671444,0
2096921,2096921,159688,671446,0
2096921,2096921,159405,671478,0
2096921,2096921,159335,670648,0
2096921,2096921,158982,670226,0
2096921,2096921,158786,670336,0
2096921,2096921,159051,670534,0
2096921,2096921,158801,670658,0
2096921,2096921,158652,669866,0
2096921,2096921,158702,669893,0
2096921,2096921,158589,669756,0
2096921,2096921,158470,669691,0
2096921,2096921,158456,669498,0
2096921,2096921,158446,668955,0
2096921,2096921,158296,668840,0
2096921,2096921,158397,668889,0
2096921,2096921,158312,669077,0
2096921,2096921,158106,668809,0
2096921,2096921,158135,668496,0
2096921,2096921,158113,668306,0
2096921,2096921,158193,668419,0
2096921,2096921,158230,668382,0
2096921,2096921,158122,668353,0
2096921,2096921,158305,668306,0
2096921,2096921,158116,668479,0
2096921,2096921,158241,668188,0
2096921,2096921,158180,667976,0
2096921,2096921,158127,667942,0
2096921,2096921,157965,667800,0
2096921,2096921,158174,667887,0
2096921,2096921,157968,668011,0
2096921,2096921,158030,667632,0
2096921,2096921,158024,667770,0
2096921,2096921,158258,667631,0
2096921,2096921,158107,668010,0
2096921,2096921,157964,667911,0
2096921,2096921,157881,667915,0
2096921,2096921,158053,668122,0
2096921,2096921,158036,668034,0
2096921,2096921,158341,667886,0
2096921,2096921,158059,667803,0
2096921,2096921,157848,667916,0
2096921,2096921,158038,667814,0
2096921,2096921,158132,667691,0
2096921,2096921,157875,667605,0
2096921,2096921,158221,667635,0
2096921,2096921,158112,667676,0
2096921,2096921,158244,667261,0
2096921,2096921,158007,667379,0
2096921,2096921,158327,667740,0
2096921,2096921,158037,667716,0
2096921,2096921,158136,667608,0
2096921,2096921,158182,667587,0
2096921,2096921,158379,667877,0
2096921,2096921,158242,667946,0
2096921,2096921,158257,667967,0
2096921,2096921,158193,667720,0
2096921,2096921,158275,667849,0
2096921,2096921,158198,668242,0
2096921,2096921,158121,667624,0
2096921,2096921,158226,667907,0
2096921,2096921,158278,667838,0
2096921,2096921,158413,668145,0
2096921,2096921,158591,667711,0
2096921,2096921,158652,667946,0
2096921,2096921,158661,667992,0
2096921,2096921,158276,668057,0
2096921,2096921,158589,668040,0
2096921,2096921,158550,668119,0
2096921,2096921,158651,668080,0
2096921,2096921,158515,668324,0
2096921,2096921,158494,668057,0
2096921,2096921,158450,668284,0
2096921,2096921,158800,668332,0
2096921,2096921,158762,668144,0
2096921,2096921,158601,668291,0
2096921,2096921,158686,668336,0
2096921,2096921,158649,668196,0
2096921,2096921,158972,668546,0
2096921,2096921,158554,668637,0
2096921,2096921,158701,668412,0
2096921,2096921,158964,668273,0
2096921,2096921,159050,668271,0
2096921,2096921,159138,668689,0
2096921,2096921,158945,668520,0
2096921,2096921,158964,668779,0
2096921,2096921,158870,668551,0
2096921,2096921,159052,668598,0
2096921,2096921,158870,668410,0
2096921,2096921,159101,668588,0
2096921,2096921,158880,668483,0
2096921,2096921,159001,668957,0
2096921,2096921,159520,668668,0
2096921,2096921,159080,669110,0
2096921,2096921,159115,668726,0
2096921,2096921,158990,668765,0
2096921,2096921,159026,668699,0
2096921,2096921,159148,668665,0
2096921,2096921,159224,668628,0
2096921,2096921,159200,668728,0
2096921,2096921,159223,668792,0
2096921,2096921,159368,668862,0
2096921,2096921,159084,669079,0
2096921,2096921,159353,668877,0
2096921,2096921,159223,669180,0
2096921,2096921,159594,669018,0
2096921,2096921,159041,669056,0
2096921,2096921,159244,669040,0
2096921,2096921,159425,669333,0
2096921,2096921,159228,668903,0
2096921,2096921,159512,668903,0
2096921,2096921,159566,669038,0
2096921,2096921,159427,668911,0
2096921,2096921,159268,669047,0
2096921,2096921,159377,669344,0
2096921,2096921,159440,669168,0
2096921,2096921,159559,669188,0
2096921,2096921,159408,669117,0
2096921,2096921,159361,669299,0
2096921,2096921,159321,669101,0
2096921,2096921,159316,669109,0
2096921,2096921,159305,668971,0
2096921,2096921,159540,669095,0
2096921,2096921,159355,668788,0
2096921,2096921,159600,668955,0
2096921,2096921,159637,668847,0
2096921,2096921,159332,668809,0
2096921,2096921,159442,669067,0
2096921,2096921,159672,668842,0
2096921,2096921,159395,668929,0
2096921,2096921,159367,668397,0
2096921,2096921,159411,668542,0
2096921,2096921,159535,668711,0
2096921,2096921,159290,668495,0
2096921,2096921,159213,668587,0
2096921,2096921,159358,668438,0
2096921,2096921,159395,668437,0
2096921,2096921,159530,668621,0
2096921,2096921,159442,668316,0
2096921,2096921,159517,668436,0
2096921,2096921,159416,668265,0
2096921,2096921,159534,668321,0
2096921,2096921,159526,668206,0
2096921,2096921,159201,667869,0
2096921,2096921,159197,667771,0
2096921,2096921,159290,667982,0
2096921,2096921,158979,667869,0
2096921,2096921,159183,668002,0
2096921,2096921,158948,667762,0
2096921,2096921,159147,667708,0
2096921,2096921,158900,667696,0
2096921,2096921,158964,667407,0
2096921,2096921,158892,667760,0
2096921,2096921,159135,667223,0
2096921,2096921,159151,667464,0
2096921,2096921,159081,667249,0
2096921,2096921,159143,667067,0
2096921,2096921,159011,667319,0
2096921,2096921,159037,666919,0
2096921,2096921,159030,666929,0
2096921,2096921,159076,667177,0
2096921,2096921,158822,667058,0
2096921,2096921,158516,667090,0
2096921,2096921,158806,666483,0
2096921,2096921,158565,666171,0
2096921,2096921,158720,666501,0
2096921,2096921,158658,666316,0
2096921,2096921,159082,666388,0
2096921,2096921,158861,666263,0
2096921,2096921,158864,666199,0
2096921,2096921,158911,666093,0
2096921,2096921,158684,666025,0
2096921,2096921,158781,666147,0
2096921,2096921,158415,665823,0
2096921,2096921,158800,665969,0
2096921,2096921,158655,666089,0
2096921,2096921,158483,665958,0
2096921,2096921,158301,665711,0
2096921,2096921,158545,665589,0
2096921,2096921,158327,665754,0
2096921,2096921,158618,665881,0
2096921,2096921,158603,665742,0
2096921,2096921,158861,665706,0
2096921,2096921,158476,665853,0
2096921,2096921,158401,665730,0
2096921,2096921,158571,665886,0
2096921,2096921,158464,665511,0
2096921,2096921,158615,665465,0
2096921,2096921,158595,665174,0
2096921,2096921,158695,665747,0
2096921,2096921,158647,665759,0
2096921,2096921,158606,665422,0
2096921,2096921,158683,665421,0
2096921,2096921,158607,665391,0
2096921,2096921,158576,665483,0
2096921,2096921,158506,665228,0
2096921,2096921,158523,665581,0
2096921,2096921,158852,665464,0
2096921,2096921,158915,665276,0
2096921,2096921,158811,665420,0
2096921,2096921,158836,665268,0
2096921,2096921,158662,665492,0
2096921,2096921,158915,665352,0
2096921,2096921,158794,665875,0
2096921,2096921,158498,665640,0
2096921,2096921,158832,665564,0
2096921,2096921,158715,665257,0
2096921,2096921,158838,665202,0
2096921,2096921,158948,665437,0
2096921,2096921,158879,665530,0
2096921,2096921,158606,665268,0
2096921,2096921,158711,665254,0
2096921,2096921,159037,665565,0
2096921,2096921,158728,665518,0
2096921,2096921,158914,665475,0
2096921,2096921,158814,665688,0
2096921,2096921,159005,665687,0
2096921,2096921,158873,665361,0
2096921,2096921,158878,665312,0
2096921,2096921,159000,665354,0
2096921,2096921,158871,665552,0
2096921,2096921,158739,665350,0
2096921,2096921,158917,665627,0
2096921,2096921,158917,665481,0
2096921,2096921,159041,665454,0
2096921,2096921,158749,665033,0
2096921,2096921,158768,665391,0
2096921,2096921,158722,664974,0
2096921,2096921,158747,665288,0
2096921,2096921,158812,665571,0
2096921,2096921,158541,665382,0
2096921,2096921,158797,665242,0
2096921,2096921,159011,665262,0
2096921,2096921,159014,665463,0
2096921,2096921,158759,665530,0
2096921,2096921,158853,665255,0
2096921,2096921,158921,665071,0
2096921,2096921,159041,665121,0
2096921,2096921,158565,665280,0
2096921,2096921,158402,665032,0
2096921,2096921,158630,665283,0
2096921,2096921,158921,665358,0
2096921,2096921,159292,665168,0
2096921,2096921,159433,665358,0
2096921,2096921,158774,665583,0
2096921,2096921,159006,665473,0
2096921,2096921,159025,665232,0
2096921,2096921,159234,665117,0
2096921,2096921,158921,665122,0
2096921,2096921,159060,665548,0
2096921,2096921,159018,665011,0
2096921,2096921,159220,665306,0
2096921,2096921,159303,665274,0
2096921,2096921,159129,664886,0
2096921,2096921,158915,665103,0
2096921,2096921,159073,665359,0
2096921,2096921,158860,665011,0
2096921,2096921,158959,665015,0
2096921,2096921,158943,665048,0
2096921,2096921,159252,665208,0
2096921,2096921,159030,665333,0
2096921,2096921,158981,665212,0
2096921,2096921,159249,665158,0
2096921,2096921,158985,665031,0
2096921,2096921,159258,665343,0
2096921,2096921,159078,665377,0
2096921,2096921,159182,665257,0
2096921,2096921,159356,665049,0
2096921,2096921,159239,665184,0
2096921,2096921,159110,665263,0
2096921,2096921,159148,665269,0
2096921,2096921,159121,665267,0
2096921,2096921,159417,664925,0
2096921,2096921,159236,664854,0
2096921,2096921,159062,665063,0
2096921,2096921,158946,665329,0
2096921,2096921,159176,665132,0
2096921,2096921,158847,665092,0
2096921,2096921,159054,664976,0
2096921,2096921,159166,665019,0
2096921,2096921,159264,664772,0
2096921,2096921,159534,665024,0
2096921,2096921,159088,664845,0
2096921,2096921,159391,665195,0
2096921,2096921,159300,664937,0
2096921,2096921,159405,665023,0
2096921,2096921,159159,664698,0
2096921,2096921,158977,664913,0
2096921,2096921,158942,664667,0
2096921,2096921,159476,664770,0
2096921,2096921,159111,664631,0
2096921,2096921,159202,664738,0
2096921,2096921,159098,664812,0
2096921,2096921,159203,665065,0
2096921,2096921,159219,665113,0
2096921,2096921,159360,665038,0
2096921,2096921,159350,664858,0
2096921,2096921,159423,664684,0
2096921,2096921,159297,664641,0
2096921,2096921,159141,664884,0
2096921,2096921,159191,665070,0
2096921,2096921,159108,664949,0
2096921,2096921,159437,664917,0
2096921,2096921,159422,665192,0
2096921,2096921,159351,664923,0
2096921,2096921,159316,664755,0
2096921,2096921,159315,664808,0
2096921,2096921,159414,664824,0
2096921,2096921,159230,664878,0
2096921,2096921,159373,664781,0
2096921,2096921,159316,665052,0
2096921,2096921,159478,664916,0
2096921,2096921,159624,664718,0
2096921,2096921,159420,664654,0
2096921,2096921,159587,664381,0
2096921,2096921,159506,664642,0
2096921,2096921,159526,664864,0
2096921,2096921,159441,664632,0
2096921,2096921,159422,664567,0
2096921,2096921,159131,664615,0
2096921,2096921,159309,664745,0
2096921,2096921,159268,664867,0
2096921,2096921,159286,664790,0
2096921,2096921,159364,664467,0
2096921,2096921,159383,664309,0
2096921,2096921,159062,664438,0
2096921,2096921,159667,664297,0
2096921,2096921,159512,664193,0
2096921,2096921,159410,664315,0
2096921,2096921,159296,664349,0
2096921,2096921,159307,664661,0
2096921,2096921,159168,664631,0
2096921,2096921,159196,664525,0
2096921,2096921,159272,664355,0
2096921,2096921,159336,664266,0
2096921,2096921,159155,664587,0
2096921,2096921,159234,664209,0
2096921,2096921,159456,664565,0
2096921,2096921,159667,664364,0
2096921,2096921,159342,664382,0
2096921,2096921,159317,664068,0
2096921,2096921,159484,664304,0
2096921,2096921,159549,664345,0
2096921,2096921,159402,664444,0
2096921,2096921,159252,664409,0
2096921,2096921,159342,664213,0
2096921,2096921,159406,664472,0
2096921,2096921,159450,664317,0
2096921,2096921,159225,664182,0
2096921,2096921,159251,664164,0
2096921,2096921,159437,664419,0
2096921,2096921,159212,664179,0
2096921,2096921,159363,664245,0
2096921,2096921,159283,663984,0
2096921,2096921,159219,664015,0
2096921,2096921,159586,664049,0
2096921,2096921,159491,664372,0
2096921,2096921,159498,664220,0
2096921,2096921,159378,663863,0
2096921,2096921,159309,664058,0
2096921,2096921,159116,664245,0
2096921,2096921,159291,663797,0
2096921,2096921,159597,664114,0
2096921,2096921,159349,664332,0
2096921,2096921,159509,664357,0
2096921,2096921,159231,664384,0
2096921,2096921,159404,664052,0
2096921,2096921,159434,664320,0
2096921,2096921,159483,664152,0
2096921,2096921,159244,663945,0
2096921,2096921,159391,664150,0
2096921,2096921,159154,664057,0
2096921,2096921,159619,664107,0
2096921,2096921,159515,664279,0
2096921,2096921,159463,664453,0
2096921,2096921,159563,664017,0
2096921,2096921,159273,663737,0
2096921,2096921,159331,664133,0
2096921,2096921,159494,663895,0
2096921,2096921,159590,664210,0
2096921,2096921,159474,663931,0
2096921,2096921,159169,663803,0
2096921,2096921,159276,664036,0
2096921,2096921,159223,664266,0
2096921,2096921,159306,663930,0
2096921,2096921,159229,663855,0
2096921,2096921,159316,663836,0
2096921,2096921,159319,663983,0
2096921,2096921,159518,663974,0
2096921,2096921,159509,664152,0
2096921,2096921,159629,663807,0
2096921,2096921,159381,663942,0
2096921,2096921,159467,663978,0
2096921,2096921,159763,664143,0
2096921,2096921,159416,663754,0
2096921,2096921,159155,663708,0
2096921,2096921,159172,663825,0
2096921,2096921,159323,663809,0
2096921,2096921,159129,663922,0
2096921,2096921,159028,663878,0
2096921,2096921,159298,664024,0
2096921,2096921,159474,664090,0
2096921,2096921,159217,664031,0
2096921,2096921,159178,663772,0
2096921,2096921,159395,663725,0
2096921,2096921,159382,663813,0
2096921,2096921,159505,663616,0
2096921,2096921,159395,663460,0
2096921,2096921,159453,663770,0
2096921,2096921,159775,663648,0
2096921,2096921,159384,663784,0
2096921,2096921,159622,664046,0
2096921,2096921,159508,663705,0
2096921,2096921,159723,663937,0
2096921,2096921,159633,663611,0
2096921,2096921,159242,663539,0
2096921,2096921,159327,663881,0
2096921,2096921,159368,663865,0
2096921,2096921,159386,663903,0
2096921,2096921,159475,663704,0
2096921,2096921,159589,663665,0
2096921,2096921,159284,663629,0
2096921,2096921,159578,663804,0
2096921,2096921,159231,663880,0
2096921,2096921,159346,663889,0
2096921,2096921,159138,663808,0
2096921,2096921,159130,663843,0
2096921,2096921,159475,664201,0
2096921,2096921,159422,663972,0
2096921,2096921,159207,664023,0
2096921,2096921,159462,663685,0
2096921,2096921,159541,663812,0
2096921,2096921,159675,663633,0
2096921,2096921,159242,663796,0
2096921,2096921,159441,664026,0
2096921,2096921,159439,663867,0
2096921,2096921,159197,663595,0
2096921,2096921,159214,663625,0
2096921,2096921,159155,663668,0
2096921,2096921,159172,663668,0
2096921,2096921,159057,663838,0
2096921,2096921,159174,663835,0
2096921,2096921,159407,663773,0
2096921,2096921,159412,663695,0
2096921,2096921,159258,663629,0
2096921,2096921,159114,663392,0
2096921,2096921,158929,663496,0
2096921,2096921,159245,663797,0
2096921,2096921,159363,663520,0
2096921,2096921,159607,663678,0
2096921,2096921,159237,663582,0
2096921,2096921,159438,663667,0
2096921,2096921,159312,663792,0
2096921,2096921,159549,663845,0
2096921,2096921,159532,663683,0
2096921,2096921,159151,663837,0
2096921,2096921,159296,663666,0
2096921,2096921,159096,663633,0
2096921,2096921,159070,663329,0
2096921,2096921,159082,663349,0
2096921,2096921,159117,663089,0
2096921,2096921,158943,663439,0
2096921,2096921,159148,663312,0
2096921,2096921,158869,663084,0
2096921,2096921,159142,663041,0
2096921,2096921,158836,663032,0
2096921,2096921,158984,662628,0
2096921,2096921,158725,662642,0
2096921,2096921,158977,662665,0
2096921,2096921,158732,662514,0
2096921,2096921,158749,662454,0
2096921,2096921,158901,662131,0
2096921,2096921,158717,662152,0
2096921,2096921,158552,661971,0
2096921,2096921,158113,661807,0
2096921,2096921,158446,661918,0
2096921,2096921,158337,661885,0
2096921,2096921,158242,661831,0
2096921,2096921,158251,661082,0
2096921,2096921,158090,661476,0
2096921,2096921,157841,661037,0
2096921,2096921,158126,661326,0
2096921,2096921,157705,661282,0
2096921,2096921,157443,659756,0
2096921,2096921,157388,659434,0
2096921,2096921,157333,659457,0
2096921,2096921,157249,659570,0
2096921,2096921,156477,659371,0
2096921,2096921,156525,657993,0
2096921,2096921,156602,657526,0
2096921,2096921,156607,657296,0
2096921,2096921,156461,657467,0
2096921,2096921,156061,657510,0
2096921,2096921,155890,656244,0
2096921,2096921,155750,656207,0
2096921,2096921,155697,656208,0
2096921,2096921,155663,656077,0
2096921,2096921,155392,655846,0
2096921,2096921,155258,655255,0
2096921,2096921,155058,654655,0
2096921,2096921,155124,654936,0
2096921,2096921,155229,654801,0
2096921,2096921,154848,654893,0
2096921,2096921,154786,653979,0
2096921,2096921,154972,654008,0
2096921,2096921,154879,653952,0
2096921,2096921,154959,653944,0
2096921,2096921,154674,654009,0
2096921,2096921,154576,653827,0
2096921,2096921,154820,653686,0
2096921,2096921,154762,653504,0
2096921,2096921,154628,653301,0
2096921,2096921,154647,653565,0
2096921,2096921,154372,653022,0
2096921,2096921,154472,653011,0
2096921,2096921,154358,653165,0
2096921,2096921,154548,652905,0
2096921,2096921,154548,652906,0
2096921,2096921,154427,652652,0
2096921,2096921,154184,652530,0
2096921,2096921,154298,652661,0
2096921,2096921,154314,653031,0
2096921,2096921,154391,652770,0
2096921,2096921,154251,653006,0
2096921,2096921,154718,652737,0
2096921,2096921,154518,652730,0
2096921,2096921,154026,652582,0
2096921,2096921,153993,652643,0
2096921,2096921,154233,652533,0
2096921,2096921,154483,652401,0
2096921,2096921,154386,652424,0
2096921,2096921,154350,652593,0
2096921,2096921,154485,652483,0
2096921,2096921,154195,652653,0
2096921,2096921,154279,652658,0
2096921,2096921,154402,652899,0
2096921,2096921,154470,652767,0
2096921,2096921,154560,652944,0
2096921,2096921,154343,652962,0
2096921,2096921,154391,652877,0
2096921,2096921,154201,652654,0
2096921,2096921,154318,652801,0
2096921,2096921,154416,652704,0
2096921,2096921,154424,652910,0
2096921,2096921,154563,653107,0
2096921,2096921,154584,653078,0
2096921,2096921,154302,653064,0
2096921,2096921,154449,652977,0
2096921,2096921,154420,653220,0
2096921,2096921,154411,653139,0
2096921,2096921,154624,653313,0
2096921,2096921,154543,653107,0
2096921,2096921,154642,653418,0
2096921,2096921,154597,653764,0
2096921,2096921,154891,653884,0
2096921,2096921,154613,653636,0
2096921,2096921,154445,653450,0
2096921,2096921,154786,653696,0
2096921,2096921,154816,654028,0
2096921,2096921,155038,654016,0
2096921,2096921,155027,653824,0
2096921,2096921,154964,653774,0
2096921,2096921,155317,653971,0
2096921,2096921,155339,654347,0
2096921,2096921,155424,654366,0
2096921,2096921,155075,654471,0
2096921,2096921,155087,654417,0
2096921,2096921,155289,654025,0
2096921,2096921,155360,654757,0
2096921,2096921,155153,654559,0
2096921,2096921,155015,654646,0
2096921,2096921,155129,654751,0
2096921,2096921,155534,654682,0
2096921,2096921,155205,655042,0
2096921,2096921,155306,655166,0
2096921,2096921,155109,655048,0
2096921,2096921,155289,655021,0
2096921,2096921,155410,654770,0
2096921,2096921,155618,654856,0
2096921,2096921,155202,655529,0
2096921,2096921,155392,655186,0
2096921,2096921,155307,655317,0
2096921,2096921,155417,655415,0
2096921,2096921,155799,655716,0
2096921,2096921,155692,655679,0
2096921,2096921,155522,655580,0
2096921,2096921,155781,655725,0
2096921,2096921,155714,655583,0
2096921,2096921,155811,655807,0
2096921,2096921,155739,656157,0
2096921,2096921,155955,656070,0
2096921,2096921,155958,656019,0
2096921,2096921,155995,656065,0
2096921,2096921,156126,656519,0
2096921,2096921,156063,657068,0
2096921,2096921,156328,656777,0
2096921,2096921,156100,656703,0
2096921,2096921,156302,656549,0
2096921,2096921,156133,656670,0
2096921,2096921,156365,656697,0
2096921,2096921,156300,657130,0
2096921,2096921,156352,656999,0
2096921,2096921,156213,657049,0
2096921,2096921,156538,657277,0
2096921,2096921,156526,657277,0
2096921,2096921,156488,657215,0
2096921,2096921,156044,657067,0
2096921,2096921,156220,657414,0
2096921,2096921,156383,657923,0
2096921,2096921,156550,657653,0
2096921,2096921,156431,657473,0
2096921,2096921,156548,657409,0
2096921,2096921,156399,657432,0
2096921,2096921,156824,657624,0
2096921,2096921,156748,657787,0
2096921,2096921,156497,657993,0
2096921,2096921,156596,658158,0
2096921,2096921,156629,657940,0
2096921,2096921,156686,657864,0
2096921,2096921,156650,658364,0
2096921,2096921,156520,658352,0
2096921,2096921,156840,658238,0
2096921,2096921,156616,658293,0
2096921,2096921,157104,658358,0
2096921,2096921,156830,658358,0
2096921,2096921,156971,658422,0
2096921,2096921,157037,658348,0
2096921,2096921,157101,658596,0
2096921,2096921,157016,658567,0
2096921,2096921,157205,658458,0
2096921,2096921,157048,658711,0
2096921,2096921,156705,658687,0
2096921,2096921,156889,658608,0
2096921,2096921,156883,658540,0
2096921,2096921,156892,658547,0
2096921,2096921,156966,658587,0
2096921,2096921,156725,658770,0
2096921,2096921,156901,658706,0
2096921,2096921,156740,658667,0
2096921,2096921,157157,658818,0
2096921,2096921,156653,658581,0
2096921,2096921,157024,658708,0
2096921,2096921,156910,658921,0
2096921,2096921,156799,658804,0
2096921,2096921,157198,658857,0
2096921,2096921,156884,658655,0
2096921,2096921,156816,658545,0
2096921,2096921,156919,658528,0
2096921,2096921,156965,658510,0
2096921,2096921,157071,658584,0
2096921,2096921,156942,658649,0
2096921,2096921,156691,658734,0
2096921,2096921,156829,658660,0
2096921,2096921,156720,658615,0
2096921,2096921,156824,658704,0
2096921,2096921,156659,658784,0
2096921,2096921,156463,658578,0
2096921,2096921,156725,658481,0
2096921,2096921,156810,658546,0
2096921,2096921,156810,658508,0
2096921,2096921,156970,658873,0
2096921,2096921,157088,658705,0
2096921,2096921,156935,658785,0
2096921,2096921,156989,658552,0
2096921,2096921,156893,658380,0
2096921,2096921,156628,658436,0
2096921,2096921,156692,658544,0
2096921,2096921,156746,658477,0
2096921,2096921,156667,658420,0
2096921,2096921,156861,658777,0
2096921,2096921,157003,658505,0
2096921,2096921,156728,658581,0
2096921,2096921,156763,658801,0
2096921,2096921,156722,658752,0
2096921,2096921,157111,658789,0
2096921,2096921,157131,658732,0
2096921,2096921,157016,658924,0
2096921,2096921,157010,658959,0
2096921,2096921,156832,659088,0
2096921,2096921,157013,659075,0
2096921,2096921,156763,659082,0
2096921,2096921,157049,659114,0
2096921,2096921,156971,659216,0
2096921,2096921,156899,659506,0
2096921,2096921,157061,659423,0
2096921,2096921,157240,659205,0
2096921,2096921,156965,659488,0
2096921,2096921,157219,659223,0
2096921,2096921,156890,659655,0
2096921,2096921,157083,659798,0
2096921,2096921,157257,659677,0
2096921,2096921,156970,659347,0
2096921,2096921,157185,659319,0
2096921,2096921,157156,659833,0
2096921,2096921,157105,659897,0
2096921,2096921,157078,660016,0
2096921,2096921,157372,660106,0
2096921,2096921,157160,659919,0
2096921,2096921,157238,660355,0
2096921,2096921,157566,660183,0
2096921,2096921,157445,660440,0
2096921,2096921,157935,660149,0
2096921,2096921,157574,660526,0
2096921,2096921,157683,660756,0
2096921,2096921,157650,660697,0
2096921,2096921,157386,660652,0
2096921,2096921,157517,660605,0
2096921,2096921,157704,660675,0
2096921,2096921,157930,661091,0
2096921,2096921,157875,661133,0
2096921,2096921,157583,661410,0
2096921,2096921,157628,661308,0
2096921,2096921,157930,661240,0
2096921,2096921,157922,661594,0
2096921,2096921,157900,661547,0
2096921,2096921,157899,661389,0
2096921,2096921,157627,661496,0
2096921,2096921,157890,661545,0
2096921,2096921,157649,661541,0
2096921,2096921,157954,661659,0
2096921,2096921,157743,661959,0
2096921,2096921,157938,662115,0
2096921,2096921,158086,662074,0
2096921,2096921,158092,662379,0
2096921,2096921,157868,662079,0
2096921,2096921,158102,662260,0
2096921,2096921,157986,662152,0
2096921,2096921,158343,662425,0
2096921,2096921,158283,662462,0
2096921,2096921,158101,662470,0
2096921,2096921,158124,662277,0
2096921,2096921,158142,662605,0
2096921,2096921,158322,662624,0
2096921,2096921,158604,662998,0
2096921,2096921,158436,663146,0
2096921,2096921,158699,663056,0
2096921,2096921,158566,663071,0
2096921,2096921,158174,663084,0
2096921,2096921,158652,663360,0
2096921,2096921,158691,663791,0
2096921,2096921,158619,663603,0
2096921,2096921,158402,663590,0
2096921,2096921,158596,663510,0
2096921,2096921,158708,663647,0
2096921,2096921,158635,663572,0
2096921,2096921,158958,663557,0
2096921,2096921,158825,663579,0
2096921,2096921,159086,663539,0
2096921,2096921,158749,663715,0
2096921,2096921,158622,664094,0
2096921,2096921,158626,664097,0
2096921,2096921,158552,663871,0
2096921,2096921,158933,664005,0
2096921,2096921,158959,664050,0
2096921,2096921,158742,664313,0
2096921,2096921,158749,664554,0
2096921,2096921,158563,664500,0
2096921,2096921,158954,664528,0
2096921,2096921,158972,664807,0
2096921,2096921,159162,664598,0
2096921,2096921,159261,664548,0
2096921,2096921,159333,664554,0
2096921,2096921,159286,664681,0
2096921,2096921,159113,665195,0
2096921,2096921,159137,665094,0
2096921,2096921,159066,665167,0
2096921,2096921,159051,665450,0
2096921,2096921,159288,665446,0
2096921,2096921,159190,665592,0
2096921,2096921,158821,665493,0
2096921,2096921,159394,665586,0
2096921,2096921,159447,665563,0
2096921,2096921,159621,665326,0
2096921,2096921,159520,665875,0
2096921,2096921,159181,665840,0
2096921,2096921,159471,665995,0
2096921,2096921,159382,666243,0
2096921,2096921,159537,665868,0
2096921,2096921,159666,666112,0
2096921,2096921,159826,665981,0
2096921,2096921,159453,666262,0
2096921,2096921,159628,666023,0
2096921,2096921,159681,666396,0
2096921,2096921,159752,666531,0
2096921,2096921,159742,666661,0
2096921,2096921,159900,666854,0
2096921,2096921,159714,666678,0
2096921,2096921,159645,666768,0
2096921,2096921,159625,666995,0
2096921,2096921,159569,666856,0
2096921,2096921,159770,667135,0
2096921,2096921,159653,667071,0
2096921,2096921,159605,667241,0
2096921,2096921,159962,667242,0
2096921,2096921,160193,667463,0
2096921,2096921,160410,667261,0
2096921,2096921,159706,667133,0
2096921,2096921,160053,667382,0
2096921,2096921,160338,667704,0
2096921,2096921,160286,667979,0
2096921,2096921,160034,667879,0
2096921,2096921,160089,667901,0
2096921,2096921,160270,667903,0
2096921,2096921,160060,668425,0
2096921,2096921,160021,668283,0
2096921,2096921,160143,668072,0
2096921,2096921,160185,668226,0
2096921,2096921,160330,667904,0
2096921,2096921,160462,668443,0
2096921,2096921,159986,668694,0
2096921,2096921,160430,668390,0
2096921,2096921,160068,668399,0
2096921,2096921,160456,668477,0
2096921,2096921,160764,668976,0
2096921,2096921,160632,668902,0
2096921,2096921,160407,668889,0
2096921,2096921,160038,668750,0
2096921,2096921,160527,668683,0
2096921,2096921,160605,669345,0
2096921,2096921,160704,669188,0
2096921,2096921,160503,669148,0
2096921,2096921,160627,669080,0
2096921,2096921,160651,669201,0
2096921,2096921,160446,669387,0
2096921,2096921,160553,669464,0
2096921,2096921,160731,669444,0
2096921,2096921,160640,669542,0
2096921,2096921,160731,669721,0
2096921,2096921,160729,669878,0
2096921,2096921,160717,669931,0
2096921,2096921,160736,670023,0
2096921,2096921,160622,669779,0
2096921,2096921,160874,670132,0
2096921,2096921,160683,670203,0
2096921,2096921,161005,670291,0
2096921,2096921,160968,670243,0
2096921,2096921,160584,670250,0
2096921,2096921,160579,670002,0
2096921,2096921,160826,670392,0
2096921,2096921,160762,670563,0
2096921,2096921,160771,670358,0
2096921,2096921,160804,670303,0
2096921,2096921,160880,670468,0
2096921,2096921,160931,670925,0
2096921,2096921,161087,670685,0
2096921,2096921,161249,671025,0
2096921,2096921,161026,671010,0
2096921,2096921,160946,670682,0
2096921,2096921,161226,670692,0
2096921,2096921,161002,670989,0
2096921,2096921,160995,671290,0
2096921,2096921,161193,671279,0
2096921,2096921,161227,671057,0
2096921,2096921,160957,671528,0
2096921,2096921,160939,671300,0
2096921,2096921,161023,671456,0
2096921,2096921,161150,671492,0
2096921,2096921,161020,671225,0
2096921,2096921,161303,671702,0
2096921,2096921,161355,671813,0
2096921,2096921,161311,671748,0
2096921,2096921,161252,671855,0
2096921,2096921,161160,671871,0
2096921,2096921,161374,672075,0
2096921,2096921,161422,672071,0
2096921,2096921,161312,671972,0
2096921,2096921,161162,671994,0
2096921,2096921,161111,671998,0
2096921,2096921,161319,672384,0
2096921,2096921,161316,672481,0
2096921,2096921,161389,672542,0
2096921,2096921,161490,672481,0
2096921,2096921,161743,672428,0
2096921,2096921,161385,672657,0
2096921,2096921,161457,672549,0
2096921,2096921,161748,672860,0
2096921,2096921,161451,673068,0
2096921,2096921,161474,672751,0
2096921,2096921,161261,673269,0
2096921,2096921,161593,673076,0
2096921,2096921,161636,672945,0
2096921,2096921,161760,672748,0
2096921,2096921,161631,673015,0
2096921,2096921,161810,673246,0
2096921,2096921,161778,673307,0
2096921,2096921,161810,673618,0
2096921,2096921,161748,673588,0
2096921,2096921,161672,673345,0
2096921,2096921,161726,673853,0
2096921,2096921,161957,673631,0
2096921,2096921,161933,673792,0
2096921,2096921,161900,673667,0
2096921,2096921,161752,673750,0
2096921,2096921,161682,674000,0
2096921,2096921,162139,674102,0
2096921,2096921,161793,673927,0
2096921,2096921,162027,674135,0
2096921,2096921,162019,673768,0
2096921,2096921,162040,674056,0
2096921,2096921,161936,674024,0
2096921,2096921,162105,674600,0
2096921,2096921,161961,674520,0
2096921,2096921,162230,674545,0
2096921,2096921,162029,674495,0
2096921,2096921,161925,674330,0
2096921,2096921,161896,674784,0
2096921,2096921,162009,674918,0
2096921,2096921,162140,674747,0
2096921,2096921,162333,674939,0
2096921,2096921,161816,674949,0
2096921,2096921,161916,674799,0
2096921,2096921,162148,675019,0
2096921,2096921,162069,674926,0
2096921,2096921,162211,674917,0
2096921,2096921,162298,674892,0
2096921,2096921,162172,674971,0
2096921,2096921,162189,675140,0
2096921,2096921,162222,675067,0
2096921,2096921,162043,675420,0
2096921,2096921,162213,675509,0
2096921,2096921,162441,675312,0
2096921,2096921,162312,675318,0
2096921,2096921,162450,675397,0
2096921,2096921,162647,675695,0
2096921,2096921,162248,675835,0
2096921,2096921,162258,675314,0
2096921,2096921,162257,675610,0
2096921,2096921,162290,675635,0
2096921,2096921,162326,675684,0
2096921,2096921,162236,675901,0
2096921,2096921,161952,676192,0
2096921,2096921,162106,675732,0
2096921,2096921,162373,675849,0
2096921,2096921,162476,675757,0
2096921,2096921,162665,676147,0
2096921,2096921,162592,676119,0
2096921,2096921,162606,676230,0
2096921,2096921,162592,675937,0
2096921,2096921,162389,676128,0
2096921,2096921,162296,676099,0
2096921,2096921,162632,676383,0
2096921,2096921,162439,676338,0
2096921,2096921,162663,676559,0
2096921,2096921,162678,676647,0
2096921,2096921,162803,676705,0
2096921,2096921,162518,676672,0
2096921,2096921,162631,676773,0
2096921,2096921,162669,676666,0
2096921,2096921,162726,677176,0
2096921,2096921,162550,677036,0
2096921,2096921,162571,676775,0
2096921,2096921,162472,677274,0
2096921,2096921,162711,677076,0
2096921,2096921,162817,677097,0
2096921,2096921,162852,677143,0
2096921,2096921,162679,677211,0
2096921,2096921,162787,677109,0
2096921,2096921,162281,676891,0
2096921,2096921,162555,676838,0
2096921,2096921,162751,676998,0
2096921,2096921,162785,676798,0
2096921,2096921,162403,676940,0
2096921,2096921,162237,676785,0
2096921,2096921,162384,677101,0
2096921,2096921,162829,677085,0
2096921,2096921,162429,676991,0
2096921,2096921,162745,677076,0
2096921,2096921,162630,677022,0
2096921,2096921,162605,676575,0
2096921,2096921,162530,676689,0
2096921,2096921,162258,676667,0
2096921,2096921,162355,676574,0
2096921,2096921,162336,676704,0
2096921,2096921,162269,676702,0
2096921,2096921,161948,676350,0
2096921,2096921,161965,676383,0
2096921,2096921,161735,676287,0
2096921,2096921,161769,676091,0
2096921,2096921,161740,675836,0
2096921,2096921,161902,675790,0
2096921,2096921,161633,675619,0
2096921,2096921,161848,675741,0
2096921,2096921,161173,675788,0
2096921,2096921,160946,674559,0
2096921,2096921,161305,674284,0
2096921,2096921,160992,674117,0
2096921,2096921,160875,674264,0
2096921,2096921,160002,674325,0
2096921,2096921,160121,672728,0
2096921,2096921,160049,672566,0
2096921,2096921,160432,672587,0
2096921,2096921,160447,672511,0
2096921,2096921,159541,672745,0
2096921,2096921,159612,671469,0
2096921,2096921,159777,671188,0
2096921,2096921,159573,671248,0
2096921,2096921,159594,671365,0
2096921,2096921,159249,671267,0
2096921,2096921,158899,670533,0
2096921,2096921,158845,670369,0
2096921,2096921,159073,669998,0
2096921,2096921,159142,669865,0
2096921,2096921,158790,670103,0
2096921,2096921,158549,669484,0
2096921,2096921,158488,669281,0
2096921,2096921,158505,669349,0
2096921,2096921,158669,669353,0
2096921,2096921,158719,669243,0
2096921,2096921,158429,669077,0
2096921,2096921,158677,669213,0
2096921,2096921,158651,669191,0
2096921,2096921,158602,669084,0
2096921,2096921,158606,669205,0
2096921,2096921,158460,669059,0
2096921,2096921,158292,668865,0
2096921,2096921,158349,669155,0
2096921,2096921,158392,669229,0
2096921,2096921,158357,668903,0
2096921,2096921,158272,668783,0
2096921,2096921,158547,668819,0
2096921,2096921,158041,668730,0
2096921,2096921,158459,668653,0
2096921,2096921,158351,668818,0
2096921,2096921,158468,669110,0
2096921,2096921,158421,669077,0
2096921,2096921,158691,668919,0
2096921,2096921,158335,669109,0
2096921,2096921,158349,669057,0
2096921,2096921,158366,668930,0
2096921,2096921,158337,668821,0
2096921,2096921,158297,669264,0
