2096921,2096921,183424,603113,0
2096921,2096921,183349,603040,0
2096921,2096921,183539,603302,0
2096921,2096921,183641,603564,0
2096921,2096921,183286,603505,0
2096921,2096921,183447,603293,0
2096921,2096921,183470,603423,0
2096921,2096921,183346,603675,0
2096921,2096921,183459,603759,0
2096921,2096921,183198,603689,0
2096921,2096921,183692,603480,0
2096921,2096921,183476,603495,0
2096921,2096921,183428,603762,0
2096921,2096921,183687,603575,0
2096921,2096921,183677,603590,0
2096921,2096921,183550,604088,0
2096921,2096921,183643,604016,0
2096921,2096921,183402,603776,0
2096921,2096921,183558,604032,0
2096921,2096921,183606,603866,0
2096921,2096921,183521,603838,0
2096921,2096921,183484,603938,0
2096921,2096921,183646,604065,0
2096921,2096921,183734,604276,0
2096921,2096921,183999,604263,0
2096921,2096921,183981,603944,0
2096921,2096921,183918,604067,0
2096921,2096921,183888,604175,0
2096921,2096921,184090,604202,0
2096921,2096921,183684,604170,0
2096921,2096921,183863,604329,0
2096921,2096921,183930,604094,0
2096921,2096921,183868,604474,0
2096921,2096921,183826,604405,0
2096921,2096921,184036,604786,0
2096921,2096921,183931,604081,0
2096921,2096921,183938,604509,0
2096921,2096921,184042,604466,0
2096921,2096921,183825,604404,0
2096921,2096921,183634,604658,0
2096921,2096921,183702,604480,0
2096921,2096921,183935,604579,0
2096921,2096921,183757,604691,0
2096921,2096921,183928,604789,0
2096921,2096921,184143,604490,0
2096921,2096921,184425,604666,0
2096921,2096921,184005,604770,0
2096921,2096921,183979,604756,0
2096921,2096921,183882,604828,0
2096921,2096921,183794,604743,0
2096921,2096921,183810,604988,0
2096921,2096921,183860,604631,0
2096921,2096921,184196,605080,0
2096921,2096921,184151,605141,0
2096921,2096921,184158,605394,0
2096921,2096921,184148,605174,0
2096921,2096921,184015,605054,0
2096921,2096921,183974,605193,0
2096921,2096921,184109,605209,0
2096921,2096921,184267,604997,0
2096921,2096921,183960,605145,0
2096921,2096921,184177,605214,0
2096921,2096921,184078,605311,0
2096921,2096921,184046,605431,0
2096921,2096921,184177,605447,0
2096921,2096921,184367,605309,0
2096921,2096921,184175,605589,0
2096921,2096921,184185,605656,0
2096921,2096921,184236,605754,0
2096921,2096921,184134,605778,0
2096921,2096921,184226,605822,0
2096921,2096921,184034,605752,0
2096921,2096921,184198,605636,0
2096921,2096921,184119,605644,0
2096921,2096921,184083,605511,0
2096921,2096921,184313,605386,0
2096921,2096921,183770,605246,0
2096921,2096921,183760,605497,0
2096921,2096921,184173,605097,0
2096921,2096921,184197,604995,0
2096921,2096921,183701,605143,0
2096921,2096921,183850,605219,0
2096921,2096921,183458,604640,0
2096921,2096921,183960,604565,0
2096921,2096921,183884,604792,0
2096921,2096921,183446,604529,0
2096921,2096921,183280,604487,0
2096921,2096921,183360,603565,0
2096921,2096921,183089,603383,0
2096921,2096921,182906,603514,0
2096921,2096921,183089,603831,0
2096921,2096921,182856,603781,0
2096921,2096921,183143,603136,0
2096921,2096921,182781,602761,0
2096921,2096921,183239,602490,0
2096921,2096921,182902,602900,0
2096921,2096921,181823,602710,0
2096921,2096921,181723,600829,0
2096921,2096921,181719,600447,0
2096921,2096921,181346,600467,0
2096921,2096921,181415,600120,0
2096921,2096921,180813,600426,0
2096921,2096921,180676,597819,0
2096921,2096921,180629,597870,0
2096921,2096921,180682,597576,0
2096921,2096921,180170,597882,0
2096921,2096921,179414,597753,0
2096921,2096921,179267,595997,0
2096921,2096921,179448,595467,0
2096921,2096921,179433,595297,0
2096921,2096921,179429,595091,0
2096921,2096921,178727,595338,0
2096921,2096921,178829,594199,0
2096921,2096921,178520,593803,0
2096921,2096921,178912,593788,0
2096921,2096921,178959,594102,0
2096921,2096921,178536,593689,0
2096921,2096921,178380,593000,0
2096921,2096921,178117,592796,0
2096921,2096921,178112,592883,0
2096921,2096921,178301,592676,0
2096921,2096921,177891,592585,0
2096921,2096921,177966,592211,0
2096921,2096921,178008,592309,0
2096921,2096921,178224,592075,0
2096921,2096921,178179,592073,0
2096921,2096921,177825,592124,0
2096921,2096921,177804,592063,0
2096921,2096921,177690,591485,0
2096921,2096921,177576,591506,0
2096921,2096921,177522,591634,0
2096921,2096921,177347,591570,0
2096921,2096921,177733,591539,0
2096921,2096921,177386,591424,0
2096921,2096921,177692,591682,0
2096921,2096921,177562,591627,0
2096921,2096921,177816,591303,0
2096921,2096921,177587,591512,0
2096921,2096921,177612,591541,0
2096921,2096921,177394,591730,0
2096921,2096921,177596,591701,0
2096921,2096921,177523,591574,0
2096921,2096921,177881,591740,0
2096921,2096921,177666,592035,0
2096921,2096921,177845,591886,0
2096921,2096921,177424,591907,0
2096921,2096921,177823,591877,0
2096921,2096921,177861,592239,0
2096921,2096921,177939,592612,0
2096921,2096921,177724,592489,0
2096921,2096921,177947,592826,0
2096921,2096921,178261,592427,0
2096921,2096921,178170,592883,0
2096921,2096921,178169,592996,0
2096921,2096921,178373,593052,0
2096921,2096921,178050,592984,0
2096921,2096921,177913,592828,0
2096921,2096921,177996,593394,0
2096921,2096921,178077,593335,0
2096921,2096921,178293,593275,0
2096921,2096921,178445,593541,0
2096921,2096921,178454,593726,0
2096921,2096921,178428,594184,0
2096921,2096921,178682,594294,0
2096921,2096921,178707,594197,0
2096921,2096921,178526,594147,0
2096921,2096921,179014,594090,0
2096921,2096921,178780,594750,0
2096921,2096921,178742,594910,0
2096921,2096921,178837,594993,0
2096921,2096921,178707,595160,0
2096921,2096921,178895,594775,0
2096921,2096921,179061,595810,0
2096921,2096921,179130,595729,0
2096921,2096921,179067,595952,0
2096921,2096921,179137,595704,0
2096921,2096921,179374,596099,0
2096921,2096921,179526,596705,0
2096921,2096921,179573,596741,0
2096921,2096921,179720,596560,0
2096921,2096921,179511,596711,0
2096921,2096921,179458,596888,0
2096921,2096921,179569,597556,0
2096921,2096921,179656,597671,0
2096921,2096921,179607,597870,0
2096921,2096921,179877,597697,0
2096921,2096921,180208,597617,0
2096921,2096921,180223,598565,0
2096921,2096921,179839,598562,0
2096921,2096921,180079,598341,0
2096921,2096921,180052,598268,0
2096921,2096921,180087,598570,0
2096921,2096921,180282,599076,0
2096921,2096921,180477,599121,0
2096921,2096921,180323,599349,0
2096921,2096921,180392,599107,0
2096921,2096921,180824,599054,0
2096921,2096921,180566,599723,0
2096921,2096921,180551,600217,0
2096921,2096921,180314,600131,0
2096921,2096921,180713,600362,0
2096921,2096921,180783,600110,0
2096921,2096921,181010,600892,0
2096921,2096921,181206,601077,0
2096921,2096921,181474,601054,0
2096921,2096921,181078,601245,0
2096921,2096921,181502,601375,0
2096921,2096921,181464,601887,0
2096921,2096921,181321,602172,0
2096921,2096921,181464,601868,0
2096921,2096921,181173,602034,0
2096921,2096921,181490,601954,0
2096921,2096921,181753,602576,0
2096921,2096921,181865,602843,0
2096921,2096921,181598,602704,0
2096921,2096921,181852,602815,0
2096921,2096921,182070,602735,0
2096921,2096921,182282,603315,0
2096921,2096921,182144,603389,0
2096921,2096921,182131,603284,0
2096921,2096921,182128,603212,0
2096921,2096921,182366,603394,0
2096921,2096921,182288,604133,0
2096921,2096921,182466,604289,0
2096921,2096921,182490,604088,0
2096921,2096921,182573,604327,0
2096921,2096921,182770,604435,0
2096921,2096921,182667,604994,0
2096921,2096921,182913,605065,0
2096921,2096921,182797,605139,0
2096921,2096921,182615,604846,0
2096921,2096921,182949,604809,0
2096921,2096921,183188,605538,0
2096921,2096921,183125,605804,0
2096921,2096921,182750,605575,0
2096921,2096921,183036,605543,0
2096921,2096921,182836,605689,0
2096921,2096921,183200,606192,0
2096921,2096921,183238,606114,0
2096921,2096921,183030,606293,0
2096921,2096921,183254,606312,0
2096921,2096921,183467,605984,0
2096921,2096921,183496,606615,0
2096921,2096921,183446,606701,0
2096921,2096921,183357,606620,0
2096921,2096921,183475,606921,0
2096921,2096921,183046,606576,0
2096921,2096921,183317,606934,0
2096921,2096921,183541,606734,0
2096921,2096921,183600,606838,0
2096921,2096921,183185,606768,0
2096921,2096921,183617,606624,0
2096921,2096921,183563,607395,0
2096921,2096921,183435,607546,0
2096921,2096921,183276,607467,0
2096921,2096921,183459,607242,0
2096921,2096921,183812,607357,0
2096921,2096921,183449,607413,0
2096921,2096921,183479,607198,0
2096921,2096921,183424,607644,0
2096921,2096921,183653,607465,0
2096921,2096921,183427,607651,0
2096921,2096921,183315,607712,0
2096921,2096921,183441,607652,0
2096921,2096921,183521,607664,0
2096921,2096921,183714,607522,0
2096921,2096921,183467,607182,0
2096921,2096921,183634,607667,0
2096921,2096921,183397,607672,0
2096921,2096921,183256,607654,0
2096921,2096921,183377,607659,0
2096921,2096921,183586,607708,0
2096921,2096921,183648,607674,0
2096921,2096921,183491,607879,0
2096921,2096921,183742,607791,0
2096921,2096921,183520,608117,0
2096921,2096921,183497,608018,0
2096921,2096921,183672,608050,0
2096921,2096921,183670,607870,0
2096921,2096921,183469,608213,0
2096921,2096921,183794,607757,0
2096921,2096921,183841,607834,0
2096921,2096921,183708,607812,0
2096921,2096921,183928,608251,0
2096921,2096921,183772,608193,0
2096921,2096921,183933,608568,0
2096921,2096921,183908,608322,0
2096921,2096921,183957,608409,0
2096921,2096921,183948,608384,0
2096921,2096921,183680,608332,0
2096921,2096921,183690,608451,0
2096921,2096921,183628,608804,0
2096921,2096921,183803,608733,0
2096921,2096921,183783,608859,0
2096921,2096921,184119,608894,0
2096921,2096921,184245,608607,0
2096921,2096921,184107,608732,0
2096921,2096921,184153,608989,0
2096921,2096921,184017,609051,0
2096921,2096921,184053,609134,0
2096921,2096921,184054,609520,0
2096921,2096921,184048,609441,0
2096921,2096921,184367,609743,0
2096921,2096921,184115,609664,0
2096921,2096921,184254,609839,0
2096921,2096921,184270,609722,0
2096921,2096921,184470,609588,0
2096921,2096921,184531,610309,0
2096921,2096921,184671,610223,0
2096921,2096921,184523,610517,0
2096921,2096921,184317,610201,0
2096921,2096921,184788,610301,0
2096921,2096921,184930,610806,0
2096921,2096921,184804,611025,0
2096921,2096921,184706,611161,0
2096921,2096921,184663,611140,0
2096921,2096921,185264,611074,0
2096921,2096921,185374,611426,0
2096921,2096921,185272,611688,0
2096921,2096921,185207,611949,0
2096921,2096921,185107,611803,0
2096921,2096921,185449,611802,0
2096921,2096921,185498,612370,0
2096921,2096921,185333,612428,0
2096921,2096921,185305,612564,0
2096921,2096921,185573,612307,0
2096921,2096921,185678,612315,0
2096921,2096921,185774,612722,0
2096921,2096921,185878,613089,0
2096921,2096921,185486,612914,0
2096921,2096921,185773,613133,0
2096921,2096921,185590,613295,0
2096921,2096921,185983,613543,0
2096921,2096921,185671,613789,0
2096921,2096921,185917,613503,0
2096921,2096921,186074,613467,0
2096921,2096921,186323,613564,0
2096921,2096921,186275,614053,0
2096921,2096921,186037,614198,0
2096921,2096921,186204,614182,0
2096921,2096921,186028,614101,0
2096921,2096921,186255,614107,0
2096921,2096921,186637,614681,0
2096921,2096921,186592,614815,0
2096921,2096921,186551,615125,0
2096921,2096921,186448,615022,0
2096921,2096921,186387,615111,0
2096921,2096921,186450,614904,0
2096921,2096921,186278,615075,0
2096921,2096921,186512,615283,0
2096921,2096921,186609,615109,0
2096921,2096921,186538,615020,0
2096921,2096921,186551,615611,0
2096921,2096921,186612,615594,0
2096921,2096921,186892,615776,0
2096921,2096921,186668,615925,0
2096921,2096921,186636,615981,0
2096921,2096921,186708,616650,0
2096921,2096921,186600,616129,0
2096921,2096921,186809,616176,0
2096921,2096921,186786,616300,0
2096921,2096921,186995,616593,0
2096921,2096921,187257,616940,0
2096921,2096921,187124,617202,0
2096921,2096921,187007,617495,0
2096921,2096921,187049,616852,0
2096921,2096921,187103,616953,0
2096921,2096921,187107,617187,0
2096921,2096921,187314,617376,0
2096921,2096921,187162,617494,0
2096921,2096921,187325,617710,0
2096921,2096921,187487,617419,0
2096921,2096921,187650,618050,0
2096921,2096921,187363,617933,0
2096921,2096921,187289,618063,0
2096921,2096921,187446,618374,0
2096921,2096921,187614,618571,0
2096921,2096921,187769,618506,0
2096921,2096921,187401,618539,0
2096921,2096921,187751,618653,0
2096921,2096921,187656,618780,0
2096921,2096921,187939,618775,0
2096921,2096921,187744,619277,0
2096921,2096921,188051,619405,0
2096921,2096921,187897,619290,0
2096921,2096921,187834,619306,0
2096921,2096921,188115,619306,0
2096921,2096921,188229,619880,0
2096921,2096921,187983,619665,0
2096921,2096921,187900,619852,0
2096921,2096921,187970,619697,0
2096921,2096921,188138,619858,0
2096921,2096921,188142,620056,0
2096921,2096921,188277,620103,0
2096921,2096921,188316,620247,0
2096921,2096921,188422,620108,0
2096921,2096921,188535,620318,0
2096921,2096921,188682,620534,0
2096921,2096921,188357,620577,0
2096921,2096921,188430,620447,0
2096921,2096921,188026,620491,0
2096921,2096921,188439,620580,0
2096921,2096921,188808,621031,0
2096921,2096921,188618,620976,0
2096921,2096921,188377,621185,0
2096921,2096921,188592,621358,0
2096921,2096921,188610,621086,0
2096921,2096921,189058,621531,0
2096921,2096921,188649,621454,0
2096921,2096921,188900,621272,0
2096921,2096921,188665,621229,0
2096921,2096921,188908,621300,0
2096921,2096921,188801,621916,0
2096921,2096921,188831,622093,0
2096921,2096921,189072,622136,0
2096921,2096921,188913,622199,0
2096921,2096921,189117,622238,0
2096921,2096921,189404,622454,0
2096921,2096921,188844,622118,0
2096921,2096921,188971,622150,0
2096921,2096921,189060,622317,0
2096921,2096921,188864,622365,0
2096921,2096921,189277,622737,0
2096921,2096921,189213,622876,0
2096921,2096921,189125,622736,0
2096921,2096921,189236,622922,0
2096921,2096921,189344,622980,0
2096921,2096921,189371,623113,0
2096921,2096921,189248,623135,0
2096921,2096921,189177,623184,0
2096921,2096921,189320,623265,0
2096921,2096921,189383,623208,0
2096921,2096921,189431,623636,0
2096921,2096921,189565,623885,0
2096921,2096921,189517,623518,0
2096921,2096921,189467,623417,0
2096921,2096921,189618,623123,0
2096921,2096921,189712,623688,0
2096921,2096921,189359,623562,0
2096921,2096921,189435,623816,0
2096921,2096921,189745,623733,0
2096921,2096921,189683,623830,0
2096921,2096921,189747,624200,0
2096921,2096921,189922,624313,0
2096921,2096921,189881,624260,0
2096921,2096921,189697,624251,0
2096921,2096921,189943,624161,0
2096921,2096921,189790,624416,0
2096921,2096921,189913,624295,0
2096921,2096921,189638,624495,0
2096921,2096921,189861,624175,0
2096921,2096921,189935,624080,0
2096921,2096921,190148,624568,0
2096921,2096921,190123,624687,0
2096921,2096921,190061,624505,0
2096921,2096921,190133,624941,0
2096921,2096921,190061,624726,0
2096921,2096921,190049,624865,0
2096921,2096921,189948,624743,0
2096921,2096921,189928,624726,0
2096921,2096921,189913,624961,0
2096921,2096921,190182,624912,0
2096921,2096921,190184,625098,0
2096921,2096921,190496,625057,0
2096921,2096921,190551,625040,0
2096921,2096921,190240,625120,0
2096921,2096921,190512,624818,0
2096921,2096921,190341,625385,0
2096921,2096921,190249,625545,0
2096921,2096921,190278,625469,0
2096921,2096921,190305,625456,0
2096921,2096921,190310,625194,0
2096921,2096921,190323,625309,0
2096921,2096921,190116,625647,0
2096921,2096921,190403,625434,0
2096921,2096921,190507,625625,0
2096921,2096921,190461,625694,0
2096921,2096921,190375,625877,0
2096921,2096921,190362,625905,0
2096921,2096921,190413,625785,0
2096921,2096921,190313,625717,0
2096921,2096921,190656,625971,0
2096921,2096921,190471,626106,0
2096921,2096921,190611,626200,0
2096921,2096921,190789,626166,0
2096921,2096921,190472,626006,0
2096921,2096921,190777,626076,0
2096921,2096921,190613,626190,0
2096921,2096921,190430,626201,0
2096921,2096921,190491,626349,0
2096921,2096921,190434,626285,0
2096921,2096921,190508,626286,0
2096921,2096921,190583,626430,0
2096921,2096921,190682,626367,0
2096921,2096921,190783,626599,0
2096921,2096921,190639,626487,0
2096921,2096921,190760,626502,0
2096921,2096921,190660,626750,0
2096921,2096921,190613,626640,0
2096921,2096921,190558,626601,0
2096921,2096921,190686,626531,0
2096921,2096921,190742,626666,0
2096921,2096921,190935,627056,0
2096921,2096921,190754,627149,0
2096921,2096921,190695,626733,0
2096921,2096921,190927,626774,0
2096921,2096921,190759,626912,0
2096921,2096921,190729,626924,0
2096921,2096921,190847,626930,0
2096921,2096921,190804,627099,0
2096921,2096921,190813,627068,0
2096921,2096921,190828,627116,0
2096921,2096921,190733,627401,0
2096921,2096921,190602,627296,0
2096921,2096921,191045,627311,0
2096921,2096921,190999,627496,0
2096921,2096921,190929,627164,0
2096921,2096921,190984,627226,0
2096921,2096921,191010,627287,0
2096921,2096921,190947,627116,0
2096921,2096921,190874,627145,0
2096921,2096921,190907,627101,0
2096921,2096921,190951,627313,0
2096921,2096921,191130,627210,0
2096921,2096921,191324,627360,0
2096921,2096921,191168,627525,0
2096921,2096921,191155,627343,0
2096921,2096921,191198,627223,0
2096921,2096921,191294,627234,0
2096921,2096921,191022,627212,0
2096921,2096921,191042,627394,0
2096921,2096921,191202,627356,0
2096921,2096921,191049,627432,0
2096921,2096921,191085,627433,0
2096921,2096921,190938,627414,0
2096921,2096921,191103,627504,0
2096921,2096921,191139,627613,0
2096921,2096921,191236,627398,0
2096921,2096921,191194,627441,0
2096921,2096921,191043,627641,0
2096921,2096921,191175,627704,0
2096921,2096921,190867,627554,0
2096921,2096921,191076,627474,0
2096921,2096921,190968,627681,0
2096921,2096921,191005,627450,0
2096921,2096921,191228,627752,0
2096921,2096921,190982,627411,0
2096921,2096921,190704,627653,0
2096921,2096921,190849,627632,0
2096921,2096921,190914,627566,0
2096921,2096921,190910,627834,0
2096921,2096921,190978,627674,0
2096921,2096921,191084,627729,0
2096921,2096921,190995,627676,0
2096921,2096921,190960,627783,0
2096921,2096921,191077,627609,0
2096921,2096921,190932,627593,0
2096921,2096921,190659,627697,0
2096921,2096921,190795,627290,0
2096921,2096921,190730,627543,0
2096921,2096921,190806,627579,0
2096921,2096921,191026,627722,0
2096921,2096921,191157,627639,0
2096921,2096921,191203,627546,0
2096921,2096921,191241,627665,0
2096921,2096921,191071,627696,0
2096921,2096921,191155,627593,0
2096921,2096921,191324,627543,0
2096921,2096921,191091,627809,0
2096921,2096921,191271,627429,0
2096921,2096921,190984,627310,0
2096921,2096921,191173,627641,0
2096921,2096921,190917,626928,0
2096921,2096921,190731,626964,0
2096921,2096921,190713,627041,0
2096921,2096921,190952,627155,0
2096921,2096921,190565,627289,0
2096921,2096921,190856,626502,0
2096921,2096921,190661,626509,0
2096921,2096921,190530,626122,0
2096921,2096921,190598,626353,0
2096921,2096921,190266,626403,0
2096921,2096921,190033,625655,0
2096921,2096921,189982,625659,0
2096921,2096921,190205,625738,0
2096921,2096921,190310,625665,0
2096921,2096921,189662,625703,0
2096921,2096921,189381,625096,0
2096921,2096921,189238,624835,0
2096921,2096921,189726,624488,0
2096921,2096921,189861,624502,0
2096921,2096921,189318,624560,0
2096921,2096921,189359,623603,0
2096921,2096921,189277,623368,0
2096921,2096921,189203,623553,0
2096921,2096921,189400,623532,0
2096921,2096921,188220,623514,0
2096921,2096921,188015,621343,0
2096921,2096921,187958,620526,0
2096921,2096921,187882,620691,0
2096921,2096921,187947,620888,0
2096921,2096921,186795,620711,0
2096921,2096921,186744,618136,0
2096921,2096921,186646,617681,0
2096921,2096921,186561,617493,0
2096921,2096921,186581,617414,0
2096921,2096921,185588,617499,0
2096921,2096921,185353,615684,0
2096921,2096921,185288,615234,0
2096921,2096921,185395,614772,0
2096921,2096921,185593,614817,0
2096921,2096921,184580,614976,0
2096921,2096921,184813,613343,0
2096921,2096921,184778,613150,0
2096921,2096921,184934,613304,0
2096921,2096921,184705,613379,0
2096921,2096921,184326,613273,0
2096921,2096921,184182,612484,0
2096921,2096921,183969,611750,0
2096921,2096921,183967,611852,0
2096921,2096921,184121,611415,0
2096921,2096921,183758,611750,0
2096921,2096921,183643,610821,0
2096921,2096921,183703,610854,0
2096921,2096921,183868,610862,0
2096921,2096921,183740,610830,0
2096921,2096921,183761,610901,0
2096921,2096921,183114,610381,0
2096921,2096921,183446,610356,0
2096921,2096921,183119,610275,0
2096921,2096921,183051,609967,0
2096921,2096921,183174,610123,0
2096921,2096921,183347,609841,0
2096921,2096921,183339,609861,0
2096921,2096921,183551,609840,0
2096921,2096921,183344,609668,0
2096921,2096921,183200,609820,0
2096921,2096921,182804,609852,0
2096921,2096921,183001,609603,0
2096921,2096921,183080,609901,0
2096921,2096921,182937,609559,0
2096921,2096921,182827,609657,0
2096921,2096921,182915,609867,0
2096921,2096921,182900,609734,0
2096921,2096921,182962,609837,0
2096921,2096921,183286,609641,0
2096921,2096921,183017,609485,0
2096921,2096921,183094,609883,0
2096921,2096921,183201,609741,0
2096921,2096921,182962,609714,0
2096921,2096921,183093,609904,0
2096921,2096921,183271,610137,0
2096921,2096921,183271,610142,0
2096921,2096921,183241,609958,0
2096921,2096921,183221,609998,0
2096921,2096921,183509,609946,0
2096921,2096921,183274,609780,0
2096921,2096921,183115,609965,0
2096921,2096921,183186,610216,0
2096921,2096921,183451,610009,0
2096921,2096921,183334,610006,0
2096921,2096921,183410,610167,0
2096921,2096921,183617,610388,0
2096921,2096921,183488,610683,0
2096921,2096921,183479,611004,0
2096921,2096921,183678,610571,0
2096921,2096921,183788,610680,0
2096921,2096921,183641,611202,0
2096921,2096921,183586,611086,0
2096921,2096921,183561,610981,0
2096921,2096921,183709,611144,0
2096921,2096921,184038,611136,0
2096921,2096921,184130,611642,0
2096921,2096921,184095,611575,0
2096921,2096921,184145,611878,0
2096921,2096921,184130,611808,0
2096921,2096921,184197,611754,0
2096921,2096921,184447,612247,0
2096921,2096921,184409,612535,0
2096921,2096921,184442,612431,0
2096921,2096921,184593,612412,0
2096921,2096921,184740,612268,0
2096921,2096921,184679,612741,0
2096921,2096921,184550,613136,0
2096921,2096921,184516,613021,0
2096921,2096921,184790,613001,0
2096921,2096921,184863,612830,0
2096921,2096921,184847,613280,0
2096921,2096921,184690,613534,0
2096921,2096921,184779,613409,0
2096921,2096921,184631,613670,0
2096921,2096921,185023,613486,0
2096921,2096921,184941,613718,0
2096921,2096921,184976,613733,0
2096921,2096921,184916,614148,0
2096921,2096921,185122,614202,0
2096921,2096921,185432,614138,0
2096921,2096921,185260,614387,0
2096921,2096921,185226,614511,0
2096921,2096921,185386,614173,0
2096921,2096921,185221,614503,0
2096921,2096921,185498,614609,0
2096921,2096921,185675,614957,0
2096921,2096921,185714,615015,0
2096921,2096921,185457,615293,0
2096921,2096921,185660,615115,0
2096921,2096921,185497,615284,0
2096921,2096921,185765,615621,0
2096921,2096921,185669,615370,0
2096921,2096921,185800,615274,0
2096921,2096921,185671,615495,0
2096921,2096921,186317,615438,0
2096921,2096921,186180,616217,0
2096921,2096921,186277,616392,0
2096921,2096921,186207,616471,0
2096921,2096921,186272,616143,0
2096921,2096921,186302,616004,0
2096921,2096921,186578,616406,0
2096921,2096921,186159,616489,0
2096921,2096921,186430,616545,0
2096921,2096921,186346,616753,0
2096921,2096921,186524,616509,0
2096921,2096921,186420,616822,0
2096921,2096921,186621,616994,0
2096921,2096921,186699,616931,0
2096921,2096921,186622,617113,0
2096921,2096921,186675,617101,0
2096921,2096921,186804,617310,0
2096921,2096921,186616,617153,0
2096921,2096921,186800,617492,0
2096921,2096921,186764,617311,0
2096921,2096921,186877,617272,0
2096921,2096921,186954,617470,0
2096921,2096921,187020,617449,0
2096921,2096921,187035,617521,0
2096921,2096921,186877,617211,0
2096921,2096921,187166,617590,0
2096921,2096921,186911,617713,0
2096921,2096921,186886,617517,0
2096921,2096921,187048,617749,0
2096921,2096921,186863,617544,0
2096921,2096921,187073,617499,0
2096921,2096921,186880,617692,0
2096921,2096921,186749,617776,0
2096921,2096921,186907,617949,0
2096921,2096921,187128,617707,0
2096921,2096921,187121,617668,0
2096921,2096921,186898,617840,0
2096921,2096921,186917,617510,0
2096921,2096921,186838,617813,0
2096921,2096921,187080,617600,0
2096921,2096921,186996,617643,0
2096921,2096921,186957,617776,0
2096921,2096921,186817,617666,0
2096921,2096921,186898,617307,0
2096921,2096921,186898,617596,0
2096921,2096921,186669,617573,0
2096921,2096921,186728,617441,0
2096921,2096921,186937,617270,0
2096921,2096921,186841,617301,0
2096921,2096921,186708,617481,0
2096921,2096921,186368,617470,0
2096921,2096921,186615,617358,0
2096921,2096921,186640,617291,0
2096921,2096921,186749,617038,0
2096921,2096921,186366,616951,0
2096921,2096921,186060,616841,0
2096921,2096921,186366,616984,0
2096921,2096921,186470,616790,0
2096921,2096921,186210,616938,0
2096921,2096921,186228,616852,0
2096921,2096921,186295,617084,0
2096921,2096921,186275,616621,0
2096921,2096921,186095,616423,0
2096921,2096921,186503,616575,0
2096921,2096921,186379,616619,0
2096921,2096921,185961,616555,0
2096921,2096921,186146,616459,0
2096921,2096921,186260,616196,0
2096921,2096921,186239,615995,0
2096921,2096921,186344,616000,0
2096921,2096921,186230,616180,0
2096921,2096921,186244,616314,0
2096921,2096921,186271,615889,0
2096921,2096921,186189,615880,0
2096921,2096921,186117,615973,0
2096921,2096921,186021,615688,0
2096921,2096921,185887,616008,0
2096921,2096921,185769,615634,0
2096921,2096921,185927,615636,0
2096921,2096921,185940,615659,0
2096921,2096921,185951,615667,0
2096921,2096921,185889,615882,0
2096921,2096921,185867,615519,0
2096921,2096921,186101,615529,0
2096921,2096921,185878,615738,0
2096921,2096921,186049,615605,0
2096921,2096921,185828,615861,0
2096921,2096921,185852,615971,0
2096921,2096921,185771,615519,0
2096921,2096921,185983,615697,0
2096921,2096921,185917,615880,0
2096921,2096921,185992,615768,0
2096921,2096921,186032,615501,0
2096921,2096921,186158,615581,0
2096921,2096921,186134,615833,0
2096921,2096921,186326,615780,0
2096921,2096921,186088,615944,0
2096921,2096921,186178,615809,0
2096921,2096921,186195,615842,0
2096921,2096921,186104,616252,0
2096921,2096921,186288,615962,0
2096921,2096921,186550,616445,0
2096921,2096921,186318,616305,0
2096921,2096921,186268,616434,0
2096921,2096921,186192,616288,0
2096921,2096921,186601,615991,0
2096921,2096921,186774,616437,0
2096921,2096921,186424,616513,0
2096921,2096921,186466,616408,0
2096921,2096921,186541,616486,0
2096921,2096921,186395,616372,0
2096921,2096921,186583,616769,0
2096921,2096921,186623,616717,0
2096921,2096921,186647,616494,0
2096921,2096921,186726,616619,0
2096921,2096921,186399,616743,0
2096921,2096921,186549,616650,0
2096921,2096921,186468,616678,0
2096921,2096921,186664,616679,0
2096921,2096921,186588,616596,0
2096921,2096921,186771,616579,0
2096921,2096921,186733,616733,0
2096921,2096921,186477,616820,0
2096921,2096921,186695,616741,0
2096921,2096921,186693,616665,0
2096921,2096921,186841,616739,0
2096921,2096921,186851,616665,0
2096921,2096921,186895,616949,0
2096921,2096921,186553,616457,0
2096921,2096921,186759,616622,0
2096921,2096921,186809,616733,0
2096921,2096921,186965,616597,0
2096921,2096921,186861,616818,0
2096921,2096921,187282,616960,0
2096921,2096921,187065,616976,0
2096921,2096921,186718,616943,0
2096921,2096921,186621,617192,0
2096921,2096921,186854,617099,0
2096921,2096921,186960,616809,0
2096921,2096921,186919,616863,0
2096921,2096921,187398,616931,0
2096921,2096921,187343,617532,0
2096921,2096921,187109,617093,0
2096921,2096921,187043,617035,0
2096921,2096921,186965,617095,0
2096921,2096921,187304,617408,0
2096921,2096921,187211,617174,0
2096921,2096921,186915,617143,0
2096921,2096921,187082,617271,0
2096921,2096921,187199,617196,0
2096921,2096921,187166,617137,0
2096921,2096921,187016,617300,0
2096921,2096921,187261,617198,0
2096921,2096921,187042,617459,0
2096921,2096921,187163,617051,0
2096921,2096921,187305,617147,0
2096921,2096921,187465,617368,0
2096921,2096921,187248,617581,0
2096921,2096921,187592,617614,0
2096921,2096921,187435,616923,0
2096921,2096921,187372,617245,0
2096921,2096921,187217,617784,0
2096921,2096921,187588,617414,0
2096921,2096921,187431,617689,0
2096921,2096921,187373,617560,0
2096921,2096921,187182,617211,0
2096921,2096921,187531,617474,0
2096921,2096921,187355,617497,0
2096921,2096921,187357,617263,0
2096921,2096921,187246,617145,0
2096921,2096921,187309,617440,0
2096921,2096921,187035,617361,0
2096921,2096921,187492,617326,0
2096921,2096921,187081,617108,0
2096921,2096921,187202,617145,0
2096921,2096921,187263,617560,0
2096921,2096921,187312,617704,0
2096921,2096921,187522,617417,0
2096921,2096921,187263,617292,0
2096921,2096921,187374,617453,0
2096921,2096921,187533,617158,0
2096921,2096921,187414,617516,0
2096921,2096921,187463,617495,0
2096921,2096921,187589,617654,0
2096921,2096921,187403,617562,0
2096921,2096921,187271,617259,0
2096921,2096921,187461,617291,0
2096921,2096921,187333,617341,0
2096921,2096921,187306,617376,0
2096921,2096921,187325,617321,0
2096921,2096921,187387,617198,0
2096921,2096921,187573,617296,0
2096921,2096921,187713,617445,0
2096921,2096921,187449,617221,0
2096921,2096921,187582,617437,0
2096921,2096921,187130,617462,0
2096921,2096921,187274,617273,0
2096921,2096921,187290,616889,0
2096921,2096921,187078,616952,0
2096921,2096921,187321,617016,0
2096921,2096921,187205,617062,0
2096921,2096921,187213,617282,0
2096921,2096921,187370,617272,0
2096921,2096921,187613,617331,0
2096921,2096921,187493,617370,0
2096921,2096921,187741,617076,0
2096921,2096921,187620,617066,0
2096921,2096921,187420,617001,0
2096921,2096921,187046,617054,0
2096921,2096921,187573,616974,0
2096921,2096921,187358,617258,0
2096921,2096921,187382,616767,0
2096921,2096921,187324,616962,0
2096921,2096921,187426,617369,0
2096921,2096921,187463,617258,0
2096921,2096921,187673,616975,0
2096921,2096921,187647,617117,0
2096921,2096921,187400,616877,0
2096921,2096921,187352,616885,0
2096921,2096921,187494,616727,0
2096921,2096921,187148,616873,0
2096921,2096921,187326,616827,0
2096921,2096921,187459,616833,0
2096921,2096921,187574,616425,0
2096921,2096921,187632,616606,0
2096921,2096921,187514,616886,0
2096921,2096921,187028,616824,0
2096921,2096921,187224,616751,0
2096921,2096921,187418,616850,0
2096921,2096921,187273,616499,0
2096921,2096921,187231,616767,0
2096921,2096921,187389,616779,0
2096921,2096921,187256,616407,0
2096921,2096921,187579,616506,0
2096921,2096921,187215,616382,0
2096921,2096921,187389,616362,0
2096921,2096921,187066,616319,0
2096921,2096921,187137,616471,0
2096921,2096921,187476,616226,0
2096921,2096921,187395,616288,0
2096921,2096921,187341,616349,0
2096921,2096921,187621,616141,0
2096921,2096921,187284,616013,0
2096921,2096921,187530,616072,0
2096921,2096921,187233,616170,0
2096921,2096921,187620,616042,0
2096921,2096921,187028,615753,0
2096921,2096921,187209,615533,0
2096921,2096921,187061,615770,0
2096921,2096921,187234,615710,0
2096921,2096921,187182,615565,0
2096921,2096921,187455,615589,0
2096921,2096921,187213,615623,0
2096921,2096921,187440,615684,0
2096921,2096921,187128,615607,0
2096921,2096921,187180,615619,0
2096921,2096921,187080,615303,0
2096921,2096921,187207,615307,0
2096921,2096921,187271,615413,0
2096921,2096921,186848,615252,0
2096921,2096921,187229,615181,0
2096921,2096921,187127,615216,0
2096921,2096921,187076,615386,0
2096921,2096921,186858,614951,0
2096921,2096921,187249,615177,0
2096921,2096921,187375,615260,0
2096921,2096921,187336,614963,0
2096921,2096921,187289,614881,0
2096921,2096921,187443,614908,0
2096921,2096921,187052,614563,0
2096921,2096921,186860,615012,0
2096921,2096921,187238,615149,0
2096921,2096921,187058,615084,0
2096921,2096921,186934,614779,0
2096921,2096921,187079,614728,0
2096921,2096921,187429,614783,0
2096921,2096921,187102,614529,0
2096921,2096921,187230,614462,0
2096921,2096921,186822,614422,0
2096921,2096921,186653,614696,0
2096921,2096921,186695,614655,0
2096921,2096921,186903,614463,0
2096921,2096921,186933,614450,0
2096921,2096921,186911,614408,0
2096921,2096921,186827,614194,0
2096921,2096921,186631,614194,0
2096921,2096921,186633,614335,0
2096921,2096921,186660,614162,0
2096921,2096921,186724,614190,0
2096921,2096921,186593,614330,0
2096921,2096921,186513,614421,0
2096921,2096921,186503,614241,0
2096921,2096921,186642,613888,0
2096921,2096921,186647,613823,0
2096921,2096921,186734,613895,0
2096921,2096921,186411,614039,0
2096921,2096921,186401,613665,0
2096921,2096921,186761,613677,0
2096921,2096921,186479,613725,0
2096921,2096921,186489,613786,0
2096921,2096921,186620,613649,0
2096921,2096921,186434,613750,0
2096921,2096921,186711,613682,0
2096921,2096921,186630,613524,0
2096921,2096921,186474,613632,0
2096921,2096921,186869,613572,0
2096921,2096921,186443,613417,0
2096921,2096921,186677,613578,0
2096921,2096921,186486,613176,0
2096921,2096921,186680,613295,0
2096921,2096921,186428,613384,0
2096921,2096921,186587,612834,0
2096921,2096921,186734,613064,0
2096921,2096921,186757,612745,0
2096921,2096921,186261,612941,0
2096921,2096921,186896,613113,0
2096921,2096921,186468,612605,0
2096921,2096921,186508,612578,0
2096921,2096921,186322,612751,0
2096921,2096921,186280,612651,0
2096921,2096921,186247,612541,0
2096921,2096921,186220,612460,0
2096921,2096921,186380,612601,0
2096921,2096921,186286,612011,0
2096921,2096921,186541,612260,0
2096921,2096921,186260,612344,0
2096921,2096921,186061,612334,0
2096921,2096921,185959,612248,0
2096921,2096921,186194,611963,0
2096921,2096921,186252,612021,0
2096921,2096921,186343,611814,0
2096921,2096921,186306,611718,0
2096921,2096921,186376,612004,0
2096921,2096921,186373,611756,0
2096921,2096921,186254,611722,0
2096921,2096921,186286,611848,0
2096921,2096921,186232,611539,0
2096921,2096921,186164,611575,0
2096921,2096921,186132,611478,0
2096921,2096921,186105,611702,0
2096921,2096921,186231,611341,0
2096921,2096921,185939,611137,0
2096921,2096921,186146,611097,0
2096921,2096921,185746,611064,0
2096921,2096921,186145,611134,0
2096921,2096921,185749,611129,0
2096921,2096921,185597,610703,0
2096921,2096921,185605,610763,0
2096921,2096921,186013,610797,0
2096921,2096921,185609,610831,0
2096921,2096921,185777,610980,0
2096921,2096921,185646,610376,0
2096921,2096921,185657,610420,0
2096921,2096921,185654,610347,0
2096921,2096921,185996,610459,0
2096921,2096921,185567,610628,0
2096921,2096921,185704,610370,0
2096921,2096921,185375,610297,0
2096921,2096921,185546,610193,0
2096921,2096921,185522,610365,0
2096921,2096921,185393,610080,0
2096921,2096921,185290,609721,0
2096921,2096921,185575,609680,0
2096921,2096921,185498,609670,0
2096921,2096921,185416,609691,0
2096921,2096921,185185,609741,0
2096921,2096921,185107,608951,0
2096921,2096921,185304,608790,0
2096921,2096921,185064,608710,0
2096921,2096921,184909,608774,0
2096921,2096921,184899,608531,0
2096921,2096921,184947,607669,0
2096921,2096921,184945,607784,0
2096921,2096921,184565,607998,0
2096921,2096921,184458,607841,0
2096921,2096921,184055,607533,0
2096921,2096921,183969,606760,0
2096921,2096921,183996,606310,0
2096921,2096921,184155,606665,0
2096921,2096921,184180,606377,0
2096921,2096921,183457,606199,0
2096921,2096921,183527,605231,0
2096921,2096921,183450,604848,0
2096921,2096921,183731,605210,0
2096921,2096921,183687,605004,0
2096921,2096921,182529,604707,0
2096921,2096921,182400,602988,0
2096921,2096921,182370,602466,0
2096921,2096921,182293,602144,0
2096921,2096921,182053,602003,0
2096921,2096921,180981,601784,0
2096921,2096921,180713,599291,0
2096921,2096921,180728,598527,0
2096921,2096921,180951,598135,0
2096921,2096921,180867,598298,0
2096921,2096921,179910,598600,0
2096921,2096921,179797,596553,0
2096921,2096921,179516,595953,0
2096921,2096921,179500,595921,0
2096921,2096921,179795,596022,0
2096921,2096921,179170,596097,0
2096921,2096921,178622,594530,0
2096921,2096921,178611,594261,0
2096921,2096921,178884,593872,0
2096921,2096921,178791,594142,0
2096921,2096921,178229,593810,0
2096921,2096921,178061,592720,0
2096921,2096921,177956,592568,0
2096921,2096921,178220,592198,0
2096921,2096921,178128,592293,0
2096921,2096921,177838,592633,0
2096921,2096921,177565,591169,0
2096921,2096921,177437,591089,0
2096921,2096921,177606,590742,0
2096921,2096921,177546,591327,0
2096921,2096921,177243,591098,0
2096921,2096921,176987,590288,0
2096921,2096921,177077,590070,0
2096921,2096921,176782,590339,0
2096921,2096921,176840,590322,0
2096921,2096921,176898,590454,0
2096921,2096921,176989,589737,0
2096921,2096921,176835,589622,0
2096921,2096921,177030,589461,0
2096921,2096921,177018,589541,0
2096921,2096921,177119,589757,0
2096921,2096921,177030,589426,0
2096921,2096921,177026,589263,0
2096921,2096921,176926,589091,0
2096921,2096921,176858,589231,0
2096921,2096921,176607,589156,0
2096921,2096921,176606,589044,0
2096921,2096921,176709,588845,0
2096921,2096921,176759,588933,0
2096921,2096921,176472,589091,0
2096921,2096921,176808,588952,0
2096921,2096921,177126,589207,0
2096921,2096921,177072,588965,0
2096921,2096921,176486,589015,0
2096921,2096921,176717,588892,0
2096921,2096921,176652,588902,0
2096921,2096921,177119,588892,0
2096921,2096921,176899,589016,0
2096921,2096921,176946,588938,0
2096921,2096921,176980,588983,0
2096921,2096921,176744,588933,0
2096921,2096921,176633,588969,0
2096921,2096921,176781,588849,0
2096921,2096921,176558,588807,0
2096921,2096921,177021,588608,0
2096921,2096921,176900,588888,0
2096921,2096921,177284,589176,0
2096921,2096921,177131,589164,0
2096921,2096921,177440,589310,0
2096921,2096921,176992,589426,0
2096921,2096921,177200,589217,0
2096921,2096921,177126,589547,0
2096921,2096921,177271,589350,0
2096921,2096921,176893,589351,0
2096921,2096921,177035,589331,0
2096921,2096921,177185,589534,0
2096921,2096921,177649,590075,0
2096921,2096921,177523,590111,0
2096921,2096921,177640,590154,0
2096921,2096921,177388,590010,0
2096921,2096921,177616,590053,0
2096921,2096921,177820,590326,0
2096921,2096921,177646,590536,0
2096921,2096921,177588,590489,0
2096921,2096921,177530,590833,0
2096921,2096921,177752,590582,0
2096921,2096921,177779,591087,0
2096921,2096921,177738,590713,0
2096921,2096921,178100,590889,0
2096921,2096921,177856,590666,0
2096921,2096921,178032,590912,0
2096921,2096921,177998,590882,0
2096921,2096921,177935,591137,0
2096921,2096921,177886,590937,0
2096921,2096921,177983,591295,0
2096921,2096921,177867,591059,0
2096921,2096921,178193,591405,0
2096921,2096921,178431,591608,0
2096921,2096921,178042,591917,0
2096921,2096921,178239,591652,0
2096921,2096921,178218,591703,0
2096921,2096921,178308,591819,0
2096921,2096921,178284,592141,0
2096921,2096921,178607,591933,0
2096921,2096921,178158,592083,0
2096921,2096921,178675,592004,0
2096921,2096921,178738,592177,0
2096921,2096921,178653,592088,0
2096921,2096921,178564,592348,0
2096921,2096921,178413,592326,0
2096921,2096921,178927,592476,0
2096921,2096921,178629,592788,0
2096921,2096921,178689,592710,0
2096921,2096921,178815,592823,0
2096921,2096921,179024,592605,0
2096921,2096921,179074,592308,0
2096921,2096921,179036,592814,0
2096921,2096921,179039,593204,0
2096921,2096921,179207,593235,0
2096921,2096921,179175,593416,0
2096921,2096921,179222,593267,0
2096921,2096921,179055,593337,0
2096921,2096921,179143,593575,0
2096921,2096921,179051,593427,0
2096921,2096921,179192,593425,0
2096921,2096921,179293,593723,0
2096921,2096921,179279,594214,0
2096921,2096921,179409,593921,0
2096921,2096921,179324,593891,0
2096921,2096921,179542,593931,0
2096921,2096921,179288,593945,0
2096921,2096921,179355,594040,0
2096921,2096921,179266,594177,0
2096921,2096921,179233,594226,0
2096921,2096921,179016,594157,0
2096921,2096921,179688,594021,0
2096921,2096921,179810,593900,0
2096921,2096921,179790,594301,0
2096921,2096921,179629,594216,0
2096921,2096921,179631,594426,0
2096921,2096921,179423,594444,0
2096921,2096921,179544,594381,0
2096921,2096921,179665,594313,0
2096921,2096921,179438,594179,0
2096921,2096921,179812,594096,0
2096921,2096921,179638,594142,0
2096921,2096921,179762,594483,0
2096921,2096921,179961,594728,0
2096921,2096921,179783,594718,0
2096921,2096921,179497,594624,0
2096921,2096921,179502,594550,0
2096921,2096921,179791,594536,0
2096921,2096921,179647,594477,0
2096921,2096921,179402,594035,0
2096921,2096921,179526,594192,0
2096921,2096921,179660,594404,0
2096921,2096921,179582,594221,0
2096921,2096921,179780,594633,0
2096921,2096921,179936,594481,0
2096921,2096921,179683,594502,0
2096921,2096921,179626,594290,0
2096921,2096921,179427,594240,0
2096921,2096921,179499,594141,0
2096921,2096921,179448,594083,0
2096921,2096921,179279,594152,0
2096921,2096921,179364,594036,0
2096921,2096921,179284,593856,0
2096921,2096921,179461,593902,0
2096921,2096921,179472,594011,0
2096921,2096921,179402,593984,0
2096921,2096921,179329,593527,0
2096921,2096921,179324,593666,0
2096921,2096921,179270,593370,0
2096921,2096921,179093,593750,0
2096921,2096921,179197,593359,0
2096921,2096921,179299,593396,0
2096921,2096921,179367,593452,0
2096921,2096921,179280,593710,0
2096921,2096921,179276,593621,0
2096921,2096921,179124,593476,0
2096921,2096921,179205,593373,0
2096921,2096921,178999,593134,0
2096921,2096921,179180,592948,0
2096921,2096921,179201,593086,0
2096921,2096921,179203,592991,0
2096921,2096921,178949,593509,0
2096921,2096921,178940,593468,0
2096921,2096921,179436,593322,0
2096921,2096921,179181,593216,0
2096921,2096921,178954,593342,0
2096921,2096921,179125,593285,0
2096921,2096921,179003,593118,0
2096921,2096921,178655,592830,0
2096921,2096921,178666,593019,0
2096921,2096921,179218,593031,0
2096921,2096921,179105,592761,0
2096921,2096921,179301,593039,0
2096921,2096921,179315,593263,0
2096921,2096921,179432,593356,0
2096921,2096921,179242,593343,0
2096921,2096921,179300,593244,0
2096921,2096921,178935,593229,0
2096921,2096921,179140,593337,0
2096921,2096921,179302,593394,0
2096921,2096921,179259,593444,0
2096921,2096921,179152,593122,0
2096921,2096921,179439,593477,0
2096921,2096921,179289,593382,0
2096921,2096921,179380,593147,0
2096921,2096921,179126,593458,0
2096921,2096921,179204,593457,0
2096921,2096921,179438,593741,0
2096921,2096921,179438,593623,0
2096921,2096921,178980,594113,0
2096921,2096921,179176,593900,0
2096921,2096921,179574,593660,0
2096921,2096921,179631,593937,0
2096921,2096921,179694,594065,0
2096921,2096921,179747,594171,0
2096921,2096921,179817,594276,0
2096921,2096921,179673,594528,0
2096921,2096921,179520,594754,0
2096921,2096921,179850,594578,0
2096921,2096921,179811,594896,0
2096921,2096921,179521,594619,0
2096921,2096921,179794,594716,0
2096921,2096921,179736,594800,0
2096921,2096921,179612,595041,0
2096921,2096921,180015,595248,0
2096921,2096921,179835,595191,0
2096921,2096921,179934,595096,0
2096921,2096921,179836,595323,0
2096921,2096921,179929,595314,0
2096921,2096921,179736,595644,0
2096921,2096921,180195,595454,0
2096921,2096921,180098,595127,0
2096921,2096921,180177,595639,0
2096921,2096921,180231,595652,0
2096921,2096921,180221,595653,0
2096921,2096921,180067,595740,0
2096921,2096921,179899,595670,0
2096921,2096921,180210,595839,0
2096921,2096921,180442,596007,0
2096921,2096921,179968,595843,0
2096921,2096921,180140,595895,0
2096921,2096921,180358,595567,0
2096921,2096921,180688,596397,0
2096921,2096921,180523,596251,0
2096921,2096921,180334,596106,0
2096921,2096921,180651,596228,0
2096921,2096921,180535,596311,0
2096921,2096921,180478,596300,0
2096921,2096921,180476,596517,0
2096921,2096921,180710,596286,0
2096921,2096921,180620,596621,0
2096921,2096921,180376,596539,0
2096921,2096921,180636,596925,0
2096921,2096921,180570,596995,0
2096921,2096921,180869,597022,0
2096921,2096921,180874,597167,0
2096921,2096921,180931,597231,0
2096921,2096921,180880,597205,0
2096921,2096921,180775,597155,0
2096921,2096921,180399,597068,0
2096921,2096921,180235,597608,0
2096921,2096921,180448,597262,0
2096921,2096921,181011,597521,0
2096921,2096921,181205,597601,0
2096921,2096921,180687,597722,0
2096921,2096921,180804,597457,0
2096921,2096921,180937,597587,0
2096921,2096921,180932,597806,0
2096921,2096921,180999,597862,0
2096921,2096921,180853,597670,0
2096921,2096921,180956,597993,0
2096921,2096921,181216,597696,0
2096921,2096921,181258,598036,0
2096921,2096921,181231,598183,0
2096921,2096921,181124,598424,0
2096921,2096921,181274,598408,0
2096921,2096921,181023,598006,0
2096921,2096921,181184,598384,0
2096921,2096921,181047,598349,0
2096921,2096921,181148,598296,0
2096921,2096921,181078,598391,0
2096921,2096921,181624,598495,0
2096921,2096921,181411,598737,0
2096921,2096921,181444,598908,0
2096921,2096921,181367,598567,0
2096921,2096921,181551,598559,0
2096921,2096921,181734,598919,0
2096921,2096921,181542,598923,0
2096921,2096921,181516,599265,0
2096921,2096921,181574,598825,0
2096921,2096921,181380,598685,0
2096921,2096921,181440,598793,0
2096921,2096921,181481,599136,0
2096921,2096921,181760,599432,0
2096921,2096921,181781,599201,0
2096921,2096921,181707,598902,0
2096921,2096921,181696,599137,0
2096921,2096921,181426,599275,0
2096921,2096921,181576,599265,0
2096921,2096921,181443,598952,0
2096921,2096921,181781,599261,0
2096921,2096921,181722,599265,0
2096921,2096921,181934,599542,0
2096921,2096921,181928,599611,0
2096921,2096921,181873,599630,0
2096921,2096921,181651,599515,0
2096921,2096921,181554,599653,0
2096921,2096921,181900,599721,0
2096921,2096921,181983,599894,0
2096921,2096921,181678,599863,0
2096921,2096921,181785,599589,0
2096921,2096921,181827,599690,0
2096921,2096921,181957,599855,0
2096921,2096921,182032,600077,0
2096921,2096921,182214,600153,0
2096921,2096921,182312,600028,0
2096921,2096921,181923,599807,0
2096921,2096921,181880,600378,0
2096921,2096921,182275,600039,0
2096921,2096921,182070,600233,0
2096921,2096921,182052,600040,0
2096921,2096921,182036,600266,0
2096921,2096921,182069,600636,0
2096921,2096921,182284,600337,0
2096921,2096921,182376,600489,0
2096921,2096921,182333,600652,0
2096921,2096921,182492,600531,0
2096921,2096921,182116,600697,0
2096921,2096921,182295,600723,0
2096921,2096921,182037,600726,0
2096921,2096921,182029,600400,0
2096921,2096921,182285,600607,0
2096921,2096921,182284,600595,0
2096921,2096921,182335,600668,0
2096921,2096921,182069,600697,0
2096921,2096921,182137,600784,0
2096921,2096921,182150,600894,0
2096921,2096921,182372,601368,0
2096921,2096921,182435,600713,0
2096921,2096921,182162,600897,0
2096921,2096921,182507,600968,0
2096921,2096921,182686,600966,0
2096921,2096921,182578,600809,0
2096921,2096921,182572,600903,0
2096921,2096921,182571,601152,0
2096921,2096921,182543,601158,0
2096921,2096921,182762,600904,0
2096921,2096921,182622,601221,0
2096921,2096921,182688,601051,0
2096921,2096921,182366,600890,0
2096921,2096921,182474,600946,0
2096921,2096921,182719,600936,0
2096921,2096921,182726,601168,0
2096921,2096921,182554,601393,0
2096921,2096921,182925,601530,0
2096921,2096921,182865,601085,0
2096921,2096921,182673,601405,0
2096921,2096921,182609,601381,0
2096921,2096921,182713,601584,0
2096921,2096921,182883,601337,0
2096921,2096921,182949,601255,0
2096921,2096921,182733,601591,0
2096921,2096921,183050,601630,0
2096921,2096921,183101,601795,0
2096921,2096921,182933,601718,0
2096921,2096921,182822,601569,0
2096921,2096921,182889,601542,0
2096921,2096921,182616,601945,0
2096921,2096921,182633,601892,0
2096921,2096921,182707,601779,0
2096921,2096921,182834,601809,0
2096921,2096921,183049,601832,0
2096921,2096921,183034,601845,0
2096921,2096921,183172,601812,0
2096921,2096921,183100,601700,0
2096921,2096921,183106,601944,0
2096921,2096921,183389,602204,0
2096921,2096921,182934,602160,0
2096921,2096921,183066,601874,0
2096921,2096921,182796,602041,0
2096921,2096921,183140,601737,0
2096921,2096921,182995,602008,0
2096921,2096921,183236,602183,0
2096921,2096921,183367,602570,0
2096921,2096921,182971,602414,0
2096921,2096921,183413,602367,0
2096921,2096921,183433,602376,0
2096921,2096921,183326,602211,0
2096921,2096921,183290,602071,0
2096921,2096921,183082,602513,0
2096921,2096921,183329,602508,0
2096921,2096921,183273,602144,0
2096921,2096921,183273,602548,0
2096921,2096921,183175,602582,0
2096921,2096921,183405,602689,0
2096921,2096921,183153,602455,0
2096921,2096921,183494,602669,0
2096921,2096921,183468,602679,0
2096921,2096921,183273,602797,0
2096921,2096921,183013,602634,0
2096921,2096921,183381,602751,0
2096921,2096921,183136,602779,0
2096921,2096921,183397,602840,0
2096921,2096921,183613,603258,0
2096921,2096921,183458,603130,0
2096921,2096921,183469,603100,0
2096921,2096921,183500,603087,0
2096921,2096921,183085,602822,0
2096921,2096921,183429,603217,0
2096921,2096921,183217,603229,0
2096921,2096921,183484,603240,0
2096921,2096921,183670,603006,0
2096921,2096921,183697,603406,0
2096921,2096921,183538,603444,0
2096921,2096921,183603,603421,0
2096921,2096921,183443,603484,0
2096921,2096921,183655,603617,0
2096921,2096921,183451,603576,0
2096921,2096921,183224,603792,0
2096921,2096921,183328,603663,0
2096921,2096921,183357,603850,0
2096921,2096921,183391,603643,0
2096921,2096921,183603,603968,0
2096921,2096921,183527,604026,0
2096921,2096921,183636,603906,0
2096921,2096921,183513,603915,0
2096921,2096921,183561,603542,0
2096921,2096921,183357,603871,0
2096921,2096921,183432,603939,0
2096921,2096921,183607,603915,0
2096921,2096921,183712,603828,0
2096921,2096921,183819,604058,0
2096921,2096921,183588,604226,0
2096921,2096921,183640,604453,0
2096921,2096921,183985,604432,0
2096921,2096921,183981,604119,0
2096921,2096921,183758,604344,0
2096921,2096921,183705,604275,0
2096921,2096921,183895,604234,0
2096921,2096921,183952,604051,0
2096921,2096921,183666,604005,0
2096921,2096921,184136,604063,0
2096921,2096921,183922,604292,0
2096921,2096921,183894,604221,0
2096921,2096921,183893,604541,0
2096921,2096921,184020,604362,0
2096921,2096921,183938,604464,0
2096921,2096921,184090,604443,0
2096921,2096921,183992,604683,0
2096921,2096921,183636,604658,0
2096921,2096921,183715,604808,0
2096921,2096921,184109,604826,0
2096921,2096921,183808,604644,0
2096921,2096921,184076,604884,0
2096921,2096921,183723,604539,0
2096921,2096921,183733,604586,0
2096921,2096921,183918,604946,0
2096921,2096921,184113,604996,0
2096921,2096921,183752,605005,0
2096921,2096921,183912,605049,0
2096921,2096921,183754,604953,0
2096921,2096921,184099,605047,0
2096921,2096921,183701,605168,0
2096921,2096921,184159,605112,0
2096921,2096921,184191,605089,0
2096921,2096921,184173,605060,0
2096921,2096921,183810,605264,0
2096921,2096921,184028,605489,0
2096921,2096921,183773,605687,0
2096921,2096921,183928,605236,0
2096921,2096921,183878,605436,0
2096921,2096921,184191,605415,0
2096921,2096921,184132,605124,0
2096921,2096921,184019,605143,0
2096921,2096921,183713,604921,0
2096921,2096921,183967,605003,0
2096921,2096921,183913,605053,0
2096921,2096921,183802,604680,0
2096921,2096921,183588,604576,0
2096921,2096921,183759,604706,0
2096921,2096921,183980,604536,0
2096921,2096921,183640,604879,0
2096921,2096921,183645,604428,0
2096921,2096921,183484,604200,0
2096921,2096921,183473,604197,0
2096921,2096921,183520,604256,0
2096921,2096921,183348,604128,0
2096921,2096921,183214,603639,0
2096921,2096921,183142,603244,0
2096921,2096921,182754,603215,0
2096921,2096921,183158,603182,0
2096921,2096921,182748,603161,0
2096921,2096921,182768,602533,0
2096921,2096921,182748,602622,0
2096921,2096921,182903,602534,0
2096921,2096921,182779,602479,0
2096921,2096921,181703,602463,0
2096921,2096921,181565,600537,0
2096921,2096921,181553,600009,0
2096921,2096921,181677,599905,0
2096921,2096921,181798,599742,0
2096921,2096921,180849,600028,0
2096921,2096921,180289,597635,0
2096921,2096921,180295,597120,0
2096921,2096921,180329,596940,0
2096921,2096921,180303,597335,0
2096921,2096921,179473,597043,0
2096921,2096921,179299,595651,0
2096921,2096921,179378,595352,0
2096921,2096921,179322,595067,0
2096921,2096921,179293,594823,0
2096921,2096921,178794,594583,0
2096921,2096921,178716,593512,0
2096921,2096921,178633,593236,0
2096921,2096921,178487,593411,0
2096921,2096921,178599,593298,0
2096921,2096921,178358,593319,0
2096921,2096921,178423,592522,0
2096921,2096921,178083,592361,0
2096921,2096921,178001,592165,0
2096921,2096921,178112,592469,0
2096921,2096921,177780,592158,0
2096921,2096921,177825,591904,0
2096921,2096921,177755,591848,0
2096921,2096921,177883,591831,0
2096921,2096921,177564,591773,0
2096921,2096921,177394,591873,0
2096921,2096921,177730,591342,0
2096921,2096921,177370,591398,0
2096921,2096921,177485,591356,0
2096921,2096921,177596,591432,0
2096921,2096921,177545,591524,0
2096921,2096921,177582,591062,0
2096921,2096921,177281,590931,0
2096921,2096921,177103,591013,0
2096921,2096921,176976,591306,0
2096921,2096921,177268,591188,0
2096921,2096921,177274,591173,0
2096921,2096921,177279,591012,0
2096921,2096921,177292,590926,0
2096921,2096921,177612,590997,0
2096921,2096921,177851,591159,0
2096921,2096921,177659,591501,0
2096921,2096921,177579,591782,0
2096921,2096921,177409,591379,0
2096921,2096921,177496,591475,0
2096921,2096921,177614,591758,0
2096921,2096921,177358,591908,0
2096921,2096921,177640,592021,0
2096921,2096921,177545,591868,0
2096921,2096921,177605,591940,0
2096921,2096921,177873,591939,0
2096921,2096921,177941,592326,0
2096921,2096921,177795,592496,0
2096921,2096921,177889,592598,0
2096921,2096921,177785,592589,0
2096921,2096921,177907,592586,0
2096921,2096921,177990,592863,0
2096921,2096921,177865,592747,0
2096921,2096921,177802,592859,0
2096921,2096921,177953,593027,0
2096921,2096921,178245,592881,0
2096921,2096921,178367,593489,0
2096921,2096921,178435,593576,0
2096921,2096921,178515,593486,0
2096921,2096921,178330,593698,0
2096921,2096921,178382,593851,0
2096921,2096921,178288,594390,0
2096921,2096921,178290,594521,0
2096921,2096921,178543,594269,0
2096921,2096921,179136,594282,0
2096921,2096921,178860,594304,0
2096921,2096921,178530,595234,0
2096921,2096921,178670,595380,0
2096921,2096921,178974,595195,0
2096921,2096921,178569,595003,0
2096921,2096921,179216,595228,0
2096921,2096921,179224,595852,0
2096921,2096921,179354,596002,0
2096921,2096921,179335,596048,0
2096921,2096921,179156,595944,0
2096921,2096921,179570,596228,0
2096921,2096921,179596,596737,0
2096921,2096921,179518,596968,0
2096921,2096921,179577,597151,0
2096921,2096921,179352,596741,0
2096921,2096921,179679,597054,0
2096921,2096921,179845,597660,0
2096921,2096921,179912,597916,0
2096921,2096921,179874,597731,0
2096921,2096921,179858,598014,0
2096921,2096921,180206,597765,0
2096921,2096921,180284,598615,0
2096921,2096921,180262,598886,0
2096921,2096921,180545,598716,0
2096921,2096921,180319,598516,0
2096921,2096921,180509,598623,0
2096921,2096921,180733,599265,0
2096921,2096921,180487,599424,0
2096921,2096921,180470,599655,0
2096921,2096921,180643,599640,0
2096921,2096921,180948,599636,0
2096921,2096921,181350,600512,0
2096921,2096921,181443,600161,0
2096921,2096921,181183,600548,0
2096921,2096921,181210,600766,0
2096921,2096921,181289,600406,0
2096921,2096921,181259,601022,0
2096921,2096921,181245,601134,0
2096921,2096921,181576,601249,0
2096921,2096921,181357,601258,0
2096921,2096921,181864,601272,0
2096921,2096921,182084,601848,0
2096921,2096921,181951,602371,0
2096921,2096921,181627,602018,0
2096921,2096921,181800,602158,0
2096921,2096921,182066,602106,0
2096921,2096921,181954,602797,0
2096921,2096921,181971,602769,0
2096921,2096921,181741,602861,0
2096921,2096921,182121,602931,0
2096921,2096921,182313,602881,0
2096921,2096921,182438,603524,0
2096921,2096921,182479,603729,0
2096921,2096921,182430,603786,0
2096921,2096921,182608,603783,0
2096921,2096921,182666,603621,0
2096921,2096921,182505,604311,0
2096921,2096921,182417,604500,0
2096921,2096921,182520,604607,0
2096921,2096921,182630,604482,0
2096921,2096921,182698,604573,0
2096921,2096921,182965,605245,0
2096921,2096921,182974,605175,0
2096921,2096921,182963,605215,0
2096921,2096921,182913,605258,0
2096921,2096921,183225,605133,0
2096921,2096921,183202,605780,0
2096921,2096921,183039,605548,0
2096921,2096921,182924,605399,0
2096921,2096921,182917,605451,0
2096921,2096921,183432,605757,0
2096921,2096921,183256,605832,0
2096921,2096921,183194,606107,0
2096921,2096921,183292,606264,0
2096921,2096921,183203,606220,0
2096921,2096921,183191,605889,0
2096921,2096921,183088,606298,0
2096921,2096921,182948,606399,0
2096921,2096921,183193,606302,0
2096921,2096921,183253,606313,0
2096921,2096921,183031,606503,0
2096921,2096921,183388,606764,0
2096921,2096921,183209,606820,0
2096921,2096921,183641,606753,0
2096921,2096921,183360,606802,0
2096921,2096921,183336,606526,0
2096921,2096921,183226,606743,0
2096921,2096921,183086,606677,0
2096921,2096921,183389,606812,0
2096921,2096921,183410,606788,0
2096921,2096921,183602,606857,0
2096921,2096921,183227,606786,0
2096921,2096921,183245,607098,0
2096921,2096921,183334,606828,0
2096921,2096921,183501,607062,0
2096921,2096921,183475,607017,0
2096921,2096921,183439,607226,0
2096921,2096921,183445,606913,0
2096921,2096921,183534,607272,0
2096921,2096921,183501,606800,0
2096921,2096921,183479,606756,0
2096921,2096921,183419,606903,0
2096921,2096921,183609,607143,0
2096921,2096921,183605,607385,0
2096921,2096921,183514,607127,0
2096921,2096921,183436,607214,0
2096921,2096921,183805,607247,0
2096921,2096921,183716,606987,0
2096921,2096921,183684,607166,0
2096921,2096921,183567,607187,0
2096921,2096921,183503,607516,0
2096921,2096921,183657,607590,0
2096921,2096921,183404,607702,0
2096921,2096921,183558,607962,0
2096921,2096921,183498,607664,0
2096921,2096921,183537,607418,0
2096921,2096921,183720,607926,0
2096921,2096921,183840,607895,0
2096921,2096921,183730,608088,0
2096921,2096921,183663,607958,0
2096921,2096921,183764,608141,0
2096921,2096921,183738,608250,0
2096921,2096921,183740,608259,0
2096921,2096921,183628,608607,0
2096921,2096921,183721,608307,0
2096921,2096921,184030,608395,0
2096921,2096921,183671,608881,0
2096921,2096921,183698,608998,0
2096921,2096921,183712,608931,0
2096921,2096921,183982,608808,0
2096921,2096921,184102,608704,0
2096921,2096921,184213,609338,0
2096921,2096921,183952,609065,0
2096921,2096921,184175,609194,0
2096921,2096921,183985,609271,0
2096921,2096921,184284,609255,0
2096921,2096921,184418,609769,0
2096921,2096921,184124,609858,0
2096921,2096921,184118,609634,0
2096921,2096921,184550,609734,0
2096921,2096921,184678,609651,0
2096921,2096921,184867,610419,0
2096921,2096921,184638,610898,0
2096921,2096921,184826,610451,0
2096921,2096921,184680,610459,0
2096921,2096921,184928,610670,0
2096921,2096921,184867,611203,0
2096921,2096921,184951,610999,0
2096921,2096921,184821,611122,0
2096921,2096921,184748,611136,0
2096921,2096921,185270,611291,0
2096921,2096921,185117,611721,0
2096921,2096921,185218,612211,0
2096921,2096921,185476,611851,0
2096921,2096921,185507,612126,0
2096921,2096921,185728,612193,0
2096921,2096921,185237,612771,0
2096921,2096921,185279,612960,0
2096921,2096921,185313,612529,0
2096921,2096921,185546,612964,0
2096921,2096921,185726,612692,0
2096921,2096921,185582,613203,0
2096921,2096921,185538,613270,0
2096921,2096921,185886,613114,0
2096921,2096921,185677,613474,0
2096921,2096921,185907,613523,0
2096921,2096921,185810,613915,0
2096921,2096921,185633,614087,0
2096921,2096921,185802,613637,0
2096921,2096921,185539,613960,0
2096921,2096921,186062,613927,0
2096921,2096921,186117,614443,0
2096921,2096921,186119,614633,0
2096921,2096921,186111,614645,0
2096921,2096921,186089,614758,0
2096921,2096921,186447,614412,0
2096921,2096921,186336,614884,0
2096921,2096921,186181,615318,0
2096921,2096921,186478,615552,0
2096921,2096921,186191,615268,0
2096921,2096921,186617,615414,0
2096921,2096921,186697,615832,0
2096921,2096921,186618,615768,0
2096921,2096921,186726,615882,0
2096921,2096921,186828,615628,0
2096921,2096921,186707,615693,0
2096921,2096921,187077,616241,0
2096921,2096921,186852,616244,0
2096921,2096921,186703,616234,0
2096921,2096921,186899,616436,0
2096921,2096921,187204,616012,0
2096921,2096921,187061,616525,0
2096921,2096921,187341,616883,0
2096921,2096921,186984,616708,0
2096921,2096921,187097,616788,0
2096921,2096921,186811,616918,0
2096921,2096921,187238,617328,0
2096921,2096921,187226,617045,0
2096921,2096921,186962,617232,0
2096921,2096921,187252,617256,0
2096921,2096921,187568,617357,0
2096921,2096921,187478,617760,0
2096921,2096921,187478,617811,0
2096921,2096921,187487,618178,0
2096921,2096921,187602,618000,0
2096921,2096921,187513,617776,0
2096921,2096921,187492,618211,0
2096921,2096921,187596,618384,0
2096921,2096921,187757,618305,0
2096921,2096921,187402,618348,0
2096921,2096921,187724,618304,0
2096921,2096921,187832,618868,0
2096921,2096921,187966,618942,0
2096921,2096921,187573,618964,0
2096921,2096921,188007,619115,0
2096921,2096921,188190,619149,0
2096921,2096921,188160,619409,0
2096921,2096921,187970,619406,0
2096921,2096921,187978,619296,0
2096921,2096921,187651,619397,0
2096921,2096921,188142,619491,0
2096921,2096921,188070,619676,0
2096921,2096921,188270,620086,0
2096921,2096921,188366,620124,0
2096921,2096921,188093,619870,0
2096921,2096921,188407,620243,0
2096921,2096921,188472,620502,0
2096921,2096921,188162,620437,0
2096921,2096921,187970,620595,0
2096921,2096921,188214,620209,0
2096921,2096921,188467,620332,0
2096921,2096921,188678,620774,0
2096921,2096921,188392,620964,0
2096921,2096921,188376,621008,0
2096921,2096921,188728,620959,0
2096921,2096921,188660,620968,0
2096921,2096921,188628,621214,0
2096921,2096921,188501,620991,0
2096921,2096921,188526,621028,0
2096921,2096921,188869,621474,0
2096921,2096921,189069,621340,0
2096921,2096921,188743,621326,0
2096921,2096921,188757,621750,0
2096921,2096921,188759,621866,0
2096921,2096921,188711,621799,0
2096921,2096921,188848,621593,0
2096921,2096921,189062,621952,0
2096921,2096921,189086,621902,0
2096921,2096921,189118,621757,0
2096921,2096921,188993,621928,0
2096921,2096921,189349,622160,0
2096921,2096921,189080,622515,0
2096921,2096921,189433,622742,0
2096921,2096921,189015,622519,0
2096921,2096921,189432,622659,0
2096921,2096921,189556,622481,0
2096921,2096921,189498,622638,0
2096921,2096921,189317,622604,0
2096921,2096921,189348,622813,0
2096921,2096921,189275,622774,0
2096921,2096921,189727,623013,0
2096921,2096921,189466,623037,0
2096921,2096921,189524,623194,0
2096921,2096921,189659,623549,0
2096921,2096921,189582,623510,0
2096921,2096921,189315,623438,0
2096921,2096921,189452,623672,0
2096921,2096921,189645,623603,0
2096921,2096921,189522,623792,0
2096921,2096921,189554,623511,0
2096921,2096921,189769,623755,0
2096921,2096921,189795,623864,0
2096921,2096921,189661,624093,0
2096921,2096921,189640,624022,0
2096921,2096921,189485,624095,0
2096921,2096921,189990,623884,0
2096921,2096921,189609,624416,0
2096921,2096921,189437,623984,0
2096921,2096921,189608,624151,0
2096921,2096921,189501,624020,0
2096921,2096921,189810,624439,0
2096921,2096921,189717,624610,0
2096921,2096921,189744,624716,0
2096921,2096921,189820,624550,0
2096921,2096921,189817,624685,0
2096921,2096921,190020,624570,0
2096921,2096921,189839,624801,0
2096921,2096921,189863,624946,0
2096921,2096921,189650,624838,0
2096921,2096921,190162,624914,0
2096921,2096921,190020,624706,0
2096921,2096921,190305,624872,0
2096921,2096921,190298,624922,0
2096921,2096921,190563,624848,0
2096921,2096921,189945,624926,0
2096921,2096921,190298,624679,0
2096921,2096921,190059,625285,0
2096921,2096921,190104,625263,0
2096921,2096921,190048,625416,0
2096921,2096921,190107,625343,0
2096921,2096921,190127,625328,0
2096921,2096921,190492,625430,0
2096921,2096921,190474,625515,0
2096921,2096921,190316,625782,0
2096921,2096921,190489,625700,0
2096921,2096921,190222,625814,0
2096921,2096921,190192,625686,0
2096921,2096921,190462,625772,0
2096921,2096921,190199,625906,0
2096921,2096921,190366,625718,0
2096921,2096921,190566,625460,0
2096921,2096921,190428,625545,0
2096921,2096921,190271,625924,0
2096921,2096921,190361,625964,0
2096921,2096921,190563,626110,0
2096921,2096921,190803,625932,0
2096921,2096921,190288,626145,0
2096921,2096921,190335,626241,0
2096921,2096921,190257,626221,0
2096921,2096921,190545,626238,0
2096921,2096921,190494,626249,0
2096921,2096921,190664,626523,0
2096921,2096921,190479,626559,0
2096921,2096921,190637,626634,0
2096921,2096921,190675,626512,0
2096921,2096921,190858,626424,0
2096921,2096921,190678,626364,0
2096921,2096921,190766,626632,0
2096921,2096921,190601,626528,0
2096921,2096921,190724,626623,0
2096921,2096921,190460,626709,0
2096921,2096921,190805,626538,0
2096921,2096921,190862,626709,0
2096921,2096921,190902,626624,0
2096921,2096921,190975,626682,0
2096921,2096921,191011,626830,0
2096921,2096921,191061,626804,0
2096921,2096921,191222,626961,0
2096921,2096921,190921,626709,0
2096921,2096921,190866,626741,0
2096921,2096921,191128,626825,0
2096921,2096921,191063,627204,0
2096921,2096921,191177,627147,0
2096921,2096921,190903,627142,0
2096921,2096921,190939,627178,0
2096921,2096921,191146,627374,0
2096921,2096921,190718,627222,0
2096921,2096921,190681,627577,0
2096921,2096921,190847,627177,0
2096921,2096921,190850,627186,0
2096921,2096921,190755,627408,0
2096921,2096921,190878,627652,0
2096921,2096921,190866,627469,0
2096921,2096921,191001,627503,0
2096921,2096921,190838,627342,0
2096921,2096921,191043,627338,0
2096921,2096921,191009,627048,0
2096921,2096921,190922,627221,0
2096921,2096921,191026,627217,0
2096921,2096921,191181,627451,0
2096921,2096921,190828,627418,0
2096921,2096921,191120,627517,0
2096921,2096921,190944,627281,0
2096921,2096921,191083,627463,0
2096921,2096921,191194,627266,0
2096921,2096921,191102,627670,0
2096921,2096921,191077,627650,0
2096921,2096921,190883,627376,0
2096921,2096921,191055,627341,0
2096921,2096921,190980,627361,0
2096921,2096921,191177,627704,0
2096921,2096921,191284,627715,0
2096921,2096921,191329,627521,0
2096921,2096921,191074,627650,0
2096921,2096921,191177,627717,0
2096921,2096921,190854,627705,0
2096921,2096921,190973,627546,0
2096921,2096921,191177,627571,0
2096921,2096921,191223,627644,0
2096921,2096921,190920,627468,0
2096921,2096921,191211,627635,0
2096921,2096921,191266,627629,0
2096921,2096921,191473,627460,0
2096921,2096921,191199,627415,0
2096921,2096921,190884,627838,0
2096921,2096921,191271,627569,0
2096921,2096921,190975,627735,0
2096921,2096921,190819,627671,0
2096921,2096921,190902,627480,0
2096921,2096921,191177,627369,0
2096921,2096921,190886,627535,0
2096921,2096921,190746,627618,0
2096921,2096921,191173,627518,0
2096921,2096921,190968,627605,0
2096921,2096921,191246,627546,0
2096921,2096921,191298,627559,0
2096921,2096921,191265,627527,0
2096921,2096921,190845,627461,0
2096921,2096921,191131,627518,0
2096921,2096921,191268,627512,0
2096921,2096921,190893,627688,0
2096921,2096921,190829,627116,0
2096921,2096921,190923,626903,0
2096921,2096921,190867,626877,0
2096921,2096921,191188,626608,0
2096921,2096921,190734,627125,0
2096921,2096921,190615,626809,0
2096921,2096921,190667,626558,0
2096921,2096921,190657,626390,0
2096921,2096921,190695,626373,0
2096921,2096921,190225,626268,0
2096921,2096921,190203,626087,0
2096921,2096921,190219,625768,0
2096921,2096921,190305,625545,0
2096921,2096921,190115,625554,0
2096921,2096921,189994,625468,0
2096921,2096921,189889,624509,0
2096921,2096921,189672,624287,0
2096921,2096921,189672,624378,0
2096921,2096921,189697,624339,0
2096921,2096921,189399,624507,0
2096921,2096921,189144,623793,0
2096921,2096921,189450,623478,0
2096921,2096921,189445,623440,0
2096921,2096921,189229,623345,0
2096921,2096921,188047,623311,0
2096921,2096921,188082,621217,0
2096921,2096921,188104,620816,0
2096921,2096921,187821,621095,0
2096921,2096921,188106,620720,0
2096921,2096921,186573,620634,0
2096921,2096921,186604,618152,0
2096921,2096921,186508,617634,0
2096921,2096921,186488,617626,0
2096921,2096921,186566,617753,0
2096921,2096921,185945,617538,0
2096921,2096921,185533,615553,0
2096921,2096921,185418,615143,0
2096921,2096921,185346,615110,0
2096921,2096921,185460,614843,0
2096921,2096921,184720,615101,0
2096921,2096921,184551,613949,0
2096921,2096921,184698,613541,0
2096921,2096921,184777,613449,0
2096921,2096921,184694,613369,0
2096921,2096921,184207,613116,0
2096921,2096921,184200,612315,0
2096921,2096921,183945,611771,0
2096921,2096921,184181,611741,0
2096921,2096921,184068,611680,0
2096921,2096921,183714,611778,0
2096921,2096921,183621,611478,0
2096921,2096921,183498,611071,0
2096921,2096921,183570,611122,0
2096921,2096921,183521,610524,0
2096921,2096921,183373,610703,0
2096921,2096921,183255,610463,0
2096921,2096921,183404,610130,0
2096921,2096921,183139,609840,0
2096921,2096921,183168,609706,0
2096921,2096921,183042,610027,0
2096921,2096921,183236,609776,0
2096921,2096921,182959,609864,0
2096921,2096921,183095,610122,0
2096921,2096921,182964,609766,0
2096921,2096921,183313,609538,0
2096921,2096921,182898,609644,0
2096921,2096921,182951,609664,0
2096921,2096921,183027,609645,0
2096921,2096921,183243,609595,0
2096921,2096921,182966,609733,0
2096921,2096921,183314,609567,0
2096921,2096921,183125,609557,0
2096921,2096921,183053,609557,0
2096921,2096921,183092,609443,0
2096921,2096921,182949,609477,0
2096921,2096921,183111,609674,0
2096921,2096921,183296,609862,0
2096921,2096921,183212,609628,0
2096921,2096921,183516,609611,0
2096921,2096921,183396,609894,0
2096921,2096921,183329,609811,0
2096921,2096921,183152,610287,0
2096921,2096921,183463,610107,0
2096921,2096921,183371,609724,0
2096921,2096921,183553,609504,0
2096921,2096921,183052,609831,0
2096921,2096921,183304,610055,0
2096921,2096921,183337,609750,0
2096921,2096921,183350,609801,0
2096921,2096921,183726,610331,0
2096921,2096921,183850,610601,0
2096921,2096921,183689,610505,0
2096921,2096921,183626,610576,0
2096921,2096921,184044,610701,0
2096921,2096921,183933,610849,0
2096921,2096921,183837,611011,0
2096921,2096921,184002,611106,0
2096921,2096921,184013,610929,0
2096921,2096921,183917,611181,0
2096921,2096921,184110,611051,0
2096921,2096921,184009,611720,0
2096921,2096921,183954,611578,0
2096921,2096921,184011,611942,0
2096921,2096921,183675,611694,0
2096921,2096921,184092,611542,0
2096921,2096921,184330,612105,0
2096921,2096921,184121,612354,0
2096921,2096921,184065,612381,0
2096921,2096921,184309,612492,0
2096921,2096921,184818,612441,0
2096921,2096921,184600,612814,0
2096921,2096921,184515,612708,0
2096921,2096921,184743,613146,0
2096921,2096921,184868,612907,0
2096921,2096921,184815,613031,0
2096921,2096921,184525,613285,0
2096921,2096921,184572,613630,0
2096921,2096921,184750,613347,0
2096921,2096921,184767,613441,0
2096921,2096921,184858,613435,0
2096921,2096921,184875,614134,0
2096921,2096921,184953,614221,0
2096921,2096921,184865,614199,0
2096921,2096921,184748,614331,0
2096921,2096921,185324,613921,0
2096921,2096921,185392,614551,0
2096921,2096921,185147,614407,0
2096921,2096921,185166,614313,0
2096921,2096921,185387,614630,0
2096921,2096921,185368,614569,0
2096921,2096921,185687,614995,0
2096921,2096921,185544,615114,0
2096921,2096921,185504,615043,0
2096921,2096921,185658,615296,0
2096921,2096921,185776,614966,0
2096921,2096921,185839,615474,0
2096921,2096921,185635,615721,0
2096921,2096921,185891,615546,0
2096921,2096921,185827,615719,0
2096921,2096921,186129,615646,0
2096921,2096921,185818,615936,0
2096921,2096921,186088,616076,0
2096921,2096921,186438,616202,0
2096921,2096921,186249,615994,0
2096921,2096921,186168,616302,0
2096921,2096921,186265,616263,0
2096921,2096921,186170,616393,0
2096921,2096921,186503,616658,0
2096921,2096921,186462,616599,0
2096921,2096921,186490,616610,0
2096921,2096921,186746,617150,0
2096921,2096921,186909,617265,0
2096921,2096921,186698,617329,0
2096921,2096921,186432,617306,0
2096921,2096921,186593,617127,0
2096921,2096921,186846,617318,0
2096921,2096921,186794,617393,0
2096921,2096921,186732,617455,0
2096921,2096921,186393,617493,0
2096921,2096921,186732,617423,0
2096921,2096921,187076,617500,0
2096921,2096921,186936,617962,0
2096921,2096921,186841,617873,0
2096921,2096921,186691,617876,0
2096921,2096921,187042,617762,0
2096921,2096921,186993,617665,0
2096921,2096921,186643,617827,0
2096921,2096921,186970,617764,0
2096921,2096921,186651,618023,0
2096921,2096921,186902,617997,0
2096921,2096921,186795,618226,0
2096921,2096921,186671,618304,0
2096921,2096921,186920,618162,0
2096921,2096921,186641,618155,0
2096921,2096921,186575,618016,0
2096921,2096921,186627,618046,0
2096921,2096921,186988,617766,0
2096921,2096921,186809,617854,0
2096921,2096921,186778,617708,0
2096921,2096921,186892,618072,0
2096921,2096921,186909,617834,0
2096921,2096921,186650,617909,0
2096921,2096921,186678,618033,0
2096921,2096921,186858,617980,0
2096921,2096921,186592,617894,0
2096921,2096921,186326,617822,0
2096921,2096921,186706,617803,0
2096921,2096921,186991,617590,0
2096921,2096921,186758,617572,0
2096921,2096921,186741,617511,0
2096921,2096921,186704,617716,0
2096921,2096921,186455,617681,0
2096921,2096921,186643,617582,0
2096921,2096921,186584,617440,0
2096921,2096921,186482,617698,0
2096921,2096921,186604,617215,0
2096921,2096921,186600,616882,0
2096921,2096921,186162,617128,0
2096921,2096921,186513,617057,0
2096921,2096921,186550,616905,0
2096921,2096921,186449,616525,0
2096921,2096921,186719,616786,0
2096921,2096921,186683,616672,0
2096921,2096921,186727,616638,0
2096921,2096921,186518,616685,0
2096921,2096921,186431,616551,0
2096921,2096921,186344,616557,0
2096921,2096921,186272,616322,0
2096921,2096921,186154,615965,0
2096921,2096921,186416,616219,0
2096921,2096921,186616,616437,0
2096921,2096921,186450,616143,0
2096921,2096921,186584,616226,0
2096921,2096921,186332,616066,0
2096921,2096921,186302,616067,0
2096921,2096921,185985,616020,0
2096921,2096921,186317,616205,0
2096921,2096921,186101,616120,0
2096921,2096921,186189,616054,0
2096921,2096921,186280,615950,0
2096921,2096921,186012,616281,0
2096921,2096921,186158,616384,0
2096921,2096921,186348,616220,0
2096921,2096921,186364,616164,0
2096921,2096921,186050,616044,0
2096921,2096921,186251,615933,0
2096921,2096921,186203,616016,0
2096921,2096921,186084,616135,0
2096921,2096921,186171,616281,0
2096921,2096921,185891,616117,0
2096921,2096921,186359,615947,0
2096921,2096921,186291,616206,0
2096921,2096921,186559,616060,0
2096921,2096921,186345,616702,0
2096921,2096921,186479,616049,0
2096921,2096921,185977,616378,0
2096921,2096921,186283,616257,0
2096921,2096921,186035,616471,0
2096921,2096921,186238,616171,0
2096921,2096921,186066,616247,0
2096921,2096921,186433,616903,0
2096921,2096921,186413,616733,0
2096921,2096921,186454,616474,0
2096921,2096921,186358,616608,0
2096921,2096921,186511,616588,0
2096921,2096921,186556,616666,0
2096921,2096921,186785,616720,0
2096921,2096921,186741,616674,0
2096921,2096921,186710,616735,0
2096921,2096921,186711,616844,0
2096921,2096921,186637,616918,0
2096921,2096921,186927,616799,0
2096921,2096921,186931,617100,0
2096921,2096921,187173,617108,0
2096921,2096921,186965,617099,0
2096921,2096921,186879,616934,0
2096921,2096921,186909,617065,0
2096921,2096921,186787,617130,0
2096921,2096921,186738,617226,0
2096921,2096921,187111,616971,0
2096921,2096921,187153,617266,0
2096921,2096921,186983,617101,0
2096921,2096921,186977,617008,0
2096921,2096921,186959,617033,0
2096921,2096921,186878,617027,0
2096921,2096921,187024,617070,0
2096921,2096921,186956,617257,0
2096921,2096921,186945,617042,0
2096921,2096921,186926,617135,0
2096921,2096921,187246,617164,0
2096921,2096921,187299,617360,0
2096921,2096921,187254,617392,0
2096921,2096921,187180,617654,0
2096921,2096921,186943,617384,0
2096921,2096921,187228,617743,0
2096921,2096921,187127,617741,0
2096921,2096921,186858,617673,0
2096921,2096921,186960,617421,0
2096921,2096921,187006,617295,0
2096921,2096921,187254,617332,0
2096921,2096921,187384,617680,0
2096921,2096921,187520,617946,0
2096921,2096921,187357,617986,0
2096921,2096921,187085,617762,0
2096921,2096921,187214,618018,0
2096921,2096921,186954,617660,0
2096921,2096921,187136,617719,0
2096921,2096921,187201,617734,0
2096921,2096921,187085,617612,0
2096921,2096921,187295,617723,0
2096921,2096921,187109,617943,0
2096921,2096921,187283,618183,0
2096921,2096921,187297,618107,0
2096921,2096921,187553,617735,0
2096921,2096921,187331,617942,0
2096921,2096921,187484,617534,0
2096921,2096921,187461,617814,0
2096921,2096921,187404,617856,0
2096921,2096921,187343,617957,0
2096921,2096921,187471,618228,0
2096921,2096921,187531,617885,0
2096921,2096921,187653,618164,0
2096921,2096921,187815,617992,0
2096921,2096921,187642,617973,0
2096921,2096921,187730,617852,0
2096921,2096921,187588,617680,0
2096921,2096921,187575,617831,0
2096921,2096921,187563,617758,0
2096921,2096921,187478,617554,0
2096921,2096921,187612,617914,0
2096921,2096921,187677,617880,0
2096921,2096921,187633,617830,0
2096921,2096921,187551,617759,0
2096921,2096921,187622,618132,0
2096921,2096921,187322,618238,0
2096921,2096921,187849,617706,0
2096921,2096921,187598,618189,0
2096921,2096921,187305,617971,0
2096921,2096921,187485,618040,0
2096921,2096921,187552,618042,0
2096921,2096921,187591,618095,0
2096921,2096921,187684,618209,0
2096921,2096921,187504,618077,0
2096921,2096921,187799,618125,0
2096921,2096921,187371,617836,0
2096921,2096921,187664,617948,0
2096921,2096921,187756,617714,0
2096921,2096921,187296,617396,0
2096921,2096921,187746,617757,0
2096921,2096921,187700,617998,0
2096921,2096921,187626,617811,0
2096921,2096921,187462,617936,0
2096921,2096921,187696,618048,0
2096921,2096921,187862,618030,0
2096921,2096921,187966,618004,0
2096921,2096921,187791,618001,0
2096921,2096921,187427,618007,0
2096921,2096921,187530,617836,0
2096921,2096921,187636,617853,0
2096921,2096921,187613,617818,0
2096921,2096921,187581,617795,0
2096921,2096921,187642,617958,0
2096921,2096921,187570,617833,0
2096921,2096921,187714,617790,0
2096921,2096921,187716,617805,0
2096921,2096921,187463,617888,0
2096921,2096921,187354,617687,0
2096921,2096921,187639,617587,0
2096921,2096921,187695,617403,0
2096921,2096921,187749,617523,0
2096921,2096921,187516,617435,0
2096921,2096921,187520,617643,0
2096921,2096921,187650,617740,0
2096921,2096921,187576,617803,0
2096921,2096921,187674,617416,0
2096921,2096921,187609,617449,0
2096921,2096921,187752,617287,0
2096921,2096921,187637,617334,0
2096921,2096921,187536,616953,0
2096921,2096921,187466,617453,0
2096921,2096921,187733,617292,0
2096921,2096921,187672,617121,0
2096921,2096921,187610,617170,0
2096921,2096921,187671,617196,0
2096921,2096921,187454,617067,0
2096921,2096921,187543,617184,0
2096921,2096921,187373,617164,0
2096921,2096921,187437,617113,0
2096921,2096921,187482,617317,0
2096921,2096921,187463,617218,0
2096921,2096921,187477,617142,0
2096921,2096921,187384,617278,0
2096921,2096921,187466,617245,0
2096921,2096921,187641,617197,0
2096921,2096921,187749,616839,0
2096921,2096921,187727,617141,0
2096921,2096921,187561,616998,0
2096921,2096921,187570,616796,0
2096921,2096921,187681,616785,0
2096921,2096921,187500,617294,0
2096921,2096921,187595,617106,0
2096921,2096921,187530,616911,0
2096921,2096921,187431,616754,0
2096921,2096921,187468,616678,0
2096921,2096921,187347,616464,0
2096921,2096921,187224,616390,0
2096921,2096921,187338,616459,0
2096921,2096921,187360,616417,0
2096921,2096921,187262,616256,0
2096921,2096921,187314,616356,0
2096921,2096921,187552,616542,0
2096921,2096921,187412,616379,0
2096921,2096921,187375,616475,0
2096921,2096921,187514,616312,0
2096921,2096921,187659,616137,0
2096921,2096921,187471,615791,0
2096921,2096921,187324,615688,0
2096921,2096921,187193,616113,0
2096921,2096921,187537,616049,0
2096921,2096921,187234,616007,0
2096921,2096921,187348,615880,0
2096921,2096921,187350,616013,0
2096921,2096921,187399,616053,0
2096921,2096921,187388,616030,0
2096921,2096921,187129,615576,0
2096921,2096921,187161,615502,0
2096921,2096921,187310,615666,0
2096921,2096921,187070,615787,0
2096921,2096921,187297,615802,0
2096921,2096921,187145,615644,0
2096921,2096921,187149,615634,0
2096921,2096921,186896,615634,0
2096921,2096921,186865,615462,0
2096921,2096921,187293,615098,0
2096921,2096921,187346,615558,0
2096921,2096921,187044,615349,0
2096921,2096921,187009,615266,0
2096921,2096921,187042,615199,0
2096921,2096921,186817,615362,0
2096921,2096921,186605,615533,0
2096921,2096921,186627,615150,0
2096921,2096921,186856,614853,0
2096921,2096921,187136,614992,0
2096921,2096921,187115,615063,0
2096921,2096921,187049,615009,0
2096921,2096921,186785,614891,0
2096921,2096921,186892,614664,0
2096921,2096921,186958,614572,0
2096921,2096921,187043,614929,0
2096921,2096921,187126,614649,0
2096921,2096921,187112,614938,0
2096921,2096921,186949,614742,0
2096921,2096921,187149,614689,0
2096921,2096921,187252,614586,0
2096921,2096921,187068,614604,0
2096921,2096921,186968,614203,0
2096921,2096921,187031,614143,0
2096921,2096921,187127,614261,0
2096921,2096921,187008,614500,0
2096921,2096921,187082,614406,0
2096921,2096921,187085,614259,0
2096921,2096921,187102,614209,0
2096921,2096921,187010,613987,0
2096921,2096921,186627,614108,0
2096921,2096921,186864,614213,0
2096921,2096921,186774,613836,0
2096921,2096921,186758,614017,0
2096921,2096921,186656,613774,0
2096921,2096921,186923,614141,0
2096921,2096921,186700,614034,0
2096921,2096921,186762,613766,0
2096921,2096921,186552,613641,0
2096921,2096921,186542,613810,0
2096921,2096921,186814,613596,0
2096921,2096921,186499,613824,0
2096921,2096921,186417,613646,0
2096921,2096921,186641,613374,0
2096921,2096921,186655,613530,0
2096921,2096921,186366,613345,0
2096921,2096921,186364,613250,0
2096921,2096921,186519,612997,0
2096921,2096921,186945,612840,0
2096921,2096921,186478,613347,0
2096921,2096921,186608,613233,0
2096921,2096921,186552,613199,0
2096921,2096921,186681,612697,0
2096921,2096921,186562,612495,0
2096921,2096921,186521,612773,0
2096921,2096921,186222,612667,0
2096921,2096921,186299,612740,0
2096921,2096921,186148,612810,0
2096921,2096921,186566,612344,0
2096921,2096921,186452,612333,0
2096921,2096921,186718,612293,0
2096921,2096921,186238,612394,0
2096921,2096921,186404,612209,0
2096921,2096921,186296,612282,0
2096921,2096921,186218,611943,0
2096921,2096921,186069,611976,0
2096921,2096921,186068,612398,0
2096921,2096921,186418,611779,0
2096921,2096921,186221,612086,0
2096921,2096921,186083,611805,0
2096921,2096921,186044,611919,0
2096921,2096921,185930,612029,0
2096921,2096921,186305,611578,0
2096921,2096921,186158,611601,0
2096921,2096921,186061,611384,0
2096921,2096921,185951,611503,0
2096921,2096921,185991,611785,0
2096921,2096921,185748,611108,0
2096921,2096921,185988,611080,0
2096921,2096921,185955,611454,0
2096921,2096921,186182,611191,0
2096921,2096921,185885,611275,0
2096921,2096921,185749,610951,0
2096921,2096921,185710,610915,0
2096921,2096921,185590,610728,0
2096921,2096921,185906,610796,0
2096921,2096921,185491,611118,0
2096921,2096921,185489,610262,0
2096921,2096921,185686,610274,0
2096921,2096921,185654,610396,0
2096921,2096921,185488,610415,0
2096921,2096921,185181,610146,0
2096921,2096921,185168,609496,0
2096921,2096921,185189,609370,0
2096921,2096921,185261,609355,0
2096921,2096921,185265,609342,0
2096921,2096921,184881,609302,0
2096921,2096921,184784,608500,0
2096921,2096921,184954,608214,0
2096921,2096921,184862,608112,0
2096921,2096921,184793,608122,0
2096921,2096921,184519,608127,0
2096921,2096921,184156,607159,0
2096921,2096921,184067,606634,0
2096921,2096921,183967,606439,0
2096921,2096921,184368,606575,0
2096921,2096921,183884,606846,0
2096921,2096921,183817,605509,0
2096921,2096921,183641,605358,0
2096921,2096921,183754,605455,0
2096921,2096921,183732,605455,0
2096921,2096921,182630,605259,0
2096921,2096921,182319,603177,0
2096921,2096921,182283,602743,0
2096921,2096921,182574,602607,0
2096921,2096921,182377,602348,0
2096921,2096921,181147,602553,0
2096921,2096921,181012,599707,0
2096921,2096921,180679,599099,0
2096921,2096921,180709,599017,0
2096921,2096921,180889,599087,0
2096921,2096921,180089,598737,0
2096921,2096921,179670,597243,0
2096921,2096921,179744,596836,0
2096921,2096921,179694,596481,0
2096921,2096921,180012,596767,0
2096921,2096921,179065,596578,0
2096921,2096921,179161,594775,0
2096921,2096921,179021,594556,0
2096921,2096921,179107,594206,0
2096921,2096921,178923,594467,0
2096921,2096921,178232,594501,0
2096921,2096921,178337,593183,0
2096921,2096921,178208,592855,0
2096921,2096921,177920,592995,0
2096921,2096921,178203,592906,0
2096921,2096921,177678,592594,0
2096921,2096921,177820,591961,0
2096921,2096921,177801,591826,0
2096921,2096921,177711,591543,0
2096921,2096921,177839,591441,0
2096921,2096921,177334,591261,0
2096921,2096921,177652,590990,0
2096921,2096921,177745,590882,0
2096921,2096921,177379,590477,0
2096921,2096921,177384,590660,0
2096921,2096921,177102,590712,0
2096921,2096921,177327,590329,0
2096921,2096921,177167,590168,0
2096921,2096921,177270,590214,0
2096921,2096921,176945,590191,0
2096921,2096921,177259,590340,0
2096921,2096921,177035,589750,0
2096921,2096921,176964,589634,0
2096921,2096921,177123,589411,0
2096921,2096921,176756,589540,0
2096921,2096921,176794,589692,0
2096921,2096921,176772,589454,0
2096921,2096921,176994,589256,0
2096921,2096921,177065,589190,0
2096921,2096921,177399,589584,0
2096921,2096921,177037,589153,0
2096921,2096921,176571,589444,0
2096921,2096921,177041,589668,0
2096921,2096921,176865,589361,0
2096921,2096921,176794,589487,0
2096921,2096921,176941,589260,0
2096921,2096921,177029,589526,0
2096921,2096921,177047,589579,0
2096921,2096921,177190,589767,0
2096921,2096921,177088,589586,0
2096921,2096921,176727,589471,0
2096921,2096921,177204,589345,0
2096921,2096921,177150,589333,0
2096921,2096921,177263,589168,0
2096921,2096921,176883,589553,0
2096921,2096921,177093,589582,0
2096921,2096921,176908,589599,0
2096921,2096921,177020,589837,0
2096921,2096921,177252,589932,0
2096921,2096921,177228,589774,0
2096921,2096921,176959,589705,0
2096921,2096921,177275,589895,0
2096921,2096921,177265,590218,0
2096921,2096921,177392,589996,0
2096921,2096921,177108,590043,0
2096921,2096921,177260,590138,0
2096921,2096921,177482,590501,0
2096921,2096921,177350,590421,0
2096921,2096921,177432,590525,0
2096921,2096921,177569,590442,0
2096921,2096921,177443,590338,0
2096921,2096921,177365,590601,0
2096921,2096921,177204,590906,0
2096921,2096921,177469,590754,0
2096921,2096921,177433,590799,0
2096921,2096921,177669,590613,0
2096921,2096921,177897,591068,0
2096921,2096921,177931,591203,0
2096921,2096921,177901,591617,0
2096921,2096921,177821,591273,0
2096921,2096921,177692,591099,0
2096921,2096921,177939,590883,0
2096921,2096921,177987,591194,0
2096921,2096921,177876,591238,0
2096921,2096921,177983,591604,0
2096921,2096921,178247,591655,0
2096921,2096921,178193,591946,0
2096921,2096921,178140,591765,0
2096921,2096921,178242,591644,0
2096921,2096921,178236,591775,0
2096921,2096921,178574,591816,0
2096921,2096921,178658,592028,0
2096921,2096921,178326,592174,0
2096921,2096921,178069,592014,0
2096921,2096921,178139,591958,0
2096921,2096921,178470,592038,0
2096921,2096921,178409,592083,0
2096921,2096921,178531,592422,0
2096921,2096921,178546,592581,0
2096921,2096921,178703,592435,0
2096921,2096921,178616,592582,0
2096921,2096921,178598,592706,0
2096921,2096921,178580,592843,0
2096921,2096921,178732,592709,0
2096921,2096921,178698,592787,0
2096921,2096921,178959,593009,0
2096921,2096921,178945,593283,0
2096921,2096921,179068,593408,0
2096921,2096921,179095,593726,0
2096921,2096921,179124,593477,0
2096921,2096921,179341,593376,0
2096921,2096921,179197,593715,0
2096921,2096921,179000,593895,0
2096921,2096921,179060,593658,0
2096921,2096921,179102,593284,0
2096921,2096921,179314,593531,0
2096921,2096921,179065,593935,0
2096921,2096921,179418,593963,0
2096921,2096921,179300,594311,0
2096921,2096921,179596,594190,0
2096921,2096921,179400,593998,0
2096921,2096921,179518,594022,0
2096921,2096921,179489,593941,0
2096921,2096921,179466,594075,0
2096921,2096921,179664,594424,0
2096921,2096921,179915,594232,0
2096921,2096921,179636,594419,0
2096921,2096921,179858,594390,0
2096921,2096921,179731,594595,0
2096921,2096921,179474,594458,0
2096921,2096921,179546,594432,0
2096921,2096921,179585,594632,0
2096921,2096921,179543,594601,0
2096921,2096921,179525,594424,0
2096921,2096921,179588,594379,0
2096921,2096921,180112,594872,0
2096921,2096921,179746,594612,0
2096921,2096921,179673,594744,0
2096921,2096921,179597,594616,0
2096921,2096921,179656,594674,0
2096921,2096921,179524,594300,0
2096921,2096921,179427,594363,0
2096921,2096921,179427,594259,0
2096921,2096921,179485,594682,0
2096921,2096921,179831,594032,0
2096921,2096921,179919,594479,0
2096921,2096921,179734,594401,0
2096921,2096921,179656,594572,0
2096921,2096921,179645,594502,0
2096921,2096921,179626,594500,0
2096921,2096921,179452,594498,0
2096921,2096921,179412,594056,0
2096921,2096921,179280,594091,0
2096921,2096921,179270,594069,0
2096921,2096921,179534,594253,0
2096921,2096921,179410,594116,0
2096921,2096921,179625,593868,0
2096921,2096921,179555,594260,0
2096921,2096921,179331,594011,0
2096921,2096921,179140,594045,0
2096921,2096921,179174,593987,0
2096921,2096921,179225,593816,0
2096921,2096921,179060,593885,0
2096921,2096921,179151,593822,0
2096921,2096921,179051,593821,0
2096921,2096921,179282,593810,0
2096921,2096921,178863,593611,0
2096921,2096921,179173,593542,0
2096921,2096921,179276,593238,0
2096921,2096921,179051,593593,0
2096921,2096921,179109,593830,0
2096921,2096921,179133,593642,0
2096921,2096921,178783,593424,0
2096921,2096921,178747,593139,0
2096921,2096921,178906,593341,0
2096921,2096921,178852,593571,0
2096921,2096921,179021,593199,0
2096921,2096921,179057,593097,0
2096921,2096921,179133,593269,0
2096921,2096921,179106,593275,0
2096921,2096921,179143,592949,0
2096921,2096921,178801,593333,0
2096921,2096921,178715,592966,0
2096921,2096921,179008,593024,0
2096921,2096921,178956,593276,0
2096921,2096921,179303,593321,0
2096921,2096921,178877,593076,0
2096921,2096921,179083,593325,0
2096921,2096921,179203,593235,0
2096921,2096921,178884,593239,0
2096921,2096921,178849,593542,0
2096921,2096921,178736,593354,0
2096921,2096921,178926,592933,0
2096921,2096921,179079,593177,0
2096921,2096921,179151,593270,0
2096921,2096921,179211,593394,0
2096921,2096921,179216,593312,0
2096921,2096921,179341,593322,0
2096921,2096921,179093,593409,0
2096921,2096921,179179,593241,0
2096921,2096921,179301,593467,0
2096921,2096921,179474,593539,0
2096921,2096921,179243,593510,0
2096921,2096921,179368,593763,0
2096921,2096921,179323,593737,0
2096921,2096921,179538,593770,0
2096921,2096921,179823,594129,0
2096921,2096921,179501,594033,0
2096921,2096921,179691,594122,0
2096921,2096921,179460,594218,0
2096921,2096921,179503,594090,0
2096921,2096921,179739,594515,0
2096921,2096921,179778,594299,0
2096921,2096921,179512,594484,0
2096921,2096921,179613,594475,0
2096921,2096921,179983,594548,0
2096921,2096921,179967,594862,0
2096921,2096921,179796,594858,0
2096921,2096921,180135,595163,0
2096921,2096921,179956,595392,0
2096921,2096921,179889,595017,0
2096921,2096921,179922,595007,0
2096921,2096921,180091,594980,0
2096921,2096921,180092,595191,0
2096921,2096921,179917,595178,0
2096921,2096921,180033,595335,0
2096921,2096921,180068,595767,0
2096921,2096921,180039,595535,0
2096921,2096921,180147,595613,0
2096921,2096921,180136,595544,0
2096921,2096921,180120,595704,0
2096921,2096921,180007,595809,0
2096921,2096921,180139,596047,0
2096921,2096921,180164,596138,0
2096921,2096921,180190,595845,0
2096921,2096921,180494,595831,0
2096921,2096921,180394,596071,0
2096921,2096921,180649,596011,0
2096921,2096921,180569,596090,0
2096921,2096921,180467,596194,0
2096921,2096921,180598,596272,0
2096921,2096921,180215,596360,0
2096921,2096921,180516,596446,0
2096921,2096921,180476,596917,0
2096921,2096921,180183,596442,0
2096921,2096921,180617,596718,0
2096921,2096921,180611,596713,0
2096921,2096921,180636,597104,0
2096921,2096921,180542,597008,0
2096921,2096921,180519,597142,0
2096921,2096921,181113,597156,0
2096921,2096921,180885,597181,0
2096921,2096921,180824,597040,0
2096921,2096921,180779,597022,0
2096921,2096921,180852,597306,0
2096921,2096921,181163,597417,0
2096921,2096921,181075,597650,0
2096921,2096921,181055,597579,0
2096921,2096921,180819,597733,0
2096921,2096921,181016,597406,0
2096921,2096921,180993,597537,0
2096921,2096921,181045,597535,0
2096921,2096921,181020,597600,0
2096921,2096921,181174,597835,0
2096921,2096921,180944,597785,0
2096921,2096921,181240,597633,0
2096921,2096921,181063,597957,0
2096921,2096921,181179,598106,0
2096921,2096921,181155,597924,0
2096921,2096921,181440,598150,0
2096921,2096921,181587,598205,0
2096921,2096921,181283,598473,0
2096921,2096921,181294,598104,0
2096921,2096921,181186,598025,0
2096921,2096921,181023,598130,0
2096921,2096921,181560,598345,0
2096921,2096921,181665,598345,0
2096921,2096921,181874,598763,0
2096921,2096921,181455,598863,0
2096921,2096921,181481,598891,0
2096921,2096921,181513,599033,0
2096921,2096921,181576,598680,0
2096921,2096921,181488,599010,0
2096921,2096921,181489,598866,0
2096921,2096921,181489,598962,0
2096921,2096921,181760,598861,0
2096921,2096921,181832,599125,0
2096921,2096921,181954,599007,0
2096921,2096921,181947,599109,0
2096921,2096921,181576,599544,0
2096921,2096921,181621,599231,0
2096921,2096921,181678,599373,0
2096921,2096921,181725,599299,0
2096921,2096921,181951,599378,0
2096921,2096921,181793,599379,0
2096921,2096921,181986,599287,0
2096921,2096921,181932,599769,0
2096921,2096921,181875,599640,0
2096921,2096921,181915,599605,0
2096921,2096921,181996,599644,0
2096921,2096921,181916,599616,0
2096921,2096921,181821,600140,0
2096921,2096921,181933,599879,0
2096921,2096921,181992,599832,0
2096921,2096921,181745,599862,0
2096921,2096921,182008,599970,0
2096921,2096921,182105,600055,0
2096921,2096921,181945,600270,0
2096921,2096921,181917,600143,0
2096921,2096921,181845,600032,0
2096921,2096921,182016,599802,0
2096921,2096921,182023,599833,0
2096921,2096921,182208,600195,0
2096921,2096921,182132,600252,0
2096921,2096921,182016,600628,0
2096921,2096921,182301,600542,0
2096921,2096921,182248,600409,0
2096921,2096921,182418,600511,0
2096921,2096921,182371,600340,0
2096921,2096921,182302,600567,0
2096921,2096921,182147,600585,0
2096921,2096921,182036,600813,0
2096921,2096921,182213,600521,0
2096921,2096921,182225,600434,0
2096921,2096921,182262,600679,0
2096921,2096921,182566,600625,0
2096921,2096921,182378,600621,0
2096921,2096921,182428,600677,0
2096921,2096921,182510,600316,0
2096921,2096921,182424,600688,0
2096921,2096921,182305,600592,0
2096921,2096921,182484,600777,0
2096921,2096921,182684,600619,0
2096921,2096921,182552,600421,0
2096921,2096921,182415,600605,0
2096921,2096921,182707,600771,0
2096921,2096921,182547,600895,0
2096921,2096921,182619,600865,0
2096921,2096921,182747,600844,0
2096921,2096921,182654,600959,0
2096921,2096921,182585,600880,0
2096921,2096921,182705,600975,0
2096921,2096921,182676,600884,0
2096921,2096921,182522,601049,0
2096921,2096921,182576,601125,0
2096921,2096921,182578,600907,0
2096921,2096921,182761,601075,0
2096921,2096921,182552,601395,0
2096921,2096921,182728,601393,0
2096921,2096921,182436,601345,0
2096921,2096921,182566,601263,0
2096921,2096921,182779,601203,0
2096921,2096921,182749,601254,0
2096921,2096921,182703,601626,0
2096921,2096921,182701,601390,0
2096921,2096921,182665,601494,0
2096921,2096921,182999,601553,0
2096921,2096921,182774,601787,0
2096921,2096921,183048,601664,0
2096921,2096921,182607,601699,0
2096921,2096921,182617,601241,0
2096921,2096921,182809,601638,0
2096921,2096921,182928,602088,0
2096921,2096921,182690,601633,0
2096921,2096921,182466,601635,0
2096921,2096921,182590,601729,0
2096921,2096921,182775,601988,0
2096921,2096921,182733,601815,0
2096921,2096921,182924,601982,0
2096921,2096921,183019,602018,0
2096921,2096921,182820,602011,0
2096921,2096921,182767,601869,0
2096921,2096921,182869,601864,0
2096921,2096921,182757,601803,0
2096921,2096921,182876,602263,0
2096921,2096921,183146,602021,0
2096921,2096921,182935,602206,0
2096921,2096921,182972,602307,0
2096921,2096921,183059,602285,0
2096921,2096921,183039,602155,0
2096921,2096921,182986,602285,0
2096921,2096921,183264,602158,0
2096921,2096921,183135,602082,0
2096921,2096921,182961,602118,0
2096921,2096921,182925,602177,0
2096921,2096921,182973,602451,0
2096921,2096921,183132,602567,0
2096921,2096921,183355,602413,0
2096921,2096921,183377,602567,0
2096921,2096921,183407,602607,0
2096921,2096921,183310,602436,0
2096921,2096921,183280,602669,0
2096921,2096921,183118,602596,0
2096921,2096921,183388,602529,0
2096921,2096921,183299,602859,0
2096921,2096921,183189,602422,0
2096921,2096921,183360,602901,0
2096921,2096921,183257,602753,0
2096921,2096921,183368,602770,0
2096921,2096921,183339,602676,0
2096921,2096921,183479,603112,0
2096921,2096921,183402,602991,0
2096921,2096921,183248,602915,0
2096921,2096921,183294,602880,0
2096921,2096921,183425,602835,0
2096921,2096921,183534,602930,0
2096921,2096921,183217,603322,0
2096921,2096921,183400,603191,0
2096921,2096921,183480,603333,0
2096921,2096921,183740,603153,0
2096921,2096921,183384,603392,0
2096921,2096921,183518,603316,0
2096921,2096921,183124,603487,0
2096921,2096921,183376,603204,0
2096921,2096921,183325,603419,0
2096921,2096921,183765,603553,0
2096921,2096921,183674,603708,0
2096921,2096921,183789,603461,0
2096921,2096921,183487,603640,0
2096921,2096921,183436,603812,0
2096921,2096921,183374,603682,0
2096921,2096921,183562,603714,0
2096921,2096921,183459,603589,0
2096921,2096921,183622,603530,0
2096921,2096921,183556,603562,0
2096921,2096921,183711,603524,0
2096921,2096921,183827,603915,0
2096921,2096921,183611,603962,0
2096921,2096921,183827,603845,0
2096921,2096921,183825,603781,0
2096921,2096921,183681,603971,0
2096921,2096921,183774,603643,0
2096921,2096921,183673,603502,0
2096921,2096921,183586,603836,0
2096921,2096921,183795,603598,0
2096921,2096921,183998,603905,0
2096921,2096921,183637,604108,0
2096921,2096921,183668,603961,0
2096921,2096921,183709,604142,0
2096921,2096921,183838,604013,0
2096921,2096921,183637,604034,0
2096921,2096921,183709,603786,0
2096921,2096921,183687,604253,0
2096921,2096921,183853,604427,0
2096921,2096921,183615,604374,0
2096921,2096921,183816,604135,0
2096921,2096921,183667,604619,0
2096921,2096921,183890,604663,0
2096921,2096921,183848,604611,0
2096921,2096921,183889,604508,0
2096921,2096921,184178,604402,0
2096921,2096921,183993,604669,0
2096921,2096921,183901,604256,0
2096921,2096921,183976,604611,0
2096921,2096921,183913,604376,0
2096921,2096921,183926,604750,0
2096921,2096921,183743,605045,0
2096921,2096921,183919,604785,0
2096921,2096921,184020,604820,0
2096921,2096921,184092,604831,0
2096921,2096921,184078,604773,0
2096921,2096921,184026,604819,0
2096921,2096921,184207,604879,0
2096921,2096921,183867,604951,0
2096921,2096921,183742,604657,0
2096921,2096921,183852,605007,0
2096921,2096921,183905,604596,0
2096921,2096921,183744,604963,0
2096921,2096921,183771,604760,0
2096921,2096921,183792,604753,0
2096921,2096921,183547,604824,0
2096921,2096921,183694,604541,0
2096921,2096921,183803,604281,0
2096921,2096921,183528,604521,0
2096921,2096921,183752,604505,0
2096921,2096921,183235,604561,0
2096921,2096921,183442,604393,0
2096921,2096921,183376,603957,0
2096921,2096921,183266,604027,0
2096921,2096921,183221,603733,0
2096921,2096921,183035,603693,0
2096921,2096921,183054,603205,0
2096921,2096921,183059,603053,0
2096921,2096921,182887,602830,0
2096921,2096921,182884,602823,0
2096921,2096921,182585,602911,0
2096921,2096921,182652,602268,0
2096921,2096921,182560,602024,0
2096921,2096921,182689,601746,0
2096921,2096921,182437,601988,0
2096921,2096921,181381,602068,0
2096921,2096921,181364,600161,0
2096921,2096921,181750,599487,0
2096921,2096921,181538,599747,0
2096921,2096921,181438,599544,0
2096921,2096921,180135,599509,0
2096921,2096921,180337,597006,0
2096921,2096921,180336,596644,0
2096921,2096921,180130,596710,0
2096921,2096921,179910,596604,0
2096921,2096921,179368,596824,0
2096921,2096921,179131,595029,0
2096921,2096921,179096,594620,0
2096921,2096921,179040,594498,0
2096921,2096921,179235,594601,0
2096921,2096921,178551,594653,0
2096921,2096921,178354,593448,0
2096921,2096921,178357,593375,0
2096921,2096921,178417,593285,0
2096921,2096921,178654,593120,0
2096921,2096921,177937,592740,0
2096921,2096921,177939,591796,0
2096921,2096921,178019,591924,0
2096921,2096921,177903,591785,0
2096921,2096921,178036,591922,0
2096921,2096921,177544,591807,0
2096921,2096921,177699,591041,0
2096921,2096921,177533,591185,0
2096921,2096921,177486,590932,0
2096921,2096921,177615,591147,0
2096921,2096921,177438,591092,0
2096921,2096921,177162,590708,0
2096921,2096921,177279,590570,0
2096921,2096921,177423,590594,0
2096921,2096921,177345,590569,0
2096921,2096921,177286,590374,0
2096921,2096921,177503,590541,0
2096921,2096921,177672,590737,0
2096921,2096921,177174,590670,0
2096921,2096921,177446,590442,0
2096921,2096921,177395,590201,0
2096921,2096921,177438,590828,0
2096921,2096921,177225,590752,0
2096921,2096921,177156,590459,0
2096921,2096921,177445,590609,0
2096921,2096921,177603,590451,0
2096921,2096921,177654,590844,0
2096921,2096921,177406,591341,0
2096921,2096921,177328,590938,0
2096921,2096921,177271,590487,0
2096921,2096921,177471,590814,0
2096921,2096921,177494,591158,0
2096921,2096921,177321,591190,0
2096921,2096921,177488,591046,0
2096921,2096921,177690,591414,0
2096921,2096921,177760,591353,0
2096921,2096921,177863,591966,0
2096921,2096921,177967,591902,0
2096921,2096921,177767,591730,0
2096921,2096921,177667,591536,0
2096921,2096921,177849,591810,0
2096921,2096921,178045,591959,0
2096921,2096921,178050,592381,0
2096921,2096921,177818,592507,0
2096921,2096921,177869,592285,0
2096921,2096921,178407,592258,0
2096921,2096921,178094,593009,0
2096921,2096921,178055,593148,0
2096921,2096921,178389,593068,0
2096921,2096921,178286,593222,0
2096921,2096921,178617,593143,0
2096921,2096921,178607,593934,0
2096921,2096921,178543,593803,0
2096921,2096921,178442,593764,0
2096921,2096921,178255,593767,0
2096921,2096921,178902,593667,0
2096921,2096921,178901,594577,0
2096921,2096921,178748,594743,0
2096921,2096921,178718,594855,0
2096921,2096921,178731,594905,0
2096921,2096921,178915,594925,0
2096921,2096921,179337,595479,0
2096921,2096921,179045,595653,0
2096921,2096921,178822,595350,0
2096921,2096921,178979,595577,0
2096921,2096921,179582,595586,0
2096921,2096921,179488,596322,0
2096921,2096921,179557,596660,0
2096921,2096921,179402,596643,0
2096921,2096921,179497,596317,0
2096921,2096921,179577,596680,0
2096921,2096921,179813,597073,0
2096921,2096921,179822,597370,0
2096921,2096921,179785,597268,0
2096921,2096921,179826,597591,0
2096921,2096921,180181,597255,0
2096921,2096921,179877,597716,0
2096921,2096921,180182,598063,0
2096921,2096921,180086,598027,0
2096921,2096921,180092,597949,0
2096921,2096921,180139,597913,0
2096921,2096921,180365,598558,0
2096921,2096921,180267,598897,0
2096921,2096921,180401,599068,0
2096921,2096921,180120,599048,0
2096921,2096921,180927,599070,0
2096921,2096921,180709,599799,0
2096921,2096921,180869,600111,0
2096921,2096921,180899,600231,0
2096921,2096921,181022,599808,0
2096921,2096921,181039,599783,0
2096921,2096921,181221,600576,0
2096921,2096921,181267,600607,0
2096921,2096921,181081,600670,0
2096921,2096921,180984,600447,0
2096921,2096921,181573,600698,0
2096921,2096921,181468,601239,0
2096921,2096921,181707,601447,0
2096921,2096921,181635,601513,0
2096921,2096921,181887,601612,0
2096921,2096921,181959,601243,0
2096921,2096921,181889,602061,0
2096921,2096921,181569,602343,0
2096921,2096921,181564,602436,0
2096921,2096921,181760,602317,0
2096921,2096921,182596,602300,0
2096921,2096921,182273,603088,0
2096921,2096921,182409,603316,0
2096921,2096921,182388,603070,0
2096921,2096921,182256,603284,0
2096921,2096921,182253,602948,0
2096921,2096921,182321,603702,0
2096921,2096921,182127,603716,0
2096921,2096921,182679,603456,0
2096921,2096921,182613,603764,0
2096921,2096921,182820,603735,0
2096921,2096921,182754,604292,0
2096921,2096921,182827,604643,0
2096921,2096921,182870,604554,0
2096921,2096921,182745,604643,0
2096921,2096921,183118,604330,0
2096921,2096921,183020,604730,0
2096921,2096921,182834,604886,0
2096921,2096921,182848,604886,0
2096921,2096921,182824,604849,0
2096921,2096921,182970,605109,0
2096921,2096921,183203,605371,0
2096921,2096921,183357,605735,0
2096921,2096921,182997,605742,0
2096921,2096921,183196,605657,0
2096921,2096921,182952,605560,0
2096921,2096921,183038,605628,0
2096921,2096921,183137,605674,0
2096921,2096921,183040,605828,0
2096921,2096921,182802,605505,0
2096921,2096921,183124,605724,0
2096921,2096921,183268,605861,0
2096921,2096921,183046,605953,0
2096921,2096921,182972,605907,0
2096921,2096921,183091,606123,0
2096921,2096921,182846,606005,0
2096921,2096921,183125,606285,0
2096921,2096921,182981,606341,0
2096921,2096921,182948,606242,0
2096921,2096921,183241,606176,0
2096921,2096921,183428,606187,0
2096921,2096921,183351,606518,0
2096921,2096921,183246,606338,0
2096921,2096921,183266,606226,0
2096921,2096921,183121,606389,0
2096921,2096921,183153,606319,0
2096921,2096921,183126,606567,0
2096921,2096921,183171,606597,0
2096921,2096921,183111,606550,0
2096921,2096921,183112,606603,0
2096921,2096921,183429,606407,0
2096921,2096921,183453,606891,0
2096921,2096921,183283,606783,0
2096921,2096921,183274,606749,0
2096921,2096921,183436,606574,0
2096921,2096921,183514,606465,0
2096921,2096921,183332,606703,0
2096921,2096921,183168,606783,0
2096921,2096921,183294,606593,0
2096921,2096921,183577,606373,0
2096921,2096921,183252,606486,0
2096921,2096921,183486,606773,0
2096921,2096921,183566,606765,0
2096921,2096921,183725,606976,0
2096921,2096921,183374,607136,0
2096921,2096921,183439,606940,0
2096921,2096921,183704,607177,0
2096921,2096921,183615,607317,0
2096921,2096921,183496,607500,0
2096921,2096921,183621,607522,0
2096921,2096921,183447,607374,0
2096921,2096921,183793,607702,0
2096921,2096921,183689,607941,0
2096921,2096921,183603,607713,0
2096921,2096921,183520,607553,0
2096921,2096921,183785,607814,0
2096921,2096921,183535,608063,0
2096921,2096921,184033,608043,0
2096921,2096921,183718,608267,0
2096921,2096921,183862,608297,0
2096921,2096921,183835,608220,0
2096921,2096921,183773,608838,0
2096921,2096921,183818,609025,0
2096921,2096921,183972,608783,0
2096921,2096921,184051,608860,0
2096921,2096921,184176,608661,0
2096921,2096921,184328,609464,0
2096921,2096921,184277,609387,0
2096921,2096921,184089,609346,0
2096921,2096921,184310,609288,0
2096921,2096921,184334,609273,0
2096921,2096921,184648,609805,0
2096921,2096921,184813,609718,0
2096921,2096921,184701,609872,0
2096921,2096921,184622,609894,0
2096921,2096921,184846,610091,0
2096921,2096921,184951,610400,0
2096921,2096921,184804,610433,0
2096921,2096921,185068,610880,0
2096921,2096921,184651,610775,0
2096921,2096921,185002,610603,0
2096921,2096921,185228,611345,0
2096921,2096921,185253,611539,0
2096921,2096921,185062,611557,0
2096921,2096921,185065,611336,0
2096921,2096921,185362,611393,0
2096921,2096921,185218,611908,0
2096921,2096921,184915,611941,0
2096921,2096921,185340,611967,0
2096921,2096921,185184,612118,0
2096921,2096921,185351,612081,0
2096921,2096921,185590,612597,0
2096921,2096921,185810,612561,0
2096921,2096921,185583,612757,0
2096921,2096921,185589,612762,0
2096921,2096921,185588,612810,0
2096921,2096921,185518,613437,0
2096921,2096921,185574,613159,0
2096921,2096921,185678,613114,0
2096921,2096921,185564,613346,0
2096921,2096921,185579,613260,0
2096921,2096921,186016,613721,0
2096921,2096921,185935,614218,0
2096921,2096921,185988,614353,0
2096921,2096921,185823,614081,0
2096921,2096921,186033,614154,0
2096921,2096921,186022,614370,0
2096921,2096921,186089,614636,0
2096921,2096921,186164,614222,0
2096921,2096921,186246,614578,0
2096921,2096921,186114,614446,0
2096921,2096921,186089,614979,0
2096921,2096921,186459,614992,0
2096921,2096921,186576,615233,0
2096921,2096921,186294,615097,0
2096921,2096921,186434,614974,0
2096921,2096921,186663,615513,0
2096921,2096921,186516,615802,0
2096921,2096921,186417,615771,0
2096921,2096921,186486,615770,0
2096921,2096921,186948,615743,0
2096921,2096921,186826,616098,0
2096921,2096921,186959,616067,0
2096921,2096921,186877,615876,0
2096921,2096921,186903,616129,0
2096921,2096921,187224,616281,0
2096921,2096921,187149,616185,0
2096921,2096921,186885,616543,0
2096921,2096921,187034,616563,0
2096921,2096921,187017,616616,0
2096921,2096921,187085,616745,0
2096921,2096921,187175,617117,0
2096921,2096921,187090,617177,0
2096921,2096921,187494,617255,0
2096921,2096921,187421,617334,0
2096921,2096921,187538,617406,0
2096921,2096921,187440,617755,0
2096921,2096921,187523,617642,0
2096921,2096921,187478,617684,0
2096921,2096921,187399,617925,0
2096921,2096921,187723,617940,0
2096921,2096921,187626,618456,0
2096921,2096921,187849,618341,0
2096921,2096921,187581,618415,0
2096921,2096921,187721,618509,0
2096921,2096921,187937,618435,0
2096921,2096921,187740,618943,0
2096921,2096921,187709,618982,0
2096921,2096921,187570,618733,0
2096921,2096921,187962,619283,0
2096921,2096921,188282,618862,0
2096921,2096921,188225,619605,0
2096921,2096921,188123,619222,0
2096921,2096921,188013,619321,0
2096921,2096921,188186,619409,0
2096921,2096921,188197,619485,0
2096921,2096921,188138,619854,0
2096921,2096921,188172,619882,0
2096921,2096921,188260,620018,0
2096921,2096921,188247,619854,0
2096921,2096921,188242,619846,0
2096921,2096921,188410,620224,0
2096921,2096921,188501,620279,0
2096921,2096921,188441,620368,0
2096921,2096921,188405,620341,0
2096921,2096921,188491,620406,0
2096921,2096921,188555,620824,0
2096921,2096921,188571,620981,0
2096921,2096921,188707,620922,0
2096921,2096921,188604,620782,0
2096921,2096921,188790,620867,0
2096921,2096921,188909,621163,0
2096921,2096921,188919,621455,0
2096921,2096921,188969,621374,0
2096921,2096921,188606,621306,0
2096921,2096921,189040,621349,0
2096921,2096921,188918,621414,0
2096921,2096921,189106,621512,0
2096921,2096921,188881,621792,0
2096921,2096921,189021,621876,0
2096921,2096921,188913,621717,0
2096921,2096921,189156,622228,0
2096921,2096921,189269,622420,0
2096921,2096921,189303,622223,0
2096921,2096921,189296,622244,0
2096921,2096921,189248,622288,0
2096921,2096921,189158,622531,0
2096921,2096921,189429,622482,0
2096921,2096921,189339,622676,0
2096921,2096921,189268,622978,0
2096921,2096921,189349,622731,0
2096921,2096921,189396,622912,0
2096921,2096921,189210,623030,0
2096921,2096921,189281,622990,0
2096921,2096921,189373,622976,0
2096921,2096921,189271,623039,0
2096921,2096921,189645,623208,0
2096921,2096921,189513,623123,0
2096921,2096921,189476,623370,0
2096921,2096921,189435,623269,0
2096921,2096921,189766,622987,0
2096921,2096921,190079,623517,0
2096921,2096921,189788,623837,0
2096921,2096921,189667,623675,0
2096921,2096921,189777,623575,0
2096921,2096921,189755,623559,0
2096921,2096921,189701,623896,0
2096921,2096921,189879,623742,0
2096921,2096921,189688,623558,0
2096921,2096921,190011,623679,0
2096921,2096921,190052,623896,0
2096921,2096921,189709,624163,0
2096921,2096921,189823,623924,0
2096921,2096921,190197,624216,0
2096921,2096921,189963,624218,0
2096921,2096921,190072,624294,0
2096921,2096921,189918,624463,0
2096921,2096921,190157,624526,0
2096921,2096921,189786,624646,0
2096921,2096921,189869,624535,0
2096921,2096921,189927,624728,0
2096921,2096921,190153,624957,0
2096921,2096921,190165,624925,0
2096921,2096921,190142,624685,0
2096921,2096921,189978,624755,0
2096921,2096921,190100,624831,0
2096921,2096921,189940,624876,0
2096921,2096921,190186,625249,0
2096921,2096921,190435,625255,0
2096921,2096921,190182,625046,0
2096921,2096921,190104,625159,0
2096921,2096921,190255,625272,0
2096921,2096921,190319,625536,0
2096921,2096921,190152,625617,0
2096921,2096921,190346,624999,0
2096921,2096921,190366,625310,0
2096921,2096921,190259,625451,0
2096921,2096921,190507,625543,0
2096921,2096921,190632,625267,0
2096921,2096921,190676,625253,0
2096921,2096921,190453,625451,0
2096921,2096921,190485,625883,0
2096921,2096921,190659,626057,0
2096921,2096921,190766,625744,0
2096921,2096921,190759,625937,0
2096921,2096921,190909,625812,0
2096921,2096921,190750,625686,0
2096921,2096921,190473,625892,0
2096921,2096921,190482,626197,0
2096921,2096921,190574,626214,0
2096921,2096921,190581,625910,0
2096921,2096921,190861,626042,0
2096921,2096921,190700,626339,0
2096921,2096921,190737,626511,0
2096921,2096921,190690,626480,0
2096921,2096921,190778,626476,0
2096921,2096921,190936,626357,0
2096921,2096921,190625,626563,0
2096921,2096921,190809,626415,0
2096921,2096921,190626,626481,0
2096921,2096921,190925,626840,0
2096921,2096921,190929,626852,0
2096921,2096921,190863,626813,0
2096921,2096921,190722,626904,0
2096921,2096921,190847,626916,0
2096921,2096921,190633,626665,0
2096921,2096921,190654,627027,0
2096921,2096921,190674,626819,0
2096921,2096921,190641,626583,0
2096921,2096921,190886,626805,0
2096921,2096921,191010,626996,0
2096921,2096921,191085,627169,0
2096921,2096921,190897,627033,0
2096921,2096921,190943,627102,0
2096921,2096921,190936,627115,0
2096921,2096921,190973,627338,0
2096921,2096921,191029,627077,0
2096921,2096921,191034,627016,0
2096921,2096921,191039,627066,0
2096921,2096921,190919,627217,0
2096921,2096921,190955,627309,0
2096921,2096921,191051,627298,0
2096921,2096921,191018,627450,0
2096921,2096921,191045,627392,0
2096921,2096921,190984,627129,0
2096921,2096921,190990,627452,0
2096921,2096921,191280,627280,0
2096921,2096921,191054,627519,0
2096921,2096921,190869,627224,0
2096921,2096921,190922,627415,0
2096921,2096921,191075,627431,0
2096921,2096921,190946,627594,0
2096921,2096921,191019,627522,0
2096921,2096921,191071,627556,0
2096921,2096921,190903,627756,0
2096921,2096921,190991,627509,0
2096921,2096921,191011,627620,0
2096921,2096921,190957,627363,0
2096921,2096921,190912,627394,0
2096921,2096921,190948,627133,0
2096921,2096921,191124,627270,0
2096921,2096921,191008,627380,0
2096921,2096921,191293,627664,0
2096921,2096921,190976,627706,0
2096921,2096921,191251,627527,0
2096921,2096921,191119,627454,0
2096921,2096921,191189,627312,0
2096921,2096921,190966,627447,0
2096921,2096921,191219,627461,0
2096921,2096921,190946,627297,0
2096921,2096921,191400,627407,0
2096921,2096921,191054,627515,0
2096921,2096921,191059,627164,0
2096921,2096921,191130,627255,0
2096921,2096921,191152,627332,0
2096921,2096921,190934,627440,0
2096921,2096921,190998,627445,0
2096921,2096921,191056,627331,0
2096921,2096921,191373,627529,0
2096921,2096921,191049,627651,0
2096921,2096921,191295,627529,0
2096921,2096921,190961,627678,0
2096921,2096921,191196,627699,0
2096921,2096921,191144,627866,0
2096921,2096921,191042,627692,0
2096921,2096921,190904,627825,0
2096921,2096921,191026,627811,0
2096921,2096921,191120,627628,0
2096921,2096921,191113,627543,0
2096921,2096921,191146,627566,0
2096921,2096921,190832,627581,0
2096921,2096921,190815,627366,0
2096921,2096921,190764,626935,0
2096921,2096921,190711,627128,0
2096921,2096921,190711,627193,0
2096921,2096921,190841,627010,0
2096921,2096921,190508,626713,0
2096921,2096921,190405,626425,0
2096921,2096921,190580,626442,0
2096921,2096921,190514,626266,0
2096921,2096921,190268,626384,0
2096921,2096921,190310,625694,0
2096921,2096921,190064,625733,0
2096921,2096921,190210,625667,0
2096921,2096921,190405,625833,0
2096921,2096921,189697,625767,0
2096921,2096921,189811,624988,0
2096921,2096921,189767,624272,0
2096921,2096921,189650,624516,0
2096921,2096921,189818,624427,0
2096921,2096921,189427,624472,0
2096921,2096921,189357,623706,0
2096921,2096921,189264,623749,0
2096921,2096921,189166,623549,0
2096921,2096921,188970,623180,0
2096921,2096921,188193,623470,0
2096921,2096921,188104,621489,0
2096921,2096921,187961,620740,0
2096921,2096921,187966,620840,0
2096921,2096921,188038,620817,0
2096921,2096921,187138,620575,0
2096921,2096921,186790,618060,0
2096921,2096921,186771,617604,0
2096921,2096921,186636,617716,0
2096921,2096921,186623,617783,0
2096921,2096921,185713,617326,0
2096921,2096921,185806,615526,0
2096921,2096921,185282,615080,0
2096921,2096921,185299,615058,0
2096921,2096921,185469,614945,0
2096921,2096921,184960,615070,0
2096921,2096921,184825,613509,0
2096921,2096921,184767,613252,0
2096921,2096921,184883,613247,0
2096921,2096921,184801,613219,0
2096921,2096921,184304,613025,0
2096921,2096921,184252,611912,0
2096921,2096921,183979,611728,0
2096921,2096921,183794,611569,0
2096921,2096921,183979,611969,0
2096921,2096921,183938,612004,0
2096921,2096921,183759,611097,0
2096921,2096921,183600,611159,0
2096921,2096921,183846,611130,0
2096921,2096921,183699,610810,0
2096921,2096921,183501,610497,0
2096921,2096921,183371,610221,0
2096921,2096921,183249,610101,0
2096921,2096921,183334,610039,0
2096921,2096921,183424,610195,0
2096921,2096921,183327,610248,0
2096921,2096921,183297,609975,0
2096921,2096921,183148,609792,0
2096921,2096921,183223,609638,0
2096921,2096921,183046,609818,0
2096921,2096921,183360,609888,0
2096921,2096921,182725,609704,0
2096921,2096921,182995,609875,0
2096921,2096921,182788,609546,0
2096921,2096921,182869,609499,0
2096921,2096921,183107,609616,0
2096921,2096921,182984,609452,0
2096921,2096921,183026,609739,0
2096921,2096921,183093,609701,0
2096921,2096921,183162,609683,0
2096921,2096921,183117,609503,0
2096921,2096921,183006,609974,0
2096921,2096921,183026,609475,0
2096921,2096921,183118,609742,0
2096921,2096921,183368,609926,0
2096921,2096921,183189,609584,0
2096921,2096921,183272,609802,0
2096921,2096921,183165,609820,0
2096921,2096921,183464,609832,0
2096921,2096921,183600,609649,0
2096921,2096921,183328,609985,0
2096921,2096921,183732,610123,0
2096921,2096921,183083,610132,0
2096921,2096921,183175,610023,0
2096921,2096921,183531,610231,0
2096921,2096921,183905,610090,0
2096921,2096921,183363,610377,0
2096921,2096921,183501,610487,0
2096921,2096921,183712,610641,0
2096921,2096921,183809,610663,0
2096921,2096921,184111,610839,0
2096921,2096921,184194,610929,0
2096921,2096921,183866,610995,0
2096921,2096921,183899,611013,0
2096921,2096921,183935,611309,0
2096921,2096921,184089,611238,0
2096921,2096921,184232,611634,0
2096921,2096921,184224,611586,0
2096921,2096921,184032,611798,0
2096921,2096921,184199,611980,0
2096921,2096921,184244,612092,0
2096921,2096921,184059,612151,0
2096921,2096921,184453,612405,0
2096921,2096921,184149,612509,0
2096921,2096921,184224,612188,0
2096921,2096921,184631,612573,0
2096921,2096921,184677,613024,0
2096921,2096921,184742,613272,0
2096921,2096921,184629,613137,0
2096921,2096921,184665,612698,0
2096921,2096921,184876,612959,0
2096921,2096921,184681,613332,0
2096921,2096921,184818,613494,0
2096921,2096921,184664,613545,0
2096921,2096921,184641,613804,0
2096921,2096921,185120,613770,0
2096921,2096921,185255,614034,0
2096921,2096921,185062,614067,0
2096921,2096921,184962,614219,0
2096921,2096921,184976,614292,0
2096921,2096921,185059,614038,0
2096921,2096921,185188,614769,0
2096921,2096921,184965,614581,0
2096921,2096921,185289,614717,0
2096921,2096921,185299,614727,0
2096921,2096921,185357,614700,0
2096921,2096921,185447,615209,0
2096921,2096921,185554,615113,0
2096921,2096921,185584,615310,0
2096921,2096921,185478,615271,0
2096921,2096921,185725,615361,0
2096921,2096921,185585,615778,0
2096921,2096921,185713,615746,0
2096921,2096921,186023,615910,0
2096921,2096921,185704,615876,0
2096921,2096921,186085,615701,0
2096921,2096921,185840,616104,0
2096921,2096921,186337,616516,0
2096921,2096921,186089,616600,0
2096921,2096921,186016,616291,0
2096921,2096921,186189,616557,0
2096921,2096921,186513,616872,0
2096921,2096921,186504,616873,0
2096921,2096921,186542,616788,0
2096921,2096921,186425,616898,0
2096921,2096921,186785,616913,0
2096921,2096921,186618,617116,0
2096921,2096921,186725,617431,0
2096921,2096921,186630,617273,0
2096921,2096921,186764,617162,0
2096921,2096921,186666,617143,0
2096921,2096921,186767,617717,0
2096921,2096921,186770,617885,0
2096921,2096921,186853,617752,0
2096921,2096921,186471,617910,0
2096921,2096921,186612,617978,0
2096921,2096921,186783,618165,0
2096921,2096921,187039,617912,0
2096921,2096921,187047,617905,0
2096921,2096921,186962,618131,0
2096921,2096921,186794,618127,0
2096921,2096921,186999,618218,0
2096921,2096921,186758,617964,0
2096921,2096921,186961,617846,0
2096921,2096921,187024,618031,0
2096921,2096921,187039,618117,0
2096921,2096921,186975,618305,0
2096921,2096921,187045,618253,0
2096921,2096921,187332,618171,0
2096921,2096921,187182,618536,0
2096921,2096921,186681,618484,0
2096921,2096921,186786,618541,0
2096921,2096921,186706,618171,0
2096921,2096921,186857,618338,0
