2096921,2096921,178475,604569,0
2096921,2096921,178451,604521,0
2096921,2096921,178403,604393,0
2096921,2096921,178802,604764,0
2096921,2096921,178501,604872,0
2096921,2096921,178459,605101,0
2096921,2096921,178215,605007,0
2096921,2096921,178649,604918,0
2096921,2096921,178778,605519,0
2096921,2096921,179002,605884,0
2096921,2096921,178996,605638,0
2096921,2096921,178885,605510,0
2096921,2096921,178886,605670,0
2096921,2096921,178811,605995,0
2096921,2096921,178998,605779,0
2096921,2096921,178917,605931,0
2096921,2096921,178889,606011,0
2096921,2096921,179058,606080,0
2096921,2096921,179230,606441,0
2096921,2096921,179027,606298,0
2096921,2096921,179271,606575,0
2096921,2096921,179464,606577,0
2096921,2096921,179783,606875,0
2096921,2096921,179550,607043,0
2096921,2096921,179610,606974,0
2096921,2096921,179586,606967,0
2096921,2096921,179604,607089,0
2096921,2096921,179593,607308,0
2096921,2096921,179856,607609,0
2096921,2096921,179675,607422,0
2096921,2096921,179741,607337,0
2096921,2096921,179860,607546,0
2096921,2096921,179994,607405,0
2096921,2096921,179912,608002,0
2096921,2096921,179969,608121,0
2096921,2096921,180062,608084,0
2096921,2096921,179973,607807,0
2096921,2096921,180017,608003,0
2096921,2096921,180514,608473,0
2096921,2096921,180291,608767,0
2096921,2096921,180541,608732,0
2096921,2096921,180565,608403,0
2096921,2096921,180754,608600,0
2096921,2096921,180775,609064,0
2096921,2096921,180774,608872,0
2096921,2096921,180766,609137,0
2096921,2096921,180702,609291,0
2096921,2096921,181002,609200,0
2096921,2096921,181057,609612,0
2096921,2096921,180990,609474,0
2096921,2096921,181038,609281,0
2096921,2096921,180988,609643,0
2096921,2096921,181011,609702,0
2096921,2096921,181226,609886,0
2096921,2096921,181332,609934,0
2096921,2096921,181121,609677,0
2096921,2096921,181173,609581,0
2096921,2096921,181401,609781,0
2096921,2096921,181234,609978,0
2096921,2096921,181514,610094,0
2096921,2096921,181463,610370,0
2096921,2096921,181369,610306,0
2096921,2096921,181315,610306,0
2096921,2096921,181375,610252,0
2096921,2096921,181137,610335,0
2096921,2096921,181323,610560,0
2096921,2096921,181332,610599,0
2096921,2096921,181525,610081,0
2096921,2096921,181395,610538,0
2096921,2096921,181495,610411,0
2096921,2096921,181720,610393,0
2096921,2096921,181684,610309,0
2096921,2096921,181796,610552,0
2096921,2096921,181528,610524,0
2096921,2096921,181792,610485,0
2096921,2096921,181618,610130,0
2096921,2096921,181601,610574,0
2096921,2096921,181670,610112,0
2096921,2096921,181800,609877,0
2096921,2096921,181684,610145,0
2096921,2096921,181430,610166,0
2096921,2096921,181514,610449,0
2096921,2096921,181350,610029,0
2096921,2096921,181363,609861,0
2096921,2096921,181635,609793,0
2096921,2096921,181198,610094,0
2096921,2096921,181580,609910,0
2096921,2096921,181114,609810,0
2096921,2096921,181300,609552,0
2096921,2096921,181284,609466,0
2096921,2096921,181143,609458,0
2096921,2096921,181371,609970,0
2096921,2096921,181232,609933,0
2096921,2096921,181005,609622,0
2096921,2096921,180968,609103,0
2096921,2096921,181016,609230,0
2096921,2096921,181039,608986,0
2096921,2096921,180685,609085,0
2096921,2096921,180637,608700,0
2096921,2096921,180632,608682,0
2096921,2096921,180519,608674,0
2096921,2096921,180874,608860,0
2096921,2096921,180746,608849,0
2096921,2096921,180580,608372,0
2096921,2096921,180612,607974,0
2096921,2096921,180528,608177,0
2096921,2096921,180473,608278,0
2096921,2096921,180795,608027,0
2096921,2096921,180761,607791,0
2096921,2096921,180704,607706,0
2096921,2096921,180607,607599,0
2096921,2096921,180460,607465,0
2096921,2096921,180419,607444,0
2096921,2096921,180235,607156,0
2096921,2096921,180204,607454,0
2096921,2096921,180345,607147,0
2096921,2096921,180374,607444,0
2096921,2096921,180251,607313,0
2096921,2096921,180246,607164,0
2096921,2096921,180391,607015,0
2096921,2096921,180228,606972,0
2096921,2096921,180484,607300,0
2096921,2096921,180107,607281,0
2096921,2096921,180529,607147,0
2096921,2096921,180131,607144,0
2096921,2096921,180343,607079,0
2096921,2096921,180226,606869,0
2096921,2096921,180307,606800,0
2096921,2096921,180206,606968,0
2096921,2096921,180069,606978,0
2096921,2096921,180334,606744,0
2096921,2096921,180220,606902,0
2096921,2096921,180030,607097,0
2096921,2096921,180306,606736,0
2096921,2096921,180106,607130,0
2096921,2096921,180145,607062,0
2096921,2096921,180066,606720,0
2096921,2096921,180336,606610,0
2096921,2096921,180498,606990,0
2096921,2096921,180430,606992,0
2096921,2096921,180581,607007,0
2096921,2096921,180533,607076,0
2096921,2096921,180755,606937,0
2096921,2096921,180648,607315,0
2096921,2096921,180471,607211,0
2096921,2096921,180363,607203,0
2096921,2096921,180489,607012,0
2096921,2096921,180774,606783,0
2096921,2096921,180851,607072,0
2096921,2096921,180879,607226,0
2096921,2096921,180966,607467,0
2096921,2096921,180643,607622,0
2096921,2096921,180650,607262,0
2096921,2096921,180658,607503,0
2096921,2096921,180944,607703,0
2096921,2096921,180804,607684,0
2096921,2096921,180916,607540,0
2096921,2096921,180974,607479,0
2096921,2096921,181113,607256,0
2096921,2096921,180936,607427,0
2096921,2096921,181326,607652,0
2096921,2096921,181078,607620,0
2096921,2096921,180931,607452,0
2096921,2096921,181026,607883,0
2096921,2096921,180830,607758,0
2096921,2096921,180960,607726,0
2096921,2096921,181061,607624,0
2096921,2096921,180848,607703,0
2096921,2096921,181041,608040,0
2096921,2096921,181216,607891,0
2096921,2096921,181127,607917,0
2096921,2096921,181276,607615,0
2096921,2096921,181013,608155,0
2096921,2096921,181212,607824,0
2096921,2096921,181209,607807,0
2096921,2096921,181178,607944,0
2096921,2096921,181226,607715,0
2096921,2096921,181034,607734,0
2096921,2096921,181046,607559,0
2096921,2096921,181319,607824,0
2096921,2096921,181360,607967,0
2096921,2096921,181281,607968,0
2096921,2096921,181436,608005,0
2096921,2096921,181427,607863,0
2096921,2096921,181201,608005,0
2096921,2096921,181650,608158,0
2096921,2096921,181440,608122,0
2096921,2096921,181326,608367,0
2096921,2096921,181403,608052,0
2096921,2096921,181784,608144,0
2096921,2096921,181301,608168,0
2096921,2096921,181343,608111,0
2096921,2096921,181610,608268,0
2096921,2096921,181463,608268,0
2096921,2096921,181466,608198,0
2096921,2096921,181399,608076,0
2096921,2096921,181345,608078,0
2096921,2096921,181541,608053,0
2096921,2096921,181611,608241,0
2096921,2096921,181404,608303,0
2096921,2096921,181533,608169,0
2096921,2096921,181622,608184,0
2096921,2096921,181615,608408,0
2096921,2096921,181587,608518,0
2096921,2096921,181625,608102,0
2096921,2096921,181562,608298,0
2096921,2096921,181463,607926,0
2096921,2096921,181645,608250,0
2096921,2096921,181725,608178,0
2096921,2096921,181935,608288,0
2096921,2096921,181808,608221,0
2096921,2096921,181709,608184,0
2096921,2096921,181924,608073,0
2096921,2096921,181922,608014,0
2096921,2096921,181702,608127,0
2096921,2096921,181705,608105,0
2096921,2096921,181675,608324,0
2096921,2096921,181772,608020,0
2096921,2096921,181683,608301,0
2096921,2096921,181950,608211,0
2096921,2096921,181775,608457,0
2096921,2096921,182026,608237,0
2096921,2096921,182033,608300,0
2096921,2096921,181791,608372,0
2096921,2096921,181674,608069,0
2096921,2096921,181756,608221,0
2096921,2096921,181688,608393,0
2096921,2096921,181721,608234,0
2096921,2096921,181739,608211,0
2096921,2096921,181837,607831,0
2096921,2096921,182097,608284,0
2096921,2096921,181909,608389,0
2096921,2096921,182161,608217,0
2096921,2096921,181938,608194,0
2096921,2096921,181767,608095,0
2096921,2096921,181624,608176,0
2096921,2096921,181781,607899,0
2096921,2096921,181993,608118,0
2096921,2096921,181826,608122,0
2096921,2096921,182079,608026,0
2096921,2096921,182149,607793,0
2096921,2096921,182017,608111,0
2096921,2096921,181821,608261,0
2096921,2096921,181872,607929,0
2096921,2096921,182053,608070,0
2096921,2096921,181865,608148,0
2096921,2096921,182160,608056,0
2096921,2096921,181981,607881,0
2096921,2096921,181909,607975,0
2096921,2096921,181730,608075,0
2096921,2096921,182049,608186,0
2096921,2096921,181933,608059,0
2096921,2096921,182351,607789,0
2096921,2096921,182040,607708,0
2096921,2096921,182067,607789,0
2096921,2096921,182052,608040,0
2096921,2096921,181920,607985,0
2096921,2096921,182039,607805,0
2096921,2096921,181805,607941,0
2096921,2096921,182165,607774,0
2096921,2096921,182240,607770,0
2096921,2096921,182269,607819,0
2096921,2096921,181907,607533,0
2096921,2096921,181732,607695,0
2096921,2096921,182143,607769,0
2096921,2096921,181903,607477,0
2096921,2096921,181922,607707,0
2096921,2096921,181927,607614,0
2096921,2096921,182148,607447,0
2096921,2096921,182129,607480,0
2096921,2096921,182075,607439,0
2096921,2096921,182292,607564,0
2096921,2096921,182034,607508,0
2096921,2096921,182096,607179,0
2096921,2096921,181882,607112,0
2096921,2096921,181952,606967,0
2096921,2096921,181761,607084,0
2096921,2096921,181736,607299,0
2096921,2096921,181746,607244,0
2096921,2096921,181721,607361,0
2096921,2096921,182037,606874,0
2096921,2096921,181978,607007,0
2096921,2096921,182050,607258,0
2096921,2096921,181931,606903,0
2096921,2096921,181879,606855,0
2096921,2096921,181963,606953,0
2096921,2096921,181692,606804,0
2096921,2096921,181679,607036,0
2096921,2096921,181826,606916,0
2096921,2096921,181968,606808,0
2096921,2096921,182014,606697,0
2096921,2096921,181910,606759,0
2096921,2096921,182110,606753,0
2096921,2096921,181845,606539,0
2096921,2096921,181819,606769,0
2096921,2096921,181449,606531,0
2096921,2096921,181957,606644,0
2096921,2096921,181755,606609,0
2096921,2096921,181760,606304,0
2096921,2096921,181773,606497,0
2096921,2096921,182137,606630,0
2096921,2096921,181668,606644,0
2096921,2096921,181693,606404,0
2096921,2096921,181772,606272,0
2096921,2096921,181998,606530,0
2096921,2096921,181926,606483,0
2096921,2096921,181770,606209,0
2096921,2096921,181638,606156,0
2096921,2096921,181847,606339,0
2096921,2096921,181571,606117,0
2096921,2096921,181733,605842,0
2096921,2096921,181930,606000,0
2096921,2096921,181850,606232,0
2096921,2096921,181670,606109,0
2096921,2096921,181554,605773,0
2096921,2096921,181573,606095,0
2096921,2096921,181749,605950,0
2096921,2096921,181586,605881,0
2096921,2096921,181521,605763,0
2096921,2096921,181925,605773,0
2096921,2096921,181706,605755,0
2096921,2096921,181624,605800,0
2096921,2096921,181550,605580,0
2096921,2096921,181669,605500,0
2096921,2096921,181592,605689,0
2096921,2096921,181944,605724,0
2096921,2096921,181452,605474,0
2096921,2096921,181532,605265,0
2096921,2096921,181537,605377,0
2096921,2096921,181195,605121,0
2096921,2096921,181581,605369,0
2096921,2096921,181674,605552,0
2096921,2096921,181426,605589,0
2096921,2096921,181631,605364,0
2096921,2096921,181523,605116,0
2096921,2096921,181482,605431,0
2096921,2096921,181602,604995,0
2096921,2096921,181307,605148,0
2096921,2096921,181471,605157,0
2096921,2096921,181585,605328,0
2096921,2096921,181451,605166,0
2096921,2096921,181721,605332,0
2096921,2096921,181667,605091,0
2096921,2096921,181307,604844,0
2096921,2096921,181276,604832,0
2096921,2096921,181640,604572,0
2096921,2096921,181484,604637,0
2096921,2096921,181614,604405,0
2096921,2096921,181608,604614,0
2096921,2096921,181532,605016,0
2096921,2096921,181607,604977,0
2096921,2096921,181528,604408,0
2096921,2096921,181487,604681,0
2096921,2096921,181304,604331,0
2096921,2096921,181383,604331,0
2096921,2096921,181291,604481,0
2096921,2096921,181408,604388,0
2096921,2096921,181193,604379,0
2096921,2096921,181021,604259,0
2096921,2096921,181025,604215,0
2096921,2096921,181244,604124,0
2096921,2096921,181506,604054,0
2096921,2096921,181454,604300,0
2096921,2096921,181402,603941,0
2096921,2096921,181055,603884,0
2096921,2096921,180940,603739,0
2096921,2096921,181120,603725,0
2096921,2096921,180650,603839,0
2096921,2096921,180784,603793,0
2096921,2096921,181030,603843,0
2096921,2096921,181234,603827,0
2096921,2096921,181410,603731,0
2096921,2096921,181227,603979,0
2096921,2096921,181098,603663,0
2096921,2096921,181312,603423,0
2096921,2096921,181193,603341,0
2096921,2096921,180999,603471,0
2096921,2096921,180899,603578,0
2096921,2096921,181161,603642,0
2096921,2096921,181072,603476,0
2096921,2096921,181175,603582,0
2096921,2096921,181103,603249,0
2096921,2096921,180947,603221,0
2096921,2096921,181189,603082,0
2096921,2096921,180860,603501,0
2096921,2096921,180787,603506,0
2096921,2096921,180809,603122,0
2096921,2096921,180928,603067,0
2096921,2096921,180775,602934,0
2096921,2096921,180962,602930,0
2096921,2096921,180765,603241,0
2096921,2096921,181011,602864,0
2096921,2096921,180778,603089,0
2096921,2096921,180934,602779,0
2096921,2096921,180538,602844,0
2096921,2096921,180854,602597,0
2096921,2096921,180449,602535,0
2096921,2096921,180662,602423,0
2096921,2096921,180870,602231,0
2096921,2096921,180787,602326,0
2096921,2096921,180812,602180,0
2096921,2096921,180812,602148,0
2096921,2096921,180679,602396,0
2096921,2096921,180299,601948,0
2096921,2096921,180411,601345,0
2096921,2096921,180521,601499,0
2096921,2096921,180634,601703,0
2096921,2096921,180223,601294,0
2096921,2096921,180251,600806,0
2096921,2096921,180028,600697,0
2096921,2096921,180359,600815,0
2096921,2096921,179909,600969,0
2096921,2096921,179997,600881,0
2096921,2096921,179590,599919,0
2096921,2096921,179611,599713,0
2096921,2096921,179387,599652,0
2096921,2096921,179343,599321,0
2096921,2096921,179124,599533,0
2096921,2096921,179043,598882,0
2096921,2096921,178954,598253,0
2096921,2096921,178807,598327,0
2096921,2096921,179115,598188,0
2096921,2096921,178692,598179,0
2096921,2096921,178476,597301,0
2096921,2096921,178280,596923,0
2096921,2096921,178226,596855,0
2096921,2096921,178238,596793,0
2096921,2096921,177412,596839,0
2096921,2096921,176567,594488,0
2096921,2096921,176690,594215,0
2096921,2096921,176815,593938,0
2096921,2096921,177000,593736,0
2096921,2096921,175875,593887,0
2096921,2096921,175372,590711,0
2096921,2096921,174798,590158,0
2096921,2096921,175079,589957,0
2096921,2096921,174874,590128,0
2096921,2096921,174045,590075,0
2096921,2096921,173837,588049,0
2096921,2096921,173849,587077,0
2096921,2096921,173614,586990,0
2096921,2096921,173596,587045,0
2096921,2096921,172840,587108,0
2096921,2096921,172390,585428,0
2096921,2096921,172523,585112,0
2096921,2096921,172844,585008,0
2096921,2096921,172525,584988,0
2096921,2096921,172224,584783,0
2096921,2096921,171978,583603,0
2096921,2096921,171967,583397,0
2096921,2096921,172001,583420,0
2096921,2096921,171866,583251,0
2096921,2096921,171718,583577,0
2096921,2096921,171315,582502,0
2096921,2096921,171115,581975,0
2096921,2096921,171398,582073,0
2096921,2096921,171575,582201,0
2096921,2096921,171195,582024,0
2096921,2096921,170905,581679,0
2096921,2096921,170773,581331,0
2096921,2096921,170975,581441,0
2096921,2096921,171261,581427,0
2096921,2096921,170791,581336,0
2096921,2096921,170935,580822,0
2096921,2096921,170731,580685,0
2096921,2096921,170636,580568,0
2096921,2096921,170558,580304,0
2096921,2096921,170550,580406,0
2096921,2096921,170672,580699,0
2096921,2096921,170687,580136,0
2096921,2096921,170483,580144,0
2096921,2096921,170211,579920,0
2096921,2096921,170800,580444,0
2096921,2096921,170355,580497,0
2096921,2096921,170257,580427,0
2096921,2096921,170574,580181,0
2096921,2096921,170403,580402,0
2096921,2096921,170595,580887,0
2096921,2096921,170464,580459,0
2096921,2096921,170552,580304,0
2096921,2096921,170752,580474,0
2096921,2096921,170834,580332,0
2096921,2096921,170868,580410,0
2096921,2096921,170976,580576,0
2096921,2096921,170831,580564,0
2096921,2096921,170695,580663,0
2096921,2096921,170446,580381,0
2096921,2096921,170660,580433,0
2096921,2096921,170701,580464,0
2096921,2096921,170701,580528,0
2096921,2096921,170500,580572,0
2096921,2096921,170616,580678,0
2096921,2096921,170857,580665,0
2096921,2096921,170899,581118,0
2096921,2096921,170844,581235,0
2096921,2096921,170831,581139,0
2096921,2096921,171036,581022,0
2096921,2096921,171023,581251,0
2096921,2096921,171120,581640,0
2096921,2096921,171264,581706,0
2096921,2096921,171180,581842,0
2096921,2096921,171206,581797,0
2096921,2096921,171556,581901,0
2096921,2096921,171628,582178,0
2096921,2096921,171513,582048,0
2096921,2096921,171536,582060,0
2096921,2096921,171358,582015,0
2096921,2096921,171822,582080,0
2096921,2096921,171914,582660,0
2096921,2096921,171777,582791,0
2096921,2096921,171853,582872,0
2096921,2096921,172020,582574,0
2096921,2096921,171909,582624,0
2096921,2096921,172008,583152,0
2096921,2096921,172212,583541,0
2096921,2096921,171907,583431,0
2096921,2096921,171807,583304,0
2096921,2096921,172206,582931,0
2096921,2096921,172353,583681,0
2096921,2096921,172290,583921,0
2096921,2096921,172444,583651,0
2096921,2096921,172515,583722,0
2096921,2096921,172529,583886,0
2096921,2096921,172546,584259,0
2096921,2096921,172484,584438,0
2096921,2096921,172644,584211,0
2096921,2096921,172519,584437,0
2096921,2096921,172768,584365,0
2096921,2096921,172782,584796,0
2096921,2096921,172850,585043,0
2096921,2096921,172932,585018,0
2096921,2096921,172820,585030,0
2096921,2096921,173218,585111,0
2096921,2096921,173296,585318,0
2096921,2096921,173274,585472,0
2096921,2096921,173420,585817,0
2096921,2096921,172904,585452,0
2096921,2096921,173237,585488,0
2096921,2096921,173332,586200,0
2096921,2096921,173330,586336,0
2096921,2096921,173445,586177,0
2096921,2096921,173417,586374,0
2096921,2096921,173753,586204,0
2096921,2096921,173692,586686,0
2096921,2096921,173610,586762,0
2096921,2096921,173927,586837,0
2096921,2096921,173789,587071,0
2096921,2096921,173870,587032,0
2096921,2096921,174149,587556,0
2096921,2096921,174341,587378,0
2096921,2096921,174093,587755,0
2096921,2096921,174090,587688,0
2096921,2096921,174325,587676,0
2096921,2096921,174283,588110,0
2096921,2096921,174245,588043,0
2096921,2096921,174297,587795,0
2096921,2096921,174245,588252,0
2096921,2096921,174694,588184,0
2096921,2096921,174576,588031,0
2096921,2096921,174707,588042,0
2096921,2096921,174610,588618,0
2096921,2096921,174860,588649,0
2096921,2096921,174912,588902,0
2096921,2096921,174927,588995,0
2096921,2096921,174871,588862,0
2096921,2096921,174688,588874,0
2096921,2096921,174847,588882,0
2096921,2096921,174822,588838,0
2096921,2096921,175129,588835,0
2096921,2096921,174749,589078,0
2096921,2096921,174778,589082,0
2096921,2096921,174668,589370,0
2096921,2096921,175089,589210,0
2096921,2096921,174627,589138,0
2096921,2096921,175101,589433,0
2096921,2096921,175141,589258,0
2096921,2096921,175036,589507,0
2096921,2096921,174646,589175,0
2096921,2096921,174988,589331,0
2096921,2096921,175158,589362,0
2096921,2096921,174757,589434,0
2096921,2096921,174995,589231,0
2096921,2096921,174999,589431,0
2096921,2096921,174997,589578,0
2096921,2096921,174970,588973,0
2096921,2096921,174953,589324,0
2096921,2096921,174609,589254,0
2096921,2096921,174871,589177,0
2096921,2096921,174692,589102,0
2096921,2096921,174809,589296,0
2096921,2096921,174927,589048,0
2096921,2096921,174769,588944,0
2096921,2096921,175070,589229,0
2096921,2096921,175087,588863,0
2096921,2096921,174771,589085,0
2096921,2096921,174910,589058,0
2096921,2096921,174927,588898,0
2096921,2096921,174703,588822,0
2096921,2096921,174610,588733,0
2096921,2096921,174740,588763,0
2096921,2096921,174799,588644,0
2096921,2096921,175116,588717,0
2096921,2096921,174792,588560,0
2096921,2096921,174722,588649,0
2096921,2096921,174483,588684,0
2096921,2096921,174652,588425,0
2096921,2096921,174467,588630,0
2096921,2096921,174513,588553,0
2096921,2096921,174532,588349,0
2096921,2096921,174371,588449,0
2096921,2096921,174482,588481,0
2096921,2096921,174503,588457,0
2096921,2096921,174549,588421,0
2096921,2096921,174746,588492,0
2096921,2096921,174846,588249,0
2096921,2096921,174556,588207,0
2096921,2096921,174392,588260,0
2096921,2096921,174482,588238,0
2096921,2096921,174473,588329,0
2096921,2096921,174578,588056,0
2096921,2096921,174662,588389,0
2096921,2096921,174353,588500,0
2096921,2096921,174299,588597,0
2096921,2096921,174612,588444,0
2096921,2096921,174472,588580,0
2096921,2096921,174264,588452,0
2096921,2096921,174669,588102,0
2096921,2096921,174655,588446,0
2096921,2096921,174692,588477,0
2096921,2096921,174549,588388,0
2096921,2096921,174515,588614,0
2096921,2096921,174594,588606,0
2096921,2096921,174722,588629,0
2096921,2096921,174802,588577,0
2096921,2096921,174764,588771,0
2096921,2096921,174729,588651,0
2096921,2096921,174807,588844,0
2096921,2096921,174765,588537,0
2096921,2096921,174815,588999,0
2096921,2096921,175126,589263,0
2096921,2096921,174887,589537,0
2096921,2096921,175078,589530,0
2096921,2096921,175032,589226,0
2096921,2096921,175234,589930,0
2096921,2096921,175089,589666,0
2096921,2096921,174973,589921,0
2096921,2096921,175257,589752,0
2096921,2096921,175516,589765,0
2096921,2096921,175543,589973,0
2096921,2096921,175363,590110,0
2096921,2096921,175379,590338,0
2096921,2096921,175610,590168,0
2096921,2096921,175400,590228,0
2096921,2096921,175743,590468,0
2096921,2096921,175545,590499,0
2096921,2096921,175805,590541,0
2096921,2096921,175588,590494,0
2096921,2096921,176067,590564,0
2096921,2096921,175798,590742,0
2096921,2096921,175773,591047,0
2096921,2096921,175763,590954,0
2096921,2096921,176011,591140,0
2096921,2096921,175728,591203,0
2096921,2096921,175983,591356,0
2096921,2096921,175902,591570,0
2096921,2096921,175989,591068,0
2096921,2096921,175819,591483,0
2096921,2096921,175868,591549,0
2096921,2096921,175872,591319,0
2096921,2096921,176258,591514,0
2096921,2096921,176197,591523,0
2096921,2096921,175908,591688,0
2096921,2096921,176172,591515,0
2096921,2096921,176360,591688,0
2096921,2096921,176207,592279,0
2096921,2096921,176131,591810,0
2096921,2096921,176209,591805,0
2096921,2096921,176184,592088,0
2096921,2096921,176683,592319,0
2096921,2096921,176670,592399,0
2096921,2096921,176481,592577,0
2096921,2096921,176731,592648,0
2096921,2096921,176452,592474,0
2096921,2096921,176507,592938,0
2096921,2096921,176641,593028,0
2096921,2096921,176214,593072,0
2096921,2096921,176520,593171,0
2096921,2096921,176611,592680,0
2096921,2096921,177157,592952,0
2096921,2096921,176759,593215,0
2096921,2096921,177048,593157,0
2096921,2096921,176998,593185,0
2096921,2096921,176847,593357,0
2096921,2096921,176944,593580,0
2096921,2096921,177055,593554,0
2096921,2096921,176955,593410,0
2096921,2096921,176852,593715,0
2096921,2096921,177087,593700,0
2096921,2096921,177266,593668,0
2096921,2096921,177362,593724,0
2096921,2096921,177306,593853,0
2096921,2096921,177018,594035,0
2096921,2096921,177183,593911,0
2096921,2096921,177459,594158,0
2096921,2096921,177137,594160,0
2096921,2096921,177255,594387,0
2096921,2096921,177077,594358,0
2096921,2096921,177194,594252,0
2096921,2096921,177504,594631,0
2096921,2096921,177804,594478,0
2096921,2096921,177463,594826,0
2096921,2096921,177676,594794,0
2096921,2096921,177293,595057,0
2096921,2096921,177385,594995,0
2096921,2096921,177932,595107,0
2096921,2096921,178007,594939,0
2096921,2096921,177702,595195,0
2096921,2096921,177424,594945,0
2096921,2096921,177645,595481,0
2096921,2096921,177821,595609,0
2096921,2096921,178018,595386,0
2096921,2096921,178130,595477,0
2096921,2096921,178168,595813,0
2096921,2096921,178186,595784,0
2096921,2096921,178221,595746,0
2096921,2096921,178048,595669,0
2096921,2096921,178141,595892,0
2096921,2096921,177992,595580,0
2096921,2096921,178203,596112,0
2096921,2096921,178118,596072,0
2096921,2096921,178035,596141,0
2096921,2096921,178365,596358,0
2096921,2096921,178092,596310,0
2096921,2096921,178203,596366,0
2096921,2096921,178013,596363,0
2096921,2096921,178016,596273,0
2096921,2096921,178230,596188,0
2096921,2096921,178433,596226,0
2096921,2096921,178386,596378,0
2096921,2096921,178116,596519,0
2096921,2096921,178311,596793,0
2096921,2096921,178538,596653,0
2096921,2096921,178420,596868,0
2096921,2096921,178703,597229,0
2096921,2096921,178588,597279,0
2096921,2096921,178402,597557,0
2096921,2096921,178361,597336,0
2096921,2096921,178690,597145,0
2096921,2096921,178564,597350,0
2096921,2096921,178769,597401,0
2096921,2096921,178629,597410,0
2096921,2096921,178381,597522,0
2096921,2096921,178733,597467,0
2096921,2096921,178944,598049,0
2096921,2096921,178696,597779,0
2096921,2096921,178721,597680,0
2096921,2096921,178987,597627,0
2096921,2096921,179059,598154,0
2096921,2096921,178947,598290,0
2096921,2096921,179102,598492,0
2096921,2096921,179199,598282,0
2096921,2096921,179019,598600,0
2096921,2096921,179099,598391,0
2096921,2096921,179067,598477,0
2096921,2096921,178788,598847,0
2096921,2096921,178920,598494,0
2096921,2096921,178947,598300,0
2096921,2096921,179244,598641,0
2096921,2096921,179331,598902,0
2096921,2096921,179559,598848,0
2096921,2096921,179343,599070,0
2096921,2096921,179439,599117,0
2096921,2096921,179398,599033,0
2096921,2096921,179478,599193,0
2096921,2096921,179438,599230,0
2096921,2096921,179700,599569,0
2096921,2096921,179493,599189,0
2096921,2096921,179472,599414,0
2096921,2096921,179478,599543,0
2096921,2096921,179676,599567,0
2096921,2096921,179524,599563,0
2096921,2096921,179567,599419,0
2096921,2096921,179847,599690,0
2096921,2096921,179927,599699,0
2096921,2096921,179679,599879,0
2096921,2096921,179656,599725,0
2096921,2096921,179603,599788,0
2096921,2096921,179483,599688,0
2096921,2096921,179555,599915,0
2096921,2096921,179733,600109,0
2096921,2096921,179860,600017,0
2096921,2096921,179873,600131,0
2096921,2096921,179980,600102,0
2096921,2096921,179965,600363,0
2096921,2096921,179812,600322,0
2096921,2096921,179704,600409,0
2096921,2096921,179756,600277,0
2096921,2096921,179927,600158,0
2096921,2096921,179951,600829,0
2096921,2096921,179849,600805,0
2096921,2096921,179995,600520,0
2096921,2096921,179792,600853,0
2096921,2096921,180272,600774,0
2096921,2096921,180235,600885,0
2096921,2096921,180060,601446,0
2096921,2096921,180003,601409,0
2096921,2096921,179946,600895,0
2096921,2096921,180168,600926,0
2096921,2096921,179959,601291,0
2096921,2096921,180171,601476,0
2096921,2096921,179919,601551,0
2096921,2096921,180209,601458,0
2096921,2096921,179830,601373,0
2096921,2096921,179988,601743,0
2096921,2096921,180174,601663,0
2096921,2096921,180328,601425,0
2096921,2096921,180204,601547,0
2096921,2096921,180418,601259,0
2096921,2096921,180240,601934,0
2096921,2096921,180239,601876,0
2096921,2096921,180500,602161,0
2096921,2096921,180286,601951,0
2096921,2096921,180314,601924,0
2096921,2096921,180953,602162,0
2096921,2096921,180473,602380,0
2096921,2096921,180786,602348,0
2096921,2096921,180344,602086,0
2096921,2096921,180812,602557,0
2096921,2096921,180583,602738,0
2096921,2096921,180936,602716,0
2096921,2096921,180923,602776,0
2096921,2096921,180757,602608,0
2096921,2096921,180681,602740,0
2096921,2096921,180802,602551,0
2096921,2096921,180652,602896,0
2096921,2096921,180625,602649,0
2096921,2096921,180487,602599,0
2096921,2096921,180704,602465,0
2096921,2096921,180896,602960,0
2096921,2096921,180640,602941,0
2096921,2096921,180877,602830,0
2096921,2096921,180593,602901,0
2096921,2096921,180940,603180,0
2096921,2096921,180642,603377,0
2096921,2096921,181023,603232,0
2096921,2096921,180848,603077,0
2096921,2096921,180817,603288,0
2096921,2096921,180617,603046,0
2096921,2096921,181110,603568,0
2096921,2096921,181055,603732,0
2096921,2096921,180913,603803,0
2096921,2096921,181047,603577,0
2096921,2096921,181041,603900,0
2096921,2096921,181204,603639,0
2096921,2096921,181115,604091,0
2096921,2096921,181245,604086,0
2096921,2096921,181341,604020,0
2096921,2096921,181216,604004,0
2096921,2096921,181245,604223,0
2096921,2096921,181385,604329,0
2096921,2096921,181162,604171,0
2096921,2096921,181268,604329,0
2096921,2096921,181284,604157,0
2096921,2096921,181502,604504,0
2096921,2096921,181357,604325,0
2096921,2096921,181141,604490,0
2096921,2096921,181173,604307,0
2096921,2096921,181432,604588,0
2096921,2096921,181410,604577,0
2096921,2096921,181510,604528,0
2096921,2096921,181601,604771,0
2096921,2096921,181593,604527,0
2096921,2096921,181630,605149,0
2096921,2096921,181634,605250,0
2096921,2096921,181633,605134,0
2096921,2096921,181438,604782,0
2096921,2096921,181319,604981,0
2096921,2096921,181605,604910,0
2096921,2096921,181484,605441,0
2096921,2096921,181639,605338,0
2096921,2096921,181463,605201,0
2096921,2096921,181510,605290,0
2096921,2096921,181495,605395,0
2096921,2096921,181304,605504,0
2096921,2096921,181355,605496,0
2096921,2096921,181647,605743,0
2096921,2096921,181735,605344,0
2096921,2096921,181507,605430,0
2096921,2096921,181601,605593,0
2096921,2096921,181781,605848,0
2096921,2096921,181938,605801,0
2096921,2096921,181844,605765,0
2096921,2096921,181557,605710,0
2096921,2096921,182064,606016,0
2096921,2096921,181949,606395,0
2096921,2096921,181760,606118,0
2096921,2096921,182120,606056,0
2096921,2096921,181779,606279,0
2096921,2096921,181586,606448,0
2096921,2096921,182259,606593,0
2096921,2096921,181984,606675,0
2096921,2096921,182148,606492,0
2096921,2096921,181794,606216,0
2096921,2096921,181670,606415,0
2096921,2096921,181699,606163,0
2096921,2096921,181615,605764,0
2096921,2096921,181547,605974,0
2096921,2096921,181627,605978,0
2096921,2096921,181795,606095,0
2096921,2096921,181649,606019,0
2096921,2096921,181605,605980,0
2096921,2096921,181662,606003,0
2096921,2096921,181398,605975,0
2096921,2096921,181060,605279,0
2096921,2096921,180869,605021,0
2096921,2096921,181455,605207,0
2096921,2096921,181076,605045,0
2096921,2096921,180697,605048,0
2096921,2096921,180610,604434,0
2096921,2096921,180710,604542,0
2096921,2096921,180777,604362,0
2096921,2096921,180876,604339,0
2096921,2096921,180584,604223,0
2096921,2096921,180531,603378,0
2096921,2096921,180246,603164,0
2096921,2096921,179944,603293,0
2096921,2096921,180152,603071,0
2096921,2096921,179338,603025,0
2096921,2096921,178713,600994,0
2096921,2096921,178982,600554,0
2096921,2096921,179106,600637,0
2096921,2096921,179014,600645,0
2096921,2096921,177829,600994,0
2096921,2096921,177257,597474,0
2096921,2096921,177453,597236,0
2096921,2096921,177368,597225,0
2096921,2096921,176993,596891,0
2096921,2096921,176529,597023,0
2096921,2096921,176363,595511,0
2096921,2096921,176156,594990,0
2096921,2096921,175959,594944,0
2096921,2096921,176310,594782,0
2096921,2096921,175381,595099,0
2096921,2096921,175183,593543,0
2096921,2096921,175300,592811,0
2096921,2096921,174935,592796,0
2096921,2096921,174891,592970,0
2096921,2096921,174489,592662,0
2096921,2096921,174198,592069,0
2096921,2096921,174481,591976,0
2096921,2096921,174311,592133,0
2096921,2096921,174474,591790,0
2096921,2096921,174152,591736,0
2096921,2096921,173915,591172,0
2096921,2096921,174321,590918,0
2096921,2096921,173924,591058,0
2096921,2096921,173850,590743,0
2096921,2096921,173994,591145,0
2096921,2096921,174050,590708,0
2096921,2096921,173962,590534,0
2096921,2096921,173614,590697,0
2096921,2096921,173757,590568,0
2096921,2096921,173880,590494,0
2096921,2096921,173529,590585,0
2096921,2096921,173478,590330,0
2096921,2096921,173561,590546,0
2096921,2096921,173500,590072,0
2096921,2096921,173393,590358,0
2096921,2096921,173397,590379,0
2096921,2096921,173702,590680,0
2096921,2096921,173623,590274,0
2096921,2096921,173612,590521,0
2096921,2096921,173406,590485,0
2096921,2096921,173957,590758,0
2096921,2096921,173963,590626,0
2096921,2096921,173555,590766,0
2096921,2096921,173721,590776,0
2096921,2096921,173880,590861,0
2096921,2096921,174020,591345,0
2096921,2096921,174009,591254,0
2096921,2096921,174316,591467,0
2096921,2096921,173845,591631,0
2096921,2096921,174188,591424,0
2096921,2096921,173856,591740,0
2096921,2096921,174160,592180,0
2096921,2096921,174050,592195,0
2096921,2096921,173932,591704,0
2096921,2096921,174322,591847,0
2096921,2096921,174302,592439,0
2096921,2096921,174457,592412,0
2096921,2096921,174383,592462,0
2096921,2096921,174263,592273,0
2096921,2096921,174662,592388,0
2096921,2096921,174522,593137,0
2096921,2096921,174631,593138,0
2096921,2096921,174776,592973,0
2096921,2096921,174240,593168,0
2096921,2096921,174600,593128,0
2096921,2096921,174858,593954,0
2096921,2096921,175212,593752,0
2096921,2096921,175156,594391,0
2096921,2096921,175002,594123,0
2096921,2096921,175073,594239,0
2096921,2096921,175533,595066,0
2096921,2096921,175569,595294,0
2096921,2096921,175386,595010,0
2096921,2096921,175601,595167,0
2096921,2096921,175504,595144,0
2096921,2096921,175752,595948,0
2096921,2096921,175602,595773,0
2096921,2096921,175766,596006,0
2096921,2096921,175705,596069,0
2096921,2096921,176265,596132,0
2096921,2096921,176129,596860,0
2096921,2096921,176195,596886,0
2096921,2096921,176261,597139,0
2096921,2096921,176262,597017,0
2096921,2096921,176256,596890,0
2096921,2096921,176422,597533,0
2096921,2096921,176569,597946,0
2096921,2096921,176722,597995,0
2096921,2096921,176825,598032,0
2096921,2096921,177006,598169,0
2096921,2096921,176650,598742,0
2096921,2096921,176808,598700,0
2096921,2096921,176654,598571,0
2096921,2096921,176989,598795,0
2096921,2096921,177072,598719,0
2096921,2096921,177170,599608,0
2096921,2096921,177306,599900,0
2096921,2096921,177336,599986,0
2096921,2096921,177301,599928,0
2096921,2096921,177465,599772,0
2096921,2096921,177832,600478,0
2096921,2096921,177937,600809,0
2096921,2096921,177671,600405,0
2096921,2096921,177742,600369,0
2096921,2096921,178107,600663,0
2096921,2096921,178318,601199,0
2096921,2096921,178372,601431,0
2096921,2096921,178073,601489,0
2096921,2096921,178166,601877,0
2096921,2096921,178122,601517,0
2096921,2096921,178584,602365,0
2096921,2096921,178768,602719,0
2096921,2096921,178412,602384,0
2096921,2096921,178456,602587,0
2096921,2096921,178880,602803,0
2096921,2096921,178873,603406,0
2096921,2096921,179247,603338,0
2096921,2096921,179045,603767,0
2096921,2096921,179351,603764,0
2096921,2096921,179373,603810,0
2096921,2096921,179369,604303,0
2096921,2096921,179373,604023,0
2096921,2096921,179305,604565,0
2096921,2096921,179373,604394,0
2096921,2096921,179751,604129,0
2096921,2096921,179671,605150,0
2096921,2096921,179743,605147,0
2096921,2096921,179725,605011,0
2096921,2096921,179627,605445,0
2096921,2096921,179907,605230,0
2096921,2096921,179698,605711,0
2096921,2096921,179927,605810,0
2096921,2096921,180231,605554,0
2096921,2096921,180124,605682,0
2096921,2096921,180119,605659,0
2096921,2096921,180328,605940,0
2096921,2096921,180256,606265,0
2096921,2096921,180352,606460,0
2096921,2096921,180232,606697,0
2096921,2096921,180242,606290,0
2096921,2096921,180336,606973,0
2096921,2096921,180297,606901,0
2096921,2096921,180379,606679,0
2096921,2096921,180014,606686,0
2096921,2096921,180431,606348,0
2096921,2096921,180201,606857,0
2096921,2096921,180419,607033,0
2096921,2096921,180273,607034,0
2096921,2096921,180357,607091,0
2096921,2096921,180563,607318,0
2096921,2096921,180545,607425,0
2096921,2096921,180575,607402,0
2096921,2096921,180204,607367,0
2096921,2096921,180393,607063,0
2096921,2096921,180528,607205,0
2096921,2096921,180824,607382,0
2096921,2096921,180734,607528,0
2096921,2096921,180319,607603,0
2096921,2096921,180320,607430,0
2096921,2096921,180499,607386,0
2096921,2096921,180394,607600,0
2096921,2096921,180295,607391,0
2096921,2096921,180361,607358,0
2096921,2096921,180296,607297,0
2096921,2096921,180331,607517,0
2096921,2096921,180268,607427,0
2096921,2096921,180473,607532,0
2096921,2096921,180478,607681,0
2096921,2096921,180619,607808,0
2096921,2096921,180401,607555,0
2096921,2096921,180587,607542,0
2096921,2096921,180574,607725,0
2096921,2096921,180348,607658,0
2096921,2096921,180272,607566,0
2096921,2096921,180406,607721,0
2096921,2096921,180294,607664,0
2096921,2096921,180594,607615,0
2096921,2096921,180381,607914,0
2096921,2096921,180580,607883,0
2096921,2096921,180756,607957,0
2096921,2096921,180519,607894,0
2096921,2096921,180513,607759,0
2096921,2096921,180694,608360,0
2096921,2096921,180543,608011,0
2096921,2096921,180579,608039,0
2096921,2096921,180704,608239,0
2096921,2096921,180553,608385,0
2096921,2096921,180418,608083,0
2096921,2096921,180352,608460,0
2096921,2096921,180585,608271,0
2096921,2096921,180527,608431,0
2096921,2096921,180779,608364,0
2096921,2096921,180515,608425,0
2096921,2096921,180492,608388,0
2096921,2096921,180766,608278,0
2096921,2096921,180583,608799,0
2096921,2096921,180905,608988,0
2096921,2096921,180777,608964,0
2096921,2096921,180957,608983,0
2096921,2096921,180901,608827,0
2096921,2096921,180883,609427,0
2096921,2096921,180626,609162,0
2096921,2096921,180777,609053,0
2096921,2096921,180978,609065,0
2096921,2096921,180927,609088,0
2096921,2096921,181109,609684,0
2096921,2096921,181124,609929,0
2096921,2096921,181440,610216,0
2096921,2096921,181366,610108,0
2096921,2096921,181400,609959,0
2096921,2096921,181655,610591,0
2096921,2096921,181559,610397,0
2096921,2096921,181455,610322,0
2096921,2096921,181334,610671,0
2096921,2096921,181618,610568,0
2096921,2096921,181791,611389,0
2096921,2096921,181835,611270,0
2096921,2096921,182022,611335,0
2096921,2096921,181845,611385,0
2096921,2096921,181823,611624,0
2096921,2096921,181961,612308,0
2096921,2096921,182012,612267,0
2096921,2096921,181994,612432,0
2096921,2096921,182184,612216,0
2096921,2096921,182275,611961,0
2096921,2096921,182525,612828,0
2096921,2096921,182411,612936,0
2096921,2096921,182569,612691,0
2096921,2096921,182531,612588,0
2096921,2096921,182939,612850,0
2096921,2096921,182715,613115,0
2096921,2096921,182990,613290,0
2096921,2096921,182623,612975,0
2096921,2096921,182546,613061,0
2096921,2096921,182756,613166,0
2096921,2096921,182825,613654,0
2096921,2096921,182925,613522,0
2096921,2096921,182652,613766,0
2096921,2096921,182514,613552,0
2096921,2096921,182859,613692,0
2096921,2096921,182986,614497,0
2096921,2096921,182936,614552,0
2096921,2096921,183131,614054,0
2096921,2096921,183090,614173,0
2096921,2096921,183263,614466,0
2096921,2096921,183559,614896,0
2096921,2096921,183466,614801,0
2096921,2096921,183446,614978,0
2096921,2096921,183497,615270,0
2096921,2096921,183573,614899,0
2096921,2096921,183556,615420,0
2096921,2096921,183387,615457,0
2096921,2096921,183746,615636,0
2096921,2096921,183425,615394,0
2096921,2096921,183430,615480,0
2096921,2096921,183781,615685,0
2096921,2096921,183986,616101,0
2096921,2096921,184057,616143,0
2096921,2096921,183891,615987,0
2096921,2096921,183964,615879,0
2096921,2096921,184023,616384,0
2096921,2096921,183738,616376,0
2096921,2096921,184169,616543,0
2096921,2096921,183799,616199,0
2096921,2096921,184334,616424,0
2096921,2096921,184435,616600,0
2096921,2096921,184394,616854,0
2096921,2096921,184310,617092,0
2096921,2096921,184433,617099,0
2096921,2096921,184680,617092,0
2096921,2096921,184517,617505,0
2096921,2096921,184443,617281,0
2096921,2096921,184588,617442,0
2096921,2096921,184248,617491,0
2096921,2096921,184525,617293,0
2096921,2096921,184609,617768,0
2096921,2096921,184650,618147,0
2096921,2096921,184644,617957,0
2096921,2096921,184667,618046,0
2096921,2096921,184915,618214,0
2096921,2096921,184873,618302,0
2096921,2096921,184727,618396,0
2096921,2096921,184745,618414,0
2096921,2096921,184903,618366,0
2096921,2096921,185177,618230,0
2096921,2096921,184776,618666,0
2096921,2096921,185095,618745,0
2096921,2096921,185267,618687,0
2096921,2096921,185038,618867,0
2096921,2096921,185156,619090,0
2096921,2096921,185233,619017,0
2096921,2096921,185157,619011,0
2096921,2096921,185299,619104,0
2096921,2096921,185204,618927,0
2096921,2096921,185370,619021,0
2096921,2096921,185487,619579,0
2096921,2096921,185259,619599,0
2096921,2096921,185622,619732,0
2096921,2096921,185346,619643,0
2096921,2096921,185566,619840,0
2096921,2096921,185545,620080,0
2096921,2096921,185819,620031,0
2096921,2096921,185641,620056,0
2096921,2096921,185729,620370,0
2096921,2096921,185384,619706,0
2096921,2096921,185601,620128,0
2096921,2096921,185702,620142,0
2096921,2096921,185680,620242,0
2096921,2096921,185799,620219,0
2096921,2096921,185896,620333,0
2096921,2096921,185915,620812,0
2096921,2096921,185644,620793,0
2096921,2096921,185671,620761,0
2096921,2096921,185816,620691,0
2096921,2096921,186042,620802,0
2096921,2096921,185842,620927,0
2096921,2096921,186019,621014,0
2096921,2096921,185886,620963,0
2096921,2096921,186136,621141,0
2096921,2096921,186307,620909,0
2096921,2096921,186231,621130,0
2096921,2096921,186366,621383,0
2096921,2096921,186195,621163,0
2096921,2096921,186257,621448,0
2096921,2096921,185936,621268,0
2096921,2096921,186182,621416,0
2096921,2096921,186255,621839,0
2096921,2096921,186131,621738,0
2096921,2096921,186281,621652,0
2096921,2096921,186581,621541,0
2096921,2096921,186229,621573,0
2096921,2096921,186313,621615,0
2096921,2096921,186464,621951,0
2096921,2096921,186376,622041,0
2096921,2096921,186388,621786,0
2096921,2096921,186479,621966,0
2096921,2096921,186518,622088,0
2096921,2096921,186273,621940,0
2096921,2096921,186243,621856,0
2096921,2096921,186453,622079,0
2096921,2096921,186525,622175,0
2096921,2096921,186088,621993,0
2096921,2096921,186172,621960,0
2096921,2096921,186523,622125,0
2096921,2096921,186581,622295,0
2096921,2096921,186692,622687,0
2096921,2096921,186590,622480,0
2096921,2096921,186832,622505,0
2096921,2096921,186711,622459,0
2096921,2096921,186981,622429,0
2096921,2096921,186834,622832,0
2096921,2096921,186841,622805,0
2096921,2096921,186588,622662,0
2096921,2096921,186483,622551,0
2096921,2096921,186578,622738,0
2096921,2096921,186717,622602,0
2096921,2096921,186687,622604,0
2096921,2096921,186889,622517,0
2096921,2096921,186634,622835,0
2096921,2096921,186777,622862,0
2096921,2096921,187082,623043,0
2096921,2096921,186825,622760,0
2096921,2096921,186522,623068,0
2096921,2096921,186516,622784,0
2096921,2096921,186584,622756,0
2096921,2096921,186853,622991,0
2096921,2096921,186873,622971,0
2096921,2096921,187128,623241,0
2096921,2096921,187214,623418,0
2096921,2096921,186941,623232,0
2096921,2096921,187051,623175,0
2096921,2096921,186992,622980,0
2096921,2096921,187120,623154,0
2096921,2096921,186821,623139,0
2096921,2096921,187066,623031,0
2096921,2096921,187120,623139,0
2096921,2096921,187026,623507,0
2096921,2096921,187082,623572,0
2096921,2096921,187198,623594,0
2096921,2096921,187334,623524,0
2096921,2096921,187305,623510,0
2096921,2096921,187026,623412,0
2096921,2096921,187287,623314,0
2096921,2096921,187091,623560,0
2096921,2096921,186997,623212,0
2096921,2096921,186934,623457,0
2096921,2096921,187223,623414,0
2096921,2096921,186802,623801,0
2096921,2096921,187073,623576,0
2096921,2096921,187315,623347,0
2096921,2096921,187536,623866,0
2096921,2096921,187098,624048,0
2096921,2096921,187389,623601,0
2096921,2096921,187182,623683,0
2096921,2096921,187134,623532,0
2096921,2096921,187110,623654,0
2096921,2096921,187454,623623,0
2096921,2096921,187369,623960,0
2096921,2096921,187461,623708,0
2096921,2096921,187444,623655,0
2096921,2096921,187297,624005,0
2096921,2096921,187394,623780,0
2096921,2096921,187324,623850,0
2096921,2096921,186956,623933,0
2096921,2096921,187033,623613,0
2096921,2096921,187372,624118,0
2096921,2096921,187110,623967,0
2096921,2096921,187408,623853,0
2096921,2096921,187195,623937,0
2096921,2096921,187335,623671,0
2096921,2096921,187457,624017,0
2096921,2096921,187358,623844,0
2096921,2096921,187438,624181,0
2096921,2096921,187412,623953,0
2096921,2096921,187346,624181,0
2096921,2096921,187322,624029,0
2096921,2096921,187459,624194,0
2096921,2096921,187322,624123,0
2096921,2096921,187432,624229,0
2096921,2096921,187227,624081,0
2096921,2096921,187373,624177,0
2096921,2096921,187546,624065,0
2096921,2096921,187437,624277,0
2096921,2096921,187111,624014,0
2096921,2096921,187431,624037,0
2096921,2096921,187390,624110,0
2096921,2096921,187573,624292,0
2096921,2096921,187438,624241,0
2096921,2096921,187436,624237,0
2096921,2096921,187462,624139,0
2096921,2096921,187410,624191,0
2096921,2096921,187518,624201,0
2096921,2096921,187691,624360,0
2096921,2096921,187595,624188,0
2096921,2096921,187405,624208,0
2096921,2096921,187477,624308,0
2096921,2096921,187668,624321,0
2096921,2096921,187642,624387,0
2096921,2096921,187575,624133,0
2096921,2096921,187202,624421,0
2096921,2096921,187560,624209,0
2096921,2096921,187282,624208,0
2096921,2096921,187617,624453,0
2096921,2096921,187479,624320,0
2096921,2096921,187184,624235,0
2096921,2096921,187463,624088,0
2096921,2096921,187526,624260,0
2096921,2096921,187287,624563,0
2096921,2096921,187265,624237,0
2096921,2096921,187719,624331,0
2096921,2096921,187605,624139,0
2096921,2096921,187468,624123,0
2096921,2096921,187113,624218,0
2096921,2096921,187680,624026,0
2096921,2096921,187278,624023,0
2096921,2096921,187378,624139,0
2096921,2096921,187832,623858,0
2096921,2096921,187694,624172,0
2096921,2096921,187494,624566,0
2096921,2096921,187351,624420,0
2096921,2096921,187445,624383,0
2096921,2096921,187622,624522,0
2096921,2096921,187517,624261,0
2096921,2096921,187455,624295,0
2096921,2096921,187630,623983,0
2096921,2096921,187455,623976,0
2096921,2096921,187160,624164,0
2096921,2096921,187126,624468,0
2096921,2096921,187745,624421,0
2096921,2096921,187307,624062,0
2096921,2096921,186769,623762,0
2096921,2096921,186582,623276,0
2096921,2096921,187139,623051,0
2096921,2096921,187230,623313,0
2096921,2096921,186990,623449,0
2096921,2096921,186886,622971,0
2096921,2096921,186985,623081,0
2096921,2096921,186945,623015,0
2096921,2096921,186659,623086,0
2096921,2096921,186711,623095,0
2096921,2096921,186619,622459,0
2096921,2096921,186320,621994,0
2096921,2096921,186616,621993,0
2096921,2096921,186502,621891,0
2096921,2096921,186249,621744,0
2096921,2096921,185764,620856,0
2096921,2096921,185955,620807,0
2096921,2096921,185857,620864,0
2096921,2096921,185796,620521,0
2096921,2096921,185732,620727,0
2096921,2096921,185377,619988,0
2096921,2096921,185167,619710,0
2096921,2096921,184993,619318,0
2096921,2096921,184831,619294,0
2096921,2096921,184254,619460,0
2096921,2096921,183912,616826,0
2096921,2096921,183653,616278,0
2096921,2096921,183480,616616,0
2096921,2096921,183748,616283,0
2096921,2096921,182740,616401,0
2096921,2096921,182104,613320,0
2096921,2096921,182054,612648,0
2096921,2096921,182064,612417,0
2096921,2096921,181814,612492,0
2096921,2096921,181014,612482,0
2096921,2096921,180729,610559,0
2096921,2096921,180726,609943,0
2096921,2096921,180792,609697,0
2096921,2096921,180564,609840,0
2096921,2096921,180030,610115,0
2096921,2096921,179572,608138,0
2096921,2096921,179571,607746,0
2096921,2096921,179604,607680,0
2096921,2096921,179621,607868,0
2096921,2096921,179097,607605,0
2096921,2096921,178843,606763,0
2096921,2096921,178699,606437,0
2096921,2096921,178903,606292,0
2096921,2096921,178805,606326,0
2096921,2096921,178681,606163,0
2096921,2096921,178563,605440,0
2096921,2096921,178378,605183,0
2096921,2096921,178322,605010,0
2096921,2096921,178086,604897,0
2096921,2096921,178230,605071,0
2096921,2096921,178090,604051,0
2096921,2096921,177661,604238,0
2096921,2096921,177902,604075,0
2096921,2096921,178117,604365,0
2096921,2096921,177967,604302,0
2096921,2096921,177718,603858,0
2096921,2096921,177851,603735,0
2096921,2096921,177764,603722,0
2096921,2096921,177881,603527,0
2096921,2096921,177536,603825,0
2096921,2096921,177504,603333,0
2096921,2096921,177640,603483,0
2096921,2096921,177592,603166,0
2096921,2096921,177933,603582,0
2096921,2096921,177829,603507,0
2096921,2096921,177924,603256,0
2096921,2096921,177566,603320,0
2096921,2096921,177536,603230,0
2096921,2096921,177390,603385,0
2096921,2096921,177645,603572,0
2096921,2096921,177319,603464,0
2096921,2096921,177818,603693,0
2096921,2096921,177690,603754,0
2096921,2096921,177696,603617,0
2096921,2096921,177555,603458,0
2096921,2096921,177725,603369,0
2096921,2096921,177700,603656,0
2096921,2096921,177574,603559,0
2096921,2096921,177567,603268,0
2096921,2096921,177699,603439,0
2096921,2096921,177997,603901,0
2096921,2096921,177792,603887,0
2096921,2096921,177803,604019,0
2096921,2096921,178038,604119,0
2096921,2096921,178326,603944,0
2096921,2096921,178127,604124,0
2096921,2096921,178015,604368,0
2096921,2096921,177903,604631,0
2096921,2096921,177796,604372,0
2096921,2096921,178043,604108,0
2096921,2096921,178574,604567,0
2096921,2096921,178596,604726,0
2096921,2096921,178328,604818,0
2096921,2096921,178394,604746,0
2096921,2096921,178698,604764,0
2096921,2096921,178596,605221,0
2096921,2096921,178703,605522,0
2096921,2096921,178436,605053,0
2096921,2096921,178485,605241,0
2096921,2096921,178843,605094,0
2096921,2096921,178778,605497,0
2096921,2096921,178705,605470,0
2096921,2096921,178902,605876,0
2096921,2096921,179006,605997,0
2096921,2096921,178856,605853,0
2096921,2096921,179080,605943,0
2096921,2096921,178907,606109,0
2096921,2096921,179023,606179,0
2096921,2096921,179183,606317,0
2096921,2096921,179322,606292,0
2096921,2096921,179450,606632,0
2096921,2096921,179218,606722,0
2096921,2096921,179322,606692,0
2096921,2096921,179618,606970,0
2096921,2096921,179709,606668,0
2096921,2096921,179642,607134,0
2096921,2096921,179719,607309,0
2096921,2096921,179600,607170,0
2096921,2096921,179421,607101,0
2096921,2096921,179590,607154,0
2096921,2096921,180019,607667,0
2096921,2096921,180100,607721,0
2096921,2096921,179975,607836,0
2096921,2096921,179913,607616,0
2096921,2096921,179930,607796,0
2096921,2096921,180170,608096,0
2096921,2096921,180009,608148,0
2096921,2096921,180219,608182,0
2096921,2096921,180097,608434,0
2096921,2096921,180320,607990,0
2096921,2096921,180402,608752,0
2096921,2096921,180511,608780,0
2096921,2096921,180730,608611,0
2096921,2096921,180527,608696,0
2096921,2096921,180403,608784,0
2096921,2096921,180676,609224,0
2096921,2096921,180919,609152,0
2096921,2096921,180587,609432,0
2096921,2096921,180784,609299,0
2096921,2096921,180790,609337,0
2096921,2096921,181276,609729,0
2096921,2096921,181240,609468,0
2096921,2096921,180989,609620,0
2096921,2096921,180862,609916,0
2096921,2096921,180956,610148,0
2096921,2096921,181098,610310,0
2096921,2096921,181090,610070,0
2096921,2096921,181165,610287,0
2096921,2096921,181165,610106,0
2096921,2096921,181125,610012,0
2096921,2096921,181286,610209,0
2096921,2096921,181148,610388,0
2096921,2096921,181335,610723,0
2096921,2096921,181502,610403,0
2096921,2096921,181418,610534,0
2096921,2096921,181269,610744,0
2096921,2096921,181280,610475,0
2096921,2096921,181304,610432,0
2096921,2096921,181355,610647,0
2096921,2096921,181485,610279,0
2096921,2096921,181323,610629,0
2096921,2096921,181752,610963,0
2096921,2096921,181459,610605,0
2096921,2096921,181436,610637,0
2096921,2096921,181686,610353,0
2096921,2096921,181736,610516,0
2096921,2096921,181683,610447,0
2096921,2096921,181678,610672,0
2096921,2096921,181602,610675,0
2096921,2096921,181617,610657,0
2096921,2096921,181484,610505,0
2096921,2096921,181770,610025,0
2096921,2096921,181417,610454,0
2096921,2096921,181755,610675,0
2096921,2096921,181427,610384,0
2096921,2096921,181554,610064,0
2096921,2096921,181319,610076,0
2096921,2096921,181514,609900,0
2096921,2096921,181018,609954,0
2096921,2096921,181160,610075,0
2096921,2096921,181263,609787,0
2096921,2096921,181420,609868,0
2096921,2096921,181006,609868,0
2096921,2096921,181447,609779,0
2096921,2096921,181119,609975,0
2096921,2096921,181248,609509,0
2096921,2096921,181245,609387,0
2096921,2096921,181053,609391,0
2096921,2096921,181094,609408,0
2096921,2096921,180892,609118,0
2096921,2096921,180838,608981,0
2096921,2096921,180831,608868,0
2096921,2096921,180849,608834,0
2096921,2096921,180804,608926,0
2096921,2096921,180841,608887,0
2096921,2096921,180847,608460,0
2096921,2096921,180809,608471,0
2096921,2096921,180508,608395,0
2096921,2096921,180937,608400,0
2096921,2096921,180548,608351,0
2096921,2096921,180365,608022,0
2096921,2096921,180650,608024,0
2096921,2096921,180694,608228,0
2096921,2096921,180660,608121,0
2096921,2096921,180640,607966,0
2096921,2096921,180504,607732,0
2096921,2096921,180553,607602,0
2096921,2096921,180446,607720,0
2096921,2096921,180319,607376,0
2096921,2096921,180432,607656,0
2096921,2096921,180450,607643,0
2096921,2096921,180521,607617,0
2096921,2096921,180593,607378,0
2096921,2096921,180600,607534,0
2096921,2096921,180322,607591,0
2096921,2096921,180333,607336,0
2096921,2096921,180388,607098,0
2096921,2096921,180381,607177,0
2096921,2096921,180385,607008,0
2096921,2096921,180416,607052,0
2096921,2096921,180663,607323,0
2096921,2096921,180220,607049,0
2096921,2096921,180362,607017,0
2096921,2096921,180407,607258,0
2096921,2096921,180393,607177,0
2096921,2096921,180515,607315,0
2096921,2096921,180380,606901,0
2096921,2096921,180432,607109,0
2096921,2096921,180170,607289,0
2096921,2096921,180338,607364,0
2096921,2096921,180508,607365,0
2096921,2096921,180671,607503,0
2096921,2096921,180637,607488,0
2096921,2096921,180531,607345,0
2096921,2096921,180518,607315,0
2096921,2096921,180780,607644,0
2096921,2096921,180688,607480,0
2096921,2096921,180522,607693,0
2096921,2096921,180516,607828,0
2096921,2096921,180685,607314,0
2096921,2096921,181024,607896,0
2096921,2096921,180589,607629,0
2096921,2096921,180662,607844,0
2096921,2096921,181063,607753,0
2096921,2096921,181035,607974,0
2096921,2096921,180849,607734,0
2096921,2096921,181008,608156,0
2096921,2096921,180771,608238,0
2096921,2096921,180967,607844,0
2096921,2096921,180918,607712,0
2096921,2096921,181138,608333,0
2096921,2096921,181042,608266,0
2096921,2096921,180882,608589,0
2096921,2096921,181343,608538,0
2096921,2096921,181320,608472,0
2096921,2096921,181001,608193,0
2096921,2096921,181077,608078,0
2096921,2096921,180941,608092,0
2096921,2096921,181307,608364,0
2096921,2096921,181243,608264,0
2096921,2096921,181391,608267,0
2096921,2096921,181017,608457,0
2096921,2096921,181317,608473,0
2096921,2096921,181208,608494,0
2096921,2096921,181284,608608,0
2096921,2096921,181444,608574,0
2096921,2096921,181264,608349,0
2096921,2096921,181148,608470,0
2096921,2096921,181115,608468,0
2096921,2096921,181399,608449,0
2096921,2096921,181440,608921,0
2096921,2096921,181614,608586,0
2096921,2096921,181364,608441,0
2096921,2096921,181584,608904,0
2096921,2096921,181672,608470,0
2096921,2096921,181476,608712,0
2096921,2096921,181638,608910,0
2096921,2096921,181637,608778,0
2096921,2096921,181365,608804,0
2096921,2096921,181525,608856,0
2096921,2096921,181804,608812,0
2096921,2096921,181800,608743,0
2096921,2096921,181803,609107,0
2096921,2096921,181895,608862,0
2096921,2096921,181854,608903,0
2096921,2096921,181502,608824,0
2096921,2096921,181425,608571,0
2096921,2096921,181587,608794,0
2096921,2096921,181334,608729,0
2096921,2096921,181594,608764,0
2096921,2096921,181787,608867,0
2096921,2096921,181590,609024,0
2096921,2096921,181739,608921,0
2096921,2096921,181679,608734,0
2096921,2096921,182019,608869,0
2096921,2096921,181976,608941,0
2096921,2096921,181717,608983,0
2096921,2096921,181745,608917,0
2096921,2096921,181967,608880,0
2096921,2096921,181914,608793,0
2096921,2096921,181727,608786,0
2096921,2096921,181942,608597,0
2096921,2096921,182146,608814,0
2096921,2096921,181763,608663,0
2096921,2096921,182087,608902,0
2096921,2096921,182067,608978,0
2096921,2096921,181772,608767,0
2096921,2096921,181889,608526,0
2096921,2096921,182022,608637,0
2096921,2096921,182096,608735,0
2096921,2096921,182093,608801,0
2096921,2096921,182244,608878,0
2096921,2096921,182329,609008,0
2096921,2096921,182405,608918,0
2096921,2096921,182165,609278,0
2096921,2096921,181881,609065,0
2096921,2096921,182253,609163,0
2096921,2096921,181949,608884,0
2096921,2096921,182052,608919,0
2096921,2096921,181966,609150,0
2096921,2096921,182208,608945,0
2096921,2096921,182360,609032,0
2096921,2096921,182211,608724,0
2096921,2096921,182097,608708,0
2096921,2096921,182215,608750,0
2096921,2096921,182200,608965,0
2096921,2096921,182146,608772,0
2096921,2096921,182137,608816,0
2096921,2096921,182127,608505,0
2096921,2096921,182238,608780,0
2096921,2096921,182246,608833,0
2096921,2096921,181909,608607,0
2096921,2096921,182180,608693,0
2096921,2096921,182258,608755,0
2096921,2096921,182034,608762,0
2096921,2096921,182159,609022,0
2096921,2096921,182185,608845,0
2096921,2096921,182100,608201,0
2096921,2096921,181915,608387,0
2096921,2096921,182079,608427,0
2096921,2096921,182131,608508,0
2096921,2096921,182228,608746,0
2096921,2096921,182169,608716,0
2096921,2096921,182445,608443,0
2096921,2096921,182232,608457,0
2096921,2096921,182058,608608,0
2096921,2096921,182237,608826,0
2096921,2096921,182287,608468,0
2096921,2096921,182301,608448,0
2096921,2096921,182483,608604,0
2096921,2096921,182280,608541,0
2096921,2096921,182364,608493,0
2096921,2096921,182468,608358,0
2096921,2096921,182322,608662,0
2096921,2096921,182223,608543,0
2096921,2096921,181952,608180,0
2096921,2096921,182006,608081,0
2096921,2096921,182290,608129,0
2096921,2096921,182278,608373,0
2096921,2096921,182259,608298,0
2096921,2096921,182060,608092,0
2096921,2096921,182081,608282,0
2096921,2096921,182353,608128,0
2096921,2096921,182223,608099,0
2096921,2096921,182336,608200,0
2096921,2096921,182172,607726,0
2096921,2096921,182504,607964,0
2096921,2096921,182388,607798,0
2096921,2096921,182145,607857,0
2096921,2096921,181903,607883,0
2096921,2096921,182034,607904,0
2096921,2096921,182062,607771,0
2096921,2096921,182145,607619,0
2096921,2096921,182190,607834,0
2096921,2096921,182084,607817,0
2096921,2096921,181855,607669,0
2096921,2096921,181750,607891,0
2096921,2096921,182186,607834,0
2096921,2096921,182252,607726,0
2096921,2096921,181968,607663,0
2096921,2096921,182014,607109,0
2096921,2096921,181973,607395,0
2096921,2096921,182153,607282,0
2096921,2096921,182264,607764,0
2096921,2096921,182063,607343,0
2096921,2096921,182111,607521,0
2096921,2096921,182077,607156,0
2096921,2096921,181897,607244,0
2096921,2096921,182026,607180,0
2096921,2096921,182373,607032,0
2096921,2096921,182357,607025,0
2096921,2096921,182111,606940,0
2096921,2096921,181870,607109,0
2096921,2096921,181985,606967,0
2096921,2096921,182185,607189,0
2096921,2096921,182118,607265,0
2096921,2096921,182213,607102,0
2096921,2096921,181773,606738,0
2096921,2096921,181688,606800,0
2096921,2096921,181975,606879,0
2096921,2096921,181779,606867,0
2096921,2096921,181783,606783,0
2096921,2096921,181878,606787,0
2096921,2096921,181604,606709,0
2096921,2096921,181826,606672,0
2096921,2096921,182068,606580,0
2096921,2096921,182100,606725,0
2096921,2096921,181832,606666,0
2096921,2096921,181761,606335,0
2096921,2096921,181844,606389,0
2096921,2096921,182001,606670,0
2096921,2096921,181547,606449,0
2096921,2096921,181869,606577,0
2096921,2096921,181959,606514,0
2096921,2096921,181966,606649,0
2096921,2096921,181795,606420,0
2096921,2096921,181734,606119,0
2096921,2096921,182002,606131,0
2096921,2096921,181656,606097,0
2096921,2096921,181723,606220,0
2096921,2096921,181633,606056,0
2096921,2096921,182151,606141,0
2096921,2096921,182010,606147,0
2096921,2096921,181719,606250,0
2096921,2096921,181874,606254,0
2096921,2096921,181294,606191,0
2096921,2096921,181678,605850,0
2096921,2096921,181929,605943,0
2096921,2096921,181891,605822,0
2096921,2096921,181733,605784,0
2096921,2096921,181621,605722,0
2096921,2096921,181675,605811,0
2096921,2096921,181795,605867,0
2096921,2096921,181832,605696,0
2096921,2096921,181911,605923,0
2096921,2096921,181688,605720,0
2096921,2096921,181674,605378,0
2096921,2096921,181677,605603,0
2096921,2096921,181586,605230,0
2096921,2096921,181616,605702,0
2096921,2096921,181719,605195,0
2096921,2096921,181632,605421,0
2096921,2096921,181763,605589,0
2096921,2096921,181601,605543,0
2096921,2096921,181707,605630,0
2096921,2096921,181702,605039,0
2096921,2096921,181457,605099,0
2096921,2096921,181447,605113,0
2096921,2096921,181430,605202,0
2096921,2096921,181827,605033,0
2096921,2096921,181477,605078,0
2096921,2096921,181787,604788,0
2096921,2096921,181562,604734,0
2096921,2096921,181568,604766,0
2096921,2096921,181250,605070,0
2096921,2096921,181319,604702,0
2096921,2096921,181030,604611,0
2096921,2096921,181125,604604,0
2096921,2096921,181679,604685,0
2096921,2096921,181319,604552,0
2096921,2096921,181276,604309,0
2096921,2096921,181273,604139,0
2096921,2096921,181313,604198,0
2096921,2096921,181472,604120,0
2096921,2096921,181371,604485,0
2096921,2096921,181130,604189,0
2096921,2096921,181026,603931,0
2096921,2096921,180945,604089,0
2096921,2096921,181372,604013,0
2096921,2096921,181415,603935,0
2096921,2096921,181370,603911,0
2096921,2096921,181197,603954,0
2096921,2096921,181490,603866,0
2096921,2096921,181191,603679,0
2096921,2096921,181290,603984,0
2096921,2096921,181038,603591,0
2096921,2096921,181157,603511,0
2096921,2096921,180856,603438,0
2096921,2096921,181006,603441,0
2096921,2096921,180941,603524,0
2096921,2096921,180981,603211,0
2096921,2096921,181043,603179,0
2096921,2096921,181242,603325,0
2096921,2096921,181161,602994,0
2096921,2096921,180772,603204,0
2096921,2096921,180868,603291,0
2096921,2096921,180733,603067,0
2096921,2096921,180865,603154,0
2096921,2096921,180923,603151,0
2096921,2096921,180852,603205,0
2096921,2096921,180905,602744,0
2096921,2096921,181052,602566,0
2096921,2096921,181222,602917,0
2096921,2096921,180908,602958,0
2096921,2096921,180530,603135,0
2096921,2096921,180453,602143,0
2096921,2096921,180660,602164,0
2096921,2096921,180587,601996,0
2096921,2096921,180346,601826,0
2096921,2096921,180371,601970,0
2096921,2096921,180235,601591,0
2096921,2096921,180480,601353,0
2096921,2096921,180172,601319,0
2096921,2096921,180060,601303,0
2096921,2096921,179783,601347,0
2096921,2096921,179392,600659,0
2096921,2096921,179357,600352,0
2096921,2096921,179550,600158,0
2096921,2096921,179554,600268,0
2096921,2096921,179283,600324,0
2096921,2096921,179096,599306,0
2096921,2096921,179214,599108,0
2096921,2096921,179126,598992,0
2096921,2096921,178875,599107,0
2096921,2096921,178377,598676,0
2096921,2096921,178342,597629,0
2096921,2096921,178304,597233,0
2096921,2096921,178213,597247,0
2096921,2096921,178038,597317,0
2096921,2096921,177524,597165,0
2096921,2096921,176849,594458,0
2096921,2096921,176955,594167,0
2096921,2096921,177059,594010,0
2096921,2096921,176850,593924,0
2096921,2096921,175741,594061,0
2096921,2096921,174866,590852,0
2096921,2096921,175143,590345,0
2096921,2096921,174871,590459,0
2096921,2096921,175017,590475,0
2096921,2096921,174264,590282,0
2096921,2096921,174151,588121,0
2096921,2096921,173593,587708,0
2096921,2096921,173599,587525,0
2096921,2096921,173758,587404,0
2096921,2096921,173390,587287,0
2096921,2096921,172837,585739,0
2096921,2096921,172755,585441,0
2096921,2096921,172834,585358,0
2096921,2096921,172810,585192,0
2096921,2096921,172475,585444,0
2096921,2096921,172068,583850,0
2096921,2096921,172169,583898,0
2096921,2096921,171993,583908,0
2096921,2096921,171821,583740,0
2096921,2096921,171781,583947,0
2096921,2096921,171412,582969,0
2096921,2096921,171280,582720,0
2096921,2096921,171444,582682,0
2096921,2096921,171418,582451,0
2096921,2096921,171333,582509,0
2096921,2096921,171269,581610,0
2096921,2096921,171111,581356,0
2096921,2096921,170818,581652,0
2096921,2096921,170979,581790,0
2096921,2096921,170673,581769,0
2096921,2096921,170691,581394,0
2096921,2096921,170422,581027,0
2096921,2096921,170769,581005,0
2096921,2096921,170986,580859,0
2096921,2096921,170638,580839,0
2096921,2096921,170541,580613,0
2096921,2096921,170708,580731,0
2096921,2096921,170579,580853,0
2096921,2096921,170866,580843,0
2096921,2096921,170864,580821,0
2096921,2096921,170444,580612,0
2096921,2096921,170529,580731,0
2096921,2096921,170514,580478,0
2096921,2096921,170529,580348,0
2096921,2096921,170738,580386,0
2096921,2096921,170829,580597,0
2096921,2096921,170869,580574,0
2096921,2096921,170857,580651,0
2096921,2096921,170771,580654,0
2096921,2096921,170710,580853,0
2096921,2096921,170642,580659,0
2096921,2096921,170807,580719,0
2096921,2096921,170636,581009,0
2096921,2096921,170639,580780,0
2096921,2096921,170477,580733,0
2096921,2096921,170829,580571,0
2096921,2096921,170971,580852,0
2096921,2096921,170933,580839,0
2096921,2096921,170642,580854,0
2096921,2096921,170996,580991,0
2096921,2096921,171164,581366,0
2096921,2096921,170860,581138,0
2096921,2096921,170839,581517,0
2096921,2096921,171115,581432,0
2096921,2096921,171258,581422,0
2096921,2096921,171304,581613,0
2096921,2096921,171483,581919,0
2096921,2096921,171430,581857,0
2096921,2096921,171514,581958,0
2096921,2096921,171757,581862,0
2096921,2096921,171536,582261,0
2096921,2096921,171554,582305,0
2096921,2096921,171213,582230,0
2096921,2096921,171608,582335,0
2096921,2096921,171710,582423,0
2096921,2096921,171791,582931,0
2096921,2096921,171981,583175,0
2096921,2096921,171849,583250,0
2096921,2096921,171941,583157,0
2096921,2096921,172229,582936,0
2096921,2096921,172156,583406,0
2096921,2096921,172333,583511,0
2096921,2096921,172502,583496,0
2096921,2096921,172298,583720,0
2096921,2096921,172365,583703,0
2096921,2096921,172565,583951,0
2096921,2096921,172480,584130,0
2096921,2096921,172119,584301,0
2096921,2096921,172429,584566,0
2096921,2096921,172939,583851,0
2096921,2096921,172750,584169,0
2096921,2096921,172614,584753,0
2096921,2096921,172506,584294,0
2096921,2096921,172477,584524,0
2096921,2096921,172819,584703,0
2096921,2096921,172831,584924,0
2096921,2096921,172833,584906,0
2096921,2096921,173088,585004,0
2096921,2096921,173144,585536,0
2096921,2096921,173057,585244,0
2096921,2096921,173325,585338,0
2096921,2096921,173378,585742,0
2096921,2096921,173236,585679,0
2096921,2096921,173178,585633,0
2096921,2096921,173311,585811,0
2096921,2096921,173472,586331,0
2096921,2096921,173350,586448,0
2096921,2096921,173580,586376,0
2096921,2096921,173621,586230,0
2096921,2096921,173867,586591,0
2096921,2096921,173851,586891,0
2096921,2096921,173863,587024,0
2096921,2096921,173754,587235,0
2096921,2096921,173973,586998,0
2096921,2096921,173888,587018,0
2096921,2096921,174103,587654,0
2096921,2096921,173981,587678,0
2096921,2096921,174202,587917,0
2096921,2096921,174152,587772,0
2096921,2096921,174361,587515,0
2096921,2096921,174244,588272,0
2096921,2096921,174351,588197,0
2096921,2096921,174240,587883,0
2096921,2096921,174197,587661,0
2096921,2096921,174123,587667,0
2096921,2096921,174510,588329,0
2096921,2096921,174443,588710,0
2096921,2096921,174656,588628,0
2096921,2096921,174632,588372,0
2096921,2096921,174589,588580,0
2096921,2096921,174839,588910,0
2096921,2096921,174802,588726,0
2096921,2096921,174431,589033,0
2096921,2096921,174554,588959,0
2096921,2096921,174971,588885,0
2096921,2096921,174881,589052,0
2096921,2096921,175002,589238,0
2096921,2096921,174980,589114,0
2096921,2096921,175220,588955,0
2096921,2096921,175106,588992,0
2096921,2096921,175110,589165,0
2096921,2096921,174777,589209,0
2096921,2096921,174876,589528,0
2096921,2096921,174840,589322,0
2096921,2096921,174993,589292,0
2096921,2096921,175244,589261,0
2096921,2096921,175137,589408,0
2096921,2096921,174996,589526,0
2096921,2096921,175039,589420,0
2096921,2096921,174794,589293,0
2096921,2096921,175216,589485,0
2096921,2096921,175167,589357,0
2096921,2096921,174898,589307,0
2096921,2096921,175161,589426,0
2096921,2096921,175100,589540,0
2096921,2096921,174847,589369,0
2096921,2096921,174780,589275,0
2096921,2096921,174884,589361,0
2096921,2096921,174964,589206,0
2096921,2096921,174984,589222,0
2096921,2096921,174936,588828,0
2096921,2096921,174931,588936,0
2096921,2096921,174484,589076,0
2096921,2096921,174698,589004,0
2096921,2096921,174635,589152,0
2096921,2096921,174783,588957,0
2096921,2096921,174859,589005,0
2096921,2096921,174655,589118,0
2096921,2096921,174947,589183,0
2096921,2096921,174809,588745,0
2096921,2096921,174685,588726,0
2096921,2096921,174763,588819,0
2096921,2096921,174698,588724,0
2096921,2096921,174761,588650,0
2096921,2096921,174423,588686,0
2096921,2096921,174550,588350,0
2096921,2096921,174666,588321,0
2096921,2096921,174578,588479,0
2096921,2096921,174342,588418,0
2096921,2096921,174336,588381,0
2096921,2096921,174735,588584,0
2096921,2096921,174688,588184,0
2096921,2096921,174410,588361,0
2096921,2096921,174399,588507,0
2096921,2096921,174410,588369,0
2096921,2096921,174635,588144,0
2096921,2096921,174610,588417,0
2096921,2096921,174355,588694,0
2096921,2096921,174834,588563,0
2096921,2096921,174524,588553,0
2096921,2096921,174524,588345,0
2096921,2096921,174332,588432,0
2096921,2096921,174278,588472,0
2096921,2096921,173954,588293,0
2096921,2096921,174420,588392,0
2096921,2096921,174557,588395,0
2096921,2096921,174796,588461,0
2096921,2096921,174478,588759,0
2096921,2096921,174552,588908,0
2096921,2096921,174752,588630,0
2096921,2096921,174937,588776,0
2096921,2096921,174706,589038,0
2096921,2096921,174746,588920,0
2096921,2096921,174585,588909,0
2096921,2096921,174748,588487,0
2096921,2096921,175129,589077,0
2096921,2096921,175295,589284,0
2096921,2096921,175205,589552,0
2096921,2096921,175193,589481,0
2096921,2096921,175122,589430,0
2096921,2096921,175289,589562,0
2096921,2096921,175134,589488,0
2096921,2096921,175017,589894,0
2096921,2096921,174989,589804,0
2096921,2096921,175398,589688,0
2096921,2096921,175532,590223,0
2096921,2096921,175447,590376,0
2096921,2096921,175577,590202,0
2096921,2096921,175587,590261,0
2096921,2096921,175586,590168,0
2096921,2096921,175722,590693,0
2096921,2096921,175649,590721,0
2096921,2096921,175424,590576,0
2096921,2096921,175735,590595,0
2096921,2096921,175502,590826,0
2096921,2096921,175540,590877,0
2096921,2096921,175628,591191,0
2096921,2096921,175647,591256,0
2096921,2096921,176053,591132,0
2096921,2096921,175722,591297,0
2096921,2096921,175757,591784,0
2096921,2096921,175661,591434,0
2096921,2096921,176189,591649,0
2096921,2096921,175961,591447,0
2096921,2096921,175875,591483,0
2096921,2096921,176130,591713,0
2096921,2096921,176210,591835,0
2096921,2096921,176280,591499,0
2096921,2096921,176211,591759,0
2096921,2096921,176588,591894,0
2096921,2096921,176497,592114,0
2096921,2096921,176387,592006,0
2096921,2096921,176345,591852,0
2096921,2096921,176302,591814,0
2096921,2096921,176250,592085,0
2096921,2096921,176164,592286,0
2096921,2096921,176780,592505,0
2096921,2096921,176657,592501,0
2096921,2096921,176674,592609,0
2096921,2096921,176410,592428,0
2096921,2096921,176918,592622,0
2096921,2096921,176503,592987,0
2096921,2096921,176367,592824,0
2096921,2096921,176422,592695,0
2096921,2096921,176728,592795,0
2096921,2096921,176756,593119,0
2096921,2096921,176811,593032,0
2096921,2096921,176656,593195,0
2096921,2096921,176890,593255,0
2096921,2096921,176833,593341,0
2096921,2096921,176850,593421,0
2096921,2096921,176754,593675,0
2096921,2096921,176721,593570,0
2096921,2096921,176986,593758,0
2096921,2096921,176995,593266,0
2096921,2096921,177181,593618,0
2096921,2096921,177384,593866,0
2096921,2096921,177465,593933,0
2096921,2096921,177426,593862,0
2096921,2096921,177574,593921,0
2096921,2096921,177304,594009,0
2096921,2096921,177526,594243,0
2096921,2096921,177167,594000,0
2096921,2096921,177247,594141,0
2096921,2096921,177243,594308,0
2096921,2096921,177501,594472,0
2096921,2096921,177649,594579,0
2096921,2096921,177503,594544,0
2096921,2096921,177558,594590,0
2096921,2096921,177676,594693,0
2096921,2096921,177658,595099,0
2096921,2096921,177506,595049,0
2096921,2096921,177815,594915,0
2096921,2096921,177605,595212,0
2096921,2096921,177705,594854,0
2096921,2096921,177647,595062,0
2096921,2096921,177837,595125,0
2096921,2096921,177838,595299,0
2096921,2096921,178018,595325,0
2096921,2096921,177810,595339,0
2096921,2096921,177942,595512,0
2096921,2096921,178009,595617,0
2096921,2096921,178021,595679,0
2096921,2096921,178105,595665,0
2096921,2096921,178107,595356,0
2096921,2096921,177988,595639,0
2096921,2096921,178459,596032,0
2096921,2096921,178177,595891,0
2096921,2096921,178241,596254,0
2096921,2096921,178198,595948,0
2096921,2096921,178568,596275,0
2096921,2096921,178568,596086,0
2096921,2096921,178203,596499,0
2096921,2096921,178244,596222,0
2096921,2096921,178175,596254,0
2096921,2096921,178301,596425,0
2096921,2096921,178457,596693,0
2096921,2096921,178360,596747,0
2096921,2096921,178374,596920,0
2096921,2096921,178563,596842,0
2096921,2096921,178658,596946,0
2096921,2096921,178482,596781,0
2096921,2096921,178409,596613,0
2096921,2096921,178549,596609,0
2096921,2096921,178529,597133,0
2096921,2096921,178565,597482,0
2096921,2096921,178651,597469,0
2096921,2096921,178573,597452,0
2096921,2096921,178709,597104,0
2096921,2096921,178751,597342,0
2096921,2096921,178811,597577,0
2096921,2096921,178860,597752,0
2096921,2096921,178744,597592,0
2096921,2096921,178636,597759,0
2096921,2096921,179067,597498,0
2096921,2096921,179002,597790,0
2096921,2096921,179187,598070,0
2096921,2096921,178828,598060,0
2096921,2096921,178775,598376,0
2096921,2096921,179197,598335,0
2096921,2096921,178935,598608,0
2096921,2096921,179068,598554,0
2096921,2096921,179304,598496,0
2096921,2096921,178958,598265,0
2096921,2096921,179070,598194,0
2096921,2096921,179471,598428,0
2096921,2096921,179083,598403,0
2096921,2096921,179158,598485,0
2096921,2096921,179347,598673,0
2096921,2096921,179383,598462,0
2096921,2096921,179194,599016,0
2096921,2096921,179319,598699,0
2096921,2096921,179607,598727,0
2096921,2096921,179603,598596,0
2096921,2096921,179322,599176,0
2096921,2096921,179399,599157,0
2096921,2096921,179749,599303,0
2096921,2096921,179713,599194,0
2096921,2096921,179617,599209,0
2096921,2096921,179697,599349,0
2096921,2096921,179781,599674,0
2096921,2096921,179510,599685,0
2096921,2096921,179563,599528,0
2096921,2096921,179452,599475,0
2096921,2096921,179628,599542,0
2096921,2096921,179539,599812,0
2096921,2096921,179672,599613,0
2096921,2096921,179846,599705,0
2096921,2096921,179654,599672,0
2096921,2096921,179589,599739,0
2096921,2096921,179651,600093,0
2096921,2096921,179666,600161,0
2096921,2096921,179550,600238,0
2096921,2096921,179817,599918,0
2096921,2096921,179798,599943,0
2096921,2096921,179847,600278,0
2096921,2096921,179990,600295,0
2096921,2096921,180211,600471,0
2096921,2096921,180029,600282,0
2096921,2096921,180070,600876,0
2096921,2096921,179920,600575,0
2096921,2096921,179939,600693,0
2096921,2096921,179828,600672,0
2096921,2096921,179720,600573,0
2096921,2096921,179882,600546,0
2096921,2096921,180141,600976,0
2096921,2096921,180067,600942,0
2096921,2096921,180355,600848,0
2096921,2096921,180219,600895,0
2096921,2096921,180369,601040,0
2096921,2096921,180505,601362,0
2096921,2096921,179928,601161,0
2096921,2096921,180002,601531,0
2096921,2096921,180294,601334,0
2096921,2096921,180333,601543,0
2096921,2096921,180464,601480,0
2096921,2096921,180465,601477,0
2096921,2096921,180414,601751,0
2096921,2096921,180360,601711,0
2096921,2096921,180511,601492,0
2096921,2096921,180574,601829,0
2096921,2096921,180540,601820,0
2096921,2096921,180578,601847,0
2096921,2096921,180372,602058,0
2096921,2096921,180783,602141,0
2096921,2096921,180670,602287,0
2096921,2096921,180555,602148,0
2096921,2096921,180869,602204,0
2096921,2096921,180669,602319,0
2096921,2096921,180818,602415,0
2096921,2096921,180904,602571,0
2096921,2096921,180602,602541,0
2096921,2096921,180600,602739,0
2096921,2096921,180735,602446,0
2096921,2096921,180621,602572,0
2096921,2096921,180645,602560,0
2096921,2096921,180968,602755,0
2096921,2096921,180933,602911,0
2096921,2096921,181094,603082,0
2096921,2096921,180679,603018,0
2096921,2096921,181212,602898,0
2096921,2096921,181140,602760,0
2096921,2096921,181119,603177,0
2096921,2096921,180845,603232,0
2096921,2096921,181304,603303,0
2096921,2096921,181096,603544,0
2096921,2096921,180758,603864,0
2096921,2096921,180780,603871,0
2096921,2096921,180903,603590,0
2096921,2096921,181224,603805,0
2096921,2096921,181211,603631,0
2096921,2096921,181296,603867,0
2096921,2096921,181093,603795,0
2096921,2096921,181331,604008,0
2096921,2096921,181109,603820,0
2096921,2096921,181076,603955,0
2096921,2096921,181467,604179,0
2096921,2096921,181258,604168,0
2096921,2096921,181321,604238,0
2096921,2096921,181329,604265,0
2096921,2096921,181372,604397,0
2096921,2096921,181412,604219,0
2096921,2096921,181370,604350,0
2096921,2096921,181477,604456,0
2096921,2096921,181637,604412,0
2096921,2096921,181619,604291,0
2096921,2096921,181618,604629,0
2096921,2096921,181532,604764,0
2096921,2096921,181447,604633,0
2096921,2096921,181452,604701,0
2096921,2096921,181393,605083,0
2096921,2096921,181562,604657,0
2096921,2096921,181352,604619,0
2096921,2096921,181251,604787,0
2096921,2096921,181392,604839,0
2096921,2096921,181490,604844,0
2096921,2096921,181565,605022,0
2096921,2096921,181710,605070,0
2096921,2096921,181684,605201,0
2096921,2096921,181724,605196,0
2096921,2096921,181721,605362,0
2096921,2096921,181632,605541,0
2096921,2096921,181494,605437,0
2096921,2096921,181453,605227,0
2096921,2096921,181550,605248,0
2096921,2096921,181568,605485,0
2096921,2096921,181556,605643,0
2096921,2096921,181718,605738,0
2096921,2096921,181534,606008,0
2096921,2096921,181864,605884,0
2096921,2096921,181672,605863,0
2096921,2096921,182106,605903,0
2096921,2096921,181815,605811,0
2096921,2096921,181786,605712,0
2096921,2096921,181788,605676,0
2096921,2096921,181860,605856,0
2096921,2096921,181886,605626,0
2096921,2096921,181654,606012,0
2096921,2096921,181878,606217,0
2096921,2096921,181793,606309,0
2096921,2096921,181587,605961,0
2096921,2096921,181658,605802,0
2096921,2096921,181751,605689,0
2096921,2096921,181643,605991,0
2096921,2096921,181381,605788,0
2096921,2096921,181445,605937,0
2096921,2096921,181503,605852,0
2096921,2096921,181571,606278,0
2096921,2096921,181597,606101,0
2096921,2096921,181379,606148,0
2096921,2096921,181317,605332,0
2096921,2096921,181144,605367,0
2096921,2096921,181047,604672,0
2096921,2096921,181137,604930,0
2096921,2096921,180923,605080,0
2096921,2096921,180624,604111,0
2096921,2096921,180733,604169,0
2096921,2096921,181074,604012,0
2096921,2096921,180882,604220,0
2096921,2096921,180243,603995,0
2096921,2096921,180278,603247,0
2096921,2096921,180215,603091,0
2096921,2096921,180165,603037,0
2096921,2096921,179893,603065,0
2096921,2096921,178802,603022,0
2096921,2096921,178932,600919,0
2096921,2096921,179010,600517,0
2096921,2096921,178885,600284,0
2096921,2096921,178752,600418,0
2096921,2096921,178033,600503,0
2096921,2096921,177202,597767,0
2096921,2096921,177229,597337,0
2096921,2096921,177051,597012,0
2096921,2096921,177112,597070,0
2096921,2096921,176092,597013,0
2096921,2096921,175933,594845,0
2096921,2096921,176001,594685,0
2096921,2096921,176190,594774,0
2096921,2096921,176168,594761,0
2096921,2096921,175504,594642,0
2096921,2096921,175173,593318,0
2096921,2096921,175076,593011,0
2096921,2096921,174977,592971,0
2096921,2096921,175045,592996,0
2096921,2096921,174970,592962,0
2096921,2096921,174334,591979,0
2096921,2096921,174518,591670,0
2096921,2096921,174215,591708,0
2096921,2096921,174457,591153,0
2096921,2096921,174028,591689,0
2096921,2096921,173774,590804,0
2096921,2096921,173962,590969,0
2096921,2096921,174075,590908,0
2096921,2096921,173862,591023,0
2096921,2096921,173771,590677,0
2096921,2096921,173559,590474,0
2096921,2096921,173756,590204,0
2096921,2096921,173816,590287,0
2096921,2096921,173733,590352,0
2096921,2096921,173545,590593,0
2096921,2096921,173468,590072,0
2096921,2096921,173434,590300,0
2096921,2096921,173260,590076,0
2096921,2096921,173438,589994,0
2096921,2096921,173588,590262,0
2096921,2096921,173391,590362,0
2096921,2096921,173441,590235,0
2096921,2096921,173523,590428,0
2096921,2096921,173682,590316,0
2096921,2096921,173731,590154,0
2096921,2096921,173713,590507,0
2096921,2096921,173607,590628,0
2096921,2096921,173880,590442,0
2096921,2096921,173718,590741,0
2096921,2096921,173676,590658,0
2096921,2096921,173940,590783,0
2096921,2096921,173972,591363,0
2096921,2096921,173967,591423,0
2096921,2096921,173999,591000,0
2096921,2096921,174213,591049,0
2096921,2096921,173971,591704,0
2096921,2096921,173987,591824,0
2096921,2096921,173836,591668,0
2096921,2096921,174208,591552,0
2096921,2096921,174287,591657,0
2096921,2096921,174025,591972,0
2096921,2096921,174305,592094,0
2096921,2096921,174176,592358,0
2096921,2096921,174450,592345,0
2096921,2096921,174660,592259,0
2096921,2096921,174573,592861,0
2096921,2096921,174560,593033,0
2096921,2096921,174749,593024,0
2096921,2096921,174574,593086,0
2096921,2096921,175092,593009,0
2096921,2096921,174864,593733,0
2096921,2096921,174996,593906,0
2096921,2096921,175234,594002,0
2096921,2096921,175351,593776,0
2096921,2096921,175063,593770,0
2096921,2096921,175182,594474,0
2096921,2096921,175344,594545,0
2096921,2096921,175372,594450,0
2096921,2096921,175293,594636,0
2096921,2096921,175731,594515,0
2096921,2096921,175980,595621,0
2096921,2096921,176128,595614,0
2096921,2096921,176046,595714,0
2096921,2096921,175682,595438,0
2096921,2096921,175715,595657,0
2096921,2096921,176094,596341,0
2096921,2096921,176079,596601,0
2096921,2096921,175883,596513,0
2096921,2096921,175946,596421,0
2096921,2096921,176276,596326,0
2096921,2096921,176546,597116,0
2096921,2096921,176416,597303,0
2096921,2096921,176504,597294,0
2096921,2096921,176614,597138,0
2096921,2096921,177036,597489,0
2096921,2096921,177070,598215,0
2096921,2096921,177135,598571,0
2096921,2096921,176936,598746,0
2096921,2096921,176589,598390,0
2096921,2096921,176793,598118,0
2096921,2096921,177536,598861,0
2096921,2096921,177267,599060,0
2096921,2096921,177316,599061,0
2096921,2096921,177516,599406,0
2096921,2096921,177726,599303,0
2096921,2096921,177610,599994,0
2096921,2096921,177536,600091,0
2096921,2096921,177445,599702,0
2096921,2096921,177654,599823,0
2096921,2096921,177976,599936,0
2096921,2096921,178105,600829,0
2096921,2096921,178109,601222,0
2096921,2096921,178149,601458,0
2096921,2096921,178040,601492,0
2096921,2096921,178419,601240,0
2096921,2096921,178451,602053,0
2096921,2096921,178509,602188,0
2096921,2096921,178351,601983,0
2096921,2096921,178568,602004,0
2096921,2096921,178734,602253,0
2096921,2096921,178833,602559,0
2096921,2096921,178910,602695,0
2096921,2096921,178815,603058,0
2096921,2096921,178696,603283,0
2096921,2096921,179118,603204,0
2096921,2096921,179210,603891,0
2096921,2096921,179399,603825,0
2096921,2096921,179464,604082,0
2096921,2096921,179191,603812,0
2096921,2096921,179515,604019,0
2096921,2096921,179567,604479,0
2096921,2096921,179789,604689,0
2096921,2096921,179357,604600,0
2096921,2096921,179824,604903,0
2096921,2096921,179855,604943,0
2096921,2096921,179967,604839,0
2096921,2096921,179818,605218,0
2096921,2096921,179925,605458,0
2096921,2096921,179797,605128,0
2096921,2096921,179639,604939,0
2096921,2096921,179920,605710,0
2096921,2096921,179964,605735,0
2096921,2096921,180024,605959,0
2096921,2096921,180251,605800,0
2096921,2096921,180119,605978,0
2096921,2096921,180401,606310,0
2096921,2096921,180151,606117,0
2096921,2096921,180228,605925,0
2096921,2096921,180272,606014,0
2096921,2096921,180032,606514,0
2096921,2096921,180514,606725,0
2096921,2096921,180405,606782,0
2096921,2096921,180226,606659,0
2096921,2096921,180021,606665,0
2096921,2096921,180084,606479,0
2096921,2096921,180261,606901,0
2096921,2096921,180462,606839,0
2096921,2096921,180176,606879,0
2096921,2096921,180427,606772,0
2096921,2096921,180408,606749,0
2096921,2096921,180659,606908,0
2096921,2096921,180560,606942,0
2096921,2096921,180714,607103,0
2096921,2096921,180601,607167,0
2096921,2096921,180676,607478,0
2096921,2096921,180463,607381,0
2096921,2096921,180355,606892,0
2096921,2096921,180422,607090,0
2096921,2096921,180569,607041,0
2096921,2096921,180325,607138,0
2096921,2096921,180603,607463,0
2096921,2096921,180772,607234,0
2096921,2096921,180618,607210,0
2096921,2096921,180460,607243,0
2096921,2096921,180362,606936,0
2096921,2096921,180204,607242,0
2096921,2096921,180251,607272,0
2096921,2096921,180320,607283,0
2096921,2096921,180582,607286,0
2096921,2096921,180040,607257,0
2096921,2096921,180174,606840,0
2096921,2096921,180512,607464,0
2096921,2096921,180207,607359,0
2096921,2096921,180259,607210,0
2096921,2096921,180155,607323,0
2096921,2096921,180343,607533,0
2096921,2096921,180224,607467,0
2096921,2096921,180284,607532,0
2096921,2096921,180085,607131,0
2096921,2096921,180241,607319,0
2096921,2096921,180122,607622,0
2096921,2096921,180586,607639,0
2096921,2096921,180803,608143,0
2096921,2096921,180601,608018,0
2096921,2096921,180502,607774,0
2096921,2096921,180704,607899,0
2096921,2096921,180700,608249,0
2096921,2096921,180771,608247,0
2096921,2096921,180638,608389,0
2096921,2096921,180440,607895,0
2096921,2096921,180905,608553,0
2096921,2096921,180787,608505,0
2096921,2096921,180763,608437,0
2096921,2096921,180768,608480,0
2096921,2096921,180775,608627,0
2096921,2096921,180909,609128,0
2096921,2096921,180953,609124,0
2096921,2096921,180711,609082,0
2096921,2096921,180582,608632,0
2096921,2096921,181052,608764,0
2096921,2096921,181541,609538,0
2096921,2096921,181308,609630,0
2096921,2096921,181452,609691,0
2096921,2096921,181570,609824,0
2096921,2096921,181403,609656,0
2096921,2096921,181466,610103,0
2096921,2096921,181553,610416,0
2096921,2096921,181377,610627,0
2096921,2096921,181587,610357,0
2096921,2096921,181826,610047,0
2096921,2096921,182051,610795,0
2096921,2096921,181982,610842,0
2096921,2096921,181898,611165,0
2096921,2096921,181880,611642,0
2096921,2096921,182259,611274,0
2096921,2096921,182295,611898,0
2096921,2096921,182111,611936,0
2096921,2096921,182033,611759,0
2096921,2096921,182081,611839,0
2096921,2096921,182000,611728,0
2096921,2096921,182036,612164,0
2096921,2096921,182354,612464,0
2096921,2096921,182269,612561,0
2096921,2096921,182230,612511,0
2096921,2096921,182105,612305,0
2096921,2096921,182407,612518,0
2096921,2096921,182476,612769,0
2096921,2096921,182594,612708,0
2096921,2096921,182322,612956,0
2096921,2096921,182753,612838,0
2096921,2096921,182576,613249,0
2096921,2096921,182565,613108,0
2096921,2096921,182845,613466,0
2096921,2096921,182959,613356,0
2096921,2096921,183173,613437,0
2096921,2096921,183110,613853,0
2096921,2096921,182976,614001,0
2096921,2096921,183354,613983,0
2096921,2096921,183253,614175,0
2096921,2096921,183378,613852,0
2096921,2096921,183536,614115,0
2096921,2096921,183507,614449,0
2096921,2096921,183227,614594,0
2096921,2096921,183539,614628,0
2096921,2096921,183558,614837,0
2096921,2096921,183613,614731,0
2096921,2096921,183529,615127,0
2096921,2096921,183721,615054,0
2096921,2096921,183698,615555,0
2096921,2096921,183937,615224,0
2096921,2096921,183929,615793,0
2096921,2096921,183999,615963,0
2096921,2096921,184198,615747,0
2096921,2096921,183957,615997,0
2096921,2096921,184058,615832,0
2096921,2096921,184233,616147,0
2096921,2096921,184183,616360,0
2096921,2096921,183969,616150,0
2096921,2096921,184064,615966,0
2096921,2096921,184215,616379,0
2096921,2096921,184388,616610,0
2096921,2096921,184177,616590,0
2096921,2096921,184371,616570,0
2096921,2096921,184232,616793,0
2096921,2096921,184498,616340,0
2096921,2096921,184366,617140,0
2096921,2096921,184386,617103,0
2096921,2096921,184622,617302,0
2096921,2096921,184382,617241,0
2096921,2096921,184348,617484,0
2096921,2096921,184741,617633,0
2096921,2096921,184705,618018,0
2096921,2096921,184621,617668,0
2096921,2096921,184457,617862,0
2096921,2096921,184744,617626,0
2096921,2096921,184662,618081,0
2096921,2096921,184846,618238,0
2096921,2096921,184553,618212,0
2096921,2096921,184874,618104,0
2096921,2096921,184929,618119,0
2096921,2096921,185019,618687,0
2096921,2096921,185113,618663,0
2096921,2096921,185432,618780,0
2096921,2096921,185302,618679,0
2096921,2096921,185360,618593,0
2096921,2096921,185269,618878,0
2096921,2096921,185140,619287,0
2096921,2096921,185257,619276,0
2096921,2096921,185159,619168,0
2096921,2096921,185311,619150,0
2096921,2096921,185320,619251,0
2096921,2096921,185327,619532,0
2096921,2096921,185531,619385,0
2096921,2096921,185576,619456,0
2096921,2096921,185533,619426,0
2096921,2096921,185399,619831,0
2096921,2096921,185563,620092,0
2096921,2096921,185566,619854,0
2096921,2096921,185606,619797,0
2096921,2096921,185713,619892,0
2096921,2096921,185742,620235,0
2096921,2096921,185637,620350,0
2096921,2096921,185648,620227,0
2096921,2096921,185952,619974,0
2096921,2096921,185717,620450,0
2096921,2096921,185810,620689,0
2096921,2096921,185913,620724,0
2096921,2096921,185909,620523,0
2096921,2096921,185594,620286,0
2096921,2096921,185955,620584,0
2096921,2096921,186091,621037,0
2096921,2096921,186036,620870,0
2096921,2096921,186038,620877,0
2096921,2096921,185964,620777,0
2096921,2096921,186294,621011,0
2096921,2096921,186155,621286,0
2096921,2096921,186021,621369,0
2096921,2096921,186033,621350,0
2096921,2096921,186201,621136,0
2096921,2096921,186332,621255,0
2096921,2096921,186259,621497,0
2096921,2096921,186241,621385,0
2096921,2096921,186482,621745,0
2096921,2096921,186243,621833,0
2096921,2096921,186134,621597,0
2096921,2096921,186370,621869,0
2096921,2096921,186263,621852,0
2096921,2096921,186272,622017,0
2096921,2096921,186258,621862,0
2096921,2096921,186319,621942,0
2096921,2096921,186259,621879,0
2096921,2096921,186283,622255,0
2096921,2096921,186477,622132,0
2096921,2096921,186762,622105,0
2096921,2096921,186516,622143,0
2096921,2096921,186888,622023,0
2096921,2096921,186684,622221,0
2096921,2096921,186180,622245,0
2096921,2096921,186378,622226,0
2096921,2096921,186689,622400,0
2096921,2096921,186621,622591,0
2096921,2096921,186690,622723,0
2096921,2096921,186508,622663,0
2096921,2096921,186442,622469,0
2096921,2096921,186804,622405,0
2096921,2096921,186675,622766,0
2096921,2096921,186676,622703,0
2096921,2096921,186796,622616,0
2096921,2096921,186779,622876,0
2096921,2096921,186646,622648,0
2096921,2096921,186647,622841,0
2096921,2096921,186769,622733,0
2096921,2096921,186933,622753,0
2096921,2096921,186904,622836,0
2096921,2096921,186888,622900,0
2096921,2096921,186989,622849,0
2096921,2096921,186965,622991,0
2096921,2096921,186757,623048,0
2096921,2096921,186801,622949,0
2096921,2096921,186889,622835,0
2096921,2096921,186961,623012,0
2096921,2096921,186849,623184,0
2096921,2096921,186871,623093,0
2096921,2096921,186999,622875,0
2096921,2096921,187154,623064,0
2096921,2096921,187398,623060,0
2096921,2096921,187169,623280,0
2096921,2096921,186999,623414,0
2096921,2096921,187347,623284,0
2096921,2096921,187314,623134,0
2096921,2096921,186886,623413,0
2096921,2096921,187113,623242,0
2096921,2096921,186923,623461,0
2096921,2096921,186895,623526,0
2096921,2096921,186916,623592,0
2096921,2096921,187020,623722,0
2096921,2096921,187296,623539,0
2096921,2096921,186922,623525,0
2096921,2096921,187111,623145,0
2096921,2096921,186883,623547,0
2096921,2096921,187616,623596,0
2096921,2096921,187046,623575,0
2096921,2096921,187451,623692,0
2096921,2096921,187195,623784,0
2096921,2096921,187018,623970,0
2096921,2096921,187069,623694,0
2096921,2096921,187154,623659,0
2096921,2096921,187344,623670,0
2096921,2096921,187218,623450,0
2096921,2096921,187281,623842,0
2096921,2096921,187237,623744,0
2096921,2096921,187399,623594,0
2096921,2096921,187248,623739,0
2096921,2096921,187156,623842,0
2096921,2096921,187300,623715,0
2096921,2096921,187071,623918,0
2096921,2096921,187237,623717,0
2096921,2096921,187509,623850,0
2096921,2096921,187269,623968,0
2096921,2096921,187249,624047,0
2096921,2096921,187336,623993,0
2096921,2096921,187658,624084,0
2096921,2096921,187861,623869,0
2096921,2096921,187462,623981,0
2096921,2096921,187489,624147,0
2096921,2096921,187245,624282,0
2096921,2096921,187517,623640,0
2096921,2096921,187163,624061,0
2096921,2096921,187390,624046,0
2096921,2096921,187303,624095,0
2096921,2096921,187189,624266,0
2096921,2096921,187387,623966,0
2096921,2096921,187486,624200,0
2096921,2096921,187490,624193,0
2096921,2096921,187478,624389,0
2096921,2096921,187478,624106,0
2096921,2096921,187366,624334,0
2096921,2096921,187571,624205,0
2096921,2096921,187590,624369,0
2096921,2096921,187292,624343,0
2096921,2096921,187495,624046,0
2096921,2096921,187453,624139,0
2096921,2096921,187504,624171,0
2096921,2096921,187523,624259,0
2096921,2096921,187591,624091,0
2096921,2096921,187650,624191,0
2096921,2096921,187656,624191,0
2096921,2096921,187390,623907,0
2096921,2096921,187414,624382,0
2096921,2096921,187206,623816,0
2096921,2096921,187329,624114,0
2096921,2096921,187578,624291,0
2096921,2096921,187427,624211,0
2096921,2096921,187670,624552,0
2096921,2096921,187592,624270,0
2096921,2096921,187748,624368,0
2096921,2096921,187677,624235,0
2096921,2096921,187314,624134,0
2096921,2096921,187472,624163,0
2096921,2096921,187571,624565,0
2096921,2096921,187223,624465,0
2096921,2096921,187432,624243,0
2096921,2096921,187484,624089,0
2096921,2096921,187478,624341,0
2096921,2096921,187842,624140,0
2096921,2096921,187663,624321,0
2096921,2096921,187344,624258,0
2096921,2096921,187470,623973,0
2096921,2096921,187398,623907,0
2096921,2096921,187812,624321,0
2096921,2096921,187522,624414,0
2096921,2096921,187588,624254,0
2096921,2096921,187576,624289,0
2096921,2096921,187704,624297,0
2096921,2096921,187393,624278,0
2096921,2096921,187444,624291,0
2096921,2096921,187394,624449,0
2096921,2096921,187596,624308,0
2096921,2096921,187323,624152,0
2096921,2096921,187561,624243,0
2096921,2096921,187598,624431,0
2096921,2096921,187445,624478,0
2096921,2096921,187457,624735,0
2096921,2096921,187837,624417,0
2096921,2096921,187646,624028,0
2096921,2096921,187288,623408,0
2096921,2096921,187213,623466,0
2096921,2096921,187251,623351,0
2096921,2096921,187190,623426,0
2096921,2096921,187139,623781,0
2096921,2096921,186824,623065,0
2096921,2096921,186950,623355,0
2096921,2096921,186844,623226,0
2096921,2096921,187079,623229,0
2096921,2096921,187018,623027,0
2096921,2096921,186529,622472,0
2096921,2096921,186385,622075,0
2096921,2096921,186285,622076,0
2096921,2096921,186340,622139,0
2096921,2096921,186010,621988,0
2096921,2096921,186052,621173,0
2096921,2096921,185786,620798,0
2096921,2096921,186081,621026,0
2096921,2096921,186097,621181,0
2096921,2096921,185484,621043,0
2096921,2096921,185352,619727,0
2096921,2096921,185352,619326,0
2096921,2096921,185089,619704,0
2096921,2096921,185101,619415,0
2096921,2096921,184138,619437,0
2096921,2096921,183975,616981,0
2096921,2096921,183872,616456,0
2096921,2096921,183848,616458,0
2096921,2096921,183989,616405,0
2096921,2096921,182799,616154,0
2096921,2096921,182074,613393,0
2096921,2096921,181978,612968,0
2096921,2096921,182010,612825,0
2096921,2096921,181842,612701,0
2096921,2096921,181348,612672,0
2096921,2096921,180807,610202,0
2096921,2096921,180701,609978,0
2096921,2096921,180585,610032,0
2096921,2096921,180620,610106,0
2096921,2096921,179710,610061,0
2096921,2096921,179930,608404,0
2096921,2096921,179613,607734,0
2096921,2096921,179763,607812,0
2096921,2096921,179531,607851,0
2096921,2096921,179120,607693,0
2096921,2096921,178548,606530,0
2096921,2096921,178974,606258,0
2096921,2096921,179084,606303,0
2096921,2096921,178945,606233,0
2096921,2096921,178443,606496,0
2096921,2096921,178497,605693,0
2096921,2096921,178485,605385,0
2096921,2096921,178528,605505,0
2096921,2096921,177920,605307,0
2096921,2096921,177829,605202,0
2096921,2096921,177883,604715,0
2096921,2096921,177941,604279,0
2096921,2096921,177969,604092,0
2096921,2096921,178001,604276,0
2096921,2096921,177798,604169,0
2096921,2096921,177888,603769,0
2096921,2096921,177622,603549,0
2096921,2096921,177822,603717,0
2096921,2096921,178055,603371,0
2096921,2096921,177647,603629,0
2096921,2096921,177660,603420,0
2096921,2096921,177599,603391,0
2096921,2096921,177777,603688,0
2096921,2096921,177718,603461,0
2096921,2096921,177769,603585,0
2096921,2096921,177283,603463,0
2096921,2096921,177668,603560,0
2096921,2096921,177012,603803,0
2096921,2096921,177455,603742,0
2096921,2096921,177506,603558,0
2096921,2096921,177650,603854,0
2096921,2096921,177482,603785,0
2096921,2096921,177693,603811,0
2096921,2096921,177633,604103,0
2096921,2096921,177917,603915,0
2096921,2096921,177917,603879,0
2096921,2096921,177901,603885,0
2096921,2096921,177931,603839,0
2096921,2096921,177913,603650,0
2096921,2096921,177931,603962,0
2096921,2096921,178105,603876,0
2096921,2096921,177939,603913,0
2096921,2096921,177895,604128,0
2096921,2096921,177728,604168,0
2096921,2096921,178207,604109,0
2096921,2096921,178002,604660,0
2096921,2096921,178082,604308,0
2096921,2096921,178326,604160,0
2096921,2096921,178005,604324,0
2096921,2096921,178234,604248,0
2096921,2096921,178236,604532,0
2096921,2096921,178381,605061,0
2096921,2096921,178440,604954,0
2096921,2096921,178447,604892,0
2096921,2096921,178787,604889,0
2096921,2096921,178700,605466,0
2096921,2096921,178539,605406,0
2096921,2096921,178618,605629,0
2096921,2096921,178710,605357,0
2096921,2096921,178993,605659,0
2096921,2096921,178648,605919,0
2096921,2096921,178809,606012,0
2096921,2096921,179243,606210,0
2096921,2096921,179108,606055,0
2096921,2096921,179170,605811,0
2096921,2096921,179102,606404,0
2096921,2096921,179283,606632,0
2096921,2096921,179136,606711,0
2096921,2096921,178873,606692,0
2096921,2096921,179362,606749,0
2096921,2096921,179613,606883,0
2096921,2096921,179370,606828,0
2096921,2096921,179710,607134,0
2096921,2096921,179777,607551,0
2096921,2096921,179771,607445,0
2096921,2096921,179608,607830,0
2096921,2096921,179761,607465,0
2096921,2096921,179591,607401,0
2096921,2096921,179766,607425,0
2096921,2096921,179937,607667,0
2096921,2096921,179943,607794,0
2096921,2096921,180070,608084,0
2096921,2096921,180304,608040,0
2096921,2096921,180031,608058,0
2096921,2096921,180070,608231,0
2096921,2096921,180136,608369,0
2096921,2096921,180147,608552,0
2096921,2096921,180274,608465,0
2096921,2096921,180273,608397,0
2096921,2096921,180498,608611,0
2096921,2096921,180668,609033,0
2096921,2096921,180712,608962,0
2096921,2096921,180772,609267,0
2096921,2096921,180382,609450,0
2096921,2096921,180701,609220,0
2096921,2096921,180819,609575,0
2096921,2096921,180940,609635,0
2096921,2096921,180755,609763,0
2096921,2096921,180709,609473,0
2096921,2096921,181006,609689,0
2096921,2096921,181149,609913,0
2096921,2096921,181200,610054,0
2096921,2096921,181050,609918,0
2096921,2096921,181381,609840,0
2096921,2096921,181295,610302,0
2096921,2096921,181191,610434,0
2096921,2096921,181408,610571,0
2096921,2096921,181109,610532,0
2096921,2096921,180836,610536,0
2096921,2096921,181642,610566,0
2096921,2096921,181328,610860,0
2096921,2096921,181344,610849,0
2096921,2096921,181489,611038,0
2096921,2096921,181604,610805,0
2096921,2096921,181589,611008,0
2096921,2096921,181719,610911,0
2096921,2096921,181523,610711,0
2096921,2096921,181515,610898,0
2096921,2096921,181833,610927,0
2096921,2096921,181481,611127,0
2096921,2096921,181389,611220,0
2096921,2096921,181711,611062,0
2096921,2096921,181600,611200,0
2096921,2096921,181733,611022,0
2096921,2096921,181676,611146,0
2096921,2096921,181620,611352,0
2096921,2096921,181783,611081,0
2096921,2096921,181518,611113,0
2096921,2096921,181535,611222,0
2096921,2096921,181452,611096,0
2096921,2096921,181824,610939,0
2096921,2096921,181550,611015,0
2096921,2096921,181493,610862,0
2096921,2096921,181455,611033,0
2096921,2096921,181704,610710,0
2096921,2096921,181159,610688,0
2096921,2096921,181453,610368,0
2096921,2096921,181358,610583,0
2096921,2096921,181419,610901,0
2096921,2096921,181220,611079,0
2096921,2096921,181246,610486,0
2096921,2096921,181430,610384,0
2096921,2096921,181408,610447,0
2096921,2096921,181566,610480,0
2096921,2096921,181465,610297,0
2096921,2096921,181318,610252,0
2096921,2096921,181144,609780,0
2096921,2096921,181138,609605,0
2096921,2096921,181263,609738,0
2096921,2096921,181287,609822,0
2096921,2096921,181333,609126,0
2096921,2096921,181037,609665,0
2096921,2096921,181232,609394,0
2096921,2096921,181150,609497,0
2096921,2096921,181159,609489,0
2096921,2096921,181258,608779,0
2096921,2096921,180955,608833,0
2096921,2096921,180961,608927,0
2096921,2096921,180848,608914,0
2096921,2096921,180728,608634,0
2096921,2096921,180524,608704,0
2096921,2096921,180840,608691,0
2096921,2096921,180931,608484,0
2096921,2096921,180888,608803,0
2096921,2096921,180798,608554,0
2096921,2096921,180714,608523,0
2096921,2096921,180748,608384,0
2096921,2096921,180684,608290,0
2096921,2096921,180845,607879,0
2096921,2096921,180364,608392,0
2096921,2096921,180330,607997,0
2096921,2096921,180510,608099,0
2096921,2096921,180579,608166,0
2096921,2096921,180783,608111,0
2096921,2096921,180376,608204,0
2096921,2096921,180544,607939,0
2096921,2096921,180667,607902,0
2096921,2096921,180377,607843,0
2096921,2096921,180463,607839,0
2096921,2096921,180239,607470,0
2096921,2096921,180428,607501,0
2096921,2096921,180446,607896,0
2096921,2096921,180695,607933,0
2096921,2096921,180666,607766,0
2096921,2096921,180786,607737,0
2096921,2096921,180549,607946,0
2096921,2096921,180547,607569,0
2096921,2096921,180330,607747,0
2096921,2096921,180485,607701,0
2096921,2096921,180410,607664,0
2096921,2096921,180702,607524,0
2096921,2096921,180599,607857,0
2096921,2096921,180684,608130,0
2096921,2096921,180658,607943,0
2096921,2096921,180915,607838,0
2096921,2096921,180819,607824,0
2096921,2096921,180787,608228,0
2096921,2096921,180764,608138,0
2096921,2096921,180637,607733,0
2096921,2096921,181069,608288,0
2096921,2096921,181269,608444,0
2096921,2096921,181087,608269,0
2096921,2096921,181184,608222,0
2096921,2096921,181233,608184,0
2096921,2096921,181193,608650,0
2096921,2096921,180874,608724,0
2096921,2096921,181195,608427,0
2096921,2096921,181218,608484,0
2096921,2096921,180801,608323,0
2096921,2096921,181084,608264,0
2096921,2096921,181121,608495,0
2096921,2096921,181025,608766,0
2096921,2096921,181410,608672,0
2096921,2096921,181387,608689,0
2096921,2096921,181380,608671,0
2096921,2096921,181404,608605,0
2096921,2096921,181057,608399,0
2096921,2096921,181131,608621,0
2096921,2096921,181330,608762,0
2096921,2096921,181256,608684,0
2096921,2096921,181108,608782,0
2096921,2096921,181557,608646,0
2096921,2096921,181702,608731,0
2096921,2096921,181464,608883,0
2096921,2096921,181668,608813,0
2096921,2096921,181701,608900,0
2096921,2096921,181461,609071,0
2096921,2096921,181538,608719,0
2096921,2096921,181394,608576,0
2096921,2096921,181532,608660,0
2096921,2096921,181568,608683,0
2096921,2096921,181187,608768,0
2096921,2096921,181575,609273,0
2096921,2096921,181850,609278,0
2096921,2096921,181409,609186,0
2096921,2096921,181552,608955,0
2096921,2096921,181726,609040,0
2096921,2096921,181614,609037,0
2096921,2096921,181469,608966,0
2096921,2096921,181535,609033,0
2096921,2096921,181979,609075,0
2096921,2096921,181844,608809,0
2096921,2096921,181800,608946,0
2096921,2096921,181729,609055,0
2096921,2096921,182184,609029,0
2096921,2096921,182002,608972,0
2096921,2096921,181756,608927,0
2096921,2096921,181797,608950,0
2096921,2096921,181841,609068,0
2096921,2096921,181883,609203,0
2096921,2096921,181586,609122,0
2096921,2096921,181907,609019,0
2096921,2096921,181938,609191,0
2096921,2096921,182057,609326,0
2096921,2096921,181939,608958,0
2096921,2096921,182177,609230,0
2096921,2096921,181733,609367,0
2096921,2096921,181645,609182,0
2096921,2096921,181879,609033,0
2096921,2096921,182002,609057,0
2096921,2096921,182160,609065,0
2096921,2096921,181963,609327,0
2096921,2096921,182116,609301,0
2096921,2096921,181982,609481,0
2096921,2096921,181670,609263,0
2096921,2096921,182106,609166,0
2096921,2096921,182167,609244,0
2096921,2096921,182063,609141,0
2096921,2096921,181946,609071,0
2096921,2096921,182389,609263,0
2096921,2096921,182271,609331,0
2096921,2096921,182392,609476,0
2096921,2096921,182057,609354,0
2096921,2096921,182231,609428,0
2096921,2096921,182295,609424,0
2096921,2096921,182137,609440,0
2096921,2096921,182319,609340,0
2096921,2096921,182125,609172,0
2096921,2096921,181752,609425,0
2096921,2096921,181972,609268,0
2096921,2096921,182297,609011,0
2096921,2096921,182389,609236,0
2096921,2096921,182115,609254,0
2096921,2096921,182121,609217,0
2096921,2096921,182356,609626,0
2096921,2096921,182359,609136,0
2096921,2096921,182417,609021,0
2096921,2096921,182223,609029,0
2096921,2096921,182114,609169,0
2096921,2096921,182510,608923,0
2096921,2096921,182471,608986,0
2096921,2096921,182246,609004,0
2096921,2096921,182405,608912,0
2096921,2096921,182118,609238,0
2096921,2096921,182222,608845,0
2096921,2096921,182202,608732,0
2096921,2096921,182427,609026,0
2096921,2096921,182440,608911,0
2096921,2096921,182449,609216,0
2096921,2096921,182440,609421,0
2096921,2096921,182657,608978,0
2096921,2096921,182052,608878,0
2096921,2096921,182478,609090,0
2096921,2096921,182187,608911,0
2096921,2096921,182412,608799,0
2096921,2096921,182348,609161,0
2096921,2096921,182374,608609,0
2096921,2096921,182066,608700,0
2096921,2096921,182162,608943,0
2096921,2096921,182351,608770,0
2096921,2096921,182383,608711,0
2096921,2096921,182444,608893,0
2096921,2096921,182364,608600,0
2096921,2096921,182267,608836,0
2096921,2096921,182292,608722,0
2096921,2096921,182220,608837,0
2096921,2096921,182061,608456,0
2096921,2096921,182219,608640,0
2096921,2096921,182417,608302,0
2096921,2096921,182424,608510,0
2096921,2096921,182137,608717,0
2096921,2096921,182589,608569,0
2096921,2096921,182261,608333,0
2096921,2096921,182406,608538,0
2096921,2096921,182119,608385,0
2096921,2096921,182272,608153,0
2096921,2096921,181956,608218,0
2096921,2096921,182156,608300,0
2096921,2096921,182258,608173,0
2096921,2096921,182389,608224,0
2096921,2096921,182293,608219,0
2096921,2096921,182420,608012,0
2096921,2096921,182298,608292,0
2096921,2096921,182326,608145,0
2096921,2096921,182416,608037,0
2096921,2096921,182302,607951,0
2096921,2096921,182230,607810,0
2096921,2096921,182059,607916,0
2096921,2096921,181872,607789,0
2096921,2096921,182074,607631,0
2096921,2096921,182086,607786,0
2096921,2096921,182169,607906,0
2096921,2096921,182219,607791,0
2096921,2096921,182156,607654,0
2096921,2096921,182439,607915,0
2096921,2096921,182451,607803,0
2096921,2096921,182180,607448,0
2096921,2096921,182309,607575,0
2096921,2096921,182279,607548,0
2096921,2096921,181971,607493,0
2096921,2096921,182413,607190,0
2096921,2096921,182441,607350,0
2096921,2096921,182344,607841,0
2096921,2096921,182152,607733,0
2096921,2096921,182053,607704,0
2096921,2096921,182061,607610,0
2096921,2096921,181959,607166,0
2096921,2096921,181789,606871,0
2096921,2096921,182121,607182,0
2096921,2096921,181998,607275,0
2096921,2096921,182036,607139,0
2096921,2096921,182073,607030,0
2096921,2096921,182053,607221,0
2096921,2096921,182035,606899,0
2096921,2096921,182086,607280,0
2096921,2096921,182214,607051,0
2096921,2096921,182228,606782,0
2096921,2096921,181818,606694,0
2096921,2096921,181854,606884,0
2096921,2096921,182097,606646,0
2096921,2096921,181855,606718,0
2096921,2096921,182084,606815,0
2096921,2096921,182097,606661,0
2096921,2096921,182061,607138,0
2096921,2096921,181870,606853,0
2096921,2096921,181872,606465,0
2096921,2096921,181960,606439,0
2096921,2096921,181787,606534,0
2096921,2096921,181856,606164,0
2096921,2096921,182074,606470,0
2096921,2096921,182125,606374,0
2096921,2096921,182213,606443,0
2096921,2096921,181954,606403,0
2096921,2096921,182101,606466,0
2096921,2096921,182302,606140,0
2096921,2096921,182145,606734,0
2096921,2096921,181905,606231,0
2096921,2096921,181874,606535,0
2096921,2096921,181858,606524,0
2096921,2096921,181777,606183,0
2096921,2096921,181881,606038,0
2096921,2096921,181781,606226,0
2096921,2096921,181839,606313,0
2096921,2096921,181910,606199,0
2096921,2096921,182155,606392,0
2096921,2096921,181928,606150,0
2096921,2096921,182026,606303,0
2096921,2096921,181627,606303,0
2096921,2096921,181855,605989,0
2096921,2096921,181806,606046,0
2096921,2096921,181832,605984,0
2096921,2096921,181826,605914,0
2096921,2096921,181832,605856,0
2096921,2096921,181795,606013,0
2096921,2096921,181554,605950,0
2096921,2096921,181779,605657,0
2096921,2096921,181620,605586,0
2096921,2096921,181308,605747,0
2096921,2096921,181522,605535,0
2096921,2096921,181702,605579,0
2096921,2096921,181625,605299,0
2096921,2096921,181522,605450,0
2096921,2096921,181886,605254,0
2096921,2096921,181734,605450,0
2096921,2096921,181870,605335,0
2096921,2096921,181577,605149,0
2096921,2096921,181478,605133,0
2096921,2096921,181447,605207,0
2096921,2096921,181507,605081,0
2096921,2096921,181222,604914,0
2096921,2096921,181238,605008,0
2096921,2096921,181585,605156,0
2096921,2096921,181433,604820,0
2096921,2096921,181406,605030,0
2096921,2096921,181345,604879,0
2096921,2096921,181209,604724,0
2096921,2096921,181444,604606,0
2096921,2096921,181241,604664,0
2096921,2096921,181499,604535,0
2096921,2096921,181565,604890,0
2096921,2096921,181278,604496,0
2096921,2096921,181457,604499,0
2096921,2096921,181287,604516,0
2096921,2096921,181488,604366,0
2096921,2096921,181423,604282,0
2096921,2096921,181454,604221,0
2096921,2096921,181349,604149,0
2096921,2096921,181084,603901,0
2096921,2096921,181190,603946,0
2096921,2096921,181119,603948,0
2096921,2096921,181001,603891,0
2096921,2096921,181238,603852,0
2096921,2096921,181031,603524,0
2096921,2096921,181092,603865,0
2096921,2096921,181105,603750,0
2096921,2096921,181090,603667,0
2096921,2096921,181104,603509,0
2096921,2096921,180993,603711,0
2096921,2096921,181076,603410,0
2096921,2096921,180893,603494,0
2096921,2096921,181208,603685,0
2096921,2096921,181277,603457,0
2096921,2096921,180774,603331,0
2096921,2096921,181078,603443,0
2096921,2096921,180889,603535,0
2096921,2096921,180599,602517,0
2096921,2096921,180418,602577,0
2096921,2096921,180294,602342,0
2096921,2096921,180543,602085,0
2096921,2096921,180310,602221,0
2096921,2096921,180395,601808,0
2096921,2096921,180251,601591,0
2096921,2096921,180579,601821,0
2096921,2096921,180481,601811,0
2096921,2096921,179878,601805,0
2096921,2096921,179865,600758,0
2096921,2096921,179999,600653,0
2096921,2096921,179915,600248,0
2096921,2096921,179549,600868,0
2096921,2096921,179040,600613,0
2096921,2096921,178978,599334,0
2096921,2096921,179197,599154,0
2096921,2096921,179372,598966,0
2096921,2096921,179212,599260,0
2096921,2096921,178599,599257,0
2096921,2096921,178350,597911,0
2096921,2096921,178311,597533,0
2096921,2096921,178212,597734,0
2096921,2096921,178338,597694,0
2096921,2096921,177071,597533,0
2096921,2096921,177256,594969,0
2096921,2096921,177339,594549,0
2096921,2096921,177071,594544,0
2096921,2096921,177119,594744,0
2096921,2096921,175805,594620,0
2096921,2096921,175317,591802,0
2096921,2096921,175226,591107,0
2096921,2096921,175074,590763,0
2096921,2096921,175061,590760,0
2096921,2096921,174025,590891,0
2096921,2096921,173777,588426,0
2096921,2096921,173914,587717,0
2096921,2096921,173996,587749,0
2096921,2096921,173858,587766,0
2096921,2096921,173031,587808,0
2096921,2096921,172881,586012,0
2096921,2096921,172794,585503,0
2096921,2096921,172729,585450,0
2096921,2096921,172611,585493,0
2096921,2096921,172431,585425,0
2096921,2096921,172116,584360,0
2096921,2096921,172175,584271,0
2096921,2096921,171891,584047,0
2096921,2096921,172156,583684,0
2096921,2096921,171658,584189,0
2096921,2096921,171682,583047,0
2096921,2096921,171585,583010,0
2096921,2096921,171384,582650,0
2096921,2096921,171486,582821,0
2096921,2096921,171264,582795,0
2096921,2096921,171085,582019,0
2096921,2096921,171384,581687,0
2096921,2096921,171271,581946,0
2096921,2096921,170905,582173,0
2096921,2096921,171217,581895,0
2096921,2096921,170649,581383,0
2096921,2096921,170714,581444,0
2096921,2096921,170817,581392,0
2096921,2096921,170735,581219,0
2096921,2096921,170848,581316,0
2096921,2096921,170663,581256,0
2096921,2096921,170544,581093,0
2096921,2096921,170842,581381,0
2096921,2096921,170893,580987,0
2096921,2096921,170820,581235,0
2096921,2096921,170605,581058,0
2096921,2096921,170612,581042,0
2096921,2096921,170778,581034,0
2096921,2096921,170598,580765,0
2096921,2096921,170800,581153,0
2096921,2096921,170646,580909,0
2096921,2096921,170833,580984,0
2096921,2096921,170510,580822,0
2096921,2096921,170829,581048,0
2096921,2096921,171018,580930,0
2096921,2096921,170698,580989,0
2096921,2096921,170992,580826,0
2096921,2096921,170890,580974,0
2096921,2096921,170898,580947,0
2096921,2096921,170920,581040,0
2096921,2096921,170927,581119,0
2096921,2096921,170477,580940,0
2096921,2096921,170704,580909,0
2096921,2096921,170992,581127,0
2096921,2096921,170864,581226,0
2096921,2096921,170892,581383,0
2096921,2096921,170929,581448,0
2096921,2096921,171119,581647,0
2096921,2096921,170902,581472,0
2096921,2096921,171232,581578,0
2096921,2096921,171522,581670,0
2096921,2096921,171230,582036,0
2096921,2096921,171402,582089,0
2096921,2096921,171501,582347,0
2096921,2096921,171749,581918,0
2096921,2096921,171476,582179,0
2096921,2096921,171575,582524,0
2096921,2096921,171625,582790,0
2096921,2096921,171586,582549,0
2096921,2096921,171934,582498,0
2096921,2096921,171794,583184,0
2096921,2096921,172008,582822,0
2096921,2096921,172454,583136,0
2096921,2096921,172051,583346,0
2096921,2096921,172196,583316,0
2096921,2096921,172016,583688,0
2096921,2096921,172222,583807,0
2096921,2096921,172171,583652,0
2096921,2096921,172543,583630,0
2096921,2096921,172231,583540,0
2096921,2096921,172413,584146,0
2096921,2096921,172340,583883,0
2096921,2096921,172645,584118,0
2096921,2096921,172724,584312,0
2096921,2096921,172658,584229,0
2096921,2096921,172624,584617,0
2096921,2096921,172488,584592,0
2096921,2096921,172324,584702,0
2096921,2096921,172633,584706,0
2096921,2096921,172887,584638,0
2096921,2096921,173141,585131,0
2096921,2096921,173272,585292,0
2096921,2096921,173258,585428,0
2096921,2096921,173105,585421,0
2096921,2096921,173050,585367,0
2096921,2096921,173443,585760,0
2096921,2096921,173069,585649,0
2096921,2096921,173259,585954,0
2096921,2096921,173077,585854,0
2096921,2096921,173304,585893,0
2096921,2096921,173521,586251,0
2096921,2096921,173434,586508,0
2096921,2096921,173770,586306,0
2096921,2096921,173470,586487,0
2096921,2096921,173839,586424,0
2096921,2096921,173852,587133,0
2096921,2096921,173733,587172,0
2096921,2096921,174068,587202,0
2096921,2096921,173908,586847,0
2096921,2096921,174139,587031,0
2096921,2096921,174222,587591,0
2096921,2096921,174146,587702,0
2096921,2096921,174357,587788,0
2096921,2096921,174447,587809,0
2096921,2096921,174111,587522,0
2096921,2096921,174662,588044,0
2096921,2096921,174389,588004,0
2096921,2096921,174423,587960,0
2096921,2096921,174170,588226,0
2096921,2096921,174648,588285,0
2096921,2096921,174916,588565,0
2096921,2096921,174878,588606,0
2096921,2096921,174610,588919,0
2096921,2096921,174612,588734,0
2096921,2096921,174786,588567,0
2096921,2096921,174703,588698,0
2096921,2096921,174743,589082,0
2096921,2096921,174620,588855,0
2096921,2096921,175055,588818,0
2096921,2096921,174912,588876,0
2096921,2096921,174886,589057,0
2096921,2096921,174544,589137,0
2096921,2096921,175085,589509,0
2096921,2096921,174676,589438,0
2096921,2096921,174669,589245,0
2096921,2096921,174944,589379,0
2096921,2096921,175075,589587,0
2096921,2096921,174964,589791,0
2096921,2096921,175068,589376,0
2096921,2096921,174989,589127,0
2096921,2096921,175143,589254,0
2096921,2096921,174955,589546,0
2096921,2096921,174904,589652,0
2096921,2096921,175243,589498,0
2096921,2096921,175097,589574,0
2096921,2096921,175125,589476,0
2096921,2096921,174925,589410,0
2096921,2096921,174892,589607,0
2096921,2096921,174976,589295,0
2096921,2096921,174916,589267,0
2096921,2096921,175081,589410,0
2096921,2096921,174831,589494,0
2096921,2096921,174931,589024,0
2096921,2096921,175080,589500,0
2096921,2096921,174794,589246,0
2096921,2096921,174994,589025,0
2096921,2096921,174942,588935,0
2096921,2096921,174574,589140,0
2096921,2096921,174768,588985,0
2096921,2096921,174742,589260,0
2096921,2096921,174836,588841,0
2096921,2096921,174696,588699,0
2096921,2096921,174891,588651,0
2096921,2096921,174852,588770,0
2096921,2096921,174825,588785,0
2096921,2096921,174459,588756,0
2096921,2096921,174685,588509,0
2096921,2096921,174639,588488,0
2096921,2096921,174596,588588,0
2096921,2096921,174664,588630,0
2096921,2096921,174403,588375,0
2096921,2096921,174598,588593,0
2096921,2096921,174358,588526,0
2096921,2096921,174627,588362,0
2096921,2096921,174748,588624,0
2096921,2096921,174683,588402,0
2096921,2096921,174762,588293,0
2096921,2096921,174721,588213,0
2096921,2096921,174491,588509,0
2096921,2096921,174415,588400,0
2096921,2096921,174381,588387,0
2096921,2096921,174437,588556,0
2096921,2096921,174573,588675,0
2096921,2096921,174749,588468,0
2096921,2096921,174773,588404,0
2096921,2096921,174625,588540,0
2096921,2096921,174665,588424,0
2096921,2096921,174502,588568,0
2096921,2096921,174654,588477,0
2096921,2096921,174846,588452,0
2096921,2096921,175040,588711,0
2096921,2096921,174571,588790,0
2096921,2096921,174814,588846,0
2096921,2096921,174964,589097,0
2096921,2096921,174630,588924,0
2096921,2096921,174665,588782,0
2096921,2096921,174766,588891,0
2096921,2096921,174636,588925,0
2096921,2096921,174801,589003,0
2096921,2096921,174931,588831,0
2096921,2096921,174926,589292,0
2096921,2096921,174834,589378,0
2096921,2096921,175202,589330,0
2096921,2096921,175031,589358,0
2096921,2096921,175082,589488,0
2096921,2096921,175068,590005,0
2096921,2096921,175005,589760,0
2096921,2096921,175116,589807,0
2096921,2096921,175501,589675,0
2096921,2096921,175319,590157,0
2096921,2096921,175283,590201,0
2096921,2096921,175188,590130,0
2096921,2096921,175515,590433,0
2096921,2096921,175477,590185,0
2096921,2096921,175504,590036,0
2096921,2096921,175860,590813,0
2096921,2096921,175852,590567,0
2096921,2096921,175654,590591,0
2096921,2096921,175567,590618,0
2096921,2096921,175739,590564,0
2096921,2096921,175607,591002,0
2096921,2096921,175855,591066,0
2096921,2096921,175750,591105,0
2096921,2096921,175901,590927,0
2096921,2096921,175917,591113,0
2096921,2096921,175942,591321,0
2096921,2096921,175834,591350,0
2096921,2096921,175885,591543,0
2096921,2096921,176039,591403,0
2096921,2096921,176013,591185,0
2096921,2096921,176094,591524,0
2096921,2096921,176292,591888,0
2096921,2096921,176055,592121,0
2096921,2096921,175966,592030,0
2096921,2096921,176250,591591,0
2096921,2096921,176386,591800,0
2096921,2096921,176313,592286,0
2096921,2096921,176042,591759,0
2096921,2096921,176006,592178,0
2096921,2096921,176637,592203,0
2096921,2096921,176565,592558,0
2096921,2096921,176310,592534,0
2096921,2096921,176531,592693,0
2096921,2096921,176777,592652,0
2096921,2096921,176644,592751,0
2096921,2096921,176430,593067,0
2096921,2096921,176776,592486,0
2096921,2096921,176784,592833,0
2096921,2096921,176836,592605,0
2096921,2096921,176828,592738,0
2096921,2096921,177009,593114,0
2096921,2096921,177070,593375,0
2096921,2096921,176850,593149,0
2096921,2096921,176836,593090,0
2096921,2096921,176995,593286,0
2096921,2096921,176750,593545,0
2096921,2096921,176721,593580,0
2096921,2096921,176658,593384,0
2096921,2096921,176862,593667,0
2096921,2096921,176929,593582,0
2096921,2096921,176865,593772,0
2096921,2096921,177317,593982,0
2096921,2096921,177286,593715,0
2096921,2096921,177391,594030,0
2096921,2096921,177145,593954,0
2096921,2096921,177266,594295,0
2096921,2096921,177390,594414,0
2096921,2096921,177027,594248,0
2096921,2096921,176986,594257,0
2096921,2096921,177518,594226,0
2096921,2096921,177579,594345,0
2096921,2096921,177422,594481,0
2096921,2096921,177640,594326,0
2096921,2096921,177611,594570,0
2096921,2096921,177476,594959,0
2096921,2096921,177679,594889,0
2096921,2096921,177559,594950,0
2096921,2096921,177844,594993,0
2096921,2096921,177536,594971,0
2096921,2096921,177695,594888,0
2096921,2096921,177769,595089,0
2096921,2096921,177953,595437,0
2096921,2096921,177688,595302,0
2096921,2096921,177827,595469,0
2096921,2096921,177925,595830,0
2096921,2096921,178056,595639,0
2096921,2096921,177684,595647,0
2096921,2096921,178069,595367,0
2096921,2096921,178081,595502,0
2096921,2096921,178045,595699,0
2096921,2096921,178002,596109,0
2096921,2096921,177910,595747,0
2096921,2096921,178163,595863,0
2096921,2096921,178272,595937,0
2096921,2096921,178054,595789,0
2096921,2096921,178176,596288,0
2096921,2096921,178175,596085,0
2096921,2096921,178056,596184,0
2096921,2096921,177961,596154,0
2096921,2096921,178121,596338,0
2096921,2096921,178374,596342,0
2096921,2096921,178518,596382,0
2096921,2096921,178630,596525,0
2096921,2096921,178420,596579,0
2096921,2096921,178577,596564,0
2096921,2096921,178548,596906,0
2096921,2096921,178561,596769,0
2096921,2096921,178448,596615,0
2096921,2096921,178346,596846,0
2096921,2096921,178508,596593,0
2096921,2096921,178577,597267,0
2096921,2096921,178642,596996,0
