2096921,2096921,146273,701524
2096921,2096921,146413,701714
2096921,2096921,146430,701661
2096921,2096921,146336,701760
2096921,2096921,146675,701648
2096921,2096921,146684,701799
2096921,2096921,146627,701986
2096921,2096921,146636,701999
2096921,2096921,146455,701902
2096921,2096921,146956,701915
2096921,2096921,146494,701815
2096921,2096921,146947,702516
2096921,2096921,146868,702284
2096921,2096921,147030,702380
2096921,2096921,146889,702569
2096921,2096921,147098,702634
2096921,2096921,147035,702775
2096921,2096921,146965,702709
2096921,2096921,147166,702765
2096921,2096921,146996,702832
2096921,2096921,147211,702560
2096921,2096921,147213,702963
2096921,2096921,147089,702904
2096921,2096921,147188,703188
2096921,2096921,147013,703220
2096921,2096921,147223,703384
2096921,2096921,147344,703271
2096921,2096921,147490,703424
2096921,2096921,147065,703394
2096921,2096921,147284,703456
2096921,2096921,147503,703466
2096921,2096921,147798,703477
2096921,2096921,147379,703786
2096921,2096921,147459,703819
2096921,2096921,147127,703644
2096921,2096921,147464,703881
2096921,2096921,147568,703933
2096921,2096921,147816,704220
2096921,2096921,147614,704348
2096921,2096921,147592,704231
2096921,2096921,147724,704055
2096921,2096921,147713,704565
2096921,2096921,147478,704460
2096921,2096921,147541,704636
2096921,2096921,147762,704621
2096921,2096921,147815,704464
2096921,2096921,147952,704817
2096921,2096921,147762,704823
2096921,2096921,148062,704982
2096921,2096921,147855,705061
2096921,2096921,147997,705060
2096921,2096921,148157,705375
2096921,2096921,148092,705203
2096921,2096921,148380,705121
2096921,2096921,148331,705421
2096921,2096921,148191,705285
2096921,2096921,148056,705302
2096921,2096921,148092,705491
2096921,2096921,148219,705812
2096921,2096921,148448,705720
2096921,2096921,148385,705640
2096921,2096921,148534,705667
2096921,2096921,148583,705715
2096921,2096921,148375,706022
2096921,2096921,148404,705995
2096921,2096921,148736,705800
2096921,2096921,148414,705946
2096921,2096921,148500,706404
2096921,2096921,148441,706294
2096921,2096921,148351,706217
2096921,2096921,148799,706330
2096921,2096921,148670,706271
2096921,2096921,148649,706416
2096921,2096921,148464,706355
2096921,2096921,148602,706251
2096921,2096921,148624,706496
2096921,2096921,148600,706405
2096921,2096921,148805,706392
2096921,2096921,148612,706264
2096921,2096921,148412,706606
2096921,2096921,148437,706329
2096921,2096921,148826,706594
2096921,2096921,148737,706808
2096921,2096921,148671,706682
2096921,2096921,148507,706905
2096921,2096921,148959,707100
2096921,2096921,148473,706500
2096921,2096921,148767,706526
2096921,2096921,148803,706728
2096921,2096921,148723,706548
2096921,2096921,148718,706793
2096921,2096921,148474,706869
2096921,2096921,148507,706754
2096921,2096921,148556,706294
2096921,2096921,148805,706719
2096921,2096921,148667,706874
2096921,2096921,148474,706372
2096921,2096921,148262,706338
2096921,2096921,148461,706344
2096921,2096921,148607,706547
2096921,2096921,148428,706585
2096921,2096921,148594,706247
2096921,2096921,148504,706368
2096921,2096921,148371,706401
2096921,2096921,148672,706553
2096921,2096921,148301,706331
2096921,2096921,148711,706525
2096921,2096921,148509,706441
2096921,2096921,148351,706258
2096921,2096921,148103,706157
2096921,2096921,148474,706124
2096921,2096921,148634,706191
2096921,2096921,148417,706118
2096921,2096921,148656,705951
2096921,2096921,148655,705965
2096921,2096921,148274,706134
2096921,2096921,148368,705995
2096921,2096921,148401,706014
2096921,2096921,148461,705981
2096921,2096921,148429,706089
2096921,2096921,148181,706067
2096921,2096921,148402,705688
2096921,2096921,148321,706159
2096921,2096921,148054,705872
2096921,2096921,148178,706167
2096921,2096921,148121,705979
2096921,2096921,148146,706143
2096921,2096921,148310,705867
2096921,2096921,148160,705659
2096921,2096921,148217,705645
2096921,2096921,148314,705949
2096921,2096921,148546,706055
2096921,2096921,148441,706110
2096921,2096921,148233,706106
2096921,2096921,148085,706242
2096921,2096921,148256,705885
2096921,2096921,148714,705945
2096921,2096921,148464,705834
2096921,2096921,148434,706108
2096921,2096921,148430,705852
2096921,2096921,148145,705916
2096921,2096921,148743,706235
2096921,2096921,148438,706064
2096921,2096921,148531,706240
2096921,2096921,148794,706004
2096921,2096921,148638,705965
2096921,2096921,148857,706211
2096921,2096921,148599,706217
2096921,2096921,148575,706412
2096921,2096921,148460,706481
2096921,2096921,148789,706234
2096921,2096921,148603,706312
2096921,2096921,148682,706546
2096921,2096921,148705,706725
2096921,2096921,148781,706537
2096921,2096921,148834,706768
2096921,2096921,148960,706752
2096921,2096921,148737,706617
2096921,2096921,149114,706765
2096921,2096921,148716,706946
2096921,2096921,148894,706807
2096921,2096921,148897,707165
2096921,2096921,148900,706941
2096921,2096921,148944,707111
2096921,2096921,149014,706672
2096921,2096921,148932,706694
2096921,2096921,149023,707168
2096921,2096921,148833,706958
2096921,2096921,149088,707204
2096921,2096921,148888,707494
2096921,2096921,148984,707130
2096921,2096921,148874,707258
2096921,2096921,149132,707409
2096921,2096921,148995,707063
2096921,2096921,148982,707506
2096921,2096921,148844,707072
2096921,2096921,148736,707574
2096921,2096921,148889,707432
2096921,2096921,149140,707385
2096921,2096921,149025,707396
2096921,2096921,149181,707554
2096921,2096921,148915,707485
2096921,2096921,149111,707753
2096921,2096921,149248,707752
2096921,2096921,149294,707737
2096921,2096921,149335,707631
2096921,2096921,149612,707812
2096921,2096921,149175,707622
2096921,2096921,149150,707892
2096921,2096921,149052,708164
2096921,2096921,149324,708047
2096921,2096921,149416,707903
2096921,2096921,149389,707898
2096921,2096921,149374,708000
2096921,2096921,149362,708207
2096921,2096921,149492,707964
2096921,2096921,149353,707940
2096921,2096921,149293,707967
2096921,2096921,149332,707885
2096921,2096921,149238,707867
2096921,2096921,149545,708043
2096921,2096921,149325,708301
2096921,2096921,149400,708176
2096921,2096921,149540,708351
2096921,2096921,149597,708227
2096921,2096921,149550,708345
2096921,2096921,149380,708232
2096921,2096921,149800,708345
2096921,2096921,149406,708227
2096921,2096921,149725,708177
2096921,2096921,149729,708104
2096921,2096921,149715,708657
2096921,2096921,149949,708764
2096921,2096921,149729,708581
2096921,2096921,149352,708498
2096921,2096921,149683,708555
2096921,2096921,149829,708298
2096921,2096921,149694,708644
2096921,2096921,149779,708574
2096921,2096921,149958,708810
2096921,2096921,149838,708566
2096921,2096921,149872,708897
2096921,2096921,149918,708620
2096921,2096921,149673,709035
2096921,2096921,149778,708739
2096921,2096921,149656,709018
2096921,2096921,149946,708941
2096921,2096921,150116,708916
2096921,2096921,150014,708963
2096921,2096921,149755,708938
2096921,2096921,149771,708810
2096921,2096921,150010,709105
2096921,2096921,149905,709013
2096921,2096921,149992,708981
2096921,2096921,149957,708936
2096921,2096921,150091,709180
2096921,2096921,150032,709060
2096921,2096921,150047,709251
2096921,2096921,150223,709211
2096921,2096921,150079,708972
2096921,2096921,149921,709298
2096921,2096921,150128,709464
2096921,2096921,150083,709039
2096921,2096921,149946,709141
2096921,2096921,150089,709165
2096921,2096921,149796,709178
2096921,2096921,149906,709147
2096921,2096921,150586,708881
2096921,2096921,150215,709078
2096921,2096921,150389,709193
2096921,2096921,150206,709061
2096921,2096921,150215,709269
2096921,2096921,149855,709072
2096921,2096921,149938,709360
2096921,2096921,150077,709152
2096921,2096921,150106,709371
2096921,2096921,150265,709035
2096921,2096921,150196,709173
2096921,2096921,150094,709371
2096921,2096921,150300,709089
2096921,2096921,150264,709245
2096921,2096921,150499,709676
2096921,2096921,150223,709443
2096921,2096921,150197,709461
2096921,2096921,149919,709217
2096921,2096921,150066,709357
2096921,2096921,150019,709293
2096921,2096921,149994,709497
2096921,2096921,150267,709449
2096921,2096921,150171,709734
2096921,2096921,149784,709651
2096921,2096921,150117,709557
2096921,2096921,150303,709614
2096921,2096921,150042,709388
2096921,2096921,150001,709208
2096921,2096921,150369,709366
2096921,2096921,150090,709166
2096921,2096921,150280,709473
2096921,2096921,150174,709458
2096921,2096921,149982,709470
2096921,2096921,149975,709344
2096921,2096921,150237,709385
2096921,2096921,150499,709286
2096921,2096921,150427,709367
2096921,2096921,150229,709486
2096921,2096921,150373,709618
2096921,2096921,150235,709759
2096921,2096921,150295,709289
2096921,2096921,150032,709496
2096921,2096921,150011,709343
2096921,2096921,149708,709225
2096921,2096921,150082,709258
2096921,2096921,149877,709110
2096921,2096921,150130,709396
2096921,2096921,150133,709534
2096921,2096921,150239,709368
2096921,2096921,150622,709291
2096921,2096921,150301,709553
2096921,2096921,150194,709310
2096921,2096921,150266,709370
2096921,2096921,150479,709364
2096921,2096921,150564,709143
2096921,2096921,150078,709285
2096921,2096921,150385,709177
2096921,2096921,150313,709361
2096921,2096921,150454,709029
2096921,2096921,150497,709431
2096921,2096921,150438,708845
2096921,2096921,150204,709554
2096921,2096921,150298,709552
2096921,2096921,150130,709663
2096921,2096921,150291,709820
2096921,2096921,150417,709585
2096921,2096921,150410,709547
2096921,2096921,150286,709363
2096921,2096921,150525,709473
2096921,2096921,150313,709226
2096921,2096921,150279,709533
2096921,2096921,150257,709462
2096921,2096921,150376,709381
2096921,2096921,150470,709556
2096921,2096921,150472,709453
2096921,2096921,150356,709368
2096921,2096921,150517,709268
2096921,2096921,150390,709381
2096921,2096921,150259,709598
2096921,2096921,150568,709461
2096921,2096921,150441,709384
2096921,2096921,150568,709471
2096921,2096921,150513,709437
2096921,2096921,150294,709237
2096921,2096921,150242,709114
2096921,2096921,150513,709273
2096921,2096921,150343,709449
2096921,2096921,150379,709517
2096921,2096921,150718,709352
2096921,2096921,150562,709532
2096921,2096921,150585,709404
2096921,2096921,150308,709466
2096921,2096921,150344,709431
2096921,2096921,150279,709261
2096921,2096921,150290,709272
2096921,2096921,150434,709316
2096921,2096921,150794,709136
2096921,2096921,150658,709236
2096921,2096921,150565,709279
2096921,2096921,150401,709327
2096921,2096921,150517,709059
2096921,2096921,150368,709420
2096921,2096921,150275,709322
2096921,2096921,150590,709345
2096921,2096921,150517,709274
2096921,2096921,150478,709199
2096921,2096921,150452,708956
2096921,2096921,150571,709055
2096921,2096921,150503,709113
2096921,2096921,150462,709265
2096921,2096921,150139,709172
2096921,2096921,150236,709054
2096921,2096921,150249,709081
2096921,2096921,150516,708957
2096921,2096921,150532,709135
2096921,2096921,150500,709044
2096921,2096921,150533,709108
2096921,2096921,150403,709220
2096921,2096921,150359,708939
2096921,2096921,150696,708958
2096921,2096921,150405,708833
2096921,2096921,150364,708913
2096921,2096921,150364,709028
2096921,2096921,150451,708815
2096921,2096921,150644,709233
2096921,2096921,150578,709063
2096921,2096921,150053,708876
2096921,2096921,150536,708967
2096921,2096921,150264,708722
2096921,2096921,150228,708998
2096921,2096921,150260,708783
2096921,2096921,150134,708520
2096921,2096921,150172,708737
2096921,2096921,150255,708684
2096921,2096921,150173,708733
2096921,2096921,150189,708742
2096921,2096921,150162,708628
2096921,2096921,150296,708674
2096921,2096921,150125,708555
2096921,2096921,150339,708352
2096921,2096921,150231,708692
2096921,2096921,150328,708476
2096921,2096921,150191,708686
2096921,2096921,149970,708537
2096921,2096921,150221,708698
2096921,2096921,150532,708723
2096921,2096921,150529,708728
2096921,2096921,150449,708600
2096921,2096921,150453,708226
2096921,2096921,150363,708627
2096921,2096921,150207,708708
2096921,2096921,150163,708428
2096921,2096921,150424,708443
2096921,2096921,150417,708282
2096921,2096921,150174,708011
2096921,2096921,150105,708444
2096921,2096921,150036,708318
2096921,2096921,150474,708384
2096921,2096921,150262,708267
2096921,2096921,150193,708477
2096921,2096921,150316,708203
2096921,2096921,150249,708377
2096921,2096921,150052,708083
2096921,2096921,149935,707869
2096921,2096921,150174,707866
2096921,2096921,150259,707770
2096921,2096921,149905,708054
2096921,2096921,149801,708047
2096921,2096921,149912,707820
2096921,2096921,150094,707799
2096921,2096921,149966,707488
2096921,2096921,149729,707379
2096921,2096921,149440,706987
2096921,2096921,149692,706724
2096921,2096921,149383,706861
2096921,2096921,149430,706789
2096921,2096921,149335,706954
2096921,2096921,149316,706091
2096921,2096921,149438,706260
2096921,2096921,149536,706285
2096921,2096921,149231,706177
2096921,2096921,149145,706254
2096921,2096921,149016,705620
2096921,2096921,148778,705264
2096921,2096921,148998,705521
2096921,2096921,149184,705307
2096921,2096921,148497,705467
2096921,2096921,148035,704034
2096921,2096921,148147,703860
2096921,2096921,148168,703516
2096921,2096921,148345,703682
2096921,2096921,147598,703922
2096921,2096921,147526,702109
2096921,2096921,147404,701751
2096921,2096921,147519,701440
2096921,2096921,147523,701679
2096921,2096921,146717,701170
2096921,2096921,146869,700560
2096921,2096921,146502,700096
2096921,2096921,146745,699665
2096921,2096921,146780,700065
2096921,2096921,146534,700070
2096921,2096921,146146,699080
2096921,2096921,146203,698628
2096921,2096921,146169,698736
2096921,2096921,146471,698738
2096921,2096921,146030,698886
2096921,2096921,145858,698125
2096921,2096921,146073,697578
2096921,2096921,145962,697699
2096921,2096921,145727,697672
2096921,2096921,145683,697832
2096921,2096921,145195,697243
2096921,2096921,145292,697010
2096921,2096921,145332,697230
2096921,2096921,145522,697144
2096921,2096921,145336,697156
2096921,2096921,145011,696845
2096921,2096921,145479,696941
2096921,2096921,145228,696740
2096921,2096921,145554,696466
2096921,2096921,145476,696554
2096921,2096921,145185,696221
2096921,2096921,145281,696244
2096921,2096921,145298,696438
2096921,2096921,145206,696081
2096921,2096921,145026,696425
2096921,2096921,145340,696386
2096921,2096921,145453,695843
2096921,2096921,145122,695895
2096921,2096921,145153,696284
2096921,2096921,145017,696304
2096921,2096921,145204,696293
2096921,2096921,145092,696117
2096921,2096921,145472,696060
2096921,2096921,145443,696129
2096921,2096921,145248,696021
2096921,2096921,145293,696051
2096921,2096921,145282,696010
2096921,2096921,145287,696232
2096921,2096921,145116,696191
2096921,2096921,145097,696023
2096921,2096921,145329,695919
2096921,2096921,145187,695843
2096921,2096921,145505,695918
2096921,2096921,145155,696119
2096921,2096921,145107,696350
2096921,2096921,145289,696243
2096921,2096921,145164,695952
2096921,2096921,145321,696051
2096921,2096921,145282,696069
2096921,2096921,145404,696055
2096921,2096921,145671,696152
2096921,2096921,145246,696640
2096921,2096921,145290,696612
2096921,2096921,145368,696277
2096921,2096921,145581,696508
2096921,2096921,145368,696680
2096921,2096921,145440,696407
2096921,2096921,145360,696553
2096921,2096921,145362,696236
2096921,2096921,145419,696635
2096921,2096921,145636,696889
2096921,2096921,145534,696820
2096921,2096921,145579,697219
2096921,2096921,145558,697071
2096921,2096921,145784,697134
2096921,2096921,145690,697278
2096921,2096921,145999,696976
2096921,2096921,145615,696955
2096921,2096921,145649,696972
2096921,2096921,145625,697012
2096921,2096921,145845,697211
2096921,2096921,145841,697409
2096921,2096921,145792,697464
2096921,2096921,145937,697314
2096921,2096921,146033,697413
2096921,2096921,145906,697604
2096921,2096921,145882,697986
2096921,2096921,146008,697539
2096921,2096921,145908,697615
2096921,2096921,145943,697910
2096921,2096921,146003,697854
2096921,2096921,146435,697890
2096921,2096921,146182,697630
2096921,2096921,145912,697824
2096921,2096921,146185,697597
2096921,2096921,146108,698090
2096921,2096921,145952,698289
2096921,2096921,146022,698188
2096921,2096921,146323,697982
2096921,2096921,146371,698173
2096921,2096921,146305,698301
2096921,2096921,146271,698293
2096921,2096921,146079,698506
2096921,2096921,146314,698567
2096921,2096921,146608,698405
2096921,2096921,146461,698687
2096921,2096921,146532,698693
2096921,2096921,146546,698701
2096921,2096921,146468,698566
2096921,2096921,146460,698634
2096921,2096921,146796,699103
2096921,2096921,146627,699189
2096921,2096921,146593,699081
2096921,2096921,146527,699027
2096921,2096921,146648,699054
2096921,2096921,146680,699297
2096921,2096921,146828,699458
2096921,2096921,146647,699160
2096921,2096921,146799,699214
2096921,2096921,147001,699160
2096921,2096921,146568,699525
2096921,2096921,146627,699808
2096921,2096921,146999,699511
2096921,2096921,146903,699826
2096921,2096921,147012,699653
2096921,2096921,147293,699813
2096921,2096921,147150,699822
2096921,2096921,147261,700246
2096921,2096921,147028,699926
2096921,2096921,147346,699901
2096921,2096921,147061,699833
2096921,2096921,147161,699689
2096921,2096921,147126,700096
2096921,2096921,147208,699773
2096921,2096921,147106,699619
2096921,2096921,147032,699933
2096921,2096921,146894,699797
2096921,2096921,147338,700032
2096921,2096921,147137,700217
2096921,2096921,147143,699990
2096921,2096921,147193,699838
2096921,2096921,147304,700050
2096921,2096921,147308,700206
2096921,2096921,147396,700417
2096921,2096921,147361,700300
2096921,2096921,147087,700331
2096921,2096921,147076,700301
2096921,2096921,147256,700206
2096921,2096921,147321,699966
2096921,2096921,147155,700095
2096921,2096921,147362,699781
2096921,2096921,147222,699996
2096921,2096921,147236,699979
2096921,2096921,147137,700019
2096921,2096921,147078,700067
2096921,2096921,147050,700170
2096921,2096921,147238,700330
2096921,2096921,146977,699992
2096921,2096921,147121,699930
2096921,2096921,146614,699808
2096921,2096921,146710,699833
2096921,2096921,146912,699876
2096921,2096921,147160,699665
2096921,2096921,147317,699940
2096921,2096921,146756,699934
2096921,2096921,147003,699483
2096921,2096921,146824,699714
2096921,2096921,147177,699611
2096921,2096921,147076,699699
2096921,2096921,147100,699518
2096921,2096921,147104,699230
2096921,2096921,146832,699352
2096921,2096921,146780,699415
2096921,2096921,146862,699620
2096921,2096921,146567,699438
2096921,2096921,147053,699295
2096921,2096921,146766,699029
2096921,2096921,146793,699170
2096921,2096921,146900,699026
2096921,2096921,146843,699146
2096921,2096921,146878,699133
2096921,2096921,146982,699485
2096921,2096921,146879,699274
2096921,2096921,146954,699327
2096921,2096921,146893,699153
2096921,2096921,146642,699262
2096921,2096921,146788,699279
2096921,2096921,146761,699301
2096921,2096921,146543,699419
2096921,2096921,146797,699173
2096921,2096921,146621,699296
2096921,2096921,146583,699148
2096921,2096921,146729,698851
2096921,2096921,146953,699138
2096921,2096921,147012,699053
2096921,2096921,146734,699153
2096921,2096921,147006,699272
2096921,2096921,146940,699240
2096921,2096921,146692,699139
2096921,2096921,146792,699290
2096921,2096921,146953,699451
2096921,2096921,147113,699177
2096921,2096921,146817,699479
2096921,2096921,146932,699110
2096921,2096921,146865,699255
2096921,2096921,146888,699406
2096921,2096921,146996,699532
2096921,2096921,147034,699660
2096921,2096921,147109,699667
2096921,2096921,146862,699819
2096921,2096921,147028,699847
2096921,2096921,147169,699722
2096921,2096921,147156,699756
2096921,2096921,147319,699553
2096921,2096921,147320,699892
2096921,2096921,147439,699884
2096921,2096921,147274,699889
2096921,2096921,147129,700080
2096921,2096921,147185,700194
2096921,2096921,147287,700172
2096921,2096921,147295,700333
2096921,2096921,147596,700374
2096921,2096921,147435,700211
2096921,2096921,147377,699913
2096921,2096921,147313,700205
2096921,2096921,147298,700184
2096921,2096921,147581,700300
2096921,2096921,147448,700354
2096921,2096921,147526,700417
2096921,2096921,147698,700656
2096921,2096921,147581,700597
2096921,2096921,147620,700528
2096921,2096921,147757,700503
2096921,2096921,147611,700535
2096921,2096921,147553,700894
2096921,2096921,147707,700720
2096921,2096921,147721,701007
2096921,2096921,147664,700879
2096921,2096921,147748,700713
2096921,2096921,147601,700600
2096921,2096921,147740,700995
2096921,2096921,147680,701281
2096921,2096921,147604,701104
2096921,2096921,147839,700827
2096921,2096921,147962,700999
2096921,2096921,147870,701500
2096921,2096921,147842,701245
2096921,2096921,147870,701262
2096921,2096921,147952,701312
2096921,2096921,147788,701255
2096921,2096921,147821,701315
2096921,2096921,147536,701260
2096921,2096921,147874,701473
2096921,2096921,147944,701572
2096921,2096921,148092,701354
2096921,2096921,147883,701624
2096921,2096921,148041,701536
2096921,2096921,148328,701821
2096921,2096921,147934,701676
2096921,2096921,148181,701789
2096921,2096921,148198,702115
2096921,2096921,148009,701532
2096921,2096921,147983,701808
2096921,2096921,147815,701917
2096921,2096921,148221,701953
2096921,2096921,148040,702132
2096921,2096921,148369,701835
2096921,2096921,148266,701943
2096921,2096921,148158,701803
2096921,2096921,148047,702100
2096921,2096921,148205,702090
2096921,2096921,148001,702232
2096921,2096921,148423,702264
2096921,2096921,148017,702117
2096921,2096921,148350,702076
2096921,2096921,148443,702099
2096921,2096921,148463,702320
2096921,2096921,148397,702617
2096921,2096921,148273,702520
2096921,2096921,148394,702241
2096921,2096921,148371,702536
2096921,2096921,148313,702522
2096921,2096921,148381,702600
2096921,2096921,148275,702413
2096921,2096921,148517,702671
2096921,2096921,148586,702812
2096921,2096921,148477,702521
2096921,2096921,148437,702728
2096921,2096921,148666,702702
2096921,2096921,148538,702660
2096921,2096921,148491,702902
2096921,2096921,148490,702936
2096921,2096921,148794,702875
2096921,2096921,148752,702896
2096921,2096921,148762,702992
2096921,2096921,148677,703142
2096921,2096921,148786,703067
2096921,2096921,148591,703109
2096921,2096921,148633,703006
2096921,2096921,148640,702894
2096921,2096921,148505,703258
2096921,2096921,148355,703237
2096921,2096921,148643,702781
2096921,2096921,148636,702980
2096921,2096921,148825,703203
2096921,2096921,148889,703376
2096921,2096921,148996,703558
2096921,2096921,148672,703413
2096921,2096921,148860,703237
2096921,2096921,148725,703396
2096921,2096921,148914,703390
2096921,2096921,148659,703643
2096921,2096921,148709,703301
2096921,2096921,148750,703572
2096921,2096921,148464,703586
2096921,2096921,148930,703527
2096921,2096921,148867,703496
2096921,2096921,148690,703937
2096921,2096921,148494,703712
2096921,2096921,148645,703483
2096921,2096921,148825,703325
2096921,2096921,148866,703857
2096921,2096921,148805,703916
2096921,2096921,149079,703688
2096921,2096921,148981,703609
2096921,2096921,148839,703837
2096921,2096921,148964,703807
2096921,2096921,148946,704067
2096921,2096921,148756,703710
2096921,2096921,148898,703696
2096921,2096921,148946,703799
2096921,2096921,149086,703969
2096921,2096921,148878,703890
2096921,2096921,148824,703935
2096921,2096921,149133,703905
2096921,2096921,149036,703964
2096921,2096921,148919,704190
2096921,2096921,148824,704106
2096921,2096921,148626,703917
2096921,2096921,149016,703885
2096921,2096921,148965,704126
2096921,2096921,149128,704102
2096921,2096921,149324,703978
2096921,2096921,149010,703902
2096921,2096921,149165,704045
2096921,2096921,149106,704258
2096921,2096921,149062,704096
2096921,2096921,148972,704039
2096921,2096921,149147,704116
2096921,2096921,149437,704226
2096921,2096921,149196,703874
2096921,2096921,149308,704099
2096921,2096921,148981,704267
2096921,2096921,149231,704237
2096921,2096921,149262,704245
2096921,2096921,149189,704003
2096921,2096921,149089,703812
2096921,2096921,149012,704131
2096921,2096921,149112,704220
2096921,2096921,149133,704238
2096921,2096921,149221,704387
2096921,2096921,149266,704567
2096921,2096921,149194,704698
2096921,2096921,149112,704563
2096921,2096921,149121,704387
2096921,2096921,149410,704398
2096921,2096921,149177,704370
2096921,2096921,149339,704429
2096921,2096921,149311,704199
2096921,2096921,149313,704443
2096921,2096921,149235,704536
2096921,2096921,149301,704671
2096921,2096921,149360,704462
2096921,2096921,149380,704473
2096921,2096921,149124,704529
2096921,2096921,149346,704316
2096921,2096921,149339,704591
2096921,2096921,149323,704223
2096921,2096921,149272,704498
2096921,2096921,149253,704807
2096921,2096921,149147,704498
2096921,2096921,149527,704537
2096921,2096921,149166,704666
2096921,2096921,149151,704627
2096921,2096921,148874,704683
2096921,2096921,149226,704564
2096921,2096921,149495,704801
2096921,2096921,149242,704668
2096921,2096921,149407,704868
2096921,2096921,149258,704802
2096921,2096921,149129,704976
2096921,2096921,149453,704805
2096921,2096921,149546,704740
2096921,2096921,149482,704660
2096921,2096921,149504,704951
2096921,2096921,149440,705110
2096921,2096921,149427,704952
2096921,2096921,149519,704962
2096921,2096921,149429,704869
2096921,2096921,149281,704507
2096921,2096921,149510,704844
2096921,2096921,149303,705189
2096921,2096921,149122,705224
2096921,2096921,149341,705037
2096921,2096921,149521,704830
2096921,2096921,149455,704940
2096921,2096921,149592,704781
2096921,2096921,149495,704730
2096921,2096921,149419,705028
2096921,2096921,149400,704918
2096921,2096921,149601,704957
2096921,2096921,149451,704935
2096921,2096921,149446,705030
2096921,2096921,149549,704746
2096921,2096921,149471,705048
2096921,2096921,149677,704992
2096921,2096921,149431,705164
2096921,2096921,149379,705500
2096921,2096921,149453,705252
2096921,2096921,149509,705062
2096921,2096921,149237,705342
2096921,2096921,149308,705383
2096921,2096921,149173,704977
2096921,2096921,149426,705017
2096921,2096921,149317,704962
2096921,2096921,149361,704976
2096921,2096921,149196,705287
2096921,2096921,149213,704991
2096921,2096921,149586,704887
2096921,2096921,149544,704834
2096921,2096921,149469,705299
2096921,2096921,149409,705025
2096921,2096921,149560,705306
2096921,2096921,149733,705203
2096921,2096921,149681,705108
2096921,2096921,149271,705233
2096921,2096921,149407,705182
2096921,2096921,149598,705095
2096921,2096921,149612,705127
2096921,2096921,149629,704837
2096921,2096921,149297,704980
2096921,2096921,149651,705245
2096921,2096921,149371,705293
2096921,2096921,149556,705304
2096921,2096921,149362,705402
2096921,2096921,149498,705142
2096921,2096921,149658,705283
2096921,2096921,149675,705198
2096921,2096921,149571,705160
2096921,2096921,149628,705295
2096921,2096921,149540,705373
2096921,2096921,149472,705292
2096921,2096921,149702,705536
2096921,2096921,149650,705312
2096921,2096921,149815,705295
2096921,2096921,149724,705484
2096921,2096921,149647,705414
2096921,2096921,149471,705267
2096921,2096921,149498,705393
2096921,2096921,149679,705240
2096921,2096921,149397,705289
2096921,2096921,149749,705356
2096921,2096921,150001,705414
2096921,2096921,149767,705629
2096921,2096921,149872,705353
2096921,2096921,149619,705361
2096921,2096921,149392,705384
2096921,2096921,149445,705252
2096921,2096921,149617,705276
2096921,2096921,149168,705299
2096921,2096921,149546,704969
2096921,2096921,149435,705088
2096921,2096921,149333,704723
2096921,2096921,149519,704942
2096921,2096921,149246,704746
2096921,2096921,149408,704662
2096921,2096921,149424,704811
2096921,2096921,149331,704817
2096921,2096921,149234,704661
2096921,2096921,148936,704547
2096921,2096921,148970,704328
2096921,2096921,149124,704154
2096921,2096921,149422,703942
2096921,2096921,149238,704263
2096921,2096921,148704,704342
2096921,2096921,148871,703940
2096921,2096921,148866,703692
2096921,2096921,148967,703610
2096921,2096921,148653,703585
2096921,2096921,148533,703873
2096921,2096921,148541,703167
2096921,2096921,148502,702997
2096921,2096921,148387,703175
2096921,2096921,148313,702929
2096921,2096921,148003,702727
2096921,2096921,147807,701751
2096921,2096921,147669,701145
2096921,2096921,147667,701368
2096921,2096921,147987,701480
2096921,2096921,146906,701470
2096921,2096921,146883,700239
2096921,2096921,146943,699487
2096921,2096921,146964,699364
2096921,2096921,146932,699417
2096921,2096921,146404,699535
2096921,2096921,146320,698565
2096921,2096921,146483,698033
2096921,2096921,146165,697729
2096921,2096921,146203,698260
2096921,2096921,145789,697725
2096921,2096921,145802,696978
2096921,2096921,145703,697082
2096921,2096921,145966,697076
2096921,2096921,145748,696877
2096921,2096921,145561,696781
2096921,2096921,145517,696284
2096921,2096921,145597,696079
2096921,2096921,145415,695766
2096921,2096921,145364,695676
2096921,2096921,145082,696075
2096921,2096921,145228,695547
2096921,2096921,145263,695459
2096921,2096921,144870,695445
2096921,2096921,145256,695679
2096921,2096921,144866,695546
2096921,2096921,145037,695492
2096921,2096921,144878,694994
2096921,2096921,144775,695208
2096921,2096921,144798,695131
2096921,2096921,144917,695277
2096921,2096921,144939,694517
2096921,2096921,144886,694731
2096921,2096921,144958,694982
2096921,2096921,144695,695087
2096921,2096921,144701,694966
2096921,2096921,144799,694917
2096921,2096921,144848,694806
2096921,2096921,144900,694655
2096921,2096921,144517,694739
2096921,2096921,144656,695010
2096921,2096921,144721,695017
2096921,2096921,144627,694848
2096921,2096921,144784,695003
2096921,2096921,144862,694861
2096921,2096921,144849,694683
2096921,2096921,145168,695109
2096921,2096921,145152,694904
2096921,2096921,144647,695189
2096921,2096921,144827,695131
2096921,2096921,145109,695214
2096921,2096921,145065,695230
2096921,2096921,145020,695563
2096921,2096921,145065,695352
2096921,2096921,144701,695246
2096921,2096921,145172,695404
2096921,2096921,145257,695662
2096921,2096921,145059,695614
2096921,2096921,144585,695686
2096921,2096921,145144,695280
2096921,2096921,145267,695297
2096921,2096921,145420,695900
2096921,2096921,145387,695973
2096921,2096921,145681,695635
2096921,2096921,145489,696017
2096921,2096921,145258,695784
2096921,2096921,145510,696403
2096921,2096921,145384,696223
2096921,2096921,145415,696257
2096921,2096921,145241,696284
2096921,2096921,145662,696372
2096921,2096921,145465,696535
2096921,2096921,145648,696876
2096921,2096921,145396,696679
2096921,2096921,145423,696804
2096921,2096921,145569,696552
2096921,2096921,145526,697126
2096921,2096921,145690,696900
2096921,2096921,145703,697236
2096921,2096921,145668,697034
2096921,2096921,146109,697102
2096921,2096921,145935,697740
2096921,2096921,145915,697491
2096921,2096921,146143,697556
2096921,2096921,145979,697610
2096921,2096921,145847,697508
2096921,2096921,145829,697724
2096921,2096921,145805,697826
2096921,2096921,146223,698015
2096921,2096921,145938,697901
2096921,2096921,146182,697916
2096921,2096921,146188,698341
2096921,2096921,146131,698233
2096921,2096921,146238,698387
2096921,2096921,146247,698149
2096921,2096921,146487,698236
2096921,2096921,146316,698380
2096921,2096921,146392,698802
2096921,2096921,146485,698929
2096921,2096921,146217,698774
2096921,2096921,146437,698770
2096921,2096921,146299,699006
2096921,2096921,146510,699196
2096921,2096921,146665,699239
2096921,2096921,146579,699227
2096921,2096921,146766,699336
2096921,2096921,146692,699512
2096921,2096921,146673,699393
2096921,2096921,146607,699506
2096921,2096921,146509,699378
2096921,2096921,146856,699589
2096921,2096921,146847,700074
2096921,2096921,146856,700153
2096921,2096921,146959,699947
2096921,2096921,147141,700159
2096921,2096921,147274,700079
2096921,2096921,147246,700531
2096921,2096921,147488,700617
2096921,2096921,147320,700487
2096921,2096921,147392,700387
2096921,2096921,146984,700627
2096921,2096921,147114,700821
2096921,2096921,146974,701030
2096921,2096921,146823,701091
2096921,2096921,147092,701064
2096921,2096921,147447,701202
2096921,2096921,147516,701261
2096921,2096921,147372,701429
2096921,2096921,147259,701261
2096921,2096921,147132,701646
2096921,2096921,147139,701575
2096921,2096921,147524,701468
2096921,2096921,147501,701461
2096921,2096921,147722,701753
2096921,2096921,147421,701619
2096921,2096921,147402,701359
2096921,2096921,147378,701544
2096921,2096921,147439,701697
2096921,2096921,147404,701625
2096921,2096921,147494,701849
2096921,2096921,147461,701787
2096921,2096921,147748,702025
2096921,2096921,147733,702020
2096921,2096921,147681,701972
2096921,2096921,147570,702212
2096921,2096921,147482,702197
2096921,2096921,147652,702048
2096921,2096921,147387,702339
2096921,2096921,147431,702068
2096921,2096921,147499,702305
2096921,2096921,147514,702014
2096921,2096921,147434,702266
2096921,2096921,147546,702158
2096921,2096921,147544,702171
2096921,2096921,147517,702074
2096921,2096921,147450,702122
2096921,2096921,147650,702195
2096921,2096921,147715,702053
2096921,2096921,147637,701977
2096921,2096921,147610,702266
2096921,2096921,147515,702276
2096921,2096921,147496,702316
2096921,2096921,147405,702066
2096921,2096921,147590,702162
2096921,2096921,147672,702278
2096921,2096921,147498,702227
2096921,2096921,147585,702298
2096921,2096921,147645,702054
2096921,2096921,147510,702027
2096921,2096921,147614,702198
2096921,2096921,147697,702135
2096921,2096921,147437,702067
2096921,2096921,147232,701748
2096921,2096921,147712,701966
2096921,2096921,147500,701854
2096921,2096921,147764,702051
2096921,2096921,147281,702043
2096921,2096921,147325,702127
2096921,2096921,147563,702199
2096921,2096921,147329,702261
2096921,2096921,147520,701976
2096921,2096921,147578,702126
2096921,2096921,147382,702040
2096921,2096921,147459,702225
2096921,2096921,147474,702027
2096921,2096921,147823,702132
2096921,2096921,147592,702160
2096921,2096921,147582,702267
2096921,2096921,147519,701965
2096921,2096921,147443,702049
2096921,2096921,147452,702352
2096921,2096921,147368,702132
2096921,2096921,147537,702115
2096921,2096921,147699,702316
2096921,2096921,147557,702626
2096921,2096921,147615,702153
2096921,2096921,147586,702343
2096921,2096921,147892,702521
2096921,2096921,147579,702535
2096921,2096921,147820,702465
2096921,2096921,147669,702353
2096921,2096921,147756,702678
2096921,2096921,147781,702775
2096921,2096921,147874,702756
2096921,2096921,147909,702824
2096921,2096921,147836,702818
2096921,2096921,147779,702960
2096921,2096921,148011,703249
2096921,2096921,147498,702673
2096921,2096921,147885,703009
2096921,2096921,147921,703045
2096921,2096921,147960,703171
2096921,2096921,147974,703575
2096921,2096921,147837,703404
2096921,2096921,147850,703362
2096921,2096921,147736,703194
2096921,2096921,147893,703593
2096921,2096921,147893,703858
2096921,2096921,147696,703853
2096921,2096921,148143,703736
2096921,2096921,148047,703633
2096921,2096921,148376,704015
2096921,2096921,148316,704201
2096921,2096921,148447,703939
2096921,2096921,148194,704005
2096921,2096921,148422,704043
2096921,2096921,147948,704257
2096921,2096921,148213,704337
2096921,2096921,148001,704451
2096921,2096921,148258,704141
2096921,2096921,148151,704027
2096921,2096921,148434,704371
2096921,2096921,148568,704453
2096921,2096921,148628,704349
2096921,2096921,148515,704446
2096921,2096921,148692,704647
2096921,2096921,148480,704584
2096921,2096921,148637,704875
2096921,2096921,148555,704527
2096921,2096921,148580,704469
2096921,2096921,148701,704832
2096921,2096921,148540,704964
2096921,2096921,148519,705318
2096921,2096921,148751,705165
2096921,2096921,148691,705020
2096921,2096921,148799,705254
2096921,2096921,148893,705479
2096921,2096921,148792,705763
2096921,2096921,148666,705662
2096921,2096921,148785,705445
2096921,2096921,148828,705397
2096921,2096921,148976,705900
2096921,2096921,148704,706073
2096921,2096921,148800,705743
2096921,2096921,148768,706194
2096921,2096921,148875,705756
2096921,2096921,148831,706078
2096921,2096921,148888,705799
2096921,2096921,148940,706157
2096921,2096921,148925,706222
2096921,2096921,149103,706110
2096921,2096921,149190,706236
2096921,2096921,149086,706203
2096921,2096921,149064,706441
2096921,2096921,149307,706258
2096921,2096921,149037,705737
2096921,2096921,149122,706532
2096921,2096921,149164,706501
2096921,2096921,149124,706658
2096921,2096921,149111,706445
2096921,2096921,149314,706612
2096921,2096921,149453,706804
2096921,2096921,149197,706927
2096921,2096921,149421,706690
2096921,2096921,149328,707109
2096921,2096921,149829,706700
2096921,2096921,149418,707358
2096921,2096921,149281,707162
2096921,2096921,149342,707143
2096921,2096921,149403,707586
2096921,2096921,149397,706998
2096921,2096921,149382,707141
2096921,2096921,149518,707311
2096921,2096921,149745,707535
2096921,2096921,149408,707500
2096921,2096921,149346,707264
2096921,2096921,149674,707616
2096921,2096921,149436,707633
2096921,2096921,149404,707886
2096921,2096921,149443,707400
2096921,2096921,149505,707878
2096921,2096921,149615,708015
2096921,2096921,149738,708018
2096921,2096921,149813,708010
2096921,2096921,149789,707899
2096921,2096921,149763,707779
2096921,2096921,149628,708418
2096921,2096921,149908,708232
2096921,2096921,149664,707826
2096921,2096921,149675,708056
2096921,2096921,150112,708148
2096921,2096921,149957,708215
2096921,2096921,149663,708388
2096921,2096921,149678,708242
2096921,2096921,149805,708482
2096921,2096921,149753,708393
2096921,2096921,149908,708714
2096921,2096921,149774,708610
2096921,2096921,149953,708753
2096921,2096921,149853,708547
2096921,2096921,149905,708386
2096921,2096921,149835,708665
2096921,2096921,149950,708656
2096921,2096921,149809,708671
2096921,2096921,149908,708810
2096921,2096921,150132,708667
2096921,2096921,150190,708754
2096921,2096921,150061,708940
2096921,2096921,149796,708883
2096921,2096921,149964,708839
2096921,2096921,150273,708901
2096921,2096921,149955,708988
2096921,2096921,150130,709197
2096921,2096921,149999,709264
2096921,2096921,150219,709269
2096921,2096921,150092,709241
2096921,2096921,150092,709342
2096921,2096921,150067,709403
2096921,2096921,150218,709495
2096921,2096921,150312,709420
2096921,2096921,150438,709432
2096921,2096921,150358,709513
2096921,2096921,150413,709737
2096921,2096921,150155,709421
2096921,2096921,150323,709520
2096921,2096921,150459,709716
2096921,2096921,150393,709795
2096921,2096921,150406,709926
2096921,2096921,150001,709753
2096921,2096921,150334,709422
2096921,2096921,150378,709554
2096921,2096921,150154,709715
2096921,2096921,150327,709728
2096921,2096921,150360,709671
2096921,2096921,150528,709829
2096921,2096921,150230,709699
2096921,2096921,150240,709923
2096921,2096921,150339,710085
2096921,2096921,150287,709911
2096921,2096921,150138,710045
2096921,2096921,150594,709954
2096921,2096921,150481,710150
2096921,2096921,150676,710235
2096921,2096921,150267,710130
2096921,2096921,150111,710295
2096921,2096921,150514,710189
2096921,2096921,150317,710412
2096921,2096921,150399,710367
2096921,2096921,150386,710085
2096921,2096921,150489,710171
2096921,2096921,150560,710467
2096921,2096921,150280,710349
2096921,2096921,150424,710610
2096921,2096921,150420,710410
2096921,2096921,150618,710388
2096921,2096921,150416,710466
2096921,2096921,150561,710508
2096921,2096921,150384,710740
2096921,2096921,150377,710524
2096921,2096921,150435,710251
2096921,2096921,150495,710420
2096921,2096921,150579,710643
2096921,2096921,150458,710854
2096921,2096921,150690,711049
2096921,2096921,150560,710814
2096921,2096921,150377,710991
2096921,2096921,150622,710655
2096921,2096921,150709,710836
2096921,2096921,150776,710918
2096921,2096921,150690,710990
2096921,2096921,150713,710551
2096921,2096921,150560,710739
2096921,2096921,150841,711043
2096921,2096921,150788,710697
2096921,2096921,150795,710724
2096921,2096921,150476,710880
2096921,2096921,150600,710833
2096921,2096921,150549,710848
2096921,2096921,150702,711138
2096921,2096921,150607,710996
2096921,2096921,150991,710880
2096921,2096921,151037,711067
2096921,2096921,150862,710963
2096921,2096921,150784,711188
2096921,2096921,150990,711036
2096921,2096921,150546,711134
2096921,2096921,150657,711184
2096921,2096921,150638,711305
2096921,2096921,150888,711268
2096921,2096921,150808,711254
2096921,2096921,150873,711320
2096921,2096921,150953,711650
2096921,2096921,150961,711442
2096921,2096921,150584,711702
2096921,2096921,150976,711584
2096921,2096921,151015,711506
2096921,2096921,150679,711581
2096921,2096921,150858,711356
2096921,2096921,150662,711301
2096921,2096921,150870,711599
2096921,2096921,150931,711442
2096921,2096921,150902,711601
2096921,2096921,150889,711824
2096921,2096921,150806,711626
2096921,2096921,150771,711643
2096921,2096921,150762,711585
2096921,2096921,150787,711719
2096921,2096921,150970,711571
2096921,2096921,150861,711627
2096921,2096921,150937,711729
2096921,2096921,150873,711737
2096921,2096921,151133,711615
2096921,2096921,150833,711668
2096921,2096921,151268,711414
2096921,2096921,150832,711531
2096921,2096921,151046,711586
2096921,2096921,150832,711859
2096921,2096921,150856,711827
2096921,2096921,150751,711734
2096921,2096921,150993,711840
2096921,2096921,150972,712007
2096921,2096921,151212,711811
2096921,2096921,150948,711664
2096921,2096921,150634,711865
2096921,2096921,150708,711563
2096921,2096921,151022,711732
2096921,2096921,151078,711867
2096921,2096921,151280,712007
2096921,2096921,151098,711918
2096921,2096921,151185,711536
2096921,2096921,151303,711648
2096921,2096921,151038,711916
2096921,2096921,151020,711631
2096921,2096921,150971,711822
2096921,2096921,150903,711533
2096921,2096921,151152,711857
2096921,2096921,150873,711956
2096921,2096921,151050,712103
2096921,2096921,150973,711994
2096921,2096921,151199,711842
2096921,2096921,150942,711961
2096921,2096921,150876,711810
2096921,2096921,150856,712245
2096921,2096921,150912,711966
2096921,2096921,150779,711886
2096921,2096921,150811,711950
2096921,2096921,151234,711832
2096921,2096921,151187,711929
2096921,2096921,150911,711827
2096921,2096921,150846,712082
2096921,2096921,150952,712282
2096921,2096921,150927,711767
2096921,2096921,150957,712172
2096921,2096921,151082,711975
2096921,2096921,151041,711952
2096921,2096921,151133,711826
2096921,2096921,151238,712148
2096921,2096921,151555,712212
2096921,2096921,151171,712191
2096921,2096921,151024,712231
2096921,2096921,150813,712120
2096921,2096921,150726,711484
2096921,2096921,150720,711819
2096921,2096921,150767,711787
2096921,2096921,150798,711784
2096921,2096921,150606,711733
2096921,2096921,150585,711356
2096921,2096921,150773,711347
2096921,2096921,150512,711363
2096921,2096921,150605,711287
2096921,2096921,150482,711144
2096921,2096921,150533,710562
2096921,2096921,150709,710832
2096921,2096921,150373,710738
2096921,2096921,150526,710746
2096921,2096921,150182,710738
2096921,2096921,150451,710435
2096921,2096921,150330,710196
2096921,2096921,150137,710351
2096921,2096921,150258,710013
2096921,2096921,150077,710314
2096921,2096921,149937,709755
2096921,2096921,149779,709589
2096921,2096921,149737,709391
2096921,2096921,149746,709602
2096921,2096921,149475,709441
2096921,2096921,149104,708196
2096921,2096921,149431,707935
2096921,2096921,149251,707827
2096921,2096921,149045,707991
2096921,2096921,148502,707823
2096921,2096921,148120,706351
2096921,2096921,148322,706206
2096921,2096921,148263,705841
2096921,2096921,148252,705754
2096921,2096921,147757,705592
2096921,2096921,147819,704593
2096921,2096921,147483,704183
2096921,2096921,147628,704166
2096921,2096921,147602,704186
2096921,2096921,147053,704207
2096921,2096921,147204,703306
2096921,2096921,147289,703184
2096921,2096921,147175,703182
2096921,2096921,147277,703440
2096921,2096921,147028,703253
2096921,2096921,146849,702470
2096921,2096921,146899,702262
2096921,2096921,146749,702587
2096921,2096921,146466,702695
2096921,2096921,146373,702444
2096921,2096921,146108,701839
2096921,2096921,146255,701532
2096921,2096921,146439,701649
2096921,2096921,146347,701563
2096921,2096921,146385,701430
2096921,2096921,146217,701462
2096921,2096921,146305,701245
2096921,2096921,146144,701269
2096921,2096921,146237,701074
2096921,2096921,146137,701392
2096921,2096921,145966,701102
2096921,2096921,146215,701007
2096921,2096921,146254,700957
2096921,2096921,146209,701129
2096921,2096921,146301,701371
2096921,2096921,146287,701238
2096921,2096921,146125,700920
2096921,2096921,146056,700887
2096921,2096921,146089,700853
2096921,2096921,146100,700712
2096921,2096921,146261,700767
2096921,2096921,146427,700786
2096921,2096921,146077,701070
2096921,2096921,146315,701044
2096921,2096921,146541,700851
2096921,2096921,146392,701093
2096921,2096921,146226,701234
2096921,2096921,146272,701257
2096921,2096921,146098,701153
2096921,2096921,146086,701026
2096921,2096921,146237,701092
2096921,2096921,146330,701371
2096921,2096921,146390,701401
2096921,2096921,146349,701073
2096921,2096921,146201,701188
2096921,2096921,146232,701333
2096921,2096921,146211,701551
2096921,2096921,146170,701372
2096921,2096921,146163,701144
2096921,2096921,146158,701342
2096921,2096921,146315,701638
2096921,2096921,146504,701582
2096921,2096921,146426,701904
2096921,2096921,146619,701948
2096921,2096921,146669,701840
2096921,2096921,146717,701560
2096921,2096921,146502,702186
2096921,2096921,146476,701876
2096921,2096921,146830,701863
2096921,2096921,146824,701887
2096921,2096921,146863,702130
2096921,2096921,146839,702344
2096921,2096921,146666,702218
2096921,2096921,146990,701966
2096921,2096921,146755,702127
2096921,2096921,146943,702642
2096921,2096921,146971,702555
2096921,2096921,146897,702727
2096921,2096921,146717,702919
2096921,2096921,147194,702486
2096921,2096921,147100,702850
2096921,2096921,147151,702911
2096921,2096921,147115,702952
2096921,2096921,146995,702873
2096921,2096921,147143,702889
2096921,2096921,147070,703232
2096921,2096921,146986,703022
2096921,2096921,147289,703359
2096921,2096921,147159,703278
2096921,2096921,147368,703406
2096921,2096921,147542,703552
2096921,2096921,147076,703418
2096921,2096921,147135,703734
2096921,2096921,147539,703636
2096921,2096921,147371,703909
2096921,2096921,147501,704288
2096921,2096921,147493,704162
2096921,2096921,147557,704057
2096921,2096921,147443,704099
2096921,2096921,147684,703612
2096921,2096921,147620,704425
2096921,2096921,147706,704204
2096921,2096921,148072,704389
2096921,2096921,147820,704798
2096921,2096921,147737,704512
2096921,2096921,147812,704771
2096921,2096921,147816,704820
2096921,2096921,147488,704961
2096921,2096921,147672,704831
2096921,2096921,148137,704416
2096921,2096921,147978,705065
2096921,2096921,148024,704986
2096921,2096921,148075,705204
2096921,2096921,148032,705139
2096921,2096921,148254,705008
2096921,2096921,148258,705369
2096921,2096921,147908,705336
2096921,2096921,148018,705441
2096921,2096921,148254,705608
2096921,2096921,148475,705658
2096921,2096921,148246,705836
2096921,2096921,148125,705560
2096921,2096921,148353,705733
2096921,2096921,148318,705807
2096921,2096921,148362,705798
2096921,2096921,148396,706008
2096921,2096921,148091,706208
2096921,2096921,148227,705909
2096921,2096921,148319,705946
2096921,2096921,148397,706253
2096921,2096921,148462,706404
2096921,2096921,148414,706485
2096921,2096921,148401,706071
2096921,2096921,148552,706027
2096921,2096921,148506,706347
2096921,2096921,148141,706328
2096921,2096921,148230,706317
2096921,2096921,148486,706243
2096921,2096921,148395,706492
2096921,2096921,148575,706588
2096921,2096921,148517,706228
2096921,2096921,148575,705906
2096921,2096921,148463,706322
2096921,2096921,148745,706350
2096921,2096921,148629,706553
2096921,2096921,148809,706502
2096921,2096921,148636,706781
2096921,2096921,148468,706298
2096921,2096921,148235,706424
2096921,2096921,148350,706285
2096921,2096921,148481,706357
2096921,2096921,148634,706307
2096921,2096921,148697,706220
2096921,2096921,148790,706255
2096921,2096921,148640,706560
2096921,2096921,148670,706607
2096921,2096921,148641,706071
2096921,2096921,148581,706689
2096921,2096921,148682,706672
2096921,2096921,148600,706309
2096921,2096921,148368,706184
2096921,2096921,148554,706293
2096921,2096921,148339,706305
2096921,2096921,148411,706161
2096921,2096921,148230,706225
2096921,2096921,148330,706116
2096921,2096921,148339,705909
2096921,2096921,148206,706162
2096921,2096921,148458,706119
2096921,2096921,148275,706010
2096921,2096921,148460,706264
2096921,2096921,148620,706413
2096921,2096921,148281,706072
2096921,2096921,148210,705985
2096921,2096921,148017,706001
2096921,2096921,148113,705812
2096921,2096921,148211,705871
2096921,2096921,147868,705759
2096921,2096921,148191,706072
2096921,2096921,148269,705829
2096921,2096921,148305,705915
2096921,2096921,148271,706090
2096921,2096921,148383,705719
2096921,2096921,148194,705712
2096921,2096921,148341,705556
2096921,2096921,148331,705691
2096921,2096921,148072,705630
2096921,2096921,148042,705677
2096921,2096921,148197,705830
2096921,2096921,148120,705752
2096921,2096921,148240,705799
2096921,2096921,148060,705951
2096921,2096921,148182,705753
2096921,2096921,148250,705940
2096921,2096921,148456,705963
2096921,2096921,148372,706009
2096921,2096921,148485,706286
2096921,2096921,148409,705897
2096921,2096921,148482,706003
2096921,2096921,148553,705803
2096921,2096921,148542,705683
2096921,2096921,148245,705915
2096921,2096921,148478,705693
2096921,2096921,148178,705811
2096921,2096921,148569,706020
2096921,2096921,148566,706214
2096921,2096921,148400,706158
2096921,2096921,148517,706382
2096921,2096921,148366,706313
2096921,2096921,148395,706227
2096921,2096921,148484,706410
2096921,2096921,148700,706525
2096921,2096921,148928,706452
2096921,2096921,148798,706706
2096921,2096921,148799,706612
2096921,2096921,148640,706969
2096921,2096921,148354,706672
2096921,2096921,148253,706497
2096921,2096921,148513,706419
2096921,2096921,148802,706874
2096921,2096921,149018,707315
2096921,2096921,148639,706916
2096921,2096921,148974,706993
2096921,2096921,148793,706853
2096921,2096921,148880,706969
2096921,2096921,148961,706981
2096921,2096921,148843,707020
2096921,2096921,148651,707090
2096921,2096921,148856,707076
2096921,2096921,149010,706891
2096921,2096921,148922,707270
2096921,2096921,148888,707314
2096921,2096921,148901,707220
2096921,2096921,148761,707562
2096921,2096921,149009,707238
2096921,2096921,148913,707365
2096921,2096921,149110,707421
2096921,2096921,149314,707659
2096921,2096921,149079,707631
2096921,2096921,149299,707516
2096921,2096921,149275,707502
2096921,2096921,149049,707379
2096921,2096921,149231,707394
2096921,2096921,149172,707394
2096921,2096921,149149,707571
2096921,2096921,149137,707772
2096921,2096921,149237,707574
2096921,2096921,149486,708080
2096921,2096921,149384,707767
2096921,2096921,149220,707761
2096921,2096921,149069,707967
2096921,2096921,149344,708334
2096921,2096921,149256,708124
2096921,2096921,149319,707862
2096921,2096921,149332,708103
2096921,2096921,149384,707962
2096921,2096921,149380,707910
2096921,2096921,149676,708240
2096921,2096921,149457,707999
2096921,2096921,149658,708340
2096921,2096921,149375,708306
2096921,2096921,149490,708325
2096921,2096921,149393,708179
2096921,2096921,149408,708193
2096921,2096921,149837,708176
2096921,2096921,149340,708354
2096921,2096921,149593,708225
2096921,2096921,149624,708420
2096921,2096921,149470,708437
2096921,2096921,149606,708549
2096921,2096921,149514,708582
2096921,2096921,149945,708574
2096921,2096921,149689,708478
2096921,2096921,149649,708369
2096921,2096921,149546,708341
2096921,2096921,149779,708678
2096921,2096921,149683,708627
2096921,2096921,149714,708756
2096921,2096921,149506,708578
2096921,2096921,149508,708749
2096921,2096921,149530,708854
2096921,2096921,149758,708855
2096921,2096921,149752,708698
2096921,2096921,149665,708882
2096921,2096921,149592,708927
2096921,2096921,149819,709023
2096921,2096921,149582,708736
2096921,2096921,149701,708766
2096921,2096921,149796,708749
2096921,2096921,149655,708687
2096921,2096921,149735,708845
2096921,2096921,149640,709034
2096921,2096921,149866,709022
2096921,2096921,150033,709069
2096921,2096921,149812,708952
2096921,2096921,150001,709311
2096921,2096921,150137,709045
2096921,2096921,149857,708893
2096921,2096921,149934,708988
2096921,2096921,150058,709057
2096921,2096921,149952,709084
2096921,2096921,149782,709187
2096921,2096921,149846,708965
2096921,2096921,149861,709036
2096921,2096921,149990,709081
2096921,2096921,150015,709064
2096921,2096921,150070,708985
2096921,2096921,149936,709183
2096921,2096921,149754,709236
2096921,2096921,150188,709241
2096921,2096921,150103,709238
2096921,2096921,150039,709182
2096921,2096921,150160,709306
2096921,2096921,150100,709132
2096921,2096921,150091,709037
2096921,2096921,150150,708968
2096921,2096921,149937,709333
2096921,2096921,150151,709263
2096921,2096921,150072,709057
2096921,2096921,150141,709003
2096921,2096921,150075,709388
2096921,2096921,149993,709379
2096921,2096921,149922,709639
2096921,2096921,150110,708967
2096921,2096921,150161,709179
2096921,2096921,149786,709675
2096921,2096921,150226,709528
2096921,2096921,150195,709380
2096921,2096921,150277,709323
2096921,2096921,150094,709529
2096921,2096921,150274,709196
2096921,2096921,150146,709306
2096921,2096921,150180,709359
2096921,2096921,150009,709284
2096921,2096921,150084,709716
2096921,2096921,150155,709204
2096921,2096921,150208,709482
2096921,2096921,150024,709309
2096921,2096921,150359,709283
2096921,2096921,150358,709700
2096921,2096921,150049,709439
2096921,2096921,150389,709212
2096921,2096921,150416,709629
2096921,2096921,150463,708921
2096921,2096921,150122,709450
2096921,2096921,150060,709298
2096921,2096921,150030,709366
2096921,2096921,150214,709479
2096921,2096921,150155,709703
2096921,2096921,150085,709622
2096921,2096921,150109,709388
2096921,2096921,150242,709669
2096921,2096921,150153,709649
2096921,2096921,150341,709478
2096921,2096921,150606,709282
2096921,2096921,150325,709492
2096921,2096921,150196,709383
2096921,2096921,149988,709612
2096921,2096921,149993,709553
2096921,2096921,150375,709386
2096921,2096921,150409,709335
2096921,2096921,150546,709681
2096921,2096921,150309,709432
2096921,2096921,150230,709063
2096921,2096921,150090,709740
2096921,2096921,150136,709344
2096921,2096921,150479,709417
2096921,2096921,150258,709422
2096921,2096921,150433,709493
2096921,2096921,150328,709357
2096921,2096921,150535,709652
2096921,2096921,150395,709590
2096921,2096921,150255,709733
2096921,2096921,150475,709360
2096921,2096921,150141,709582
2096921,2096921,150367,709482
2096921,2096921,150177,709337
2096921,2096921,150184,709315
2096921,2096921,150475,709510
2096921,2096921,150464,709509
2096921,2096921,150584,709518
2096921,2096921,150299,709447
2096921,2096921,150429,709506
2096921,2096921,150349,709541
2096921,2096921,150557,709419
2096921,2096921,150462,709331
2096921,2096921,150391,709520
2096921,2096921,150339,709331
2096921,2096921,150289,709179
2096921,2096921,150185,709242
2096921,2096921,150599,709317
2096921,2096921,150263,709385
2096921,2096921,150247,709418
2096921,2096921,150258,709500
2096921,2096921,150258,709431
2096921,2096921,150330,709308
2096921,2096921,150106,709410
2096921,2096921,150003,709289
2096921,2096921,150436,709476
2096921,2096921,150425,709327
2096921,2096921,150271,709210
2096921,2096921,150664,709247
2096921,2096921,150678,709314
2096921,2096921,150510,709451
2096921,2096921,150519,709251
2096921,2096921,150417,709327
2096921,2096921,150646,709245
2096921,2096921,150314,709458
2096921,2096921,150394,709403
2096921,2096921,150420,709054
2096921,2096921,150455,709132
2096921,2096921,150579,709274
2096921,2096921,150511,709356
2096921,2096921,150384,709454
2096921,2096921,150436,709203
2096921,2096921,150531,709414
2096921,2096921,150409,709417
2096921,2096921,150454,709051
2096921,2096921,150354,709162
2096921,2096921,150389,709151
2096921,2096921,150395,709078
2096921,2096921,150330,709263
2096921,2096921,150296,709132
2096921,2096921,150202,709165
2096921,2096921,150471,709312
2096921,2096921,150508,709181
2096921,2096921,150325,709120
2096921,2096921,150216,709017
2096921,2096921,150357,709004
2096921,2096921,150115,708740
2096921,2096921,150316,708782
2096921,2096921,149941,709096
2096921,2096921,150070,708791
2096921,2096921,150214,709080
2096921,2096921,150351,708624
2096921,2096921,150399,708969
2096921,2096921,150359,709041
2096921,2096921,150343,708790
2096921,2096921,150488,708872
2096921,2096921,150477,709074
2096921,2096921,150605,708876
2096921,2096921,150377,709010
2096921,2096921,150466,708868
2096921,2096921,150423,708852
2096921,2096921,150362,708827
2096921,2096921,150093,708925
2096921,2096921,150320,708683
2096921,2096921,150104,708895
2096921,2096921,150249,708682
2096921,2096921,150082,708296
2096921,2096921,150380,708599
2096921,2096921,150345,708720
2096921,2096921,150085,708480
2096921,2096921,150424,708705
2096921,2096921,150305,708661
2096921,2096921,150241,708897
2096921,2096921,150225,708653
2096921,2096921,150105,708478
2096921,2096921,150291,708323
2096921,2096921,150321,708635
2096921,2096921,150047,708574
2096921,2096921,150198,708364
2096921,2096921,150077,708552
2096921,2096921,150398,708658
2096921,2096921,149999,708404
2096921,2096921,150162,708344
2096921,2096921,150096,708322
2096921,2096921,150219,708300
2096921,2096921,150079,708298
2096921,2096921,149986,708583
2096921,2096921,149785,708034
2096921,2096921,149830,707797
2096921,2096921,149983,707934
2096921,2096921,149796,708030
2096921,2096921,149895,707704
2096921,2096921,150101,707604
2096921,2096921,149783,707541
2096921,2096921,149829,707641
2096921,2096921,149812,707531
2096921,2096921,149879,707663
2096921,2096921,149591,707162
2096921,2096921,149784,707063
2096921,2096921,149796,706914
2096921,2096921,149505,706905
2096921,2096921,149601,706858
2096921,2096921,149192,706376
2096921,2096921,149165,706166
2096921,2096921,149294,706271
2096921,2096921,149344,705972
2096921,2096921,148986,706076
2096921,2096921,149237,705266
2096921,2096921,149252,705389
2096921,2096921,149214,705295
2096921,2096921,149184,705445
2096921,2096921,148404,705150
2096921,2096921,148454,704042
2096921,2096921,147968,703657
2096921,2096921,148082,703591
2096921,2096921,148451,703752
2096921,2096921,147479,703920
2096921,2096921,147318,702139
2096921,2096921,147386,701705
2096921,2096921,147203,701594
2096921,2096921,147259,701742
2096921,2096921,146791,701648
2096921,2096921,146786,700594
2096921,2096921,146626,700178
2096921,2096921,146879,700074
2096921,2096921,146589,700139
2096921,2096921,146380,699730
2096921,2096921,146185,698938
2096921,2096921,146225,698895
2096921,2096921,146211,698615
2096921,2096921,146194,699074
2096921,2096921,145898,698906
2096921,2096921,145884,698248
2096921,2096921,145671,698189
2096921,2096921,145983,697762
2096921,2096921,145633,697835
2096921,2096921,145711,697901
2096921,2096921,145604,697568
2096921,2096921,145708,697143
2096921,2096921,145560,697302
2096921,2096921,145510,697180
2096921,2096921,145375,696992
2096921,2096921,145106,696598
2096921,2096921,145057,696676
2096921,2096921,145266,696795
2096921,2096921,145342,696390
2096921,2096921,145044,696615
2096921,2096921,144991,696206
2096921,2096921,145194,696187
2096921,2096921,145212,696318
2096921,2096921,145189,696079
2096921,2096921,145188,696125
2096921,2096921,145142,696177
2096921,2096921,145059,696246
2096921,2096921,145093,696128
2096921,2096921,145029,695962
2096921,2096921,145259,696288
2096921,2096921,145406,696159
2096921,2096921,145190,696272
2096921,2096921,145065,695942
2096921,2096921,145114,695948
2096921,2096921,144960,696167
2096921,2096921,145349,696254
2096921,2096921,145162,696003
2096921,2096921,145060,696301
2096921,2096921,144951,696644
2096921,2096921,145104,696394
2096921,2096921,145178,696100
2096921,2096921,145160,696043
2096921,2096921,145382,696214
2096921,2096921,145360,695926
2096921,2096921,144826,696230
2096921,2096921,145276,696323
2096921,2096921,145254,696165
2096921,2096921,145103,696081
2096921,2096921,145107,696258
2096921,2096921,145296,696051
2096921,2096921,145175,696357
2096921,2096921,145139,696273
2096921,2096921,145299,696554
2096921,2096921,145437,696453
2096921,2096921,145305,696488
2096921,2096921,145493,696682
2096921,2096921,145313,696767
2096921,2096921,145543,696523
2096921,2096921,145577,696425
2096921,2096921,145345,696491
2096921,2096921,145389,696805
2096921,2096921,145346,696645
2096921,2096921,145389,696897
2096921,2096921,145696,696857
2096921,2096921,145867,696860
2096921,2096921,145702,696979
2096921,2096921,145898,697246
2096921,2096921,145519,697028
2096921,2096921,145629,697020
2096921,2096921,145814,697012
2096921,2096921,145783,697570
2096921,2096921,146121,697457
2096921,2096921,146153,697464
2096921,2096921,145787,697205
2096921,2096921,146074,697775
2096921,2096921,146013,697438
2096921,2096921,146061,697830
2096921,2096921,145913,697494
2096921,2096921,146068,697753
2096921,2096921,146090,697597
2096921,2096921,146039,697733
2096921,2096921,146093,698132
2096921,2096921,146073,698302
2096921,2096921,145966,698102
2096921,2096921,146162,697892
2096921,2096921,146147,698157
2096921,2096921,146652,698225
2096921,2096921,146416,698004
2096921,2096921,146405,698119
2096921,2096921,146595,698451
2096921,2096921,146516,698752
2096921,2096921,146410,698398
2096921,2096921,146220,698385
2096921,2096921,146233,698510
2096921,2096921,146633,698710
2096921,2096921,146714,698825
2096921,2096921,146555,698686
2096921,2096921,146492,698636
2096921,2096921,146510,698770
2096921,2096921,146795,698856
2096921,2096921,146808,699182
2096921,2096921,146605,698960
2096921,2096921,146684,699022
2096921,2096921,147004,699108
2096921,2096921,146980,699085
2096921,2096921,147176,699155
2096921,2096921,146597,699329
2096921,2096921,146758,699420
2096921,2096921,146843,699506
2096921,2096921,146717,699293
2096921,2096921,146936,699670
2096921,2096921,146960,699672
2096921,2096921,147046,699815
2096921,2096921,146959,699370
2096921,2096921,147129,699631
2096921,2096921,147109,699752
2096921,2096921,146837,699849
2096921,2096921,147136,700075
2096921,2096921,146964,699772
2096921,2096921,146711,699900
2096921,2096921,146996,700041
2096921,2096921,147129,699652
2096921,2096921,147230,699939
2096921,2096921,147298,700091
2096921,2096921,147339,700054
2096921,2096921,147062,700087
2096921,2096921,147160,700285
2096921,2096921,147032,700163
2096921,2096921,147382,700106
2096921,2096921,147238,699990
2096921,2096921,147216,699857
2096921,2096921,147166,700140
2096921,2096921,147252,700409
2096921,2096921,147290,700013
2096921,2096921,147328,700198
2096921,2096921,146974,700283
2096921,2096921,147159,700257
2096921,2096921,147283,699819
2096921,2096921,147337,699882
2096921,2096921,147172,699992
2096921,2096921,146964,700361
2096921,2096921,146947,700365
2096921,2096921,146856,700060
2096921,2096921,147087,699944
2096921,2096921,147122,699946
2096921,2096921,147045,699655
2096921,2096921,147238,699934
2096921,2096921,147126,700154
2096921,2096921,147205,700007
2096921,2096921,147119,699899
2096921,2096921,147253,699826
2096921,2096921,147216,699907
2096921,2096921,147123,699737
2096921,2096921,146976,699656
2096921,2096921,146982,699751
2096921,2096921,146991,699695
2096921,2096921,147229,699767
2096921,2096921,147063,699775
2096921,2096921,147061,699532
2096921,2096921,146879,699496
2096921,2096921,146866,699479
2096921,2096921,147177,699564
2096921,2096921,147073,699432
2096921,2096921,147101,699716
2096921,2096921,147007,699559
2096921,2096921,146662,699739
2096921,2096921,147000,699104
2096921,2096921,147113,699075
2096921,2096921,146801,699200
2096921,2096921,146666,699234
2096921,2096921,146948,699043
2096921,2096921,146939,699129
2096921,2096921,146968,699419
2096921,2096921,146827,699364
2096921,2096921,146801,699154
2096921,2096921,146947,699231
2096921,2096921,146862,698916
2096921,2096921,146669,698860
2096921,2096921,146922,699057
2096921,2096921,146731,698984
2096921,2096921,146380,699180
2096921,2096921,146679,699110
2096921,2096921,146676,699474
2096921,2096921,147068,699370
2096921,2096921,147281,698971
2096921,2096921,146824,699403
2096921,2096921,146862,699291
2096921,2096921,146833,699387
2096921,2096921,146825,698987
2096921,2096921,147013,699435
2096921,2096921,146896,699463
2096921,2096921,147132,699620
2096921,2096921,146921,699292
2096921,2096921,147239,699225
2096921,2096921,147114,699210
2096921,2096921,147160,699487
2096921,2096921,146803,699507
2096921,2096921,147354,699665
2096921,2096921,146969,699364
2096921,2096921,147192,699835
2096921,2096921,147307,699798
2096921,2096921,147386,699648
2096921,2096921,147329,699658
2096921,2096921,147457,699796
2096921,2096921,147131,699923
2096921,2096921,147236,699961
2096921,2096921,147351,700172
2096921,2096921,147320,699946
2096921,2096921,147267,700023
2096921,2096921,147140,700007
2096921,2096921,147132,700058
2096921,2096921,147494,699923
2096921,2096921,147275,700241
2096921,2096921,147359,700233
2096921,2096921,147336,700076
2096921,2096921,147107,700242
2096921,2096921,147352,700394
2096921,2096921,147369,700145
2096921,2096921,147459,700521
2096921,2096921,147577,700300
2096921,2096921,147397,700469
2096921,2096921,147240,700690
2096921,2096921,147274,700473
2096921,2096921,147843,700436
2096921,2096921,147786,700595
2096921,2096921,147574,700642
2096921,2096921,147415,700766
2096921,2096921,147616,700880
2096921,2096921,147448,700835
2096921,2096921,147524,700940
2096921,2096921,147513,701005
2096921,2096921,148042,700754
2096921,2096921,147687,700939
2096921,2096921,147619,700942
2096921,2096921,147557,700937
2096921,2096921,147511,701337
2096921,2096921,147688,701263
2096921,2096921,147796,701116
2096921,2096921,147673,701032
2096921,2096921,148069,701158
2096921,2096921,147908,701379
2096921,2096921,147683,701207
2096921,2096921,147973,701323
2096921,2096921,147917,701047
2096921,2096921,147849,701184
2096921,2096921,147829,701682
2096921,2096921,147650,701599
2096921,2096921,148130,701576
2096921,2096921,147775,701748
2096921,2096921,147861,701623
2096921,2096921,147834,701717
2096921,2096921,148131,701388
2096921,2096921,147935,701753
2096921,2096921,147840,701844
2096921,2096921,148105,701542
2096921,2096921,147813,701744
2096921,2096921,147975,701766
2096921,2096921,148129,701977
2096921,2096921,148085,701488
2096921,2096921,148239,701767
2096921,2096921,147954,701935
2096921,2096921,148218,701820
2096921,2096921,147948,702094
2096921,2096921,147973,701924
2096921,2096921,148121,702093
2096921,2096921,148153,702196
2096921,2096921,147994,702153
2096921,2096921,148165,702199
2096921,2096921,148109,702160
2096921,2096921,148426,702460
2096921,2096921,148297,702319
2096921,2096921,148262,702455
2096921,2096921,148605,702436
2096921,2096921,148538,702299
2096921,2096921,148457,702316
2096921,2096921,148590,702273
2096921,2096921,148461,702609
2096921,2096921,148254,702608
2096921,2096921,148215,702572
2096921,2096921,148443,702540
2096921,2096921,148449,702504
2096921,2096921,148534,702416
2096921,2096921,148531,702719
2096921,2096921,148452,702840
2096921,2096921,148452,702751
2096921,2096921,148354,702975
2096921,2096921,148645,702896
2096921,2096921,148622,702890
2096921,2096921,148987,703053
2096921,2096921,148612,702758
2096921,2096921,148479,702915
2096921,2096921,148569,702834
2096921,2096921,148802,703031
2096921,2096921,148398,702946
2096921,2096921,148518,702978
2096921,2096921,148465,703313
2096921,2096921,148658,703287
2096921,2096921,148605,703274
2096921,2096921,148782,702824
2096921,2096921,148738,702952
2096921,2096921,148446,703268
2096921,2096921,148541,703403
2096921,2096921,148482,703606
2096921,2096921,148831,703234
2096921,2096921,148812,703428
2096921,2096921,148760,703420
2096921,2096921,148944,703472
2096921,2096921,148865,703373
2096921,2096921,148880,703601
2096921,2096921,148914,703200
2096921,2096921,148896,703439
2096921,2096921,148765,703760
2096921,2096921,148998,703731
2096921,2096921,148934,703736
2096921,2096921,148962,703886
2096921,2096921,148825,703556
2096921,2096921,148821,703555
2096921,2096921,148720,703530
2096921,2096921,148731,703573
2096921,2096921,148788,703918
2096921,2096921,148688,703941
2096921,2096921,148880,703836
2096921,2096921,149164,703951
2096921,2096921,148779,703754
2096921,2096921,148850,703572
2096921,2096921,148809,703886
2096921,2096921,148831,704067
2096921,2096921,148933,704323
2096921,2096921,149162,703636
2096921,2096921,149048,703911
2096921,2096921,149094,703976
2096921,2096921,148914,704126
2096921,2096921,148902,703966
2096921,2096921,148987,704139
2096921,2096921,148913,704076
2096921,2096921,148764,704181
2096921,2096921,149192,703887
2096921,2096921,149116,703856
2096921,2096921,149118,703728
2096921,2096921,149296,704020
2096921,2096921,149112,704060
2096921,2096921,148945,703994
2096921,2096921,148896,704158
2096921,2096921,149060,703898
2096921,2096921,149123,704023
2096921,2096921,148951,704191
2096921,2096921,149123,704196
2096921,2096921,148772,704156
2096921,2096921,149112,704012
2096921,2096921,149268,704147
2096921,2096921,149123,704078
2096921,2096921,148992,704190
2096921,2096921,149175,704265
2096921,2096921,149224,704229
2096921,2096921,149296,704403
2096921,2096921,149205,704409
2096921,2096921,148928,704391
2096921,2096921,149173,704297
2096921,2096921,149379,704167
2096921,2096921,148875,704500
2096921,2096921,149257,704544
2096921,2096921,148963,704679
2096921,2096921,148938,704557
2096921,2096921,149017,704322
2096921,2096921,149084,704711
2096921,2096921,149165,704588
2096921,2096921,149191,704772
2096921,2096921,148873,704757
2096921,2096921,149169,704879
2096921,2096921,149150,704491
2096921,2096921,149345,704498
2096921,2096921,149289,704451
2096921,2096921,149269,704595
2096921,2096921,149434,704723
2096921,2096921,149232,704485
2096921,2096921,149416,704525
2096921,2096921,149251,704759
2096921,2096921,149377,704626
2096921,2096921,149058,704628
2096921,2096921,149216,704474
2096921,2096921,149187,704862
2096921,2096921,149130,704992
2096921,2096921,149420,704945
2096921,2096921,149164,704746
2096921,2096921,149392,704892
2096921,2096921,149443,704684
2096921,2096921,149411,704983
2096921,2096921,149458,705011
2096921,2096921,149238,704755
2096921,2096921,149181,704596
2096921,2096921,149332,704638
2096921,2096921,149274,704840
2096921,2096921,149334,704889
2096921,2096921,149242,704950
2096921,2096921,149199,704834
2096921,2096921,149095,705153
2096921,2096921,149302,704906
2096921,2096921,149499,705015
2096921,2096921,149574,704561
2096921,2096921,149436,704927
2096921,2096921,149521,705084
2096921,2096921,149439,704923
2096921,2096921,149809,704904
2096921,2096921,149604,705009
2096921,2096921,149451,704896
2096921,2096921,149648,704899
2096921,2096921,149405,704644
2096921,2096921,149288,704941
2096921,2096921,149235,704838
2096921,2096921,149518,704985
2096921,2096921,149263,704835
2096921,2096921,149407,705020
2096921,2096921,149318,705026
2096921,2096921,149263,704787
2096921,2096921,149527,704879
2096921,2096921,149497,704941
2096921,2096921,149297,705012
2096921,2096921,149404,705155
2096921,2096921,149382,704667
2096921,2096921,149404,705152
2096921,2096921,149566,705190
2096921,2096921,149580,705020
2096921,2096921,149357,705207
2096921,2096921,149236,705284
2096921,2096921,149372,705326
2096921,2096921,149395,705130
2096921,2096921,149519,704796
2096921,2096921,149531,705145
2096921,2096921,149279,705088
2096921,2096921,149478,704977
2096921,2096921,149341,705097
2096921,2096921,149701,704940
2096921,2096921,149572,704848
2096921,2096921,149663,704956
2096921,2096921,149446,704727
2096921,2096921,149253,705183
2096921,2096921,149285,704881
2096921,2096921,149473,704808
2096921,2096921,149701,704913
2096921,2096921,149273,704984
2096921,2096921,149456,704993
2096921,2096921,149540,704909
2096921,2096921,149629,704873
2096921,2096921,149448,704849
2096921,2096921,149768,705023
2096921,2096921,149515,705007
2096921,2096921,149419,705197
2096921,2096921,149435,705135
2096921,2096921,149546,704943
2096921,2096921,149377,705121
2096921,2096921,149188,705172
2096921,2096921,149408,704988
2096921,2096921,149318,705014
2096921,2096921,149282,705138
2096921,2096921,149659,705207
2096921,2096921,149514,705194
2096921,2096921,149519,705174
2096921,2096921,149580,705169
2096921,2096921,149450,705205
2096921,2096921,149434,705173
2096921,2096921,149451,704827
2096921,2096921,149283,704672
2096921,2096921,149265,704857
2096921,2096921,149350,704719
2096921,2096921,149158,704933
2096921,2096921,149075,704718
2096921,2096921,149320,704588
2096921,2096921,149121,704476
2096921,2096921,149001,704456
2096921,2096921,148924,704703
2096921,2096921,148833,704358
2096921,2096921,148980,704309
2096921,2096921,149003,703996
2096921,2096921,148753,703830
2096921,2096921,148638,704105
2096921,2096921,148792,703837
2096921,2096921,148797,703731
2096921,2096921,148922,703415
2096921,2096921,148719,703322
2096921,2096921,148506,703551
2096921,2096921,148411,703112
2096921,2096921,148452,702599
2096921,2096921,148577,702690
2096921,2096921,148378,702665
2096921,2096921,147926,703124
2096921,2096921,147903,701622
2096921,2096921,147633,701208
2096921,2096921,147796,701351
2096921,2096921,147428,701589
2096921,2096921,147110,701205
2096921,2096921,147019,699807
2096921,2096921,147023,699238
2096921,2096921,147073,699224
2096921,2096921,146771,699171
2096921,2096921,146349,698986
2096921,2096921,146118,698305
2096921,2096921,146236,698257
2096921,2096921,146066,697802
2096921,2096921,145992,697720
2096921,2096921,145615,697817
2096921,2096921,145605,697131
2096921,2096921,145683,696775
2096921,2096921,145784,696724
2096921,2096921,145655,696726
2096921,2096921,145319,696864
2096921,2096921,145455,696085
2096921,2096921,145317,696096
2096921,2096921,145296,695912
2096921,2096921,145394,695805
2096921,2096921,145074,695710
2096921,2096921,145121,695421
2096921,2096921,145148,695434
2096921,2096921,145108,695719
2096921,2096921,145306,695301
2096921,2096921,144904,695368
2096921,2096921,144811,694819
2096921,2096921,144916,695052
2096921,2096921,145107,694882
2096921,2096921,145142,694820
2096921,2096921,145066,694842
2096921,2096921,145164,694904
2096921,2096921,144667,695081
2096921,2096921,144844,694678
2096921,2096921,145204,694611
2096921,2096921,144844,694723
2096921,2096921,144914,694828
2096921,2096921,144938,694756
2096921,2096921,144841,694888
2096921,2096921,145049,694862
2096921,2096921,144747,694819
2096921,2096921,144830,694573
2096921,2096921,145163,694728
2096921,2096921,144744,695109
2096921,2096921,144800,694552
2096921,2096921,144717,694601
2096921,2096921,144869,694881
2096921,2096921,144840,695014
2096921,2096921,144963,695006
2096921,2096921,144836,694912
2096921,2096921,144864,695090
2096921,2096921,144658,695250
2096921,2096921,144940,695182
2096921,2096921,144943,695144
2096921,2096921,145195,694880
2096921,2096921,145209,695111
2096921,2096921,145097,695594
2096921,2096921,145196,695345
2096921,2096921,145157,695242
2096921,2096921,145342,695063
2096921,2096921,145031,695226
2096921,2096921,145087,695655
2096921,2096921,145116,695834
2096921,2096921,144985,695508
2096921,2096921,144945,695696
2096921,2096921,145112,695362
2096921,2096921,145288,695676
2096921,2096921,145532,695878
2096921,2096921,145299,696035
2096921,2096921,145378,695811
2096921,2096921,145503,695855
2096921,2096921,145411,696210
2096921,2096921,145550,696509
2096921,2096921,145308,696416
2096921,2096921,145233,696280
2096921,2096921,145488,696583
2096921,2096921,145697,696991
2096921,2096921,145579,697042
2096921,2096921,145618,696698
2096921,2096921,145699,697025
2096921,2096921,145662,697025
2096921,2096921,145723,697120
2096921,2096921,145711,697443
2096921,2096921,146001,697272
2096921,2096921,145716,697488
2096921,2096921,146047,697373
2096921,2096921,146074,697747
2096921,2096921,145941,697699
2096921,2096921,146132,697905
2096921,2096921,145963,697746
2096921,2096921,146044,697892
2096921,2096921,146554,697905
2096921,2096921,146359,698239
2096921,2096921,146005,698101
2096921,2096921,145947,698237
2096921,2096921,146320,698302
2096921,2096921,146163,698552
2096921,2096921,146386,698677
2096921,2096921,146477,698642
2096921,2096921,146559,698719
2096921,2096921,146533,698670
2096921,2096921,146507,698871
2096921,2096921,146504,698802
2096921,2096921,146478,699046
2096921,2096921,146530,699141
2096921,2096921,146745,699012
2096921,2096921,146511,699298
2096921,2096921,146716,699622
2096921,2096921,146608,699381
2096921,2096921,146815,699238
2096921,2096921,146852,699207
2096921,2096921,146885,699884
2096921,2096921,146983,699897
2096921,2096921,147042,700036
2096921,2096921,147027,700092
2096921,2096921,146971,700339
2096921,2096921,146822,700362
2096921,2096921,146995,700545
2096921,2096921,146782,700579
2096921,2096921,146792,700831
2096921,2096921,147148,700793
2096921,2096921,147262,700951
2096921,2096921,147138,700593
2096921,2096921,147525,700886
2096921,2096921,147416,700919
2096921,2096921,147485,701055
2096921,2096921,147332,701623
2096921,2096921,147352,701347
2096921,2096921,147371,701430
2096921,2096921,147563,701509
2096921,2096921,147472,701712
2096921,2096921,147710,701638
2096921,2096921,147355,701659
2096921,2096921,147469,701661
2096921,2096921,147400,701870
2096921,2096921,147599,701695
2096921,2096921,147466,701580
2096921,2096921,147500,701739
2096921,2096921,147660,701716
2096921,2096921,147493,701586
2096921,2096921,147616,701737
2096921,2096921,147325,701801
2096921,2096921,147466,702045
2096921,2096921,147790,702109
2096921,2096921,147557,702000
2096921,2096921,147577,702077
2096921,2096921,147431,702124
2096921,2096921,147763,702084
2096921,2096921,147605,702374
2096921,2096921,147432,702007
2096921,2096921,147415,701785
2096921,2096921,147611,701698
2096921,2096921,147422,701783
2096921,2096921,147219,701707
2096921,2096921,147452,701751
2096921,2096921,147787,702157
2096921,2096921,147437,702094
2096921,2096921,147649,701934
2096921,2096921,147562,701861
2096921,2096921,147634,701907
2096921,2096921,147334,702006
2096921,2096921,147530,701915
2096921,2096921,147519,702022
2096921,2096921,147496,701623
2096921,2096921,147439,701969
2096921,2096921,147443,702204
2096921,2096921,147627,701852
2096921,2096921,147477,701940
2096921,2096921,147464,702007
2096921,2096921,147549,702133
2096921,2096921,147300,702024
2096921,2096921,147447,701797
2096921,2096921,147371,702226
2096921,2096921,147474,702025
2096921,2096921,147561,702334
2096921,2096921,147441,701722
2096921,2096921,147469,701836
2096921,2096921,147352,701862
2096921,2096921,147659,701727
2096921,2096921,147837,701935
2096921,2096921,147648,701924
2096921,2096921,147382,701943
2096921,2096921,147407,702124
2096921,2096921,147335,701904
2096921,2096921,147493,702177
2096921,2096921,147614,702140
2096921,2096921,147368,702156
2096921,2096921,147531,702190
2096921,2096921,147670,701642
2096921,2096921,147376,702011
2096921,2096921,147452,702219
2096921,2096921,147670,701943
2096921,2096921,147578,702127
2096921,2096921,147814,702101
2096921,2096921,147603,702010
2096921,2096921,147286,701607
2096921,2096921,147473,702198
2096921,2096921,147493,702557
2096921,2096921,147705,702673
2096921,2096921,147602,702447
2096921,2096921,147696,702394
2096921,2096921,148013,702609
2096921,2096921,147891,702853
2096921,2096921,147638,702747
2096921,2096921,147662,702789
2096921,2096921,147903,702739
2096921,2096921,147738,702807
2096921,2096921,147782,703029
2096921,2096921,148061,703163
2096921,2096921,147818,703333
2096921,2096921,147821,703092
2096921,2096921,147924,703005
2096921,2096921,148252,703233
2096921,2096921,147976,703448
2096921,2096921,148045,703296
2096921,2096921,147784,703396
2096921,2096921,148245,703584
2096921,2096921,148211,703560
2096921,2096921,148406,703572
2096921,2096921,147805,703884
2096921,2096921,148116,703952
2096921,2096921,148074,703842
2096921,2096921,148204,704181
2096921,2096921,148003,704206
2096921,2096921,148184,704019
2096921,2096921,148332,704123
2096921,2096921,147958,703952
2096921,2096921,148380,704319
2096921,2096921,148221,704131
2096921,2096921,148125,704408
2096921,2096921,148330,704745
2096921,2096921,148480,704410
2096921,2096921,148785,704767
2096921,2096921,148503,704584
2096921,2096921,148426,704924
2096921,2096921,148208,704728
2096921,2096921,148436,704520
2096921,2096921,148439,704991
2096921,2096921,148638,705096
2096921,2096921,148520,704855
2096921,2096921,148481,705063
2096921,2096921,148744,704628
2096921,2096921,148712,705497
2096921,2096921,148541,705296
2096921,2096921,148372,705399
2096921,2096921,148873,705804
2096921,2096921,148709,705656
2096921,2096921,148646,705571
2096921,2096921,149002,705480
2096921,2096921,148977,705627
2096921,2096921,149143,705762
2096921,2096921,148798,705512
2096921,2096921,148731,705524
2096921,2096921,149066,705973
2096921,2096921,148892,705978
2096921,2096921,148836,705749
2096921,2096921,149150,705589
2096921,2096921,149094,705917
2096921,2096921,149003,705982
2096921,2096921,149040,706001
2096921,2096921,149054,706058
2096921,2096921,149377,706047
2096921,2096921,149045,706299
2096921,2096921,149079,706563
2096921,2096921,148979,706272
2096921,2096921,148866,706656
2096921,2096921,149499,706382
2096921,2096921,149441,706508
2096921,2096921,149345,706516
2096921,2096921,149151,706655
2096921,2096921,149184,706649
2096921,2096921,148979,706976
2096921,2096921,149455,706815
2096921,2096921,149255,706666
2096921,2096921,149431,706860
2096921,2096921,149437,707166
2096921,2096921,149651,706765
2096921,2096921,149843,707216
2096921,2096921,149288,707204
2096921,2096921,149418,707151
2096921,2096921,149345,707073
2096921,2096921,149518,707338
2096921,2096921,149610,707298
2096921,2096921,149469,707492
2096921,2096921,149181,707153
2096921,2096921,149433,707337
2096921,2096921,149446,707391
2096921,2096921,149636,707928
2096921,2096921,149236,707732
2096921,2096921,149385,708046
2096921,2096921,149424,707914
2096921,2096921,149524,707619
2096921,2096921,149582,707884
2096921,2096921,149422,707662
2096921,2096921,149879,707642
2096921,2096921,149533,707846
2096921,2096921,149591,707832
2096921,2096921,149950,708198
2096921,2096921,149607,708098
2096921,2096921,149833,708085
2096921,2096921,149664,707984
2096921,2096921,149726,708251
2096921,2096921,149857,708458
2096921,2096921,149938,708675
2096921,2096921,149766,708281
2096921,2096921,149904,708334
2096921,2096921,149785,708152
2096921,2096921,149842,708505
2096921,2096921,149776,708456
2096921,2096921,149815,708522
2096921,2096921,149857,708541
2096921,2096921,150050,708573
2096921,2096921,149991,708694
2096921,2096921,149943,708831
2096921,2096921,149969,708787
2096921,2096921,150287,708590
2096921,2096921,150191,708876
2096921,2096921,150206,708982
2096921,2096921,150187,709059
2096921,2096921,150354,708837
2096921,2096921,150277,708990
2096921,2096921,150442,708842
2096921,2096921,149975,709165
2096921,2096921,149889,709142
2096921,2096921,150127,709179
2096921,2096921,150209,709303
2096921,2096921,150254,709211
2096921,2096921,150040,709401
2096921,2096921,150041,709587
2096921,2096921,150142,709396
2096921,2096921,149986,709412
2096921,2096921,150197,709490
2096921,2096921,149987,709758
2096921,2096921,150093,709454
2096921,2096921,150174,709572
2096921,2096921,150108,709421
2096921,2096921,150246,709529
2096921,2096921,150257,709402
2096921,2096921,150186,709718
2096921,2096921,150522,709942
2096921,2096921,150413,709824
2096921,2096921,150479,709906
2096921,2096921,150450,710120
2096921,2096921,150342,710256
2096921,2096921,150272,709954
2096921,2096921,150159,709925
2096921,2096921,150288,710057
2096921,2096921,150482,710049
2096921,2096921,150324,709972
2096921,2096921,150298,710008
2096921,2096921,150325,709883
2096921,2096921,150246,710122
2096921,2096921,150424,710270
2096921,2096921,150427,710280
2096921,2096921,150273,710152
2096921,2096921,150595,710373
2096921,2096921,150244,710513
2096921,2096921,150369,710238
2096921,2096921,150586,710353
2096921,2096921,150620,710313
2096921,2096921,150591,710316
2096921,2096921,150383,710179
2096921,2096921,150510,710551
2096921,2096921,150484,710455
2096921,2096921,150304,710301
2096921,2096921,150652,710170
2096921,2096921,150244,710485
2096921,2096921,150409,710404
2096921,2096921,150651,710707
2096921,2096921,150595,710534
2096921,2096921,150667,710688
2096921,2096921,150624,710468
2096921,2096921,150817,710799
2096921,2096921,150711,710474
2096921,2096921,150828,710423
2096921,2096921,150662,710784
2096921,2096921,150737,710729
2096921,2096921,150697,710625
2096921,2096921,150843,710848
2096921,2096921,150675,710781
2096921,2096921,150647,711043
2096921,2096921,150636,710599
2096921,2096921,150683,710719
2096921,2096921,150595,710985
2096921,2096921,150853,711082
2096921,2096921,150613,711081
2096921,2096921,150649,711237
2096921,2096921,150766,711260
2096921,2096921,150720,711040
2096921,2096921,151131,710810
2096921,2096921,150864,710800
2096921,2096921,150517,710918
2096921,2096921,151035,711221
2096921,2096921,150661,711236
2096921,2096921,150813,711074
2096921,2096921,150647,711225
2096921,2096921,150719,711058
2096921,2096921,150846,711279
2096921,2096921,150580,711204
2096921,2096921,150547,710977
2096921,2096921,150483,711270
2096921,2096921,151012,711280
2096921,2096921,151022,711483
2096921,2096921,150697,711115
2096921,2096921,150851,711494
2096921,2096921,151028,711392
2096921,2096921,151003,711614
2096921,2096921,150894,711707
2096921,2096921,150767,711541
2096921,2096921,150908,711686
2096921,2096921,151040,711479
2096921,2096921,150898,711291
2096921,2096921,150995,711494
2096921,2096921,150988,711632
2096921,2096921,150789,711563
2096921,2096921,150900,711526
2096921,2096921,150760,711530
2096921,2096921,151045,711459
2096921,2096921,151097,711426
2096921,2096921,151097,711644
2096921,2096921,150671,711639
2096921,2096921,150984,711499
2096921,2096921,151015,711502
2096921,2096921,150825,711582
2096921,2096921,150879,711344
2096921,2096921,150912,711519
2096921,2096921,151153,711521
2096921,2096921,151020,711447
2096921,2096921,150890,711786
2096921,2096921,151079,711662
2096921,2096921,151162,711765
2096921,2096921,150919,711988
2096921,2096921,151208,711765
2096921,2096921,150775,711661
2096921,2096921,151031,711878
2096921,2096921,150874,711824
2096921,2096921,150983,711669
2096921,2096921,151187,711705
2096921,2096921,151285,711751
2096921,2096921,150710,711550
2096921,2096921,151089,711845
2096921,2096921,150978,711920
2096921,2096921,150919,711816
2096921,2096921,151057,711640
2096921,2096921,151128,711631
2096921,2096921,151099,711697
2096921,2096921,150999,711801
2096921,2096921,150935,711730
2096921,2096921,150996,711973
2096921,2096921,151131,712004
2096921,2096921,151071,711891
2096921,2096921,150659,711693
2096921,2096921,151107,711939
2096921,2096921,151090,711787
2096921,2096921,151018,711724
2096921,2096921,150917,711821
2096921,2096921,151044,711738
2096921,2096921,150697,712033
2096921,2096921,150923,711861
2096921,2096921,150598,711567
2096921,2096921,151005,711957
2096921,2096921,150874,711946
2096921,2096921,151151,711932
2096921,2096921,151044,712002
2096921,2096921,150835,712175
2096921,2096921,150855,712010
2096921,2096921,151157,711797
2096921,2096921,150961,711859
2096921,2096921,150764,711680
2096921,2096921,150835,711479
2096921,2096921,150964,711676
2096921,2096921,150805,711650
2096921,2096921,150637,711417
2096921,2096921,150696,711562
2096921,2096921,150807,711356
2096921,2096921,150839,711498
2096921,2096921,150766,711262
2096921,2096921,150768,710819
2096921,2096921,150644,710862
2096921,2096921,150423,710682
2096921,2096921,150805,710924
2096921,2096921,150449,710820
2096921,2096921,150395,710361
2096921,2096921,150188,710265
2096921,2096921,150318,710064
2096921,2096921,150118,709814
2096921,2096921,150047,710216
2096921,2096921,149947,709693
2096921,2096921,149673,709442
2096921,2096921,149900,709441
2096921,2096921,149803,709497
2096921,2096921,149301,709434
2096921,2096921,149148,708219
2096921,2096921,149235,707932
2096921,2096921,149311,707882
2096921,2096921,149130,707708
2096921,2096921,148512,707674
2096921,2096921,148117,706032
2096921,2096921,148211,706193
2096921,2096921,148234,705911
2096921,2096921,148307,705771
2096921,2096921,147851,705883
2096921,2096921,147732,704574
2096921,2096921,147772,704375
2096921,2096921,147496,704030
2096921,2096921,147699,704597
2096921,2096921,147395,704296
2096921,2096921,147342,703390
2096921,2096921,147029,703061
2096921,2096921,147233,702988
2096921,2096921,147137,703088
2096921,2096921,146776,703106
2096921,2096921,146936,702444
2096921,2096921,146959,702316
2096921,2096921,146535,702270
2096921,2096921,146786,702290
2096921,2096921,146456,702400
2096921,2096921,146227,702045
2096921,2096921,146538,701945
2096921,2096921,146522,701892
2096921,2096921,146605,701810
2096921,2096921,146444,701708
2096921,2096921,146456,701273
2096921,2096921,146214,701211
2096921,2096921,146385,701224
2096921,2096921,146409,701405
2096921,2096921,146042,701228
2096921,2096921,146075,701127
2096921,2096921,146171,701141
2096921,2096921,146421,701092
2096921,2096921,146202,701204
2096921,2096921,146278,700932
2096921,2096921,146208,701052
2096921,2096921,146086,700980
2096921,2096921,145997,701108
2096921,2096921,146316,701252
2096921,2096921,146140,701275
2096921,2096921,146044,701359
2096921,2096921,146070,701091
2096921,2096921,146061,701149
2096921,2096921,146296,701032
2096921,2096921,146520,700981
2096921,2096921,146183,701038
2096921,2096921,145914,701068
2096921,2096921,146161,701096
2096921,2096921,146259,701007
2096921,2096921,146248,701175
2096921,2096921,146052,701409
2096921,2096921,146128,701237
2096921,2096921,146261,701149
2096921,2096921,146080,701111
2096921,2096921,146645,701017
2096921,2096921,146347,701303
2096921,2096921,146571,701403
2096921,2096921,146456,701633
2096921,2096921,146450,701459
2096921,2096921,146435,701405
2096921,2096921,146587,701613
2096921,2096921,146308,701518
2096921,2096921,146652,701905
2096921,2096921,146384,702043
2096921,2096921,146568,701848
2096921,2096921,146456,701974
2096921,2096921,146843,701737
2096921,2096921,146620,701973
2096921,2096921,146508,701618
2096921,2096921,146902,702384
2096921,2096921,146807,702392
2096921,2096921,146986,702488
2096921,2096921,146734,702355
2096921,2096921,146928,702202
2096921,2096921,147073,702441
2096921,2096921,146947,702775
2096921,2096921,146952,702604
2096921,2096921,146730,702832
2096921,2096921,146800,702733
2096921,2096921,147125,702486
2096921,2096921,147164,702955
2096921,2096921,147168,703136
2096921,2096921,146933,702977
2096921,2096921,146874,703092
2096921,2096921,147236,703219
2096921,2096921,147190,703233
2096921,2096921,147294,702994
2096921,2096921,147005,703378
2096921,2096921,147102,703311
2096921,2096921,147256,703465
2096921,2096921,147135,703331
2096921,2096921,147147,703958
2096921,2096921,147134,703773
2096921,2096921,147342,703570
2096921,2096921,147303,703757
2096921,2096921,147380,704033
2096921,2096921,147496,704056
2096921,2096921,147585,704012
2096921,2096921,147489,704413
2096921,2096921,147701,704077
2096921,2096921,147667,704277
2096921,2096921,147734,704226
2096921,2096921,147889,704346
2096921,2096921,147802,704691
2096921,2096921,147715,704481
2096921,2096921,147669,704758
2096921,2096921,147871,704888
2096921,2096921,147818,705031
2096921,2096921,147712,704624
2096921,2096921,148124,704842
2096921,2096921,147961,704847
2096921,2096921,148162,705162
2096921,2096921,148015,705110
2096921,2096921,147848,705334
2096921,2096921,148228,705107
2096921,2096921,148200,705251
2096921,2096921,147990,705313
2096921,2096921,148085,705485
2096921,2096921,148319,705562
2096921,2096921,148350,705307
2096921,2096921,148403,705376
2096921,2096921,148180,705640
2096921,2096921,148265,705620
2096921,2096921,148071,705639
2096921,2096921,148426,705672
2096921,2096921,148542,705850
2096921,2096921,148409,705841
2096921,2096921,148438,706119
2096921,2096921,148768,706076
2096921,2096921,148533,706019
2096921,2096921,148789,705851
2096921,2096921,148470,706100
2096921,2096921,148518,706479
2096921,2096921,148370,706504
2096921,2096921,148487,706135
2096921,2096921,148710,706530
2096921,2096921,148682,706229
2096921,2096921,148564,706450
2096921,2096921,148418,706430
2096921,2096921,148662,706588
2096921,2096921,148586,706539
2096921,2096921,148834,706336
2096921,2096921,148880,706107
2096921,2096921,148708,706389
2096921,2096921,148531,706427
2096921,2096921,148763,706356
2096921,2096921,148486,706598
2096921,2096921,148704,706394
2096921,2096921,148497,706607
2096921,2096921,148625,706753
2096921,2096921,148393,706908
2096921,2096921,148582,706623
2096921,2096921,148761,706495
2096921,2096921,148426,706438
2096921,2096921,148525,706810
2096921,2096921,148624,706662
2096921,2096921,148570,706466
2096921,2096921,148703,706518
2096921,2096921,148672,706451
2096921,2096921,148775,706464
2096921,2096921,148651,706429
2096921,2096921,148573,706530
2096921,2096921,148615,706321
2096921,2096921,148642,705990
2096921,2096921,148614,706291
2096921,2096921,148652,706583
2096921,2096921,148482,706374
2096921,2096921,148795,706360
2096921,2096921,148456,706427
2096921,2096921,148421,706009
2096921,2096921,148593,706047
2096921,2096921,148602,705975
2096921,2096921,148645,705971
2096921,2096921,148406,705714
2096921,2096921,148283,705768
2096921,2096921,148291,705879
2096921,2096921,148369,705993
2096921,2096921,148572,705940
2096921,2096921,148509,705940
2096921,2096921,148775,706281
2096921,2096921,148139,705923
2096921,2096921,148324,705836
2096921,2096921,148505,706076
2096921,2096921,148403,705762
2096921,2096921,148364,706010
2096921,2096921,148501,705771
2096921,2096921,148429,705896
2096921,2096921,148350,706051
2096921,2096921,148342,705734
2096921,2096921,148293,706065
2096921,2096921,148313,706064
2096921,2096921,148636,706202
2096921,2096921,148436,706029
2096921,2096921,148360,705733
2096921,2096921,148498,705782
2096921,2096921,148486,706106
2096921,2096921,148123,706183
2096921,2096921,148481,706091
2096921,2096921,148337,705846
2096921,2096921,148634,706328
2096921,2096921,148502,706344
2096921,2096921,148508,706302
2096921,2096921,148503,706152
2096921,2096921,148678,706063
2096921,2096921,148620,706137
2096921,2096921,148235,706288
2096921,2096921,148410,706238
2096921,2096921,148539,706359
2096921,2096921,148514,706006
2096921,2096921,148857,706099
2096921,2096921,148479,706502
2096921,2096921,148572,706630
2096921,2096921,148754,706717
2096921,2096921,148890,706896
2096921,2096921,148777,706733
2096921,2096921,149015,706691
2096921,2096921,149188,706720
2096921,2096921,148808,706671
2096921,2096921,148726,706478
2096921,2096921,148974,706563
2096921,2096921,148902,707083
2096921,2096921,148781,707099
2096921,2096921,149003,707127
2096921,2096921,149081,707187
2096921,2096921,149350,707090
2096921,2096921,148980,707059
2096921,2096921,149059,707242
2096921,2096921,148875,707070
2096921,2096921,148895,707159
2096921,2096921,149092,707492
2096921,2096921,149260,707825
2096921,2096921,149209,707419
2096921,2096921,149089,707875
2096921,2096921,149038,707694
2096921,2096921,148994,707639
2096921,2096921,149121,707294
2096921,2096921,149216,707504
2096921,2096921,149148,707589
2096921,2096921,149229,707690
2096921,2096921,149232,707704
2096921,2096921,149292,707912
2096921,2096921,149250,707879
2096921,2096921,149342,707633
2096921,2096921,149374,707470
2096921,2096921,149317,707792
2096921,2096921,149403,708113
2096921,2096921,149183,708124
2096921,2096921,149115,707752
2096921,2096921,149285,707807
2096921,2096921,149371,707936
2096921,2096921,149269,708191
2096921,2096921,149422,708157
2096921,2096921,149223,708165
2096921,2096921,149441,707981
2096921,2096921,149283,708084
2096921,2096921,149512,708100
2096921,2096921,149539,708038
2096921,2096921,149390,708094
2096921,2096921,149541,708256
2096921,2096921,149569,708158
2096921,2096921,149461,708355
2096921,2096921,149734,708511
2096921,2096921,149575,708506
2096921,2096921,149482,708482
2096921,2096921,149805,708154
2096921,2096921,149870,708466
2096921,2096921,149467,708511
2096921,2096921,149448,708118
2096921,2096921,149610,708157
2096921,2096921,149689,708252
2096921,2096921,149601,708437
2096921,2096921,149573,708535
2096921,2096921,149664,708761
2096921,2096921,149651,708632
2096921,2096921,149590,708648
2096921,2096921,149715,708779
2096921,2096921,149687,708852
2096921,2096921,149659,708864
2096921,2096921,149634,708948
2096921,2096921,149804,708456
2096921,2096921,149853,708628
2096921,2096921,149535,708769
2096921,2096921,149822,708709
2096921,2096921,149487,708648
2096921,2096921,149842,708815
2096921,2096921,149881,709238
2096921,2096921,149915,709118
2096921,2096921,149955,709032
2096921,2096921,149957,708978
2096921,2096921,149919,709197
2096921,2096921,150060,708952
2096921,2096921,149986,709087
2096921,2096921,149857,709180
2096921,2096921,149911,709205
2096921,2096921,150019,709430
2096921,2096921,149941,709438
2096921,2096921,149779,709289
2096921,2096921,149780,709267
2096921,2096921,150126,709388
2096921,2096921,149782,709219
2096921,2096921,149924,709246
2096921,2096921,149901,709330
2096921,2096921,149814,709495
2096921,2096921,149870,709125
2096921,2096921,149975,708982
2096921,2096921,150048,709481
2096921,2096921,150152,709672
2096921,2096921,149929,709512
2096921,2096921,150047,709284
2096921,2096921,150246,709617
2096921,2096921,150106,709413
2096921,2096921,149800,709393
2096921,2096921,149921,709278
2096921,2096921,149896,709354
2096921,2096921,150255,709453
2096921,2096921,150236,709222
2096921,2096921,150310,709111
2096921,2096921,150155,709476
2096921,2096921,150009,709431
2096921,2096921,149998,709179
2096921,2096921,150233,709340
2096921,2096921,150360,709247
2096921,2096921,150189,709644
2096921,2096921,150089,709257
2096921,2096921,150172,709144
2096921,2096921,150340,709490
2096921,2096921,150073,709506
2096921,2096921,149897,709418
2096921,2096921,150291,709707
2096921,2096921,150401,709772
2096921,2096921,150286,709563
2096921,2096921,150318,709261
2096921,2096921,150122,709222
2096921,2096921,150197,709416
2096921,2096921,150301,709453
2096921,2096921,150070,709702
2096921,2096921,150350,709453
2096921,2096921,150135,709732
2096921,2096921,150260,709720
2096921,2096921,150372,709745
2096921,2096921,150436,709408
2096921,2096921,150238,709814
2096921,2096921,150240,709657
2096921,2096921,150341,709837
2096921,2096921,150315,709666
2096921,2096921,150009,709943
2096921,2096921,150261,709772
2096921,2096921,150136,709968
2096921,2096921,150092,709565
2096921,2096921,150189,709609
2096921,2096921,150350,709775
2096921,2096921,150294,709552
2096921,2096921,149737,709541
2096921,2096921,150161,709847
2096921,2096921,150189,709649
2096921,2096921,150161,709520
2096921,2096921,150252,709557
2096921,2096921,150274,709438
2096921,2096921,150373,709606
2096921,2096921,150105,709690
2096921,2096921,150208,709488
2096921,2096921,150306,709766
2096921,2096921,150392,709734
2096921,2096921,150186,709441
2096921,2096921,150313,709825
2096921,2096921,150269,709568
2096921,2096921,150210,709623
2096921,2096921,150033,709681
2096921,2096921,150369,709685
2096921,2096921,150068,709692
2096921,2096921,150363,709565
2096921,2096921,150289,709795
2096921,2096921,150280,709301
2096921,2096921,150596,709643
2096921,2096921,150349,709711
2096921,2096921,150158,709657
2096921,2096921,150276,709627
2096921,2096921,150159,709613
2096921,2096921,150343,709745
2096921,2096921,150425,709815
2096921,2096921,150365,709745
2096921,2096921,150316,710148
2096921,2096921,150362,709715
2096921,2096921,150296,709758
2096921,2096921,150059,709665
2096921,2096921,150167,709714
2096921,2096921,150298,709471
2096921,2096921,150380,709480
2096921,2096921,150249,709379
2096921,2096921,150360,709675
2096921,2096921,150603,709384
2096921,2096921,150709,709446
2096921,2096921,150197,709507
2096921,2096921,150388,709715
2096921,2096921,150303,709678
2096921,2096921,150233,709837
2096921,2096921,150520,709744
2096921,2096921,150374,709477
2096921,2096921,150498,709534
2096921,2096921,150225,709529
2096921,2096921,150123,709481
2096921,2096921,150241,709528
2096921,2096921,150313,709682
2096921,2096921,150442,709340
2096921,2096921,150574,709412
2096921,2096921,150652,709244
2096921,2096921,150413,709301
2096921,2096921,150547,709315
2096921,2096921,150256,709623
2096921,2096921,150317,709819
2096921,2096921,150369,709751
2096921,2096921,150617,709429
2096921,2096921,150448,709340
2096921,2096921,150606,709351
2096921,2096921,150350,709443
2096921,2096921,150505,709294
2096921,2096921,150356,709291
2096921,2096921,150627,709311
2096921,2096921,150229,709369
2096921,2096921,150373,709180
2096921,2096921,150449,709113
2096921,2096921,150245,709299
2096921,2096921,150405,709247
2096921,2096921,150749,709086
2096921,2096921,150435,709336
2096921,2096921,150203,709178
2096921,2096921,150237,709317
2096921,2096921,150334,709169
2096921,2096921,150344,709089
2096921,2096921,150429,708934
2096921,2096921,150360,708939
2096921,2096921,150341,708938
2096921,2096921,150398,709045
2096921,2096921,150365,709227
2096921,2096921,150325,709212
2096921,2096921,150648,708952
2096921,2096921,150340,708897
2096921,2096921,150329,709051
2096921,2096921,150163,708764
2096921,2096921,150276,709189
2096921,2096921,150261,709131
2096921,2096921,150494,709066
2096921,2096921,150192,709015
2096921,2096921,150345,708941
2096921,2096921,150272,709000
2096921,2096921,150187,708832
2096921,2096921,150295,708770
2096921,2096921,150060,708900
2096921,2096921,150358,709068
2096921,2096921,150347,708744
2096921,2096921,150314,708854
2096921,2096921,150247,708633
2096921,2096921,150030,708808
2096921,2096921,150144,708550
2096921,2096921,150264,708731
2096921,2096921,150101,708702
2096921,2096921,150250,708637
2096921,2096921,150483,708738
2096921,2096921,150273,708725
2096921,2096921,150189,708381
2096921,2096921,150395,708276
2096921,2096921,150567,708692
2096921,2096921,150358,708827
2096921,2096921,150170,708545
2096921,2096921,150158,708513
2096921,2096921,150061,708562
2096921,2096921,150244,708453
2096921,2096921,150170,708607
2096921,2096921,150364,708540
2096921,2096921,150146,708725
2096921,2096921,149806,708286
2096921,2096921,150147,708101
2096921,2096921,150107,708149
2096921,2096921,149953,708067
2096921,2096921,150128,708392
2096921,2096921,149685,707865
2096921,2096921,149905,707812
2096921,2096921,149919,707491
2096921,2096921,149815,707538
2096921,2096921,149675,707656
2096921,2096921,149798,707169
2096921,2096921,149640,707168
2096921,2096921,149076,707189
2096921,2096921,149572,707012
2096921,2096921,149496,706958
2096921,2096921,149504,706434
2096921,2096921,149619,706256
2096921,2096921,149615,706221
2096921,2096921,149553,706416
2096921,2096921,148904,706090
2096921,2096921,148928,706039
2096921,2096921,148939,705538
2096921,2096921,148821,705719
2096921,2096921,149069,705575
2096921,2096921,148393,705462
2096921,2096921,148076,704051
2096921,2096921,148260,703939
2096921,2096921,148153,704015
2096921,2096921,148342,703865
2096921,2096921,147643,703542
2096921,2096921,147303,702270
2096921,2096921,147734,701885
2096921,2096921,147420,701734
2096921,2096921,147399,701586
2096921,2096921,146994,701704
2096921,2096921,146887,700410
2096921,2096921,146822,700293
2096921,2096921,146848,699965
2096921,2096921,146624,700009
2096921,2096921,146337,700035
2096921,2096921,146228,699202
2096921,2096921,146304,698864
2096921,2096921,146219,698946
2096921,2096921,145959,698755
2096921,2096921,146020,698522
2096921,2096921,145791,698237
2096921,2096921,145891,697894
2096921,2096921,145887,697840
2096921,2096921,145546,698113
2096921,2096921,145545,697911
2096921,2096921,145585,697468
2096921,2096921,145827,697467
2096921,2096921,145448,697205
2096921,2096921,145662,697032
2096921,2096921,145413,697449
2096921,2096921,145568,697263
2096921,2096921,145431,696938
2096921,2096921,145374,696743
2096921,2096921,145351,696661
2096921,2096921,145384,696667
2096921,2096921,145177,696743
2096921,2096921,145237,696441
2096921,2096921,145003,696236
2096921,2096921,145215,696584
2096921,2096921,145394,696445
2096921,2096921,144862,695970
2096921,2096921,145247,696085
2096921,2096921,144817,696007
2096921,2096921,145336,696335
2096921,2096921,144777,696331
2096921,2096921,145203,696133
2096921,2096921,145316,696418
2096921,2096921,145112,696201
2096921,2096921,145110,696284
2096921,2096921,145232,696305
2096921,2096921,145128,696242
2096921,2096921,145120,696509
2096921,2096921,145109,696320
2096921,2096921,145223,696163
2096921,2096921,145180,696343
2096921,2096921,145384,696236
2096921,2096921,145221,696378
2096921,2096921,145260,696290
2096921,2096921,145213,696380
2096921,2096921,145085,696016
2096921,2096921,145188,696309
2096921,2096921,145139,696221
2096921,2096921,145170,696199
2096921,2096921,145270,696134
2096921,2096921,145505,696325
2096921,2096921,145619,695998
2096921,2096921,145366,696394
2096921,2096921,145344,696261
2096921,2096921,145433,696533
2096921,2096921,145447,696384
2096921,2096921,145500,696777
2096921,2096921,145319,697027
2096921,2096921,145446,696826
2096921,2096921,145685,696944
2096921,2096921,145636,697044
2096921,2096921,145546,697425
2096921,2096921,145793,697288
2096921,2096921,145761,697200
2096921,2096921,145433,696930
2096921,2096921,145676,697025
2096921,2096921,145800,697595
2096921,2096921,145657,697347
2096921,2096921,145750,697504
2096921,2096921,145749,697268
2096921,2096921,145819,697545
2096921,2096921,145774,697641
2096921,2096921,145790,697456
2096921,2096921,146007,697656
2096921,2096921,145975,697593
2096921,2096921,146146,697877
2096921,2096921,146093,698009
2096921,2096921,146011,697869
2096921,2096921,146100,697759
2096921,2096921,145799,697640
2096921,2096921,146357,697819
2096921,2096921,146372,698319
2096921,2096921,146422,698173
2096921,2096921,146050,698043
2096921,2096921,146031,697975
2096921,2096921,146340,698055
2096921,2096921,146366,698314
2096921,2096921,146434,698267
2096921,2096921,146368,698362
2096921,2096921,146422,698132
2096921,2096921,146487,698311
2096921,2096921,146567,698683
2096921,2096921,146530,698944
2096921,2096921,146530,698646
2096921,2096921,146221,698774
2096921,2096921,146460,698546
2096921,2096921,146097,699029
2096921,2096921,146587,698771
2096921,2096921,146478,699033
2096921,2096921,146649,698909
2096921,2096921,146761,698690
2096921,2096921,146858,698931
2096921,2096921,146579,699432
2096921,2096921,146562,699229
2096921,2096921,146806,699264
2096921,2096921,147069,699369
2096921,2096921,146939,699660
2096921,2096921,146767,699790
2096921,2096921,146697,699562
2096921,2096921,146781,699446
2096921,2096921,146681,699631
2096921,2096921,147063,699597
2096921,2096921,147155,699735
2096921,2096921,146880,699647
2096921,2096921,147031,699986
2096921,2096921,146834,699791
2096921,2096921,146948,699872
2096921,2096921,146813,700099
2096921,2096921,147124,700301
2096921,2096921,146833,700242
2096921,2096921,147070,699908
2096921,2096921,147213,699989
2096921,2096921,147000,700100
2096921,2096921,147182,699979
2096921,2096921,147210,700189
2096921,2096921,147328,700093
2096921,2096921,147183,700169
2096921,2096921,147203,700313
2096921,2096921,147608,700383
2096921,2096921,147247,699891
2096921,2096921,147121,700153
2096921,2096921,146994,700344
2096921,2096921,147167,700221
2096921,2096921,147123,700335
2096921,2096921,147283,700342
2096921,2096921,147259,700168
2096921,2096921,147001,700149
2096921,2096921,147110,699984
2096921,2096921,147276,700044
2096921,2096921,146957,700478
2096921,2096921,146981,700529
2096921,2096921,147172,700339
2096921,2096921,147312,700058
2096921,2096921,147055,700330
2096921,2096921,147013,700314
2096921,2096921,147210,700188
2096921,2096921,146947,700040
2096921,2096921,147137,699891
2096921,2096921,147013,699999
2096921,2096921,147129,700075
2096921,2096921,147190,700215
2096921,2096921,147157,699751
2096921,2096921,147241,700142
2096921,2096921,147227,699859
2096921,2096921,147132,699806
2096921,2096921,147217,700084
2096921,2096921,146878,699731
2096921,2096921,146785,699659
2096921,2096921,147139,699736
2096921,2096921,147059,699604
2096921,2096921,146915,699648
2096921,2096921,146905,699573
2096921,2096921,146944,699405
2096921,2096921,146966,699747
2096921,2096921,146989,699685
2096921,2096921,146993,699600
2096921,2096921,146971,699426
2096921,2096921,146861,699466
2096921,2096921,146832,699635
2096921,2096921,146774,699709
2096921,2096921,146726,699416
2096921,2096921,146826,699451
2096921,2096921,147058,699219
2096921,2096921,146704,699259
2096921,2096921,146728,699326
2096921,2096921,146747,699569
2096921,2096921,146727,699133
2096921,2096921,146779,699023
2096921,2096921,146819,699282
2096921,2096921,146909,699423
2096921,2096921,147100,699255
2096921,2096921,147170,699132
2096921,2096921,147020,699620
2096921,2096921,146728,699250
2096921,2096921,146903,699225
2096921,2096921,146775,698847
2096921,2096921,146879,699195
2096921,2096921,146699,699428
2096921,2096921,146792,699336
2096921,2096921,147064,699232
2096921,2096921,146938,699336
2096921,2096921,146854,699466
2096921,2096921,146989,699446
2096921,2096921,147008,699586
2096921,2096921,146718,699605
2096921,2096921,147033,699329
2096921,2096921,146987,699225
2096921,2096921,147014,699451
2096921,2096921,146967,699404
2096921,2096921,147183,699736
2096921,2096921,147161,699898
2096921,2096921,147360,699711
2096921,2096921,147259,699724
2096921,2096921,147510,699757
2096921,2096921,147236,699810
2096921,2096921,146970,700196
2096921,2096921,147275,700330
2096921,2096921,147273,700528
2096921,2096921,147013,700196
2096921,2096921,147159,700093
2096921,2096921,147129,699812
2096921,2096921,147332,700227
2096921,2096921,147399,700201
2096921,2096921,147369,700239
2096921,2096921,147255,700489
2096921,2096921,147205,700412
2096921,2096921,147173,700627
2096921,2096921,147273,700500
2096921,2096921,147546,700429
2096921,2096921,147576,700581
2096921,2096921,147534,700608
2096921,2096921,147609,700743
2096921,2096921,147393,700693
2096921,2096921,147409,700777
2096921,2096921,147462,701047
2096921,2096921,147546,700660
2096921,2096921,147748,700741
2096921,2096921,147563,700461
2096921,2096921,147638,700779
2096921,2096921,147431,700974
2096921,2096921,147822,700678
2096921,2096921,147707,701245
2096921,2096921,147993,701076
2096921,2096921,147852,701206
2096921,2096921,147579,701120
2096921,2096921,147272,701069
2096921,2096921,147363,701064
2096921,2096921,147733,700984
2096921,2096921,147780,700948
2096921,2096921,147725,701416
2096921,2096921,148010,701196
2096921,2096921,147928,701513
2096921,2096921,147627,701411
2096921,2096921,147952,701545
2096921,2096921,147712,701453
2096921,2096921,147908,701232
2096921,2096921,147857,701321
2096921,2096921,147878,701742
2096921,2096921,147858,701655
2096921,2096921,147900,701533
2096921,2096921,148004,701650
2096921,2096921,148031,701857
2096921,2096921,147761,702024
2096921,2096921,147835,701841
2096921,2096921,148032,701582
2096921,2096921,148002,701932
2096921,2096921,148245,701973
2096921,2096921,148359,702002
2096921,2096921,148087,702091
2096921,2096921,148125,701868
2096921,2096921,148349,702092
2096921,2096921,148297,702237
2096921,2096921,147952,702158
2096921,2096921,148487,702246
2096921,2096921,148104,702060
2096921,2096921,147975,702073
2096921,2096921,147992,702177
2096921,2096921,148369,702402
2096921,2096921,148114,702328
2096921,2096921,148326,702278
2096921,2096921,148482,702391
2096921,2096921,148400,702525
2096921,2096921,148515,702630
2096921,2096921,148466,702624
2096921,2096921,148485,702442
2096921,2096921,148623,702583
2096921,2096921,148392,702382
2096921,2096921,148793,702458
2096921,2096921,148386,702515
2096921,2096921,148424,702679
2096921,2096921,148404,703028
2096921,2096921,148416,702853
2096921,2096921,148485,702899
2096921,2096921,148231,702589
2096921,2096921,148547,702846
2096921,2096921,148447,702932
2096921,2096921,148274,702898
2096921,2096921,148733,703052
2096921,2096921,148382,703041
2096921,2096921,148473,703227
2096921,2096921,148413,703198
2096921,2096921,148492,703079
2096921,2096921,148703,703090
2096921,2096921,148661,703052
2096921,2096921,148638,703095
2096921,2096921,148719,703305
2096921,2096921,148640,703253
2096921,2096921,148774,703058
2096921,2096921,148482,703486
2096921,2096921,148761,703135
2096921,2096921,148716,703245
2096921,2096921,148782,703543
2096921,2096921,148863,703459
2096921,2096921,148717,703437
2096921,2096921,148631,703396
2096921,2096921,148947,703507
2096921,2096921,148840,703542
2096921,2096921,148701,703457
2096921,2096921,148873,703402
2096921,2096921,148894,703322
2096921,2096921,149025,703465
2096921,2096921,148901,703472
2096921,2096921,148902,703682
2096921,2096921,148969,704019
2096921,2096921,148986,703647
2096921,2096921,148815,703601
2096921,2096921,148867,703875
2096921,2096921,148666,703784
2096921,2096921,148931,703808
2096921,2096921,149208,703551
2096921,2096921,148900,703907
2096921,2096921,148844,703923
2096921,2096921,148744,704053
2096921,2096921,148728,704084
2096921,2096921,148888,703773
2096921,2096921,149254,703905
2096921,2096921,149027,704167
2096921,2096921,148880,703694
2096921,2096921,148834,704195
2096921,2096921,148992,703859
2096921,2096921,148772,703870
2096921,2096921,148867,704138
2096921,2096921,148901,704059
2096921,2096921,148940,704161
2096921,2096921,149078,704060
2096921,2096921,148793,704104
2096921,2096921,148791,703972
2096921,2096921,148921,703999
2096921,2096921,149204,704430
2096921,2096921,149026,703913
2096921,2096921,149274,703905
2096921,2096921,149065,703973
2096921,2096921,149233,704081
2096921,2096921,149298,704010
2096921,2096921,149055,704150
2096921,2096921,149202,704086
2096921,2096921,149245,704039
2096921,2096921,149115,704132
2096921,2096921,149124,704445
2096921,2096921,148894,704363
2096921,2096921,149173,704387
2096921,2096921,149083,704086
2096921,2096921,149024,704198
2096921,2096921,149161,704187
2096921,2096921,149038,704436
2096921,2096921,149515,704081
2096921,2096921,149205,704420
2096921,2096921,149085,704095
2096921,2096921,149521,704513
2096921,2096921,149062,704158
2096921,2096921,149228,704490
2096921,2096921,149316,704381
2096921,2096921,149215,704553
2096921,2096921,149296,704415
2096921,2096921,149256,704396
2096921,2096921,149354,704429
2096921,2096921,149195,704487
2096921,2096921,148819,704503
2096921,2096921,149277,704489
2096921,2096921,149359,704369
2096921,2096921,149285,704702
2096921,2096921,149366,704591
2096921,2096921,149297,704701
2096921,2096921,149216,704614
2096921,2096921,149459,704367
2096921,2096921,149184,704462
2096921,2096921,149220,704456
2096921,2096921,149156,704762
2096921,2096921,149405,704944
2096921,2096921,149098,704795
2096921,2096921,149195,704603
2096921,2096921,149213,704787
2096921,2096921,149310,704591
2096921,2096921,149171,704889
2096921,2096921,149618,704759
2096921,2096921,149549,704938
2096921,2096921,149753,704682
2096921,2096921,149564,704579
2096921,2096921,149584,704471
2096921,2096921,149368,704661
2096921,2096921,149320,704843
2096921,2096921,149556,704947
2096921,2096921,149581,704863
2096921,2096921,149348,704768
2096921,2096921,149485,704806
2096921,2096921,149182,704647
2096921,2096921,149403,704807
2096921,2096921,149326,705126
2096921,2096921,149484,705097
2096921,2096921,149324,704937
2096921,2096921,149337,704859
2096921,2096921,149538,704929
2096921,2096921,149393,704942
2096921,2096921,149129,704781
2096921,2096921,149553,705066
2096921,2096921,149332,704640
2096921,2096921,149621,705120
2096921,2096921,149322,705110
2096921,2096921,149270,704889
2096921,2096921,149797,704983
2096921,2096921,149636,704786
2096921,2096921,149491,704567
2096921,2096921,149614,704791
2096921,2096921,149532,705162
2096921,2096921,149556,704857
2096921,2096921,149539,705115
2096921,2096921,149195,705107
2096921,2096921,149306,705112
2096921,2096921,149430,704872
2096921,2096921,149154,705231
2096921,2096921,149440,705184
2096921,2096921,149342,705187
2096921,2096921,149340,704951
2096921,2096921,149321,704903
2096921,2096921,149743,704882
2096921,2096921,149423,704947
2096921,2096921,149247,704973
2096921,2096921,149493,705146
2096921,2096921,149487,705281
2096921,2096921,149562,704866
2096921,2096921,149275,705166
2096921,2096921,149424,704740
2096921,2096921,149222,705058
2096921,2096921,149522,705022
2096921,2096921,149308,705154
2096921,2096921,149264,705227
2096921,2096921,149331,705188
2096921,2096921,149155,705358
2096921,2096921,149359,705081
2096921,2096921,149445,705056
2096921,2096921,149423,705150
2096921,2096921,149270,705081
2096921,2096921,149559,705114
2096921,2096921,149395,705161
2096921,2096921,149667,705248
2096921,2096921,149625,705288
2096921,2096921,149262,704969
2096921,2096921,149507,705314
2096921,2096921,149567,705213
2096921,2096921,149609,705223
2096921,2096921,149561,704954
2096921,2096921,149727,705188
2096921,2096921,149754,704990
2096921,2096921,149258,705109
2096921,2096921,149172,704878
2096921,2096921,149298,705195
2096921,2096921,149402,704962
2096921,2096921,149400,705068
2096921,2096921,149274,705336
2096921,2096921,149660,705280
2096921,2096921,149425,705005
2096921,2096921,149130,704636
2096921,2096921,149271,704664
2096921,2096921,149279,704621
2096921,2096921,149231,704525
2096921,2096921,149202,704454
2096921,2096921,149359,704461
2096921,2096921,149045,704457
2096921,2096921,149302,704557
2096921,2096921,149093,704587
2096921,2096921,149185,704482
2096921,2096921,149045,704370
2096921,2096921,149038,703904
2096921,2096921,148974,703772
2096921,2096921,148906,703902
2096921,2096921,148763,703806
2096921,2096921,148819,703482
2096921,2096921,148575,703492
2096921,2096921,148525,703106
2096921,2096921,148812,703472
2096921,2096921,148581,703094
2096921,2096921,148658,702840
2096921,2096921,148498,702637
2096921,2096921,148446,702739
2096921,2096921,148432,702911
2096921,2096921,148111,702449
2096921,2096921,147740,701289
2096921,2096921,147895,701147
2096921,2096921,147641,701046
2096921,2096921,147806,700984
2096921,2096921,147122,700685
2096921,2096921,147071,699344
2096921,2096921,147039,699342
2096921,2096921,146925,699250
2096921,2096921,146707,699477
2096921,2096921,146282,698785
2096921,2096921,146100,697605
2096921,2096921,146078,697560
2096921,2096921,145982,697535
2096921,2096921,146034,697555
2096921,2096921,145844,697639
2096921,2096921,145694,696900
2096921,2096921,145483,696758
2096921,2096921,145799,697024
2096921,2096921,145911,696892
2096921,2096921,145808,696469
2096921,2096921,145267,696143
2096921,2096921,145553,695885
2096921,2096921,145448,695714
2096921,2096921,145347,696027
2096921,2096921,144978,695818
2096921,2096921,145301,695425
2096921,2096921,145201,695439
2096921,2096921,145180,695390
2096921,2096921,145136,695135
2096921,2096921,144914,695252
2096921,2096921,144697,694974
2096921,2096921,145084,694883
2096921,2096921,144711,694860
2096921,2096921,145231,694796
2096921,2096921,144769,694657
2096921,2096921,144782,694680
2096921,2096921,144735,694707
2096921,2096921,144565,694989
2096921,2096921,144482,694559
2096921,2096921,144498,694599
2096921,2096921,144715,694940
2096921,2096921,145012,694894
2096921,2096921,144752,694314
2096921,2096921,144672,694638
2096921,2096921,144874,694339
2096921,2096921,144737,694516
2096921,2096921,144951,694761
2096921,2096921,144947,694760
2096921,2096921,144755,694670
2096921,2096921,144834,694757
2096921,2096921,144932,694836
2096921,2096921,145049,694914
2096921,2096921,145155,695232
2096921,2096921,144874,694770
2096921,2096921,144952,695275
2096921,2096921,144956,694808
2096921,2096921,145072,694833
2096921,2096921,144887,694943
2096921,2096921,144732,694964
2096921,2096921,144816,695118
2096921,2096921,144920,695317
2096921,2096921,145007,695270
2096921,2096921,145039,695205
2096921,2096921,145097,695283
2096921,2096921,145241,695624
2096921,2096921,145051,695681
2096921,2096921,145216,695628
2096921,2096921,145319,695809
2096921,2096921,145156,695567
2096921,2096921,144920,695580
