2096921,2096921,298214,378992
2096921,2096921,298104,378337
2096921,2096921,297980,378305
2096921,2096921,297986,378191
2096921,2096921,297372,377877
2096921,2096921,297886,378032
2096921,2096921,297187,377751
2096921,2096921,297104,377673
2096921,2096921,297084,377403
2096921,2096921,297122,377563
2096921,2096921,297242,377654
2096921,2096921,297146,377146
2096921,2096921,296899,376961
2096921,2096921,297014,377403
2096921,2096921,296807,377259
2096921,2096921,296831,377039
2096921,2096921,296740,377061
2096921,2096921,296834,376919
2096921,2096921,296782,376942
2096921,2096921,296509,377167
2096921,2096921,296713,376937
2096921,2096921,296955,377213
2096921,2096921,296756,377078
2096921,2096921,297100,377259
2096921,2096921,297094,377027
2096921,2096921,296986,376958
2096921,2096921,296941,377160
2096921,2096921,297032,377124
2096921,2096921,297059,377162
2096921,2096921,297047,377205
2096921,2096921,296796,377203
2096921,2096921,297363,377424
2096921,2096921,297100,377422
2096921,2096921,297266,377256
2096921,2096921,297144,377381
2096921,2096921,297173,377579
2096921,2096921,297141,377628
2096921,2096921,297414,377193
2096921,2096921,297392,377551
2096921,2096921,297194,378006
2096921,2096921,296884,377759
2096921,2096921,297618,377734
2096921,2096921,297776,377729
2096921,2096921,297924,377971
2096921,2096921,297470,377925
2096921,2096921,297724,378024
2096921,2096921,297678,378538
2096921,2096921,297805,378611
2096921,2096921,297984,378646
2096921,2096921,297984,378457
2096921,2096921,298148,378641
2096921,2096921,298514,378897
2096921,2096921,298068,378809
2096921,2096921,298527,379160
2096921,2096921,298761,379143
2096921,2096921,298805,379077
2096921,2096921,299060,379689
2096921,2096921,298910,379676
2096921,2096921,299122,379586
2096921,2096921,299018,379357
2096921,2096921,298784,379576
2096921,2096921,299195,379851
2096921,2096921,299170,380097
2096921,2096921,299157,380143
2096921,2096921,299354,379991
2096921,2096921,299157,380162
2096921,2096921,299757,380466
2096921,2096921,299750,380647
2096921,2096921,299578,380413
2096921,2096921,299826,380349
2096921,2096921,299583,380375
2096921,2096921,300002,381053
2096921,2096921,300105,381005
2096921,2096921,299964,381162
2096921,2096921,299784,380935
2096921,2096921,299796,381144
2096921,2096921,300511,381538
2096921,2096921,300467,381815
2096921,2096921,300501,381478
2096921,2096921,300322,381657
2096921,2096921,300363,381620
2096921,2096921,300617,381799
2096921,2096921,300346,382035
2096921,2096921,300888,382379
2096921,2096921,300871,382002
2096921,2096921,300953,382249
2096921,2096921,301180,382524
2096921,2096921,301268,382896
2096921,2096921,301193,382677
2096921,2096921,300954,382607
2096921,2096921,301067,382594
2096921,2096921,301655,383009
2096921,2096921,301679,382920
2096921,2096921,301654,383499
2096921,2096921,301487,383322
2096921,2096921,301650,383349
2096921,2096921,301871,383408
2096921,2096921,301974,383855
2096921,2096921,302120,383753
2096921,2096921,302051,384005
2096921,2096921,302060,383756
2096921,2096921,302416,384125
2096921,2096921,302197,384063
2096921,2096921,302293,384189
2096921,2096921,302279,383790
2096921,2096921,302361,384290
2096921,2096921,302615,384670
2096921,2096921,302780,384897
2096921,2096921,302419,384647
2096921,2096921,302513,384760
2096921,2096921,302286,384289
2096921,2096921,302717,384817
2096921,2096921,302771,384786
2096921,2096921,302984,384914
2096921,2096921,302952,384768
2096921,2096921,302729,385055
2096921,2096921,303155,385098
2096921,2096921,303201,385146
2096921,2096921,303178,385059
2096921,2096921,302886,385241
2096921,2096921,302949,384893
2096921,2096921,303052,384920
2096921,2096921,303277,385243
2096921,2096921,303331,385540
2096921,2096921,303360,385248
2096921,2096921,303328,385442
2096921,2096921,303494,385518
2096921,2096921,303092,385453
2096921,2096921,303062,384981
2096921,2096921,303290,385229
2096921,2096921,302950,385170
2096921,2096921,303164,385006
2096921,2096921,303276,384990
2096921,2096921,303274,385520
2096921,2096921,303425,385371
2096921,2096921,303306,385124
2096921,2096921,303057,385138
2096921,2096921,302929,385177
2096921,2096921,303072,385142
2096921,2096921,303204,385022
2096921,2096921,303003,385004
2096921,2096921,302785,385059
2096921,2096921,302890,384905
2096921,2096921,302762,384694
2096921,2096921,302984,384816
2096921,2096921,302957,384966
2096921,2096921,302743,384904
2096921,2096921,303059,384538
2096921,2096921,302808,384646
2096921,2096921,302811,384715
2096921,2096921,302752,384446
2096921,2096921,302740,384868
2096921,2096921,302728,384561
2096921,2096921,302724,384598
2096921,2096921,302839,384535
2096921,2096921,302820,384708
2096921,2096921,302715,384614
2096921,2096921,302736,384642
2096921,2096921,302740,384631
2096921,2096921,302643,384328
2096921,2096921,302552,384045
2096921,2096921,302526,384374
2096921,2096921,302757,384699
2096921,2096921,302527,384563
2096921,2096921,302599,384734
2096921,2096921,302727,384518
2096921,2096921,302600,384530
2096921,2096921,302429,384413
2096921,2096921,302430,384422
2096921,2096921,302484,384583
2096921,2096921,302633,384149
2096921,2096921,302622,384634
2096921,2096921,302845,384442
2096921,2096921,302510,384370
2096921,2096921,302450,384504
2096921,2096921,302401,384590
2096921,2096921,302705,384540
2096921,2096921,302739,384318
2096921,2096921,302673,384883
2096921,2096921,302700,384578
2096921,2096921,303004,384558
2096921,2096921,302783,384841
2096921,2096921,302817,384779
2096921,2096921,302549,384698
2096921,2096921,302788,384642
2096921,2096921,302752,385125
2096921,2096921,302950,385352
2096921,2096921,303069,384925
2096921,2096921,303232,385180
2096921,2096921,303231,385073
2096921,2096921,303078,384786
2096921,2096921,303460,385204
2096921,2096921,303603,385737
2096921,2096921,303536,385744
2096921,2096921,303898,385808
2096921,2096921,303731,385506
2096921,2096921,303833,385865
2096921,2096921,303588,386082
2096921,2096921,303772,385674
2096921,2096921,303624,385732
2096921,2096921,303573,385674
2096921,2096921,304119,385993
2096921,2096921,304128,386275
2096921,2096921,303955,386616
2096921,2096921,304008,386450
2096921,2096921,304075,386590
2096921,2096921,304316,386649
2096921,2096921,304100,386580
2096921,2096921,304439,386427
2096921,2096921,304409,386356
2096921,2096921,304266,386491
2096921,2096921,304536,386811
2096921,2096921,304333,387070
2096921,2096921,304351,387022
2096921,2096921,304429,386806
2096921,2096921,304713,386937
2096921,2096921,304809,387084
2096921,2096921,304722,387071
2096921,2096921,304761,387257
2096921,2096921,304658,387050
2096921,2096921,304764,387233
2096921,2096921,304975,387287
2096921,2096921,304866,387380
2096921,2096921,305015,387282
2096921,2096921,305033,387532
2096921,2096921,304862,387339
2096921,2096921,305204,387674
2096921,2096921,305393,387981
2096921,2096921,305386,387927
2096921,2096921,305521,387688
2096921,2096921,305140,387504
2096921,2096921,305443,387854
2096921,2096921,305358,388193
2096921,2096921,305478,388220
2096921,2096921,305449,388352
2096921,2096921,305368,388133
2096921,2096921,305597,388367
2096921,2096921,305565,388247
2096921,2096921,305581,388415
2096921,2096921,305570,388257
2096921,2096921,305684,388294
2096921,2096921,305922,388734
2096921,2096921,305991,388995
2096921,2096921,305933,388756
2096921,2096921,305880,388674
2096921,2096921,305814,388711
2096921,2096921,305836,388661
2096921,2096921,306003,388929
2096921,2096921,306275,388739
2096921,2096921,306106,388701
2096921,2096921,306013,389014
2096921,2096921,306388,389432
2096921,2096921,306337,389098
2096921,2096921,306457,389183
2096921,2096921,306058,389071
2096921,2096921,306227,389174
2096921,2096921,306397,389361
2096921,2096921,306438,389378
2096921,2096921,306503,389680
2096921,2096921,306705,389635
2096921,2096921,306605,389563
2096921,2096921,306633,389673
2096921,2096921,306862,389887
2096921,2096921,306511,389795
2096921,2096921,306792,389849
2096921,2096921,306722,389684
2096921,2096921,307079,390351
2096921,2096921,307085,390339
2096921,2096921,306955,390435
2096921,2096921,306559,390015
2096921,2096921,306662,390176
2096921,2096921,307049,390011
2096921,2096921,307358,390239
2096921,2096921,307281,390223
2096921,2096921,307193,390102
2096921,2096921,307131,390589
2096921,2096921,306842,390623
2096921,2096921,307117,390672
2096921,2096921,307246,390540
2096921,2096921,307374,390442
2096921,2096921,307176,390350
2096921,2096921,307131,390855
2096921,2096921,307227,390942
2096921,2096921,307255,390915
2096921,2096921,307047,391154
2096921,2096921,307186,390955
2096921,2096921,307336,390932
2096921,2096921,307604,390728
2096921,2096921,307844,390664
2096921,2096921,307620,390985
2096921,2096921,307492,391177
2096921,2096921,307813,391079
2096921,2096921,307456,390867
2096921,2096921,307723,391271
2096921,2096921,307749,391417
2096921,2096921,307871,391400
2096921,2096921,308070,391497
2096921,2096921,308182,391229
2096921,2096921,308072,391067
2096921,2096921,307978,391074
2096921,2096921,307835,391249
2096921,2096921,307911,391275
2096921,2096921,307876,391279
2096921,2096921,308031,391319
2096921,2096921,308075,391798
2096921,2096921,308049,391586
2096921,2096921,308071,391587
2096921,2096921,308110,391466
2096921,2096921,307997,391703
2096921,2096921,308120,391523
2096921,2096921,308095,391596
2096921,2096921,308398,391692
2096921,2096921,308356,391718
2096921,2096921,308186,391948
2096921,2096921,308354,391841
2096921,2096921,308242,391818
2096921,2096921,308253,392048
2096921,2096921,308189,391731
2096921,2096921,308078,391854
2096921,2096921,308036,392130
2096921,2096921,308565,392133
2096921,2096921,308725,392043
2096921,2096921,308575,392036
2096921,2096921,308670,392038
2096921,2096921,308502,391945
2096921,2096921,308292,392062
2096921,2096921,308326,392281
2096921,2096921,308193,392030
2096921,2096921,308320,392376
2096921,2096921,308544,392380
2096921,2096921,308658,392290
2096921,2096921,308650,392222
2096921,2096921,308736,392353
2096921,2096921,308833,392139
2096921,2096921,308529,392161
2096921,2096921,308718,392177
2096921,2096921,308751,392363
2096921,2096921,308561,392298
2096921,2096921,308899,392439
2096921,2096921,308649,392530
2096921,2096921,308599,392194
2096921,2096921,308768,392271
2096921,2096921,308858,392199
2096921,2096921,308886,392310
2096921,2096921,308614,392452
2096921,2096921,308964,392702
2096921,2096921,309159,392843
2096921,2096921,308944,392376
2096921,2096921,308725,392719
2096921,2096921,308857,392655
2096921,2096921,308899,392551
2096921,2096921,308912,392711
2096921,2096921,308972,392681
2096921,2096921,309198,392781
2096921,2096921,308991,392854
2096921,2096921,309112,392898
2096921,2096921,309116,392522
2096921,2096921,309104,392533
2096921,2096921,308773,392715
2096921,2096921,308859,392867
2096921,2096921,309236,392640
2096921,2096921,309252,393031
2096921,2096921,309310,393080
2096921,2096921,309029,393171
2096921,2096921,309264,393099
2096921,2096921,309078,393219
2096921,2096921,309218,392798
2096921,2096921,308870,393115
2096921,2096921,309024,393011
2096921,2096921,309180,392942
2096921,2096921,309047,392836
2096921,2096921,309058,393089
2096921,2096921,309165,393222
2096921,2096921,309385,393331
2096921,2096921,309099,393294
2096921,2096921,309294,393295
2096921,2096921,309392,393065
2096921,2096921,309196,393213
2096921,2096921,309453,393171
2096921,2096921,309488,393428
2096921,2096921,309357,393352
2096921,2096921,309170,393218
2096921,2096921,309567,393156
2096921,2096921,309464,393208
2096921,2096921,309511,393203
2096921,2096921,309604,393336
2096921,2096921,309586,393261
2096921,2096921,309584,393300
2096921,2096921,309589,393288
2096921,2096921,309309,393311
2096921,2096921,309285,393334
2096921,2096921,309362,393310
2096921,2096921,309386,393253
2096921,2096921,309350,393440
2096921,2096921,309315,393446
2096921,2096921,309430,393538
2096921,2096921,309375,393547
2096921,2096921,309755,393621
2096921,2096921,309725,393693
2096921,2096921,309697,393702
2096921,2096921,309314,393501
2096921,2096921,309527,393399
2096921,2096921,309438,393431
2096921,2096921,309545,393468
2096921,2096921,309718,393729
2096921,2096921,309593,393638
2096921,2096921,309488,393713
2096921,2096921,309657,393643
2096921,2096921,309652,393500
2096921,2096921,309640,393529
2096921,2096921,309591,393578
2096921,2096921,309726,393552
2096921,2096921,309567,393703
2096921,2096921,309592,393405
2096921,2096921,309844,393462
2096921,2096921,309572,393614
2096921,2096921,309530,393667
2096921,2096921,309661,393714
2096921,2096921,309593,393591
2096921,2096921,309638,393401
2096921,2096921,309570,393341
2096921,2096921,309667,393237
2096921,2096921,309688,393510
2096921,2096921,309757,393556
2096921,2096921,309739,393566
2096921,2096921,309613,393680
2096921,2096921,309699,393689
2096921,2096921,309516,393773
2096921,2096921,309448,393667
2096921,2096921,309887,393727
2096921,2096921,309800,393484
2096921,2096921,309612,393440
2096921,2096921,309467,393883
2096921,2096921,309497,393849
2096921,2096921,309408,393837
2096921,2096921,309676,393661
2096921,2096921,309764,393594
2096921,2096921,309569,393632
2096921,2096921,309673,393732
2096921,2096921,309510,393670
2096921,2096921,309610,393555
2096921,2096921,309799,393659
2096921,2096921,309860,393684
2096921,2096921,309526,393429
2096921,2096921,309720,393461
2096921,2096921,309361,393593
2096921,2096921,309498,393415
2096921,2096921,309449,393131
2096921,2096921,309677,393500
2096921,2096921,309425,393672
2096921,2096921,309518,393487
2096921,2096921,309221,393173
2096921,2096921,309131,392913
2096921,2096921,309389,393286
2096921,2096921,309326,393290
2096921,2096921,309344,393013
2096921,2096921,309192,392642
2096921,2096921,308810,392592
2096921,2096921,308680,392471
2096921,2096921,308655,392746
2096921,2096921,308524,392408
2096921,2096921,308376,391826
2096921,2096921,308439,391868
2096921,2096921,308037,391679
2096921,2096921,308123,391680
2096921,2096921,308064,391925
2096921,2096921,307522,391169
2096921,2096921,307378,390989
2096921,2096921,307336,390603
2096921,2096921,307743,390916
2096921,2096921,307591,390915
2096921,2096921,306718,389802
2096921,2096921,306583,389776
2096921,2096921,306550,390001
2096921,2096921,306778,389736
2096921,2096921,306467,389892
2096921,2096921,305441,388079
2096921,2096921,305077,387593
2096921,2096921,305071,387318
2096921,2096921,304795,387153
2096921,2096921,304687,387411
2096921,2096921,302934,384833
2096921,2096921,302393,384409
2096921,2096921,302439,384359
2096921,2096921,302763,384316
2096921,2096921,302520,384101
2096921,2096921,301126,382555
2096921,2096921,300743,382406
2096921,2096921,300447,381970
2096921,2096921,300274,381781
2096921,2096921,300817,381968
2096921,2096921,299796,380918
2096921,2096921,299267,380562
2096921,2096921,299348,380346
2096921,2096921,299186,380325
2096921,2096921,299184,380423
2096921,2096921,298526,379279
2096921,2096921,298019,379238
2096921,2096921,298412,379183
2096921,2096921,298542,379200
2096921,2096921,298450,379277
2096921,2096921,298093,378584
2096921,2096921,297823,378422
2096921,2096921,297732,378282
2096921,2096921,297584,378267
2096921,2096921,297647,378160
2096921,2096921,297331,377607
2096921,2096921,297510,377510
2096921,2096921,297419,377401
2096921,2096921,297322,377270
2096921,2096921,297219,377405
2096921,2096921,296585,377231
2096921,2096921,297000,377061
2096921,2096921,297048,377230
2096921,2096921,296723,377407
2096921,2096921,296751,377321
2096921,2096921,297119,376881
2096921,2096921,297124,376786
2096921,2096921,296947,376866
2096921,2096921,296943,376833
2096921,2096921,296813,377227
2096921,2096921,297033,377213
2096921,2096921,296823,377145
2096921,2096921,296910,377187
2096921,2096921,296786,377066
2096921,2096921,296945,376944
2096921,2096921,296989,377064
2096921,2096921,297059,377371
2096921,2096921,297280,377500
2096921,2096921,296885,377229
2096921,2096921,296851,377441
2096921,2096921,297045,377282
2096921,2096921,297178,377383
2096921,2096921,297034,377328
2096921,2096921,297047,377629
2096921,2096921,297215,377400
2096921,2096921,297472,377543
2096921,2096921,297613,377405
2096921,2096921,297306,377544
2096921,2096921,297258,377373
2096921,2096921,297072,377488
2096921,2096921,297439,377793
2096921,2096921,297344,378074
2096921,2096921,297801,378074
2096921,2096921,297553,378520
2096921,2096921,297497,378084
2096921,2096921,297887,378583
2096921,2096921,298017,378811
2096921,2096921,298008,379019
2096921,2096921,297913,378624
2096921,2096921,298199,378890
2096921,2096921,298165,379026
2096921,2096921,298506,379050
2096921,2096921,298470,379142
2096921,2096921,298393,379065
2096921,2096921,298562,379047
2096921,2096921,298835,379596
2096921,2096921,298879,379669
2096921,2096921,298905,379430
2096921,2096921,299141,379446
2096921,2096921,298939,379748
2096921,2096921,298922,380005
2096921,2096921,299158,380165
2096921,2096921,299320,380206
2096921,2096921,299179,380040
2096921,2096921,299433,379978
2096921,2096921,299602,380401
2096921,2096921,299700,380419
2096921,2096921,299437,380593
2096921,2096921,299751,380594
2096921,2096921,299612,380349
2096921,2096921,299857,380883
2096921,2096921,299926,381323
2096921,2096921,299942,381318
2096921,2096921,300191,381281
2096921,2096921,300152,381045
2096921,2096921,300259,381493
2096921,2096921,300193,381646
2096921,2096921,300360,381564
2096921,2096921,300292,381642
2096921,2096921,300242,381522
2096921,2096921,300780,382165
2096921,2096921,300717,382162
2096921,2096921,300806,382337
2096921,2096921,300656,381819
2096921,2096921,300753,381986
2096921,2096921,301177,382508
2096921,2096921,301315,382741
2096921,2096921,301140,382834
2096921,2096921,301236,382763
2096921,2096921,301192,382681
2096921,2096921,301704,383189
2096921,2096921,301604,383063
2096921,2096921,301503,383233
2096921,2096921,301574,383319
2096921,2096921,301507,383543
2096921,2096921,301818,383950
2096921,2096921,302122,383780
2096921,2096921,301772,383753
2096921,2096921,301983,383674
2096921,2096921,301973,383664
2096921,2096921,302495,384115
2096921,2096921,302296,384259
2096921,2096921,302549,384149
2096921,2096921,302437,384225
2096921,2096921,302331,384259
2096921,2096921,302484,384368
2096921,2096921,302658,384501
2096921,2096921,302797,384483
2096921,2096921,302784,384545
2096921,2096921,302544,384595
2096921,2096921,302591,384943
2096921,2096921,302804,384999
2096921,2096921,303140,385337
2096921,2096921,302930,385052
2096921,2096921,303178,385034
2096921,2096921,303270,385100
2096921,2096921,303530,385004
2096921,2096921,303098,384954
2096921,2096921,302970,385074
2096921,2096921,303032,384852
2096921,2096921,303088,385013
2096921,2096921,303198,385367
2096921,2096921,303334,385230
2096921,2096921,303236,385308
2096921,2096921,303282,385237
2096921,2096921,303325,385083
2096921,2096921,303274,385231
2096921,2096921,303144,385344
2096921,2096921,303047,385212
2096921,2096921,303049,385135
2096921,2096921,303038,384986
2096921,2096921,302968,385119
2096921,2096921,303405,385427
2096921,2096921,303411,385212
2096921,2096921,303595,385283
2096921,2096921,303166,385295
2096921,2096921,303215,384985
2096921,2096921,303089,384910
2096921,2096921,303296,385275
2096921,2096921,303119,385352
2096921,2096921,302887,385071
2096921,2096921,302865,385086
2096921,2096921,302890,384891
2096921,2096921,302830,385047
2096921,2096921,303098,385114
2096921,2096921,303039,384642
2096921,2096921,302978,384810
2096921,2096921,302865,384885
2096921,2096921,302949,384914
2096921,2096921,302784,384931
2096921,2096921,303084,384771
2096921,2096921,302509,384607
2096921,2096921,302514,384688
2096921,2096921,302838,384813
2096921,2096921,302723,384642
2096921,2096921,302991,384663
2096921,2096921,302845,384699
2096921,2096921,302599,384684
2096921,2096921,302635,384856
2096921,2096921,302567,384593
2096921,2096921,302706,384163
2096921,2096921,302477,384254
2096921,2096921,302753,384571
2096921,2096921,302527,384828
2096921,2096921,302662,384667
2096921,2096921,302372,384294
2096921,2096921,302548,384363
2096921,2096921,302481,384125
2096921,2096921,302516,383916
2096921,2096921,302550,384288
2096921,2096921,302705,384582
2096921,2096921,302543,384311
2096921,2096921,302522,384527
2096921,2096921,302682,384663
2096921,2096921,302359,384893
2096921,2096921,302563,384511
2096921,2096921,302914,384726
2096921,2096921,302988,384714
2096921,2096921,302662,384671
2096921,2096921,302703,384591
2096921,2096921,302760,384854
2096921,2096921,303041,385040
2096921,2096921,302878,384864
2096921,2096921,302727,384829
2096921,2096921,302613,384783
2096921,2096921,302879,384973
2096921,2096921,303167,385266
2096921,2096921,303120,385178
2096921,2096921,302946,385091
2096921,2096921,302978,385088
2096921,2096921,303424,385291
2096921,2096921,303295,385351
2096921,2096921,303600,385453
2096921,2096921,303598,385446
2096921,2096921,303371,385738
2096921,2096921,303857,386034
2096921,2096921,303791,385898
2096921,2096921,303732,386074
2096921,2096921,303570,386054
2096921,2096921,303810,386158
2096921,2096921,304074,386289
2096921,2096921,303872,386597
2096921,2096921,304093,386426
2096921,2096921,304253,386612
2096921,2096921,304087,386510
2096921,2096921,304227,386615
2096921,2096921,304175,386856
2096921,2096921,304025,386894
2096921,2096921,304055,386763
2096921,2096921,304270,386576
2096921,2096921,304400,386849
2096921,2096921,304788,386980
2096921,2096921,304504,387128
2096921,2096921,304631,387000
2096921,2096921,304485,386969
2096921,2096921,304694,387051
2096921,2096921,304685,387630
2096921,2096921,304687,387377
2096921,2096921,304730,387363
2096921,2096921,304668,387419
2096921,2096921,304736,387377
2096921,2096921,305109,387084
2096921,2096921,305002,387188
2096921,2096921,304886,387578
2096921,2096921,304805,387721
2096921,2096921,305312,387726
2096921,2096921,305327,388206
2096921,2096921,305097,387959
2096921,2096921,305279,387903
2096921,2096921,305200,388056
2096921,2096921,305501,388234
2096921,2096921,305577,388389
2096921,2096921,305184,388209
2096921,2096921,305445,388069
2096921,2096921,305470,388142
2096921,2096921,305625,388516
2096921,2096921,305882,388685
2096921,2096921,305735,388463
2096921,2096921,305457,388387
2096921,2096921,305730,388337
2096921,2096921,305882,388601
2096921,2096921,306042,388843
2096921,2096921,305842,388825
2096921,2096921,305787,388969
2096921,2096921,305734,388773
2096921,2096921,306187,389135
2096921,2096921,305701,388988
2096921,2096921,305854,388934
2096921,2096921,306148,388600
2096921,2096921,306245,388874
2096921,2096921,306156,389037
2096921,2096921,305930,389495
2096921,2096921,306052,389255
2096921,2096921,306534,389510
2096921,2096921,306211,389286
2096921,2096921,306544,389476
2096921,2096921,306516,389398
2096921,2096921,306396,389420
2096921,2096921,306461,389425
2096921,2096921,306447,389494
2096921,2096921,306841,389876
2096921,2096921,306771,389919
2096921,2096921,306829,389953
2096921,2096921,306531,389847
2096921,2096921,306546,389755
2096921,2096921,306761,389839
2096921,2096921,306995,389954
2096921,2096921,307127,389948
2096921,2096921,306842,390034
2096921,2096921,307002,390223
2096921,2096921,306972,390281
2096921,2096921,306944,390257
2096921,2096921,306926,390560
2096921,2096921,306972,390364
2096921,2096921,307262,390280
2096921,2096921,307263,390672
2096921,2096921,307272,390597
2096921,2096921,307316,390688
2096921,2096921,307099,390344
2096921,2096921,307227,390394
2096921,2096921,307370,390464
2096921,2096921,307435,390511
2096921,2096921,307628,390763
2096921,2096921,307527,390640
2096921,2096921,307418,390640
2096921,2096921,307536,390913
2096921,2096921,307558,390885
2096921,2096921,307612,391100
2096921,2096921,307571,390825
2096921,2096921,307606,390760
2096921,2096921,307882,390862
2096921,2096921,307918,391279
2096921,2096921,307828,391266
2096921,2096921,307661,391235
2096921,2096921,307717,391453
2096921,2096921,308082,391181
2096921,2096921,307983,391449
2096921,2096921,308024,391427
2096921,2096921,308064,391377
2096921,2096921,307813,391181
2096921,2096921,308006,391377
2096921,2096921,308026,391474
2096921,2096921,308137,391526
2096921,2096921,308225,391313
2096921,2096921,307878,391605
2096921,2096921,308426,391730
2096921,2096921,308251,391994
2096921,2096921,308035,391724
2096921,2096921,308611,391921
2096921,2096921,308290,391826
2096921,2096921,308344,391765
2096921,2096921,308235,391705
2096921,2096921,308370,392019
2096921,2096921,308370,391984
2096921,2096921,308241,391653
2096921,2096921,308265,392056
2096921,2096921,308162,392006
2096921,2096921,308410,392017
2096921,2096921,308338,391879
2096921,2096921,308299,391867
2096921,2096921,308337,392029
2096921,2096921,308431,392122
2096921,2096921,308785,392207
2096921,2096921,308556,392060
2096921,2096921,308439,392136
2096921,2096921,308461,392408
2096921,2096921,308541,391995
2096921,2096921,308262,392205
2096921,2096921,308760,392595
2096921,2096921,308855,392318
2096921,2096921,308749,392328
2096921,2096921,308692,392345
2096921,2096921,308868,392373
2096921,2096921,308671,392101
2096921,2096921,308682,392076
2096921,2096921,308842,392359
2096921,2096921,308373,392449
2096921,2096921,308605,392267
2096921,2096921,308706,392494
2096921,2096921,308770,392530
2096921,2096921,308987,392372
2096921,2096921,308911,392775
2096921,2096921,308981,392509
2096921,2096921,308882,392723
2096921,2096921,308845,392519
2096921,2096921,309184,392891
2096921,2096921,309097,392734
2096921,2096921,309078,392838
2096921,2096921,308994,392628
2096921,2096921,309057,392847
2096921,2096921,308991,392601
2096921,2096921,308885,392789
2096921,2096921,309006,392852
2096921,2096921,309225,392781
2096921,2096921,309242,392705
2096921,2096921,309247,393060
2096921,2096921,309048,392856
2096921,2096921,309128,392898
2096921,2096921,309288,392609
2096921,2096921,308934,392761
2096921,2096921,308957,392755
2096921,2096921,309098,393070
2096921,2096921,309338,392785
2096921,2096921,309262,392799
2096921,2096921,309182,392911
2096921,2096921,309356,393104
2096921,2096921,309314,392873
2096921,2096921,309289,392853
2096921,2096921,309050,392939
2096921,2096921,309083,392976
2096921,2096921,309387,393032
2096921,2096921,309547,392854
2096921,2096921,309412,393362
2096921,2096921,309327,393175
2096921,2096921,309411,393103
2096921,2096921,309483,393417
2096921,2096921,309169,393395
2096921,2096921,309353,393429
2096921,2096921,309136,393074
2096921,2096921,309114,393472
2096921,2096921,309370,393192
2096921,2096921,309215,393379
2096921,2096921,309365,392954
2096921,2096921,309593,393635
2096921,2096921,309559,393419
2096921,2096921,309510,393645
2096921,2096921,309555,393385
2096921,2096921,309525,393346
2096921,2096921,309477,393380
2096921,2096921,309265,393559
2096921,2096921,309415,393578
2096921,2096921,309413,393694
2096921,2096921,309731,393725
2096921,2096921,309298,393331
2096921,2096921,309404,393473
2096921,2096921,309369,393559
2096921,2096921,309573,393758
2096921,2096921,309339,393541
2096921,2096921,309504,393721
2096921,2096921,309337,393771
2096921,2096921,309611,393586
2096921,2096921,309297,393781
2096921,2096921,309645,393714
2096921,2096921,309471,393225
2096921,2096921,309709,393375
2096921,2096921,309679,393548
2096921,2096921,309707,393691
2096921,2096921,309675,393610
2096921,2096921,309682,393455
2096921,2096921,309497,393498
2096921,2096921,309532,393607
2096921,2096921,309617,393695
2096921,2096921,309704,393533
2096921,2096921,309520,393671
2096921,2096921,309845,393641
2096921,2096921,309561,393565
2096921,2096921,309942,393582
2096921,2096921,309862,393414
2096921,2096921,309693,393622
2096921,2096921,309463,393633
2096921,2096921,309711,393620
2096921,2096921,309635,393551
2096921,2096921,309781,393432
2096921,2096921,309692,393681
2096921,2096921,309832,393550
2096921,2096921,309929,393680
2096921,2096921,309668,393672
2096921,2096921,309748,393623
2096921,2096921,309463,393590
2096921,2096921,309408,393560
2096921,2096921,309346,393514
2096921,2096921,309778,393499
2096921,2096921,309496,393399
2096921,2096921,309851,393782
2096921,2096921,309686,393722
2096921,2096921,309701,393670
2096921,2096921,309627,393300
2096921,2096921,309369,393314
2096921,2096921,309590,393597
2096921,2096921,309886,393400
2096921,2096921,309629,393751
2096921,2096921,309770,393591
2096921,2096921,309614,393539
2096921,2096921,309689,393990
2096921,2096921,309818,393580
2096921,2096921,309480,393322
2096921,2096921,309366,393601
2096921,2096921,309259,393361
2096921,2096921,309404,393602
2096921,2096921,309490,393786
2096921,2096921,309156,393177
2096921,2096921,309334,393425
2096921,2096921,309185,393228
2096921,2096921,309036,393005
2096921,2096921,309508,392930
2096921,2096921,309304,392667
2096921,2096921,309063,392614
2096921,2096921,308807,392891
2096921,2096921,309108,392944
2096921,2096921,308886,392731
2096921,2096921,308441,392169
2096921,2096921,308279,392063
2096921,2096921,308167,392046
2096921,2096921,308050,391855
2096921,2096921,308462,391859
2096921,2096921,307564,391181
2096921,2096921,307708,391090
2096921,2096921,307357,390737
2096921,2096921,307619,390669
2096921,2096921,307348,390686
2096921,2096921,306708,389938
2096921,2096921,306809,389488
2096921,2096921,306804,389827
2096921,2096921,306461,389687
2096921,2096921,306363,389841
2096921,2096921,305145,387995
2096921,2096921,304892,387593
2096921,2096921,304860,387265
2096921,2096921,304805,387439
2096921,2096921,304709,386962
2096921,2096921,303037,384892
2096921,2096921,302515,384438
2096921,2096921,302667,384672
2096921,2096921,302488,384674
2096921,2096921,302638,384049
2096921,2096921,301082,382303
2096921,2096921,300912,382016
2096921,2096921,300914,381909
2096921,2096921,300968,382043
2096921,2096921,300780,381978
2096921,2096921,299799,380762
2096921,2096921,299642,380541
2096921,2096921,299642,380275
2096921,2096921,299423,380269
2096921,2096921,299435,380369
2096921,2096921,298702,379253
2096921,2096921,298498,379133
2096921,2096921,298106,379046
2096921,2096921,298467,379152
2096921,2096921,298318,379381
2096921,2096921,297696,378569
2096921,2096921,297746,378008
2096921,2096921,298174,377966
2096921,2096921,298136,377952
2096921,2096921,297958,378122
2096921,2096921,297474,377597
2096921,2096921,297292,377326
2096921,2096921,296960,377429
2096921,2096921,297059,377476
2096921,2096921,297343,377394
2096921,2096921,297172,377174
2096921,2096921,297258,377290
2096921,2096921,296951,377315
2096921,2096921,296811,377193
2096921,2096921,296806,377150
2096921,2096921,296761,377172
2096921,2096921,296770,376866
2096921,2096921,296923,377036
2096921,2096921,296991,376881
2096921,2096921,296883,377094
2096921,2096921,296661,377071
2096921,2096921,296890,376950
2096921,2096921,296881,377057
2096921,2096921,296945,376941
2096921,2096921,296879,377103
2096921,2096921,296990,377788
2096921,2096921,297421,377248
2096921,2096921,297136,377032
2096921,2096921,296917,377314
2096921,2096921,296868,377101
2096921,2096921,297301,377439
2096921,2096921,297211,377746
2096921,2096921,297264,377642
2096921,2096921,297101,377168
2096921,2096921,297266,377476
2096921,2096921,297546,377725
2096921,2096921,297212,377518
2096921,2096921,297402,377434
2096921,2096921,297117,377439
2096921,2096921,297349,377679
2096921,2096921,297348,377872
2096921,2096921,297378,378031
2096921,2096921,297535,378150
2096921,2096921,297531,377993
2096921,2096921,297487,378212
2096921,2096921,297992,378668
2096921,2096921,298117,378551
2096921,2096921,298081,378797
2096921,2096921,297982,378676
2096921,2096921,298073,378545
2096921,2096921,298129,378810
2096921,2096921,298270,379293
2096921,2096921,298391,379192
2096921,2096921,298728,379199
2096921,2096921,298499,379254
2096921,2096921,298997,379796
2096921,2096921,299245,379848
2096921,2096921,298976,379790
2096921,2096921,298960,379633
2096921,2096921,299043,379590
2096921,2096921,299396,380237
2096921,2096921,299317,380041
2096921,2096921,299522,380387
2096921,2096921,299317,380553
2096921,2096921,299187,380224
2096921,2096921,299561,380679
2096921,2096921,299469,380598
2096921,2096921,299782,380623
2096921,2096921,299624,380842
2096921,2096921,299868,380733
2096921,2096921,300082,381015
2096921,2096921,300093,381005
2096921,2096921,299937,381017
2096921,2096921,299987,381090
2096921,2096921,300063,380950
2096921,2096921,300491,381508
2096921,2096921,300579,381603
2096921,2096921,300649,381714
2096921,2096921,300495,381508
2096921,2096921,300689,381834
2096921,2096921,300713,382205
2096921,2096921,300744,382183
2096921,2096921,300672,382055
2096921,2096921,300830,382467
2096921,2096921,300666,382170
2096921,2096921,301216,382808
2096921,2096921,301281,382845
2096921,2096921,301649,382561
2096921,2096921,301306,382740
2096921,2096921,301398,382769
2096921,2096921,301666,383318
2096921,2096921,301655,383390
2096921,2096921,301605,383629
2096921,2096921,301874,383391
2096921,2096921,301907,383733
2096921,2096921,302212,383594
2096921,2096921,302096,383600
2096921,2096921,301970,383614
2096921,2096921,301871,383737
2096921,2096921,302098,383876
2096921,2096921,302748,384386
2096921,2096921,302798,384153
2096921,2096921,302774,384128
2096921,2096921,302554,384230
2096921,2096921,302754,384226
2096921,2096921,302651,384558
2096921,2096921,302740,384749
2096921,2096921,302817,384653
2096921,2096921,302607,384771
2096921,2096921,302804,384936
2096921,2096921,303055,385059
2096921,2096921,302863,384875
2096921,2096921,302962,384736
2096921,2096921,303079,384701
2096921,2096921,303142,384907
2096921,2096921,303072,385162
2096921,2096921,303355,385393
2096921,2096921,303434,385576
2096921,2096921,303481,385249
2096921,2096921,303168,385129
2096921,2096921,303299,385237
2096921,2096921,303439,385247
2096921,2096921,303193,385320
2096921,2096921,303354,385618
2096921,2096921,303457,385305
2096921,2096921,303453,385328
2096921,2096921,303549,385087
2096921,2096921,303153,385273
2096921,2096921,303045,385039
2096921,2096921,303337,385163
2096921,2096921,303157,385215
2096921,2096921,303564,385214
2096921,2096921,303457,385391
2096921,2096921,303465,385282
2096921,2096921,303434,385152
2096921,2096921,303291,385075
2096921,2096921,303341,385104
2096921,2096921,303209,385024
2096921,2096921,303294,385145
2096921,2096921,303223,385266
2096921,2096921,303123,385171
2096921,2096921,303091,385093
2096921,2096921,303091,385050
2096921,2096921,302897,384966
2096921,2096921,302901,385052
2096921,2096921,302835,385055
2096921,2096921,303055,385028
2096921,2096921,303001,384807
2096921,2096921,303017,384868
2096921,2096921,302802,384857
2096921,2096921,302776,384633
2096921,2096921,302863,384362
2096921,2096921,302831,384480
2096921,2096921,302566,384461
2096921,2096921,302932,385039
2096921,2096921,302741,384796
2096921,2096921,302570,384680
2096921,2096921,302290,384608
2096921,2096921,302735,384505
2096921,2096921,302674,384628
2096921,2096921,302427,384334
2096921,2096921,302561,384444
2096921,2096921,302812,384541
2096921,2096921,302553,384559
2096921,2096921,302595,384393
2096921,2096921,302769,384298
2096921,2096921,302648,384759
2096921,2096921,302495,384583
2096921,2096921,302362,384458
2096921,2096921,302638,384612
2096921,2096921,302724,384405
2096921,2096921,302744,384852
2096921,2096921,302775,384803
2096921,2096921,302774,384596
2096921,2096921,302526,384511
2096921,2096921,302699,384729
2096921,2096921,302865,384599
2096921,2096921,302751,384492
2096921,2096921,302801,384547
2096921,2096921,302920,384688
2096921,2096921,302747,384836
2096921,2096921,302905,384936
2096921,2096921,303078,384725
2096921,2096921,302929,384615
2096921,2096921,303119,384839
2096921,2096921,303152,385254
2096921,2096921,303269,385090
2096921,2096921,303033,385352
2096921,2096921,303203,385207
2096921,2096921,303156,385105
2096921,2096921,303539,385276
2096921,2096921,303568,385412
2096921,2096921,303718,385412
2096921,2096921,303715,385854
2096921,2096921,303624,385692
2096921,2096921,303738,386235
2096921,2096921,303857,386099
2096921,2096921,303840,386076
2096921,2096921,303596,385796
2096921,2096921,303718,385936
2096921,2096921,304227,386256
2096921,2096921,304066,386145
2096921,2096921,304188,386576
2096921,2096921,304108,386450
2096921,2096921,304106,386301
2096921,2096921,304326,386543
2096921,2096921,304369,386735
2096921,2096921,304467,386786
2096921,2096921,304161,386770
2096921,2096921,304179,386681
2096921,2096921,304594,386812
2096921,2096921,304643,386814
2096921,2096921,304592,386989
2096921,2096921,304504,387082
2096921,2096921,304434,386844
2096921,2096921,304662,386943
2096921,2096921,304969,387223
2096921,2096921,304682,387167
2096921,2096921,304775,387152
2096921,2096921,304698,387332
2096921,2096921,305221,387559
2096921,2096921,304909,387451
2096921,2096921,305023,387557
2096921,2096921,305075,387476
2096921,2096921,305003,387410
2096921,2096921,305424,387907
2096921,2096921,305361,387979
2096921,2096921,305053,387896
2096921,2096921,305458,387971
2096921,2096921,305241,387987
2096921,2096921,305629,388288
2096921,2096921,305527,388441
2096921,2096921,305606,388427
2096921,2096921,305370,388544
2096921,2096921,305852,388380
2096921,2096921,305843,388480
2096921,2096921,305860,388416
2096921,2096921,305550,388350
2096921,2096921,306101,388277
2096921,2096921,305723,388396
2096921,2096921,306045,388432
2096921,2096921,306200,388652
2096921,2096921,306103,388875
2096921,2096921,306062,388671
2096921,2096921,305991,388679
2096921,2096921,305941,389121
2096921,2096921,305960,389141
2096921,2096921,306160,389074
2096921,2096921,306135,389048
2096921,2096921,306164,389077
2096921,2096921,306487,389645
2096921,2096921,306217,389561
2096921,2096921,306448,389200
2096921,2096921,306284,389481
2096921,2096921,306021,389515
2096921,2096921,306019,390006
2096921,2096921,306546,389481
2096921,2096921,306531,389613
2096921,2096921,306654,389452
2096921,2096921,306494,389686
2096921,2096921,306659,389664
2096921,2096921,307102,389999
2096921,2096921,306755,390006
2096921,2096921,306450,389977
2096921,2096921,306781,389827
2096921,2096921,307027,390211
2096921,2096921,307190,390158
2096921,2096921,306929,390059
2096921,2096921,307011,390334
2096921,2096921,306751,390007
2096921,2096921,306945,390101
2096921,2096921,307054,390024
2096921,2096921,307017,390062
2096921,2096921,307151,390526
2096921,2096921,307283,390242
2096921,2096921,307341,390272
2096921,2096921,307320,390833
2096921,2096921,307249,390494
2096921,2096921,307315,390520
2096921,2096921,307416,390463
2096921,2096921,307334,390687
2096921,2096921,307359,390669
2096921,2096921,307409,390705
2096921,2096921,307597,390577
2096921,2096921,307290,390783
2096921,2096921,307534,390821
2096921,2096921,307498,391038
2096921,2096921,307674,390851
2096921,2096921,307623,390999
2096921,2096921,307776,390909
2096921,2096921,307779,391217
2096921,2096921,307735,391224
2096921,2096921,307769,391264
2096921,2096921,307538,391040
2096921,2096921,307541,391280
2096921,2096921,308076,391516
2096921,2096921,308185,391371
2096921,2096921,307843,391355
2096921,2096921,307997,391508
2096921,2096921,307862,391264
2096921,2096921,307990,391318
2096921,2096921,308110,391220
2096921,2096921,308115,391674
2096921,2096921,308137,391497
2096921,2096921,308188,391678
2096921,2096921,308349,391780
2096921,2096921,308349,391930
2096921,2096921,308372,391895
2096921,2096921,308205,391840
2096921,2096921,308240,391641
2096921,2096921,308260,391970
2096921,2096921,308323,391866
2096921,2096921,308264,391663
2096921,2096921,308220,391715
2096921,2096921,308183,391902
2096921,2096921,308282,391786
2096921,2096921,308512,391849
2096921,2096921,308464,391544
2096921,2096921,308398,392090
2096921,2096921,308283,391935
2096921,2096921,308406,392033
2096921,2096921,308518,391925
2096921,2096921,308560,391891
2096921,2096921,308415,392162
2096921,2096921,308449,392134
2096921,2096921,308603,392323
2096921,2096921,308473,392259
2096921,2096921,308730,392064
2096921,2096921,308408,392243
2096921,2096921,308502,392596
2096921,2096921,308419,392511
2096921,2096921,308611,392244
2096921,2096921,308826,392489
2096921,2096921,308690,392420
2096921,2096921,308840,392756
2096921,2096921,308991,392678
2096921,2096921,309005,392637
2096921,2096921,308911,392855
2096921,2096921,308868,392543
2096921,2096921,309009,392551
2096921,2096921,308907,392735
2096921,2096921,308837,392513
2096921,2096921,308862,392565
2096921,2096921,308960,392656
2096921,2096921,308701,392757
2096921,2096921,308963,392511
2096921,2096921,308747,392841
2096921,2096921,308825,392651
2096921,2096921,308756,392676
2096921,2096921,308977,392579
2096921,2096921,309040,392763
2096921,2096921,309112,392926
2096921,2096921,309049,392620
2096921,2096921,309178,393013
2096921,2096921,309162,392783
2096921,2096921,308990,392941
2096921,2096921,309121,393045
2096921,2096921,308992,392818
2096921,2096921,308971,392714
2096921,2096921,309002,392906
2096921,2096921,309134,393003
2096921,2096921,309165,392891
2096921,2096921,308973,392867
2096921,2096921,308980,392847
2096921,2096921,308961,392852
2096921,2096921,309326,392927
2096921,2096921,309243,393022
2096921,2096921,308965,392798
2096921,2096921,309298,393047
2096921,2096921,309400,393158
2096921,2096921,309237,393446
2096921,2096921,309344,393129
2096921,2096921,309279,393093
2096921,2096921,309429,393053
2096921,2096921,309309,393105
2096921,2096921,309674,393082
2096921,2096921,309285,393364
2096921,2096921,309721,393308
2096921,2096921,309164,393462
2096921,2096921,309696,392966
2096921,2096921,309573,393313
2096921,2096921,309655,393314
2096921,2096921,309311,393473
2096921,2096921,309101,393235
2096921,2096921,309296,393233
2096921,2096921,309480,393160
2096921,2096921,309479,393399
2096921,2096921,309582,393470
2096921,2096921,309556,393516
2096921,2096921,309644,393202
2096921,2096921,309596,393441
2096921,2096921,309613,393521
2096921,2096921,309719,393361
2096921,2096921,309684,393589
2096921,2096921,309682,393645
2096921,2096921,309849,393536
2096921,2096921,309596,393208
2096921,2096921,309681,393383
2096921,2096921,309457,393557
2096921,2096921,309646,393643
2096921,2096921,309664,393464
2096921,2096921,309547,393612
2096921,2096921,309594,393565
2096921,2096921,309931,393468
2096921,2096921,309736,393406
2096921,2096921,309680,393702
2096921,2096921,309982,393624
2096921,2096921,309921,393563
2096921,2096921,309318,393418
2096921,2096921,309762,393441
2096921,2096921,309484,393503
2096921,2096921,309467,393569
2096921,2096921,309655,393837
2096921,2096921,310084,393765
2096921,2096921,309858,393667
2096921,2096921,309685,393431
2096921,2096921,309675,393462
2096921,2096921,309656,393725
2096921,2096921,309430,393555
2096921,2096921,309812,393620
2096921,2096921,309502,393435
2096921,2096921,309523,393792
2096921,2096921,309685,393760
2096921,2096921,309884,393781
2096921,2096921,309927,393837
2096921,2096921,309748,393854
2096921,2096921,309630,393658
2096921,2096921,309742,393723
2096921,2096921,309723,393611
2096921,2096921,309505,393610
2096921,2096921,309543,393406
2096921,2096921,309456,393448
2096921,2096921,309917,393774
2096921,2096921,309843,393705
2096921,2096921,309688,393625
2096921,2096921,309739,393815
2096921,2096921,309906,393807
2096921,2096921,309788,394016
2096921,2096921,309760,393601
2096921,2096921,309665,393791
2096921,2096921,309656,393589
2096921,2096921,309306,393618
2096921,2096921,309315,393606
2096921,2096921,309680,393594
2096921,2096921,309624,393861
2096921,2096921,309538,393740
2096921,2096921,309518,393506
2096921,2096921,309991,393440
2096921,2096921,309798,393723
2096921,2096921,309708,393702
2096921,2096921,309317,393288
2096921,2096921,309153,393076
2096921,2096921,309168,393020
2096921,2096921,309215,393097
2096921,2096921,309245,393348
2096921,2096921,309084,392872
2096921,2096921,308824,392731
2096921,2096921,308908,392733
2096921,2096921,309023,392657
2096921,2096921,309038,392445
2096921,2096921,308397,391732
2096921,2096921,308341,391860
2096921,2096921,308283,391773
2096921,2096921,308261,391977
2096921,2096921,308170,392020
2096921,2096921,307487,391043
2096921,2096921,307275,390836
2096921,2096921,307554,391161
2096921,2096921,307435,390724
2096921,2096921,307368,391180
2096921,2096921,306912,390175
2096921,2096921,306914,389917
2096921,2096921,306691,389882
2096921,2096921,306733,389766
2096921,2096921,306379,389820
2096921,2096921,305253,388048
2096921,2096921,305207,387520
2096921,2096921,305060,387392
2096921,2096921,304754,387251
2096921,2096921,304728,387478
2096921,2096921,302995,384849
2096921,2096921,302537,384369
2096921,2096921,302661,384135
2096921,2096921,302651,384221
2096921,2096921,302478,384274
2096921,2096921,300996,382568
2096921,2096921,300825,382187
2096921,2096921,300603,381868
2096921,2096921,300724,381886
2096921,2096921,300865,382249
2096921,2096921,299854,380683
2096921,2096921,299372,380418
2096921,2096921,299500,380562
2096921,2096921,299502,380472
2096921,2096921,299463,380465
2096921,2096921,298777,379467
2096921,2096921,298677,379191
2096921,2096921,298540,379086
2096921,2096921,298410,379145
2096921,2096921,298328,379055
2096921,2096921,298018,377989
2096921,2096921,297623,378317
2096921,2096921,297677,378238
2096921,2096921,297644,378158
2096921,2096921,297900,378082
2096921,2096921,297324,377811
2096921,2096921,297190,377695
2096921,2096921,297080,377705
2096921,2096921,297282,377844
2096921,2096921,297186,377825
2096921,2096921,296846,377333
2096921,2096921,297218,376931
2096921,2096921,297247,377185
2096921,2096921,297128,377060
2096921,2096921,297140,377213
2096921,2096921,296832,377417
2096921,2096921,296908,377065
2096921,2096921,296661,377146
2096921,2096921,296932,377002
2096921,2096921,296868,377090
2096921,2096921,296668,377213
2096921,2096921,296744,377191
2096921,2096921,297054,377177
2096921,2096921,297046,376901
2096921,2096921,297018,377028
2096921,2096921,297170,377347
2096921,2096921,297455,377466
2096921,2096921,297058,377629
2096921,2096921,297127,377303
2096921,2096921,297151,377172
2096921,2096921,297430,377509
2096921,2096921,297037,377256
2096921,2096921,297155,377133
2096921,2096921,297401,377035
2096921,2096921,297290,377445
2096921,2096921,297256,377536
2096921,2096921,297331,377704
2096921,2096921,297121,377706
2096921,2096921,297390,377714
2096921,2096921,297504,377555
2096921,2096921,297624,377975
2096921,2096921,297879,377915
2096921,2096921,297909,377959
2096921,2096921,297638,378066
2096921,2096921,297707,377931
2096921,2096921,297890,378160
2096921,2096921,297916,378292
2096921,2096921,297950,378231
2096921,2096921,297936,378238
2096921,2096921,297702,378555
2096921,2096921,298221,378947
2096921,2096921,298165,379088
2096921,2096921,298204,379069
2096921,2096921,298301,379141
2096921,2096921,298546,379173
2096921,2096921,298835,379202
2096921,2096921,299060,379603
2096921,2096921,298999,379647
2096921,2096921,298920,379637
2096921,2096921,299091,379549
2096921,2096921,298948,380098
2096921,2096921,299248,380051
2096921,2096921,299303,380450
2096921,2096921,299416,380178
2096921,2096921,299333,380033
2096921,2096921,299503,380571
2096921,2096921,299668,380742
2096921,2096921,299687,380455
2096921,2096921,299537,380648
2096921,2096921,299742,380523
2096921,2096921,299977,380769
2096921,2096921,300224,380998
2096921,2096921,300013,380852
2096921,2096921,300004,380958
2096921,2096921,299796,381062
2096921,2096921,300183,381547
2096921,2096921,300531,381770
2096921,2096921,300194,381506
2096921,2096921,300442,381728
2096921,2096921,300611,381679
2096921,2096921,300920,382034
2096921,2096921,300897,382144
2096921,2096921,301024,382296
2096921,2096921,301073,382245
2096921,2096921,300777,382258
2096921,2096921,301020,382617
2096921,2096921,301074,382729
2096921,2096921,301259,382767
2096921,2096921,301301,382780
2096921,2096921,301341,382561
2096921,2096921,301750,383023
2096921,2096921,301825,383207
2096921,2096921,301679,383218
2096921,2096921,301652,383430
2096921,2096921,301871,383398
2096921,2096921,302033,383691
2096921,2096921,302004,383910
2096921,2096921,302118,383826
2096921,2096921,301886,383660
2096921,2096921,301815,383797
2096921,2096921,302315,384051
2096921,2096921,302441,384119
2096921,2096921,302518,384366
2096921,2096921,302422,384381
2096921,2096921,302550,384172
2096921,2096921,302736,384441
2096921,2096921,302512,384710
2096921,2096921,302719,384685
2096921,2096921,302829,384600
2096921,2096921,302815,384661
2096921,2096921,303164,385205
2096921,2096921,302887,385060
2096921,2096921,302785,384904
2096921,2096921,302771,385000
2096921,2096921,302887,384812
2096921,2096921,303086,384733
2096921,2096921,303095,384982
2096921,2096921,303277,385009
2096921,2096921,303174,384917
2096921,2096921,303296,384892
2096921,2096921,303271,385170
2096921,2096921,303191,385208
2096921,2096921,303420,385071
2096921,2096921,303279,385305
2096921,2096921,303222,385111
2096921,2096921,302964,385293
2096921,2096921,303226,385359
2096921,2096921,303684,385313
2096921,2096921,303366,385249
2096921,2096921,303351,385136
2096921,2096921,303025,384951
2096921,2096921,303124,385242
2096921,2096921,303125,385324
2096921,2096921,303374,385421
2096921,2096921,303246,385299
2096921,2096921,303186,385154
2096921,2096921,303468,385016
2096921,2096921,303251,385298
2096921,2096921,303190,385164
2096921,2096921,303230,385118
2096921,2096921,303122,384856
2096921,2096921,303228,385250
2096921,2096921,303145,385071
2096921,2096921,303341,385306
2096921,2096921,302989,385156
2096921,2096921,302940,384866
2096921,2096921,302748,384814
2096921,2096921,303172,384828
2096921,2096921,303228,384556
2096921,2096921,302833,384713
2096921,2096921,302730,384720
2096921,2096921,302972,384446
2096921,2096921,302839,384880
2096921,2096921,302923,384762
2096921,2096921,302641,384806
2096921,2096921,302921,384687
2096921,2096921,302934,384407
2096921,2096921,302716,384520
2096921,2096921,302571,384532
2096921,2096921,302735,384443
2096921,2096921,302550,384391
2096921,2096921,302748,384541
2096921,2096921,302848,384376
2096921,2096921,302640,384470
2096921,2096921,302522,384500
2096921,2096921,302727,384464
2096921,2096921,302683,384490
2096921,2096921,302735,384441
2096921,2096921,302494,384405
2096921,2096921,302407,384323
2096921,2096921,302622,384350
2096921,2096921,302783,384577
2096921,2096921,302590,384550
2096921,2096921,302940,384607
2096921,2096921,302690,384731
2096921,2096921,302947,384855
2096921,2096921,302995,384849
2096921,2096921,302797,384776
2096921,2096921,303006,384817
2096921,2096921,302928,384500
2096921,2096921,302674,384515
2096921,2096921,302845,384854
2096921,2096921,303025,384995
2096921,2096921,302808,384801
2096921,2096921,302988,384862
2096921,2096921,303329,385378
2096921,2096921,303246,385295
2096921,2096921,303082,385259
2096921,2096921,303285,385070
2096921,2096921,303612,385176
2096921,2096921,303358,385497
2096921,2096921,303494,385426
2096921,2096921,303564,385694
2096921,2096921,303727,385622
2096921,2096921,303590,385282
2096921,2096921,304012,385915
2096921,2096921,303730,386155
2096921,2096921,304057,386132
2096921,2096921,303968,386070
2096921,2096921,303650,386035
2096921,2096921,304181,386253
2096921,2096921,304099,386338
2096921,2096921,304039,386231
2096921,2096921,304084,386209
2096921,2096921,304034,386363
2096921,2096921,304455,386400
2096921,2096921,304492,386748
2096921,2096921,304276,386728
2096921,2096921,304533,386852
2096921,2096921,304365,386576
2096921,2096921,304500,386941
2096921,2096921,304785,387062
2096921,2096921,304366,386850
2096921,2096921,304795,386852
2096921,2096921,304623,387243
2096921,2096921,304734,387313
2096921,2096921,304754,387088
2096921,2096921,304694,387144
2096921,2096921,304472,387257
2096921,2096921,304867,387175
2096921,2096921,305003,387438
2096921,2096921,305184,387253
2096921,2096921,305316,387480
2096921,2096921,304696,387553
2096921,2096921,305105,387571
2096921,2096921,305142,387869
2096921,2096921,305438,388030
2096921,2096921,305249,388166
2096921,2096921,305160,387989
2096921,2096921,305134,387828
2096921,2096921,305668,388212
2096921,2096921,305798,388339
2096921,2096921,305813,388043
2096921,2096921,305798,388234
2096921,2096921,305609,387920
2096921,2096921,305659,388441
2096921,2096921,305666,388470
2096921,2096921,305734,388582
2096921,2096921,305432,388562
2096921,2096921,305738,388637
2096921,2096921,305643,388966
2096921,2096921,305924,388745
2096921,2096921,306062,388634
2096921,2096921,305982,388661
2096921,2096921,306040,388655
2096921,2096921,306352,389112
2096921,2096921,306190,389010
2096921,2096921,306427,389132
2096921,2096921,306250,388899
2096921,2096921,306019,389022
2096921,2096921,306251,389163
2096921,2096921,306546,389430
2096921,2096921,306241,389221
2096921,2096921,306248,389270
2096921,2096921,306598,389376
2096921,2096921,306884,389457
2096921,2096921,306653,389425
2096921,2096921,306606,389596
2096921,2096921,306394,389596
2096921,2096921,306442,389534
2096921,2096921,306746,389807
2096921,2096921,306718,389660
2096921,2096921,306729,389796
2096921,2096921,306911,390123
2096921,2096921,306772,389910
2096921,2096921,306968,390198
2096921,2096921,306965,390136
2096921,2096921,306983,390204
2096921,2096921,307182,389782
2096921,2096921,307178,390114
2096921,2096921,307131,390361
2096921,2096921,307211,390472
2096921,2096921,307033,390634
2096921,2096921,307109,390776
2096921,2096921,307180,390512
2096921,2096921,307385,390486
2096921,2096921,307316,390462
2096921,2096921,307285,390827
2096921,2096921,307253,390727
2096921,2096921,307289,390820
2096921,2096921,307249,390803
2096921,2096921,307354,390792
2096921,2096921,307405,390678
2096921,2096921,307244,390782
2096921,2096921,307365,390513
2096921,2096921,307731,390925
2096921,2096921,307780,391187
2096921,2096921,307692,390961
2096921,2096921,307658,391023
2096921,2096921,307709,391465
2096921,2096921,307910,391300
2096921,2096921,307786,391049
2096921,2096921,307746,391010
2096921,2096921,307798,391035
2096921,2096921,307896,391120
2096921,2096921,307871,391249
2096921,2096921,308071,391239
2096921,2096921,308177,391049
2096921,2096921,307537,391559
2096921,2096921,308022,391258
2096921,2096921,308202,391313
2096921,2096921,308392,391749
2096921,2096921,308205,391686
2096921,2096921,307975,391594
2096921,2096921,307930,391585
2096921,2096921,308016,391398
2096921,2096921,307923,391450
2096921,2096921,308100,391647
2096921,2096921,308431,391588
2096921,2096921,308282,391889
2096921,2096921,308517,391662
2096921,2096921,308073,391760
2096921,2096921,308225,392042
2096921,2096921,308162,391944
2096921,2096921,308230,391906
2096921,2096921,308405,392124
2096921,2096921,308556,392049
2096921,2096921,308349,392359
2096921,2096921,308650,392052
2096921,2096921,308426,392043
2096921,2096921,308414,392255
2096921,2096921,308123,392069
2096921,2096921,308465,392024
2096921,2096921,308732,392279
2096921,2096921,308633,392035
2096921,2096921,308570,392275
2096921,2096921,308732,392062
2096921,2096921,308640,392156
2096921,2096921,308362,392100
2096921,2096921,308400,392081
2096921,2096921,308552,392425
2096921,2096921,308684,392263
2096921,2096921,308732,392449
2096921,2096921,308874,392534
2096921,2096921,308844,392509
2096921,2096921,308692,392661
2096921,2096921,308475,392245
2096921,2096921,308543,392569
2096921,2096921,308668,392401
2096921,2096921,308795,392420
2096921,2096921,308815,392631
2096921,2096921,309098,392272
2096921,2096921,308950,392642
2096921,2096921,308634,392509
2096921,2096921,308738,392369
2096921,2096921,308638,392545
2096921,2096921,309011,392776
2096921,2096921,308684,392518
2096921,2096921,308961,392510
2096921,2096921,309041,392450
2096921,2096921,309138,392796
2096921,2096921,309105,392634
2096921,2096921,308794,392788
2096921,2096921,308897,392833
2096921,2096921,309070,393021
2096921,2096921,308883,393049
2096921,2096921,309127,392876
2096921,2096921,309112,392756
2096921,2096921,309113,392822
2096921,2096921,309230,392645
2096921,2096921,309099,392969
2096921,2096921,309083,393209
2096921,2096921,308999,392831
2096921,2096921,308706,392946
2096921,2096921,309235,392634
2096921,2096921,309182,392883
2096921,2096921,309237,392824
2096921,2096921,309289,392913
2096921,2096921,309280,392912
2096921,2096921,309070,393116
2096921,2096921,308980,393161
2096921,2096921,309033,392936
2096921,2096921,309075,393149
2096921,2096921,309340,393241
2096921,2096921,309426,393096
2096921,2096921,309449,393274
2096921,2096921,309310,393495
2096921,2096921,309496,393241
2096921,2096921,309451,393341
2096921,2096921,309440,393147
2096921,2096921,309124,393244
2096921,2096921,309415,393085
2096921,2096921,309688,393269
2096921,2096921,309395,393106
2096921,2096921,309234,393219
2096921,2096921,309627,393097
2096921,2096921,309676,393314
2096921,2096921,309493,393350
2096921,2096921,309453,393267
2096921,2096921,309526,393256
2096921,2096921,309470,393342
2096921,2096921,309414,393275
2096921,2096921,309658,393573
2096921,2096921,309524,393576
2096921,2096921,309455,393728
2096921,2096921,309553,393444
2096921,2096921,309365,393225
2096921,2096921,309526,393261
2096921,2096921,309415,393430
2096921,2096921,309528,393651
2096921,2096921,309603,393636
2096921,2096921,309659,393610
2096921,2096921,309377,393876
2096921,2096921,309514,393508
2096921,2096921,309479,393725
2096921,2096921,309318,393341
2096921,2096921,309465,393558
2096921,2096921,309681,393560
2096921,2096921,309538,393573
2096921,2096921,309668,393514
2096921,2096921,310011,393347
2096921,2096921,309736,393301
2096921,2096921,309747,393485
2096921,2096921,309816,393737
2096921,2096921,309552,393717
2096921,2096921,309556,393639
2096921,2096921,309824,393509
2096921,2096921,310005,393416
2096921,2096921,309603,393690
2096921,2096921,309482,393636
2096921,2096921,309437,393560
2096921,2096921,309195,393420
2096921,2096921,309524,393561
2096921,2096921,309679,393623
2096921,2096921,309645,393715
2096921,2096921,309727,393418
2096921,2096921,309514,393692
2096921,2096921,309498,393811
2096921,2096921,309790,393804
2096921,2096921,309520,393720
2096921,2096921,309622,393560
2096921,2096921,309657,393791
2096921,2096921,309309,393471
2096921,2096921,309549,393515
2096921,2096921,309727,393777
2096921,2096921,309706,393498
2096921,2096921,309931,393742
2096921,2096921,309770,393660
2096921,2096921,309471,393658
2096921,2096921,309708,393419
2096921,2096921,309564,393500
2096921,2096921,309665,393628
2096921,2096921,309488,393410
2096921,2096921,309607,393209
2096921,2096921,309696,393492
2096921,2096921,309571,393375
2096921,2096921,309486,393601
2096921,2096921,309521,393807
2096921,2096921,309726,393812
2096921,2096921,309347,393423
2096921,2096921,309249,393100
2096921,2096921,309093,392850
2096921,2096921,309102,393057
2096921,2096921,309267,393210
2096921,2096921,309219,393387
2096921,2096921,308912,392920
2096921,2096921,308716,392665
2096921,2096921,308734,392736
2096921,2096921,308978,392727
2096921,2096921,308805,392479
2096921,2096921,308597,392142
2096921,2096921,308402,391925
2096921,2096921,308353,391619
2096921,2096921,307987,391665
2096921,2096921,308322,391811
2096921,2096921,307523,390801
2096921,2096921,307261,390843
2096921,2096921,307578,390623
2096921,2096921,307423,390918
2096921,2096921,307476,390921
2096921,2096921,306804,390128
2096921,2096921,306624,389694
2096921,2096921,306645,389522
2096921,2096921,306502,389783
2096921,2096921,306588,389635
2096921,2096921,305303,387729
2096921,2096921,304844,387494
2096921,2096921,304910,387177
2096921,2096921,304949,387138
2096921,2096921,304502,387295
2096921,2096921,303032,384883
2096921,2096921,302577,384345
2096921,2096921,302515,384399
2096921,2096921,302365,384436
2096921,2096921,302072,384388
2096921,2096921,301222,382650
2096921,2096921,300765,382315
2096921,2096921,300587,381969
2096921,2096921,300703,382227
2096921,2096921,300812,381967
2096921,2096921,299797,380684
2096921,2096921,299434,380292
2096921,2096921,299320,380416
2096921,2096921,299300,380482
2096921,2096921,299179,380469
2096921,2096921,298765,379347
2096921,2096921,298630,379100
2096921,2096921,298685,379186
2096921,2096921,298454,379038
2096921,2096921,298441,379022
2096921,2096921,298028,378184
2096921,2096921,297791,377884
2096921,2096921,297763,378101
2096921,2096921,297831,378084
2096921,2096921,297779,378244
2096921,2096921,297482,377700
2096921,2096921,297185,377449
2096921,2096921,297465,377614
2096921,2096921,297316,377503
2096921,2096921,297256,377272
2096921,2096921,296949,377152
2096921,2096921,296997,376975
2096921,2096921,296891,377372
2096921,2096921,297157,377203
2096921,2096921,296836,377361
2096921,2096921,296727,377075
2096921,2096921,297106,377117
2096921,2096921,296765,376906
2096921,2096921,296597,377028
2096921,2096921,297104,377077
2096921,2096921,296674,376831
2096921,2096921,296879,376781
2096921,2096921,296792,376776
2096921,2096921,297017,377035
2096921,2096921,297144,376750
2096921,2096921,297115,377207
2096921,2096921,297049,377490
2096921,2096921,297100,377541
2096921,2096921,296983,377328
2096921,2096921,297073,377120
2096921,2096921,296758,377344
2096921,2096921,297179,377333
2096921,2096921,297152,377227
2096921,2096921,297427,377445
2096921,2096921,297437,377520
2096921,2096921,297502,377651
2096921,2096921,297454,377541
2096921,2096921,297447,377424
2096921,2096921,297389,377406
2096921,2096921,297233,377434
2096921,2096921,297516,377764
2096921,2096921,297704,377942
2096921,2096921,297718,378047
2096921,2096921,297710,378216
2096921,2096921,297729,377832
2096921,2096921,297851,378349
2096921,2096921,298125,378339
2096921,2096921,298280,378590
2096921,2096921,298043,378626
2096921,2096921,298003,378813
2096921,2096921,298474,378887
2096921,2096921,298247,379040
2096921,2096921,298447,379106
2096921,2096921,298314,379165
2096921,2096921,298390,379020
2096921,2096921,298630,379637
2096921,2096921,298925,379729
2096921,2096921,298771,379669
2096921,2096921,299000,379490
2096921,2096921,299289,379729
2096921,2096921,299295,379923
2096921,2096921,299230,380394
2096921,2096921,299371,380235
2096921,2096921,299504,380444
2096921,2096921,299365,380387
2096921,2096921,299530,380654
2096921,2096921,299681,380808
2096921,2096921,299727,380672
2096921,2096921,299560,380690
2096921,2096921,299424,380460
2096921,2096921,299931,380929
2096921,2096921,300056,380977
2096921,2096921,299854,381183
2096921,2096921,299973,381433
2096921,2096921,300236,381197
2096921,2096921,300180,381399
2096921,2096921,300539,381334
2096921,2096921,300421,381432
2096921,2096921,300231,381587
2096921,2096921,300317,381924
2096921,2096921,300733,382069
2096921,2096921,300970,382258
2096921,2096921,300919,382305
2096921,2096921,300752,382153
2096921,2096921,300891,382213
2096921,2096921,301231,382905
2096921,2096921,301212,382884
2096921,2096921,301252,382733
2096921,2096921,301291,382736
2096921,2096921,301283,382846
2096921,2096921,301197,383056
2096921,2096921,301597,383289
2096921,2096921,301521,383238
2096921,2096921,301504,383391
2096921,2096921,301522,383237
2096921,2096921,302212,383562
2096921,2096921,302077,383929
2096921,2096921,301973,384136
2096921,2096921,301879,383947
2096921,2096921,302089,383812
2096921,2096921,302371,384299
2096921,2096921,302224,384154
2096921,2096921,302450,383981
2096921,2096921,302515,384207
2096921,2096921,302308,384213
2096921,2096921,302571,384891
2096921,2096921,302863,384718
2096921,2096921,302613,384517
2096921,2096921,302901,384615
2096921,2096921,302857,384357
2096921,2096921,302856,384799
2096921,2096921,302961,384691
2096921,2096921,302974,384821
2096921,2096921,302928,384945
2096921,2096921,303253,384920
2096921,2096921,303075,385158
2096921,2096921,303295,384927
2096921,2096921,302786,385074
2096921,2096921,303209,385153
2096921,2096921,303001,385055
2096921,2096921,303401,385142
2096921,2096921,303191,385052
2096921,2096921,303084,385277
2096921,2096921,303027,385426
2096921,2096921,303341,385132
2096921,2096921,303094,385085
2096921,2096921,303290,385301
2096921,2096921,303174,385653
2096921,2096921,303158,385316
2096921,2096921,303066,385241
2096921,2096921,303191,384872
2096921,2096921,303024,385097
2096921,2096921,302988,385226
2096921,2096921,303363,385203
2096921,2096921,303252,385101
2096921,2096921,302982,385305
2096921,2096921,302884,385195
2096921,2096921,302908,385015
2096921,2096921,302890,384977
2096921,2096921,302982,385061
2096921,2096921,303202,384817
2096921,2096921,303142,384932
2096921,2096921,302883,385181
2096921,2096921,303318,384923
2096921,2096921,303198,384893
2096921,2096921,302991,384525
2096921,2096921,302924,384426
2096921,2096921,302780,384629
2096921,2096921,302643,384600
2096921,2096921,302822,384615
2096921,2096921,302928,384637
2096921,2096921,302684,384663
2096921,2096921,302811,384701
2096921,2096921,302711,384685
2096921,2096921,302676,384579
2096921,2096921,302882,384552
2096921,2096921,302684,384515
2096921,2096921,302508,384534
2096921,2096921,302828,384359
2096921,2096921,302640,384366
2096921,2096921,302865,384387
2096921,2096921,302498,384495
2096921,2096921,302426,384277
2096921,2096921,302506,384625
2096921,2096921,302698,384559
2096921,2096921,302719,384533
2096921,2096921,302563,384555
2096921,2096921,302519,384350
2096921,2096921,302660,384429
2096921,2096921,302246,384323
2096921,2096921,302355,384470
2096921,2096921,302473,384477
2096921,2096921,302776,384421
2096921,2096921,302780,384599
2096921,2096921,302748,384585
2096921,2096921,302881,384514
2096921,2096921,302729,384615
2096921,2096921,302599,384381
2096921,2096921,302719,384508
2096921,2096921,302626,384689
2096921,2096921,302891,384752
2096921,2096921,302792,384637
2096921,2096921,302930,384712
2096921,2096921,302781,384799
2096921,2096921,302844,384895
2096921,2096921,303231,384925
2096921,2096921,303266,385266
2096921,2096921,303155,384915
2096921,2096921,303044,385191
2096921,2096921,303305,385023
2096921,2096921,303382,385773
2096921,2096921,303185,385541
2096921,2096921,303055,385616
2096921,2096921,303484,385378
2096921,2096921,303666,385547
2096921,2096921,303755,385852
2096921,2096921,303900,385951
2096921,2096921,303758,385852
2096921,2096921,303812,385923
2096921,2096921,303613,385858
2096921,2096921,303826,386338
2096921,2096921,303783,386365
2096921,2096921,303641,386177
2096921,2096921,303954,386271
2096921,2096921,304112,386198
2096921,2096921,304081,386450
2096921,2096921,304331,386468
2096921,2096921,304270,386560
2096921,2096921,304273,386569
2096921,2096921,304339,386628
2096921,2096921,304487,387023
2096921,2096921,304502,386732
2096921,2096921,304538,387053
2096921,2096921,304588,386994
2096921,2096921,304555,386770
2096921,2096921,304472,387080
2096921,2096921,304652,387059
2096921,2096921,304709,387075
2096921,2096921,304713,387008
2096921,2096921,304818,386956
2096921,2096921,304791,387574
2096921,2096921,305052,387523
2096921,2096921,304877,387324
2096921,2096921,304761,387247
2096921,2096921,304858,387429
2096921,2096921,305069,387613
2096921,2096921,304971,387774
2096921,2096921,305345,387851
2096921,2096921,305300,387825
2096921,2096921,305106,387771
2096921,2096921,305358,388376
2096921,2096921,305398,388331
2096921,2096921,305317,388365
2096921,2096921,305447,387889
2096921,2096921,305464,388053
2096921,2096921,305458,388337
2096921,2096921,305482,388514
2096921,2096921,305637,388337
2096921,2096921,305784,388564
2096921,2096921,305634,388286
2096921,2096921,305909,388611
2096921,2096921,305746,388762
2096921,2096921,305862,388686
2096921,2096921,306012,388776
2096921,2096921,305870,388817
2096921,2096921,305974,389054
2096921,2096921,306153,388961
2096921,2096921,306029,389059
2096921,2096921,305947,388831
2096921,2096921,305856,388815
2096921,2096921,306209,388922
2096921,2096921,306036,389146
2096921,2096921,306324,389269
2096921,2096921,306368,389178
2096921,2096921,306297,389249
2096921,2096921,306299,389499
2096921,2096921,306396,389364
2096921,2096921,306408,389324
2096921,2096921,306308,389218
2096921,2096921,306440,389375
2096921,2096921,306507,389530
2096921,2096921,306835,389627
2096921,2096921,306566,389582
2096921,2096921,306702,389453
2096921,2096921,306588,389427
2096921,2096921,306804,389882
2096921,2096921,306710,389989
2096921,2096921,306656,390325
2096921,2096921,306993,389984
2096921,2096921,307016,390061
2096921,2096921,307068,390110
2096921,2096921,307057,390169
2096921,2096921,306798,390113
2096921,2096921,307063,390196
2096921,2096921,307165,390180
2096921,2096921,307481,390549
2096921,2096921,307440,390341
2096921,2096921,307220,390383
2096921,2096921,307194,390477
2096921,2096921,307406,390536
2096921,2096921,307087,390642
2096921,2096921,307515,390745
2096921,2096921,307375,390572
2096921,2096921,307388,390877
2096921,2096921,307429,390802
2096921,2096921,307612,390545
2096921,2096921,307667,390864
2096921,2096921,307569,390809
2096921,2096921,307556,390771
2096921,2096921,307606,390710
2096921,2096921,307588,390994
2096921,2096921,307698,391097
2096921,2096921,307889,391309
2096921,2096921,307706,391184
2096921,2096921,307730,391102
2096921,2096921,307848,391080
2096921,2096921,308136,391051
2096921,2096921,308077,391285
2096921,2096921,307816,391239
2096921,2096921,307743,391178
2096921,2096921,307820,391588
2096921,2096921,307853,391482
2096921,2096921,307744,391488
2096921,2096921,308139,391698
2096921,2096921,308118,391743
2096921,2096921,308433,391789
2096921,2096921,308105,391708
2096921,2096921,308451,391820
2096921,2096921,308097,391676
2096921,2096921,308241,391447
2096921,2096921,308136,391590
2096921,2096921,308309,391665
2096921,2096921,308490,391962
2096921,2096921,308524,391819
2096921,2096921,308218,391752
2096921,2096921,308445,391794
2096921,2096921,308666,391968
2096921,2096921,308417,391988
2096921,2096921,308264,392088
2096921,2096921,308200,391987
2096921,2096921,308470,391902
2096921,2096921,308464,391966
2096921,2096921,308430,392079
2096921,2096921,308689,392051
2096921,2096921,308550,392171
2096921,2096921,308755,392098
2096921,2096921,308674,392241
2096921,2096921,308670,392374
2096921,2096921,308171,392155
2096921,2096921,308568,391834
2096921,2096921,308487,392079
2096921,2096921,308719,392331
2096921,2096921,308388,392438
2096921,2096921,308871,392223
2096921,2096921,308824,392255
2096921,2096921,308937,392204
2096921,2096921,308687,392377
2096921,2096921,309007,392308
2096921,2096921,308870,392325
2096921,2096921,308734,392447
2096921,2096921,308601,392373
2096921,2096921,308891,392500
2096921,2096921,308588,392396
2096921,2096921,308797,392449
2096921,2096921,308822,392497
2096921,2096921,308846,392702
2096921,2096921,308794,392552
2096921,2096921,309050,392613
2096921,2096921,308668,392401
2096921,2096921,308963,392831
2096921,2096921,309117,392725
2096921,2096921,308904,392557
2096921,2096921,308978,392456
2096921,2096921,308896,392542
2096921,2096921,309071,392632
2096921,2096921,309216,392904
2096921,2096921,309189,392753
2096921,2096921,309206,393005
2096921,2096921,309059,392986
2096921,2096921,309172,392797
2096921,2096921,309023,392749
2096921,2096921,309076,392671
2096921,2096921,309194,392783
2096921,2096921,309083,392986
2096921,2096921,309293,392942
2096921,2096921,309349,393307
2096921,2096921,309294,393376
2096921,2096921,309316,393408
2096921,2096921,309283,393199
2096921,2096921,309074,392911
2096921,2096921,309201,393161
2096921,2096921,309526,393165
2096921,2096921,309407,393132
2096921,2096921,309287,393247
2096921,2096921,309252,392950
2096921,2096921,309480,393038
2096921,2096921,309597,393092
2096921,2096921,309386,393130
2096921,2096921,309048,392904
2096921,2096921,309367,393072
2096921,2096921,309630,393273
2096921,2096921,309591,393400
2096921,2096921,309330,393372
2096921,2096921,309640,393244
2096921,2096921,309754,393320
2096921,2096921,309677,393239
2096921,2096921,309579,393020
2096921,2096921,309501,393279
2096921,2096921,309469,393287
2096921,2096921,309555,393540
2096921,2096921,309367,393482
2096921,2096921,309523,393451
2096921,2096921,309452,393420
2096921,2096921,309545,393520
2096921,2096921,309463,393471
2096921,2096921,309653,393501
2096921,2096921,309806,393656
2096921,2096921,309545,393741
2096921,2096921,309509,393585
2096921,2096921,309634,393373
2096921,2096921,309446,393410
2096921,2096921,309526,393678
2096921,2096921,309525,393730
2096921,2096921,309584,393626
2096921,2096921,309556,393510
2096921,2096921,309453,393715
2096921,2096921,309487,393533
2096921,2096921,309337,393483
2096921,2096921,309571,393492
2096921,2096921,309918,393294
2096921,2096921,309499,393302
2096921,2096921,309548,393236
2096921,2096921,309613,393252
2096921,2096921,309864,393541
2096921,2096921,309638,393484
2096921,2096921,309616,393549
2096921,2096921,309787,393473
2096921,2096921,309468,393589
2096921,2096921,309718,393435
2096921,2096921,309528,393239
2096921,2096921,309901,393308
2096921,2096921,309531,393514
2096921,2096921,309487,393531
2096921,2096921,309421,393456
2096921,2096921,310004,393774
2096921,2096921,309722,393560
2096921,2096921,309898,393707
2096921,2096921,309532,393474
2096921,2096921,309658,393635
2096921,2096921,309368,393730
2096921,2096921,309746,393454
2096921,2096921,309633,393812
2096921,2096921,309770,393807
2096921,2096921,309799,393489
2096921,2096921,309736,393463
2096921,2096921,309650,393428
2096921,2096921,309505,393444
2096921,2096921,309500,393399
2096921,2096921,309607,393530
2096921,2096921,309534,393314
2096921,2096921,309294,393441
2096921,2096921,309621,393424
2096921,2096921,309668,393500
2096921,2096921,309830,393595
2096921,2096921,309456,393789
2096921,2096921,309333,393433
2096921,2096921,309375,393241
2096921,2096921,309504,393066
2096921,2096921,309535,393420
2096921,2096921,309465,393534
2096921,2096921,309462,393424
2096921,2096921,309262,392776
2096921,2096921,309095,392837
2096921,2096921,309175,392992
2096921,2096921,309049,392893
2096921,2096921,309058,392645
2096921,2096921,309227,392567
2096921,2096921,309139,392524
2096921,2096921,308938,392625
2096921,2096921,308534,392447
2096921,2096921,308354,391934
2096921,2096921,308416,391534
2096921,2096921,308383,391798
2096921,2096921,308354,391970
2096921,2096921,308345,391962
2096921,2096921,307703,390962
2096921,2096921,307540,390719
2096921,2096921,307460,390889
2096921,2096921,307386,390896
2096921,2096921,307286,390623
2096921,2096921,306819,389780
2096921,2096921,306875,389863
2096921,2096921,306717,389548
2096921,2096921,306849,389696
2096921,2096921,306414,389384
2096921,2096921,305124,387643
2096921,2096921,304873,387360
2096921,2096921,304604,387179
2096921,2096921,304795,387064
2096921,2096921,304183,387287
2096921,2096921,302902,385069
2096921,2096921,302355,384540
2096921,2096921,302624,384234
2096921,2096921,302528,384147
2096921,2096921,302180,384427
2096921,2096921,300987,382487
2096921,2096921,300880,381865
2096921,2096921,300550,382330
2096921,2096921,300635,382249
2096921,2096921,300279,382066
2096921,2096921,299526,380524
2096921,2096921,299110,380358
2096921,2096921,299287,380422
2096921,2096921,299452,380290
2096921,2096921,299289,380427
2096921,2096921,298920,379401
2096921,2096921,298530,379403
2096921,2096921,298415,379407
2096921,2096921,298284,379402
2096921,2096921,298358,378980
2096921,2096921,297898,378334
2096921,2096921,297782,378191
2096921,2096921,297818,378127
2096921,2096921,297514,378228
2096921,2096921,297632,378238
2096921,2096921,297318,377822
2096921,2096921,297390,377516
2096921,2096921,297289,377646
2096921,2096921,297359,377359
2096921,2096921,297180,377442
2096921,2096921,297160,377104
2096921,2096921,296976,377266
2096921,2096921,296898,377187
2096921,2096921,296834,377145
2096921,2096921,296820,377108
2096921,2096921,296921,376891
2096921,2096921,297179,377045
2096921,2096921,297071,376923
2096921,2096921,297028,376861
2096921,2096921,296728,376728
2096921,2096921,296678,377022
2096921,2096921,296940,376947
2096921,2096921,296701,377019
2096921,2096921,296911,376949
2096921,2096921,296813,376877
2096921,2096921,296911,376816
2096921,2096921,296849,376915
2096921,2096921,296828,377096
2096921,2096921,296844,377223
2096921,2096921,296830,377124
2096921,2096921,296973,377247
2096921,2096921,297071,377001
2096921,2096921,297152,377283
2096921,2096921,297101,377234
2096921,2096921,297062,377118
2096921,2096921,297183,377348
2096921,2096921,297311,377583
2096921,2096921,297425,377533
2096921,2096921,297289,377402
2096921,2096921,297284,377180
2096921,2096921,297656,377964
2096921,2096921,297473,377895
2096921,2096921,297781,377921
2096921,2096921,297577,377963
2096921,2096921,297719,377961
2096921,2096921,297991,378179
2096921,2096921,298156,378490
2096921,2096921,297912,378502
2096921,2096921,298283,378426
2096921,2096921,298109,378250
2096921,2096921,298211,378794
2096921,2096921,298137,378898
2096921,2096921,298402,379022
2096921,2096921,298141,379197
2096921,2096921,298505,379254
2096921,2096921,298881,379431
2096921,2096921,298760,379467
2096921,2096921,298893,379512
2096921,2096921,298526,379508
2096921,2096921,298784,379009
2096921,2096921,299302,379916
2096921,2096921,299263,380179
2096921,2096921,299440,380077
2096921,2096921,299441,379957
2096921,2096921,299371,380268
2096921,2096921,299552,380377
2096921,2096921,299454,380484
2096921,2096921,299813,380597
2096921,2096921,299699,380670
2096921,2096921,299943,380592
2096921,2096921,299853,380847
2096921,2096921,299954,381305
2096921,2096921,299601,380755
2096921,2096921,299958,381039
2096921,2096921,300102,381118
2096921,2096921,300366,381754
2096921,2096921,300385,381770
2096921,2096921,300518,381798
2096921,2096921,300334,381528
2096921,2096921,300371,381412
2096921,2096921,300495,382231
2096921,2096921,300735,382112
2096921,2096921,300868,382099
2096921,2096921,300594,382251
2096921,2096921,300667,382034
2096921,2096921,301140,382604
2096921,2096921,300942,382319
2096921,2096921,301181,382542
2096921,2096921,301215,382628
2096921,2096921,301480,382544
2096921,2096921,301676,383437
2096921,2096921,301733,383407
2096921,2096921,301815,382955
2096921,2096921,301737,383098
2096921,2096921,301450,383078
2096921,2096921,301890,383574
2096921,2096921,301912,383636
2096921,2096921,302164,383846
2096921,2096921,302187,383914
2096921,2096921,302196,383798
2096921,2096921,302190,384247
2096921,2096921,302546,384132
2096921,2096921,302411,384172
2096921,2096921,302498,384258
2096921,2096921,302392,384384
2096921,2096921,302802,384628
2096921,2096921,302749,384749
2096921,2096921,302816,384947
2096921,2096921,302779,384677
2096921,2096921,302678,384540
2096921,2096921,302669,384848
2096921,2096921,302914,384800
2096921,2096921,302856,384903
2096921,2096921,302826,385052
2096921,2096921,303226,385117
2096921,2096921,303083,385101
2096921,2096921,302886,385225
2096921,2096921,302939,384904
2096921,2096921,302786,384962
2096921,2096921,303153,385067
2096921,2096921,303311,385028
2096921,2096921,303402,385083
2096921,2096921,303213,385180
2096921,2096921,303276,385070
2096921,2096921,303317,385310
2096921,2096921,303119,385387
2096921,2096921,303264,385311
2096921,2096921,303299,384977
2096921,2096921,303312,385135
2096921,2096921,303382,385340
2096921,2096921,303308,385452
2096921,2096921,303183,385417
2096921,2096921,303304,385444
2096921,2096921,303550,385122
2096921,2096921,303292,385344
2096921,2096921,303236,385140
2096921,2096921,303218,385263
2096921,2096921,303091,385297
2096921,2096921,303064,385301
2096921,2096921,302867,385370
2096921,2096921,302857,385127
2096921,2096921,302894,384995
2096921,2096921,302774,385025
2096921,2096921,302847,385041
2096921,2096921,302899,385118
2096921,2096921,302565,384748
2096921,2096921,303132,384884
2096921,2096921,302923,384857
2096921,2096921,302899,384718
2096921,2096921,302707,384888
2096921,2096921,302753,384523
2096921,2096921,302812,384528
2096921,2096921,302698,384631
2096921,2096921,302849,384698
2096921,2096921,302850,384609
2096921,2096921,302825,384721
2096921,2096921,302754,384306
2096921,2096921,302725,384327
2096921,2096921,302410,384559
2096921,2096921,302710,384349
2096921,2096921,302459,384567
2096921,2096921,302274,384515
2096921,2096921,302639,384432
2096921,2096921,302844,384633
2096921,2096921,302587,384426
2096921,2096921,302579,384672
2096921,2096921,302741,384552
2096921,2096921,302571,384767
2096921,2096921,302475,384631
2096921,2096921,302530,384259
2096921,2096921,302533,384598
2096921,2096921,302515,384637
2096921,2096921,302608,384761
2096921,2096921,302625,384633
2096921,2096921,302666,384503
2096921,2096921,302868,384631
2096921,2096921,302776,384588
2096921,2096921,302919,384720
2096921,2096921,302759,384748
2096921,2096921,302615,384757
2096921,2096921,302998,384575
2096921,2096921,303008,384734
2096921,2096921,302801,384594
2096921,2096921,302868,384927
2096921,2096921,302825,385070
2096921,2096921,303088,385375
2096921,2096921,303005,385511
2096921,2096921,303265,385318
2096921,2096921,303050,385046
2096921,2096921,303272,385261
2096921,2096921,303476,385405
2096921,2096921,303147,385535
2096921,2096921,303538,385489
2096921,2096921,303526,385744
2096921,2096921,303572,385721
2096921,2096921,303571,385779
2096921,2096921,303536,385615
2096921,2096921,303704,385866
2096921,2096921,303760,385707
2096921,2096921,303838,386088
2096921,2096921,304009,385941
2096921,2096921,304115,386537
2096921,2096921,303769,386216
2096921,2096921,304074,386204
2096921,2096921,304269,386248
2096921,2096921,304088,386627
2096921,2096921,304119,386648
2096921,2096921,304502,386789
2096921,2096921,304292,386550
2096921,2096921,304443,386797
2096921,2096921,304434,386828
2096921,2096921,304252,386935
2096921,2096921,304296,386970
2096921,2096921,304699,386844
2096921,2096921,304797,386927
2096921,2096921,304948,387373
2096921,2096921,304912,387372
2096921,2096921,304898,387211
2096921,2096921,304898,387269
2096921,2096921,304992,387267
2096921,2096921,304847,387379
2096921,2096921,304923,387333
2096921,2096921,304997,387242
2096921,2096921,305019,387503
2096921,2096921,305146,387572
2096921,2096921,305107,387610
2096921,2096921,305217,387785
2096921,2096921,305075,387767
2096921,2096921,305157,387973
2096921,2096921,305184,387680
2096921,2096921,305654,387847
2096921,2096921,305474,388064
2096921,2096921,305606,387989
2096921,2096921,305477,388098
2096921,2096921,305597,388001
2096921,2096921,305644,388421
2096921,2096921,305512,388288
2096921,2096921,305493,388310
2096921,2096921,305728,388197
2096921,2096921,305614,388372
2096921,2096921,305710,388549
2096921,2096921,305881,388840
2096921,2096921,305797,388759
2096921,2096921,305875,388645
2096921,2096921,305942,388557
2096921,2096921,305995,389047
2096921,2096921,306188,388915
2096921,2096921,306067,389393
2096921,2096921,306205,389202
2096921,2096921,306016,389043
2096921,2096921,306528,389150
2096921,2096921,306432,389246
2096921,2096921,306257,389280
2096921,2096921,306056,389203
2096921,2096921,306472,389283
2096921,2096921,306556,389483
2096921,2096921,306440,389294
2096921,2096921,306460,389506
2096921,2096921,306418,389573
2096921,2096921,306417,389583
2096921,2096921,306738,389722
2096921,2096921,306838,389792
2096921,2096921,306940,389777
2096921,2096921,306692,389830
2096921,2096921,306730,389858
2096921,2096921,306952,390044
2096921,2096921,307036,390084
2096921,2096921,306932,389936
2096921,2096921,306930,389779
2096921,2096921,307023,389583
2096921,2096921,307129,390194
2096921,2096921,307298,390607
2096921,2096921,307156,390299
2096921,2096921,307246,390249
2096921,2096921,307275,390153
2096921,2096921,306930,390715
2096921,2096921,307347,390395
2096921,2096921,307107,390654
2096921,2096921,307301,390511
2096921,2096921,307190,390463
2096921,2096921,307435,390666
2096921,2096921,307293,391055
2096921,2096921,307691,390562
2096921,2096921,307471,390615
2096921,2096921,307471,390760
2096921,2096921,307565,390928
2096921,2096921,307778,391109
2096921,2096921,307674,391032
2096921,2096921,307420,390802
2096921,2096921,307224,390787
2096921,2096921,307668,391147
2096921,2096921,307649,390749
2096921,2096921,307781,391239
2096921,2096921,308084,390779
2096921,2096921,307982,390981
2096921,2096921,308145,391145
2096921,2096921,308032,391206
2096921,2096921,308177,391174
2096921,2096921,307965,391045
2096921,2096921,307902,391493
2096921,2096921,307844,391689
2096921,2096921,307904,391459
2096921,2096921,307947,391284
2096921,2096921,307899,391420
2096921,2096921,308196,391505
2096921,2096921,308395,391613
2096921,2096921,308253,391678
2096921,2096921,308243,391751
2096921,2096921,308117,391916
2096921,2096921,308126,391658
2096921,2096921,308360,391813
2096921,2096921,308295,391732
2096921,2096921,308312,391769
2096921,2096921,308117,391777
2096921,2096921,308068,391581
2096921,2096921,308075,391687
2096921,2096921,308429,392140
2096921,2096921,308448,391949
2096921,2096921,308542,391947
2096921,2096921,308524,391901
2096921,2096921,308531,392023
2096921,2096921,308404,391951
2096921,2096921,308174,391888
2096921,2096921,308271,391948
2096921,2096921,308376,392057
2096921,2096921,308526,392240
2096921,2096921,308566,392536
2096921,2096921,308564,392364
2096921,2096921,308498,392096
2096921,2096921,308350,392215
2096921,2096921,308551,392426
2096921,2096921,308652,392289
2096921,2096921,308621,392250
2096921,2096921,308539,392072
2096921,2096921,308550,392484
2096921,2096921,308646,392552
2096921,2096921,308795,392339
2096921,2096921,308876,392388
2096921,2096921,308806,392347
2096921,2096921,308709,392133
2096921,2096921,308821,392218
2096921,2096921,308743,392636
2096921,2096921,308681,392524
2096921,2096921,308912,392414
2096921,2096921,309097,392380
2096921,2096921,308900,392940
2096921,2096921,308649,392925
2096921,2096921,308708,392644
2096921,2096921,309018,392646
2096921,2096921,308841,392623
2096921,2096921,308793,392862
2096921,2096921,308838,392552
2096921,2096921,309088,392665
2096921,2096921,308912,392812
2096921,2096921,308853,392625
2096921,2096921,308770,392856
2096921,2096921,308964,392861
2096921,2096921,309004,392852
2096921,2096921,309097,392943
2096921,2096921,308967,392938
2096921,2096921,308938,393144
2096921,2096921,309324,392843
2096921,2096921,309057,392957
2096921,2096921,309062,392978
2096921,2096921,309233,393229
2096921,2096921,309079,393277
2096921,2096921,309132,393557
2096921,2096921,309345,393315
2096921,2096921,309196,393105
2096921,2096921,309557,393198
2096921,2096921,309288,393198
2096921,2096921,309348,393203
2096921,2096921,309338,392979
2096921,2096921,309398,393098
2096921,2096921,309335,393241
2096921,2096921,309381,393416
2096921,2096921,309296,393397
2096921,2096921,309592,393381
2096921,2096921,309690,393190
2096921,2096921,309315,393205
2096921,2096921,309362,393140
2096921,2096921,309395,393371
2096921,2096921,309287,393436
2096921,2096921,309443,393429
2096921,2096921,309537,393353
2096921,2096921,309572,393505
2096921,2096921,309575,393246
2096921,2096921,309504,393304
2096921,2096921,309310,393318
2096921,2096921,309397,393526
2096921,2096921,309609,393447
2096921,2096921,309658,393415
2096921,2096921,309623,393288
2096921,2096921,309560,393056
2096921,2096921,309689,393419
2096921,2096921,309732,393690
2096921,2096921,309365,393806
2096921,2096921,309507,393422
2096921,2096921,309548,393600
2096921,2096921,309659,393895
2096921,2096921,309646,393798
2096921,2096921,309684,393612
2096921,2096921,309732,393593
2096921,2096921,309545,393395
2096921,2096921,309400,393555
2096921,2096921,309593,393456
2096921,2096921,309688,393692
2096921,2096921,309600,393600
2096921,2096921,309707,393747
2096921,2096921,309672,393800
2096921,2096921,309517,393849
2096921,2096921,309246,393438
2096921,2096921,309323,393589
2096921,2096921,309434,393700
2096921,2096921,309697,393829
2096921,2096921,309761,393465
2096921,2096921,309479,393671
2096921,2096921,309805,393450
2096921,2096921,309502,393624
2096921,2096921,309623,393637
2096921,2096921,309775,393223
2096921,2096921,309535,393254
2096921,2096921,309429,393479
2096921,2096921,309648,393452
2096921,2096921,309761,393588
2096921,2096921,309774,393653
2096921,2096921,309473,393656
2096921,2096921,309545,393672
2096921,2096921,309778,393738
2096921,2096921,309705,393167
2096921,2096921,309584,393414
2096921,2096921,309503,393449
2096921,2096921,309742,393389
2096921,2096921,309594,393580
2096921,2096921,309318,393425
2096921,2096921,309460,393458
2096921,2096921,309759,393743
2096921,2096921,309618,393540
2096921,2096921,309499,393588
2096921,2096921,309554,393754
2096921,2096921,309935,393583
2096921,2096921,309635,393649
2096921,2096921,309708,393385
2096921,2096921,309577,393281
2096921,2096921,309428,393462
2096921,2096921,309538,393367
2096921,2096921,309302,393282
2096921,2096921,309249,393564
2096921,2096921,309436,393589
2096921,2096921,309134,393456
2096921,2096921,308963,393122
2096921,2096921,308887,392769
2096921,2096921,309178,392857
2096921,2096921,309405,392710
2096921,2096921,309002,392833
2096921,2096921,309002,392941
2096921,2096921,309041,392483
2096921,2096921,309001,392482
2096921,2096921,308745,392609
2096921,2096921,308600,392379
2096921,2096921,308450,391673
2096921,2096921,308319,391590
2096921,2096921,308350,391466
2096921,2096921,308565,391752
2096921,2096921,308457,391969
2096921,2096921,307538,391145
2096921,2096921,307696,390992
2096921,2096921,307349,390591
2096921,2096921,307446,390749
2096921,2096921,307676,390950
2096921,2096921,306698,390268
2096921,2096921,306478,389889
2096921,2096921,306717,389549
2096921,2096921,306789,389726
2096921,2096921,306227,389973
2096921,2096921,305181,387751
2096921,2096921,304836,387231
2096921,2096921,304792,387397
2096921,2096921,304592,387026
2096921,2096921,304032,387189
2096921,2096921,302502,384854
2096921,2096921,302387,384504
2096921,2096921,302386,384219
2096921,2096921,302447,383959
2096921,2096921,301990,384018
2096921,2096921,301076,382469
2096921,2096921,301023,382070
2096921,2096921,300796,381995
2096921,2096921,300587,381812
2096921,2096921,300266,382038
2096921,2096921,299611,380671
2096921,2096921,299415,380452
2096921,2096921,299574,380414
2096921,2096921,299368,380310
2096921,2096921,299128,380346
2096921,2096921,298421,379338
2096921,2096921,298455,378890
2096921,2096921,298438,379058
2096921,2096921,298448,379062
2096921,2096921,298167,379261
2096921,2096921,298103,378166
2096921,2096921,298100,377944
2096921,2096921,297749,377960
2096921,2096921,297668,378191
2096921,2096921,297747,378064
2096921,2096921,297279,377844
2096921,2096921,297425,377649
2096921,2096921,297198,377600
2096921,2096921,297200,377635
2096921,2096921,296998,377603
2096921,2096921,296849,376763
2096921,2096921,296963,376727
2096921,2096921,296963,377167
2096921,2096921,297104,377452
2096921,2096921,297116,377563
2096921,2096921,296828,377117
2096921,2096921,296696,376999
2096921,2096921,296672,376921
2096921,2096921,296899,377025
2096921,2096921,297048,376835
2096921,2096921,296780,377056
2096921,2096921,296650,377087
2096921,2096921,296826,376722
2096921,2096921,296639,376886
2096921,2096921,296957,377209
2096921,2096921,297099,377427
2096921,2096921,297204,377499
2096921,2096921,297054,377312
2096921,2096921,297024,377247
2096921,2096921,296953,377379
2096921,2096921,296935,377192
2096921,2096921,296870,377446
2096921,2096921,296783,377156
2096921,2096921,297192,377426
2096921,2096921,297345,377436
2096921,2096921,297129,377651
2096921,2096921,297405,377572
2096921,2096921,297235,377784
2096921,2096921,297079,377750
2096921,2096921,297161,377513
2096921,2096921,297557,378118
2096921,2096921,297540,378008
2096921,2096921,297923,378167
2096921,2096921,297724,378182
2096921,2096921,297805,378043
2096921,2096921,297909,378216
2096921,2096921,297970,378153
2096921,2096921,297774,378616
2096921,2096921,298124,378468
2096921,2096921,298155,378654
2096921,2096921,298358,379052
2096921,2096921,298381,378749
2096921,2096921,298297,378924
2096921,2096921,298295,378892
2096921,2096921,298501,378989
2096921,2096921,298754,379553
2096921,2096921,298861,379519
2096921,2096921,298655,379755
2096921,2096921,299035,379577
2096921,2096921,299057,379531
2096921,2096921,299336,379909
2096921,2096921,299381,380019
2096921,2096921,299331,380001
2096921,2096921,299167,380051
2096921,2096921,299379,380176
2096921,2096921,299517,380520
2096921,2096921,299911,380580
2096921,2096921,299714,380533
2096921,2096921,299830,380311
2096921,2096921,299675,380374
2096921,2096921,299972,380797
2096921,2096921,300005,380945
2096921,2096921,299925,381197
2096921,2096921,300157,381378
2096921,2096921,300532,381188
2096921,2096921,300203,381728
2096921,2096921,300345,381885
2096921,2096921,300241,381619
2096921,2096921,300637,381496
2096921,2096921,300532,381779
2096921,2096921,300877,382124
2096921,2096921,300683,382294
2096921,2096921,300670,382122
2096921,2096921,300886,382241
2096921,2096921,301241,382302
2096921,2096921,301225,382393
2096921,2096921,301351,382781
2096921,2096921,301231,382866
2096921,2096921,301423,382860
2096921,2096921,301392,382940
2096921,2096921,301709,383223
2096921,2096921,301729,383310
2096921,2096921,301841,383369
2096921,2096921,301850,383326
2096921,2096921,302025,383343
2096921,2096921,302258,384084
2096921,2096921,302258,383857
2096921,2096921,301932,383882
2096921,2096921,301989,383811
2096921,2096921,302185,383754
2096921,2096921,302118,384021
2096921,2096921,302220,384237
2096921,2096921,302622,384193
2096921,2096921,302162,384316
2096921,2096921,302504,384312
2096921,2096921,302972,384678
2096921,2096921,302934,384376
2096921,2096921,302622,384544
2096921,2096921,302828,384580
2096921,2096921,302870,384415
2096921,2096921,302987,384916
2096921,2096921,303129,384876
2096921,2096921,303005,385084
2096921,2096921,302829,384979
2096921,2096921,302934,384926
2096921,2096921,303178,384819
2096921,2096921,303380,385244
2096921,2096921,303218,385211
2096921,2096921,303354,384949
2096921,2096921,303243,384994
2096921,2096921,303178,385303
2096921,2096921,303142,385316
2096921,2096921,303208,385351
2096921,2096921,303157,385129
2096921,2096921,303234,385181
2096921,2096921,303432,385145
2096921,2096921,303395,385256
2096921,2096921,303445,385448
2096921,2096921,303291,385501
2096921,2096921,303505,385521
2096921,2096921,303425,385349
2096921,2096921,303138,385247
2096921,2096921,303248,385310
2096921,2096921,303403,385164
2096921,2096921,303274,385487
2096921,2096921,303013,385237
2096921,2096921,303461,385524
2096921,2096921,303200,385418
2096921,2096921,303283,385398
2096921,2096921,303198,385169
2096921,2096921,303497,384856
2096921,2096921,302957,385000
2096921,2096921,302842,385077
2096921,2096921,303294,385039
2096921,2096921,303110,385223
2096921,2096921,302898,384990
2096921,2096921,303056,384935
2096921,2096921,302734,384693
2096921,2096921,302804,384865
2096921,2096921,303054,385090
2096921,2096921,302712,384756
2096921,2096921,302569,384660
2096921,2096921,302783,384736
2096921,2096921,302754,384499
2096921,2096921,302840,384798
2096921,2096921,302749,384508
2096921,2096921,302708,384567
2096921,2096921,302820,384470
2096921,2096921,302759,384615
2096921,2096921,302637,384211
2096921,2096921,302754,384463
2096921,2096921,302907,384441
2096921,2096921,302658,384572
2096921,2096921,302625,384397
2096921,2096921,302808,384203
2096921,2096921,302809,384305
2096921,2096921,302742,384709
2096921,2096921,302601,384495
2096921,2096921,302368,384484
2096921,2096921,302318,384677
2096921,2096921,302547,384457
2096921,2096921,302554,384421
2096921,2096921,302416,384452
2096921,2096921,302729,384657
2096921,2096921,302801,384622
2096921,2096921,302903,384711
2096921,2096921,302829,384770
2096921,2096921,302743,384709
2096921,2096921,302693,384781
2096921,2096921,302439,384670
2096921,2096921,302947,384769
2096921,2096921,302959,384661
2096921,2096921,302805,384676
2096921,2096921,303002,384810
2096921,2096921,302896,384733
2096921,2096921,303101,385138
2096921,2096921,302860,385297
2096921,2096921,303012,385040
2096921,2096921,303463,385454
2096921,2096921,303491,385207
2096921,2096921,303461,385466
2096921,2096921,303603,385519
2096921,2096921,303360,385589
2096921,2096921,303500,385727
2096921,2096921,303633,385595
2096921,2096921,303881,385588
2096921,2096921,303851,385991
2096921,2096921,303750,386053
2096921,2096921,303944,386087
2096921,2096921,303980,386161
2096921,2096921,304020,386497
2096921,2096921,304021,386387
2096921,2096921,303913,386122
2096921,2096921,304013,386118
2096921,2096921,304316,386158
2096921,2096921,304375,386648
2096921,2096921,304372,386742
2096921,2096921,304413,386885
2096921,2096921,304234,386762
2096921,2096921,304282,386518
2096921,2096921,304400,387038
2096921,2096921,304368,386729
2096921,2096921,304195,387143
2096921,2096921,304417,386894
2096921,2096921,304571,387123
2096921,2096921,304953,387216
2096921,2096921,305044,387313
2096921,2096921,304753,387197
2096921,2096921,304836,387269
2096921,2096921,304910,387207
2096921,2096921,304908,387445
2096921,2096921,304910,387426
2096921,2096921,305056,387524
2096921,2096921,305235,387628
2096921,2096921,304960,387602
2096921,2096921,305147,387640
2096921,2096921,304998,387691
2096921,2096921,305336,387828
2096921,2096921,305210,387753
2096921,2096921,305585,387925
2096921,2096921,305715,388081
2096921,2096921,305789,388402
2096921,2096921,305328,388082
2096921,2096921,305340,388109
2096921,2096921,305476,387883
2096921,2096921,305902,388322
2096921,2096921,305611,388419
2096921,2096921,305739,388561
2096921,2096921,305545,388489
2096921,2096921,305769,388360
2096921,2096921,305545,388804
2096921,2096921,305766,388594
2096921,2096921,305982,388601
2096921,2096921,306046,388717
2096921,2096921,305942,388800
2096921,2096921,306221,389099
2096921,2096921,306026,389163
2096921,2096921,306330,388962
2096921,2096921,306108,388970
2096921,2096921,306038,388855
2096921,2096921,306146,388978
2096921,2096921,306405,389306
2096921,2096921,306154,389545
2096921,2096921,306456,389332
2096921,2096921,306378,389090
2096921,2096921,306691,389380
2096921,2096921,306596,389439
2096921,2096921,306478,389295
2096921,2096921,306312,389210
2096921,2096921,306316,389215
2096921,2096921,306571,389599
2096921,2096921,306784,389991
2096921,2096921,306484,389564
2096921,2096921,306611,389769
2096921,2096921,306826,389803
2096921,2096921,306876,389939
2096921,2096921,306776,389848
2096921,2096921,306918,390091
2096921,2096921,307145,390068
2096921,2096921,307052,390119
2096921,2096921,307086,390348
2096921,2096921,307300,390372
2096921,2096921,307053,390113
2096921,2096921,307219,390367
2096921,2096921,307193,390254
2096921,2096921,307081,390552
2096921,2096921,307200,390589
2096921,2096921,307239,390444
2096921,2096921,307223,390545
2096921,2096921,307244,390299
2096921,2096921,307346,390419
2096921,2096921,307404,390740
2096921,2096921,307217,390437
2096921,2096921,307092,390505
2096921,2096921,307349,390768
2096921,2096921,307656,391226
2096921,2096921,307744,390795
2096921,2096921,307588,391201
2096921,2096921,307814,391135
2096921,2096921,307400,390724
2096921,2096921,307710,391000
2096921,2096921,307604,390975
2096921,2096921,307629,391045
2096921,2096921,307811,391148
2096921,2096921,307659,391044
2096921,2096921,307833,391316
2096921,2096921,307694,391297
2096921,2096921,307771,391176
2096921,2096921,307914,391328
2096921,2096921,308068,391294
2096921,2096921,307903,391843
2096921,2096921,308383,391774
2096921,2096921,308465,391628
2096921,2096921,308048,391830
2096921,2096921,308184,391508
2096921,2096921,308132,391419
2096921,2096921,308460,391714
2096921,2096921,308294,391853
2096921,2096921,308475,391721
2096921,2096921,308382,391646
2096921,2096921,308341,391503
2096921,2096921,308240,391785
2096921,2096921,308022,391717
2096921,2096921,308263,391700
2096921,2096921,307976,391495
2096921,2096921,308098,391862
2096921,2096921,308436,392047
2096921,2096921,308354,392177
2096921,2096921,308337,392011
2096921,2096921,308303,392111
2096921,2096921,308300,392234
2096921,2096921,308472,392247
2096921,2096921,308337,392052
2096921,2096921,308476,391977
2096921,2096921,308200,391961
2096921,2096921,308635,392672
2096921,2096921,308628,392398
2096921,2096921,308567,392377
2096921,2096921,308579,392303
2096921,2096921,308577,392336
2096921,2096921,308709,392241
2096921,2096921,308791,392139
2096921,2096921,308785,392482
2096921,2096921,308658,392275
2096921,2096921,308679,392295
2096921,2096921,308887,392891
2096921,2096921,308859,392393
2096921,2096921,308752,392493
2096921,2096921,308509,392254
2096921,2096921,308532,392540
2096921,2096921,308853,392571
2096921,2096921,308760,392627
2096921,2096921,308914,392876
2096921,2096921,309094,392830
2096921,2096921,309097,392836
2096921,2096921,309078,392452
2096921,2096921,309362,392313
2096921,2096921,309022,392806
2096921,2096921,309022,392581
2096921,2096921,308951,392616
2096921,2096921,308935,392589
2096921,2096921,308936,392655
2096921,2096921,308834,392879
2096921,2096921,309059,392702
2096921,2096921,309357,392719
2096921,2096921,309027,392838
2096921,2096921,309101,392615
2096921,2096921,308956,392807
2096921,2096921,309210,392773
2096921,2096921,309089,392667
2096921,2096921,309232,392910
2096921,2096921,309111,392924
2096921,2096921,309146,392805
2096921,2096921,309210,392937
2096921,2096921,309264,393083
2096921,2096921,309458,392807
2096921,2096921,309503,393004
2096921,2096921,309391,393309
2096921,2096921,309640,393382
2096921,2096921,309332,393304
2096921,2096921,309258,392989
2096921,2096921,309183,393182
2096921,2096921,309394,392939
2096921,2096921,309224,392929
2096921,2096921,309051,393109
2096921,2096921,309306,393333
2096921,2096921,309460,393408
2096921,2096921,309283,393310
2096921,2096921,309542,393343
2096921,2096921,309566,393102
2096921,2096921,309284,392998
2096921,2096921,309279,393285
2096921,2096921,309331,393403
2096921,2096921,309480,393350
2096921,2096921,309230,393262
2096921,2096921,309421,393230
2096921,2096921,309859,393581
2096921,2096921,309402,393329
2096921,2096921,309726,393446
2096921,2096921,309575,393299
2096921,2096921,309505,393317
2096921,2096921,309585,393322
2096921,2096921,309792,393468
2096921,2096921,309439,393436
2096921,2096921,309564,393455
2096921,2096921,309540,393558
2096921,2096921,309774,393431
2096921,2096921,309543,393599
2096921,2096921,309472,393275
2096921,2096921,309576,393504
2096921,2096921,309298,393570
2096921,2096921,309731,393799
2096921,2096921,309742,393458
2096921,2096921,309532,393715
2096921,2096921,309634,393690
2096921,2096921,309688,393662
2096921,2096921,309697,393576
2096921,2096921,309492,393587
2096921,2096921,309650,393744
2096921,2096921,309497,393597
2096921,2096921,309815,393575
2096921,2096921,309661,393435
2096921,2096921,309782,393570
2096921,2096921,309527,393525
2096921,2096921,309776,393726
2096921,2096921,309852,393408
2096921,2096921,309727,393541
2096921,2096921,309733,393393
2096921,2096921,309614,393769
2096921,2096921,309702,393569
2096921,2096921,309823,393553
2096921,2096921,309631,393515
2096921,2096921,309963,393654
2096921,2096921,309421,393724
2096921,2096921,309627,393615
2096921,2096921,309445,393551
2096921,2096921,309439,393565
2096921,2096921,309678,393544
2096921,2096921,309890,393554
2096921,2096921,309689,393556
2096921,2096921,309400,393512
2096921,2096921,309811,393508
2096921,2096921,309622,393437
2096921,2096921,309771,393421
2096921,2096921,309504,393490
2096921,2096921,309725,393697
2096921,2096921,309777,393882
2096921,2096921,309846,393780
2096921,2096921,309748,393558
2096921,2096921,309561,393527
2096921,2096921,309531,393293
2096921,2096921,309650,393369
2096921,2096921,309528,393527
2096921,2096921,309659,393471
2096921,2096921,309455,393333
2096921,2096921,309699,393521
2096921,2096921,309519,393742
2096921,2096921,309642,393430
2096921,2096921,309351,393668
2096921,2096921,309193,393387
2096921,2096921,309340,393305
2096921,2096921,309241,393116
2096921,2096921,309105,392896
2096921,2096921,309303,392959
2096921,2096921,309289,393097
2096921,2096921,309079,392762
2096921,2096921,308750,392693
2096921,2096921,308724,392854
2096921,2096921,308941,392447
2096921,2096921,308551,392569
2096921,2096921,308455,392151
2096921,2096921,308353,391826
2096921,2096921,308244,391842
2096921,2096921,308042,391733
2096921,2096921,308043,391774
2096921,2096921,307860,390821
2096921,2096921,307571,390826
2096921,2096921,307513,390837
2096921,2096921,307639,390615
2096921,2096921,307186,390660
2096921,2096921,306880,390263
2096921,2096921,306899,389767
2096921,2096921,306631,389651
2096921,2096921,306670,389685
2096921,2096921,306088,389597
2096921,2096921,304992,387523
2096921,2096921,304968,387224
2096921,2096921,304814,387168
2096921,2096921,304719,387326
2096921,2096921,303820,387021
2096921,2096921,302859,384770
2096921,2096921,302597,384266
2096921,2096921,302671,384174
2096921,2096921,302428,384415
2096921,2096921,301911,384546
2096921,2096921,300919,382615
2096921,2096921,300703,382135
2096921,2096921,300670,382178
2096921,2096921,300726,381928
2096921,2096921,300312,382192
2096921,2096921,299634,381154
2096921,2096921,299560,380069
2096921,2096921,299407,380379
2096921,2096921,299356,380090
2096921,2096921,299097,380220
2096921,2096921,298790,379234
2096921,2096921,298384,379277
2096921,2096921,298484,379181
2096921,2096921,298606,379243
2096921,2096921,298419,378956
2096921,2096921,297724,378343
2096921,2096921,297813,378198
2096921,2096921,297774,377983
2096921,2096921,297871,378016
2096921,2096921,297655,378307
2096921,2096921,297368,377803
2096921,2096921,297183,377639
2096921,2096921,297202,377920
2096921,2096921,297093,378040
2096921,2096921,296906,377619
2096921,2096921,297042,377164
2096921,2096921,297212,377292
2096921,2096921,297178,376932
2096921,2096921,296961,376859
2096921,2096921,296703,376884
2096921,2096921,297042,377192
2096921,2096921,296875,377047
2096921,2096921,296953,376923
2096921,2096921,296959,376948
2096921,2096921,296795,376917
2096921,2096921,296716,376888
2096921,2096921,296694,376910
2096921,2096921,296802,376847
2096921,2096921,296838,376952
2096921,2096921,296825,376985
2096921,2096921,297087,377248
2096921,2096921,296827,377507
2096921,2096921,297376,377477
2096921,2096921,297263,377399
2096921,2096921,297269,377330
2096921,2096921,297208,377437
2096921,2096921,297129,377554
2096921,2096921,297068,377379
2096921,2096921,297338,377517
2096921,2096921,297123,377576
2096921,2096921,297217,377687
2096921,2096921,297247,377608
2096921,2096921,297596,377751
2096921,2096921,297145,377408
2096921,2096921,297329,377514
2096921,2096921,297683,378025
2096921,2096921,297888,378251
2096921,2096921,297833,377775
2096921,2096921,297817,378002
2096921,2096921,297606,378012
2096921,2096921,297868,378418
2096921,2096921,298219,378509
2096921,2096921,298293,378505
2096921,2096921,298369,378338
2096921,2096921,298397,378514
2096921,2096921,298542,378746
2096921,2096921,298431,378883
2096921,2096921,298414,379002
2096921,2096921,298374,378909
2096921,2096921,298606,379035
2096921,2096921,298843,379623
2096921,2096921,298800,379659
2096921,2096921,298796,379544
2096921,2096921,298861,379405
2096921,2096921,299051,379559
2096921,2096921,299259,379916
2096921,2096921,299254,379908
2096921,2096921,299336,379933
2096921,2096921,299614,380171
2096921,2096921,299568,380292
2096921,2096921,299575,380709
2096921,2096921,299656,380440
2096921,2096921,299639,380654
2096921,2096921,299699,380565
2096921,2096921,299830,380589
2096921,2096921,300129,381002
2096921,2096921,300175,380934
2096921,2096921,300258,381203
2096921,2096921,300121,381059
2096921,2096921,299993,381198
2096921,2096921,300257,381467
2096921,2096921,300375,381493
2096921,2096921,300404,381377
2096921,2096921,300354,381395
2096921,2096921,300330,381501
2096921,2096921,300733,381880
2096921,2096921,300847,382246
2096921,2096921,300832,382197
2096921,2096921,300883,382098
2096921,2096921,301055,382003
2096921,2096921,301128,382679
2096921,2096921,301188,382538
2096921,2096921,301300,382683
2096921,2096921,301005,382834
2096921,2096921,301388,382466
2096921,2096921,301505,383143
2096921,2096921,301739,383385
2096921,2096921,301671,383099
2096921,2096921,301755,383261
2096921,2096921,301949,383368
2096921,2096921,301722,383798
2096921,2096921,301634,383782
2096921,2096921,302094,384004
2096921,2096921,302028,384126
2096921,2096921,302325,384043
2096921,2096921,302387,384048
2096921,2096921,302265,384273
2096921,2096921,302264,384119
2096921,2096921,302362,384190
2096921,2096921,302503,384222
2096921,2096921,302851,384813
2096921,2096921,302876,384676
2096921,2096921,302629,384760
2096921,2096921,302871,384686
2096921,2096921,303235,384492
2096921,2096921,303045,384958
2096921,2096921,303075,384935
2096921,2096921,302985,384958
2096921,2096921,303123,384810
2096921,2096921,303108,384891
2096921,2096921,302974,385264
2096921,2096921,302898,385019
2096921,2096921,303021,385165
2096921,2096921,303077,384986
2096921,2096921,303047,385046
2096921,2096921,303276,385234
2096921,2096921,303262,385433
2096921,2096921,303279,385329
2096921,2096921,303213,385447
2096921,2096921,303076,385357
2096921,2096921,303282,385175
2096921,2096921,303372,385089
2096921,2096921,303396,385388
2096921,2096921,303096,385315
2096921,2096921,303212,385170
2096921,2096921,303107,385156
2096921,2096921,303015,384964
2096921,2096921,303255,384891
2096921,2096921,303291,385142
2096921,2096921,303399,385142
2096921,2096921,303246,385072
2096921,2096921,303230,385300
2096921,2096921,303161,385057
2096921,2096921,302918,385197
2096921,2096921,302649,385361
2096921,2096921,302900,385197
2096921,2096921,302896,384959
2096921,2096921,303206,385026
2096921,2096921,303040,385356
2096921,2096921,302927,385001
2096921,2096921,302798,384952
2096921,2096921,302867,384653
2096921,2096921,302961,384888
2096921,2096921,302904,384885
2096921,2096921,302848,385019
2096921,2096921,302664,384892
2096921,2096921,302735,384644
2096921,2096921,302894,384678
2096921,2096921,302838,384829
2096921,2096921,302664,384670
2096921,2096921,302608,384385
2096921,2096921,302593,384368
2096921,2096921,302453,384589
2096921,2096921,302540,384437
2096921,2096921,302506,384295
2096921,2096921,302415,384513
2096921,2096921,302508,384526
2096921,2096921,302531,384362
2096921,2096921,302484,384716
2096921,2096921,302740,384429
2096921,2096921,302560,384493
2096921,2096921,302698,384548
2096921,2096921,302589,384492
2096921,2096921,302557,384525
2096921,2096921,302667,384202
2096921,2096921,302546,384609
2096921,2096921,302591,384679
2096921,2096921,302464,384581
2096921,2096921,302459,384276
2096921,2096921,302774,384371
2096921,2096921,302957,384651
2096921,2096921,302836,384680
2096921,2096921,302599,384681
2096921,2096921,302965,384798
2096921,2096921,302832,384529
2096921,2096921,302884,384675
2096921,2096921,302883,384888
2096921,2096921,302898,384654
2096921,2096921,302735,384556
2096921,2096921,303005,384614
2096921,2096921,303022,384875
2096921,2096921,303235,385005
2096921,2096921,303287,384939
2096921,2096921,303211,385425
2096921,2096921,303142,385455
2096921,2096921,303251,385459
2096921,2096921,303407,385404
2096921,2096921,303395,385767
2096921,2096921,303415,385439
2096921,2096921,303672,385578
2096921,2096921,303855,385894
2096921,2096921,303846,386146
2096921,2096921,303947,386204
2096921,2096921,304028,386212
2096921,2096921,303875,386043
2096921,2096921,304093,386217
2096921,2096921,304100,386240
2096921,2096921,303800,386285
2096921,2096921,303782,386411
2096921,2096921,304089,386614
2096921,2096921,304263,386712
2096921,2096921,304385,386439
2096921,2096921,304225,386799
2096921,2096921,304227,386658
2096921,2096921,304350,386757
2096921,2096921,304537,386671
2096921,2096921,304412,387025
2096921,2096921,304457,387125
2096921,2096921,304481,386763
2096921,2096921,304583,386756
2096921,2096921,304789,386836
2096921,2096921,304717,387185
2096921,2096921,304765,387135
2096921,2096921,304712,387179
2096921,2096921,305039,387176
2096921,2096921,304971,387647
2096921,2096921,305063,387445
2096921,2096921,305050,387382
2096921,2096921,305184,387584
2096921,2096921,305177,387515
2096921,2096921,304865,387886
2096921,2096921,305022,387743
2096921,2096921,304981,387935
2096921,2096921,305160,387768
2096921,2096921,304950,387472
2096921,2096921,305432,387945
2096921,2096921,305778,388123
2096921,2096921,305539,388232
2096921,2096921,305408,388026
2096921,2096921,305646,388372
2096921,2096921,305756,388490
2096921,2096921,305653,388445
2096921,2096921,305799,388208
2096921,2096921,305849,388723
2096921,2096921,305651,388498
2096921,2096921,306053,388899
2096921,2096921,305936,388427
2096921,2096921,305644,388363
2096921,2096921,305642,388562
2096921,2096921,305917,388923
2096921,2096921,306067,388939
2096921,2096921,305971,389195
2096921,2096921,306061,388994
2096921,2096921,306341,388898
2096921,2096921,306301,388924
2096921,2096921,306326,389011
2096921,2096921,306130,389104
2096921,2096921,306182,389255
2096921,2096921,306204,389164
2096921,2096921,306337,389629
2096921,2096921,306649,389613
2096921,2096921,306627,389729
2096921,2096921,306766,389455
2096921,2096921,306239,389531
2096921,2096921,306544,389366
2096921,2096921,306454,389793
2096921,2096921,306820,389630
2096921,2096921,306684,389636
2096921,2096921,306815,389606
2096921,2096921,307043,389908
2096921,2096921,306972,389917
2096921,2096921,306887,389863
2096921,2096921,307033,390038
2096921,2096921,306988,389897
2096921,2096921,307119,389735
2096921,2096921,307191,390144
2096921,2096921,307337,390285
2096921,2096921,307185,390402
2096921,2096921,307204,389952
2096921,2096921,307200,390302
2096921,2096921,306942,390449
2096921,2096921,307366,390737
2096921,2096921,307341,390808
2096921,2096921,307282,390960
2096921,2096921,307433,390379
2096921,2096921,307331,390499
2096921,2096921,307449,390381
2096921,2096921,307424,390452
2096921,2096921,307502,390512
2096921,2096921,307568,390575
2096921,2096921,307383,390819
2096921,2096921,307762,390718
2096921,2096921,307580,390953
2096921,2096921,307572,390811
2096921,2096921,307790,390983
2096921,2096921,307814,390833
2096921,2096921,307639,390936
2096921,2096921,307638,391200
2096921,2096921,307811,390889
2096921,2096921,307832,391004
2096921,2096921,307804,391245
2096921,2096921,307886,391289
2096921,2096921,307855,391231
2096921,2096921,307731,391352
2096921,2096921,307855,391382
2096921,2096921,308127,391315
2096921,2096921,308120,391513
2096921,2096921,307910,391452
2096921,2096921,308056,391530
2096921,2096921,308131,391319
2096921,2096921,308247,391638
2096921,2096921,307933,391557
2096921,2096921,308344,391595
2096921,2096921,308052,391355
2096921,2096921,308077,391237
2096921,2096921,308179,391366
2096921,2096921,308428,391637
2096921,2096921,308117,391823
2096921,2096921,308186,391507
2096921,2096921,308120,391874
2096921,2096921,308466,391918
2096921,2096921,308235,391896
2096921,2096921,308299,392187
2096921,2096921,308285,391832
2096921,2096921,308324,392057
2096921,2096921,308381,392046
2096921,2096921,308529,392006
2096921,2096921,308534,391861
2096921,2096921,308507,392159
2096921,2096921,308338,392046
2096921,2096921,308718,392284
2096921,2096921,308535,392178
2096921,2096921,308715,392330
2096921,2096921,308606,392127
2096921,2096921,308666,392336
2096921,2096921,308750,392103
2096921,2096921,308706,392183
2096921,2096921,308654,392257
2096921,2096921,308819,392350
2096921,2096921,308700,392516
2096921,2096921,308736,392416
2096921,2096921,308958,392333
2096921,2096921,308810,392498
2096921,2096921,308908,392327
2096921,2096921,308832,392434
2096921,2096921,308611,392530
2096921,2096921,308678,392577
2096921,2096921,308743,392861
2096921,2096921,308909,392659
2096921,2096921,308964,392528
2096921,2096921,309413,392642
2096921,2096921,309018,392326
2096921,2096921,308879,392213
2096921,2096921,309079,392554
2096921,2096921,308985,392208
2096921,2096921,309041,392566
2096921,2096921,309233,392654
2096921,2096921,309007,392820
2096921,2096921,309107,392655
2096921,2096921,309332,392773
2096921,2096921,309282,392682
2096921,2096921,309198,392916
2096921,2096921,309074,393025
2096921,2096921,309066,393054
2096921,2096921,309134,392924
2096921,2096921,309099,392892
2096921,2096921,309208,393043
2096921,2096921,309055,392843
2096921,2096921,309287,392865
2096921,2096921,309231,392892
2096921,2096921,309275,393082
2096921,2096921,309068,393126
2096921,2096921,309246,393213
2096921,2096921,309225,393040
2096921,2096921,309158,393003
2096921,2096921,309658,393278
2096921,2096921,309724,393001
2096921,2096921,309516,393167
2096921,2096921,309384,392928
2096921,2096921,309379,393199
2096921,2096921,309583,393378
2096921,2096921,309425,393146
2096921,2096921,309482,393471
2096921,2096921,309163,393176
2096921,2096921,309358,393437
2096921,2096921,309349,393213
2096921,2096921,309530,393301
2096921,2096921,309518,393042
2096921,2096921,309513,393232
2096921,2096921,309358,393157
2096921,2096921,309518,393638
2096921,2096921,309526,393347
2096921,2096921,309747,393479
2096921,2096921,309378,393464
2096921,2096921,309224,393527
2096921,2096921,309218,393399
2096921,2096921,309560,393471
2096921,2096921,309488,393344
2096921,2096921,309778,393351
2096921,2096921,309651,393315
2096921,2096921,309397,393657
2096921,2096921,309470,393654
2096921,2096921,309818,393702
2096921,2096921,309743,393533
2096921,2096921,309671,393352
2096921,2096921,309597,393575
2096921,2096921,309525,393679
2096921,2096921,309501,393512
2096921,2096921,309758,393809
2096921,2096921,309658,393523
2096921,2096921,309548,393605
2096921,2096921,309863,393601
2096921,2096921,309745,393862
2096921,2096921,309522,393505
2096921,2096921,309635,393524
2096921,2096921,309681,393484
2096921,2096921,309545,393430
2096921,2096921,309633,393478
2096921,2096921,309658,393635
2096921,2096921,309900,393701
2096921,2096921,309893,393539
2096921,2096921,309594,393445
2096921,2096921,309621,393678
2096921,2096921,309358,393437
2096921,2096921,309523,393652
2096921,2096921,309633,393524
2096921,2096921,309603,393529
2096921,2096921,309620,393556
2096921,2096921,309556,393513
2096921,2096921,309579,393416
2096921,2096921,309406,393648
2096921,2096921,309626,393281
2096921,2096921,309561,393503
2096921,2096921,309832,393711
2096921,2096921,309589,393486
2096921,2096921,309525,393395
2096921,2096921,309535,393352
2096921,2096921,309626,393106
2096921,2096921,309675,393412
2096921,2096921,309523,393405
2096921,2096921,309447,393474
2096921,2096921,309594,393773
2096921,2096921,309462,393651
2096921,2096921,309593,393645
2096921,2096921,309614,393824
2096921,2096921,309486,393693
2096921,2096921,309406,393823
2096921,2096921,309721,393362
2096921,2096921,309570,393461
2096921,2096921,309696,393617
2096921,2096921,309634,393605
2096921,2096921,309569,393698
2096921,2096921,309607,393790
2096921,2096921,309702,393697
2096921,2096921,309511,393402
2096921,2096921,309095,393162
2096921,2096921,309328,392987
2096921,2096921,309126,393011
2096921,2096921,309299,392803
2096921,2096921,309193,392888
2096921,2096921,308729,392736
2096921,2096921,308773,392686
2096921,2096921,308925,392727
2096921,2096921,308853,392499
2096921,2096921,308695,392444
2096921,2096921,308485,391965
2096921,2096921,308137,392021
2096921,2096921,308371,391959
2096921,2096921,308226,391976
2096921,2096921,308044,391550
2096921,2096921,307745,390852
2096921,2096921,307566,390965
2096921,2096921,307423,391154
2096921,2096921,307507,391032
2096921,2096921,307418,390655
2096921,2096921,306772,389881
2096921,2096921,306549,389793
2096921,2096921,306853,389394
2096921,2096921,306699,389794
2096921,2096921,306178,389803
2096921,2096921,305147,387896
2096921,2096921,304975,387423
2096921,2096921,304892,387402
2096921,2096921,304878,387288
2096921,2096921,303918,387106
2096921,2096921,302878,384789
2096921,2096921,302382,384329
2096921,2096921,302436,384276
2096921,2096921,302344,384334
2096921,2096921,301733,384149
2096921,2096921,300817,382411
2096921,2096921,300712,381875
2096921,2096921,300682,381868
2096921,2096921,300591,381831
2096921,2096921,300204,381886
2096921,2096921,299559,380702
2096921,2096921,299314,380113
2096921,2096921,299434,380341
2096921,2096921,299372,380413
2096921,2096921,298988,380310
2096921,2096921,298553,379297
2096921,2096921,298674,379262
2096921,2096921,298344,379445
2096921,2096921,298257,379184
