2096921,2096921, 162630, 695676
2096921,2096921, 162390, 695865
2096921,2096921, 162563, 695670
2096921,2096921, 162642, 695625
2096921,2096921, 162654, 695377
2096921,2096921, 162957, 696311
2096921,2096921, 162855, 696441
2096921,2096921, 162891, 696606
2096921,2096921, 162919, 696426
2096921,2096921, 162835, 696257
2096921,2096921, 162910, 696853
2096921,2096921, 162986, 696888
2096921,2096921, 162921, 696979
2096921,2096921, 163037, 696960
2096921,2096921, 162990, 697078
2096921,2096921, 162892, 697346
2096921,2096921, 162915, 697799
2096921,2096921, 163110, 697763
2096921,2096921, 162953, 697836
2096921,2096921, 163107, 697666
2096921,2096921, 163138, 698081
2096921,2096921, 163182, 697970
2096921,2096921, 163149, 698336
2096921,2096921, 163213, 698099
2096921,2096921, 163350, 697933
2096921,2096921, 163473, 698225
2096921,2096921, 163240, 698282
2096921,2096921, 163123, 698428
2096921,2096921, 163118, 698436
2096921,2096921, 163293, 698366
2096921,2096921, 163405, 698427
2096921,2096921, 163468, 698681
2096921,2096921, 163187, 698753
2096921,2096921, 163415, 698754
2096921,2096921, 163358, 698465
2096921,2096921, 163269, 699016
2096921,2096921, 163302, 698795
2096921,2096921, 163152, 698619
2096921,2096921, 163071, 698600
2096921,2096921, 163432, 698745
2096921,2096921, 163439, 698904
2096921,2096921, 163674, 698933
2096921,2096921, 163391, 698958
2096921,2096921, 163360, 699097
2096921,2096921, 163264, 699048
2096921,2096921, 163371, 698615
2096921,2096921, 163339, 698317
2096921,2096921, 163120, 698818
2096921,2096921, 163262, 698757
2096921,2096921, 163289, 698955
2096921,2096921, 163128, 699017
2096921,2096921, 163395, 698933
2096921,2096921, 163483, 699026
2096921,2096921, 163498, 698983
2096921,2096921, 163161, 698760
2096921,2096921, 163005, 698414
2096921,2096921, 163087, 698688
2096921,2096921, 163180, 698737
2096921,2096921, 163302, 698650
2096921,2096921, 163495, 698451
2096921,2096921, 163403, 698226
2096921,2096921, 163435, 698447
2096921,2096921, 163275, 698286
2096921,2096921, 163246, 698349
2096921,2096921, 163118, 698446
2096921,2096921, 163197, 698295
2096921,2096921, 163058, 698294
2096921,2096921, 163215, 698511
2096921,2096921, 163125, 698587
2096921,2096921, 163289, 698106
2096921,2096921, 163280, 698134
2096921,2096921, 163052, 698236
2096921,2096921, 163152, 698174
2096921,2096921, 163396, 698174
2096921,2096921, 163614, 698344
2096921,2096921, 163463, 698387
2096921,2096921, 163649, 698671
2096921,2096921, 163254, 698468
2096921,2096921, 163236, 698395
2096921,2096921, 163278, 698348
2096921,2096921, 163591, 698563
2096921,2096921, 162998, 698595
2096921,2096921, 163462, 698341
2096921,2096921, 163378, 698688
2096921,2096921, 163143, 698638
2096921,2096921, 163386, 698692
2096921,2096921, 163377, 698787
2096921,2096921, 163302, 699146
2096921,2096921, 163166, 698837
2096921,2096921, 163553, 698714
2096921,2096921, 163721, 699099
2096921,2096921, 163527, 699154
2096921,2096921, 163367, 699010
2096921,2096921, 163539, 699320
2096921,2096921, 163495, 699019
2096921,2096921, 163481, 699758
2096921,2096921, 163424, 699677
2096921,2096921, 163370, 699523
2096921,2096921, 163330, 699712
2096921,2096921, 163514, 699927
2096921,2096921, 163791, 700251
2096921,2096921, 163722, 700411
2096921,2096921, 163740, 700317
2096921,2096921, 163775, 700725
2096921,2096921, 163716, 700317
2096921,2096921, 163758, 701066
2096921,2096921, 163848, 700916
2096921,2096921, 163845, 701010
2096921,2096921, 163948, 700835
2096921,2096921, 163813, 701003
2096921,2096921, 164007, 701167
2096921,2096921, 164084, 701342
2096921,2096921, 164033, 701432
2096921,2096921, 163821, 701632
2096921,2096921, 164199, 701081
2096921,2096921, 164277, 701987
2096921,2096921, 163967, 702209
2096921,2096921, 163975, 701746
2096921,2096921, 164129, 701848
2096921,2096921, 163933, 702030
2096921,2096921, 164080, 702331
2096921,2096921, 163978, 702660
2096921,2096921, 164216, 702489
2096921,2096921, 164209, 702545
2096921,2096921, 164217, 702477
2096921,2096921, 164220, 702960
2096921,2096921, 164333, 703101
2096921,2096921, 164295, 702623
2096921,2096921, 164151, 703010
2096921,2096921, 164609, 703211
2096921,2096921, 164564, 703546
2096921,2096921, 164285, 703750
2096921,2096921, 164210, 703395
2096921,2096921, 164690, 703559
2096921,2096921, 164665, 703501
2096921,2096921, 164442, 703879
2096921,2096921, 164522, 703736
2096921,2096921, 164489, 704022
2096921,2096921, 164683, 703765
2096921,2096921, 164792, 703760
2096921,2096921, 164790, 704271
2096921,2096921, 164761, 704674
2096921,2096921, 164727, 704624
2096921,2096921, 164702, 704511
2096921,2096921, 164629, 704786
2096921,2096921, 164902, 704672
2096921,2096921, 165018, 704962
2096921,2096921, 164764, 704672
2096921,2096921, 164881, 704849
2096921,2096921, 164879, 704831
2096921,2096921, 164755, 705017
2096921,2096921, 165043, 704857
2096921,2096921, 164780, 705245
2096921,2096921, 164748, 704969
2096921,2096921, 164752, 705297
2096921,2096921, 164735, 705645
2096921,2096921, 164915, 705890
2096921,2096921, 165007, 705837
2096921,2096921, 164821, 705896
2096921,2096921, 164785, 705683
2096921,2096921, 165020, 706047
2096921,2096921, 165037, 706124
2096921,2096921, 165355, 706172
2096921,2096921, 164896, 706446
2096921,2096921, 165475, 706554
2096921,2096921, 165364, 706468
2096921,2096921, 165325, 706362
2096921,2096921, 165054, 706484
2096921,2096921, 165180, 706599
2096921,2096921, 165272, 706556
2096921,2096921, 165443, 707093
2096921,2096921, 165329, 707074
2096921,2096921, 165579, 707039
2096921,2096921, 165511, 707237
2096921,2096921, 165487, 707198
2096921,2096921, 165294, 707367
2096921,2096921, 165326, 707482
2096921,2096921, 165338, 707441
2096921,2096921, 165440, 707319
2096921,2096921, 165529, 707402
2096921,2096921, 165491, 708076
2096921,2096921, 165525, 708038
2096921,2096921, 165595, 707771
2096921,2096921, 165492, 707804
2096921,2096921, 165470, 707655
2096921,2096921, 165617, 708296
2096921,2096921, 165509, 708400
2096921,2096921, 165285, 708219
2096921,2096921, 165584, 707992
2096921,2096921, 165715, 708233
2096921,2096921, 165781, 708391
2096921,2096921, 165850, 708422
2096921,2096921, 165754, 708357
2096921,2096921, 165496, 708567
2096921,2096921, 165690, 708548
2096921,2096921, 165597, 708580
2096921,2096921, 165970, 708660
2096921,2096921, 165693, 708854
2096921,2096921, 166058, 708790
2096921,2096921, 165875, 708589
2096921,2096921, 165838, 709170
2096921,2096921, 165773, 709026
2096921,2096921, 165702, 709023
2096921,2096921, 165742, 708924
2096921,2096921, 165833, 709207
2096921,2096921, 165826, 709655
2096921,2096921, 165635, 709258
2096921,2096921, 165629, 709455
2096921,2096921, 165917, 709172
2096921,2096921, 165660, 709193
2096921,2096921, 165695, 709502
2096921,2096921, 166014, 709424
2096921,2096921, 166179, 709640
2096921,2096921, 165858, 709717
2096921,2096921, 165993, 709652
2096921,2096921, 165977, 709512
2096921,2096921, 165847, 709721
2096921,2096921, 165959, 709718
2096921,2096921, 166162, 709917
2096921,2096921, 166063, 709912
2096921,2096921, 165929, 710030
2096921,2096921, 166075, 710336
2096921,2096921, 166313, 710297
2096921,2096921, 166377, 710365
2096921,2096921, 166128, 709771
2096921,2096921, 165861, 710264
2096921,2096921, 166095, 710432
2096921,2096921, 166297, 710341
2096921,2096921, 165986, 710492
2096921,2096921, 166235, 710477
2096921,2096921, 166058, 710735
2096921,2096921, 166108, 710509
2096921,2096921, 166335, 710889
2096921,2096921, 166166, 710687
2096921,2096921, 166444, 710683
2096921,2096921, 166705, 710731
2096921,2096921, 166608, 710988
2096921,2096921, 166351, 710770
2096921,2096921, 166155, 710984
2096921,2096921, 166397, 710646
2096921,2096921, 166567, 710926
2096921,2096921, 166141, 711159
2096921,2096921, 166467, 711434
2096921,2096921, 166656, 711278
2096921,2096921, 166624, 711109
2096921,2096921, 166486, 710951
2096921,2096921, 166319, 711148
2096921,2096921, 166381, 711081
2096921,2096921, 166538, 710913
2096921,2096921, 166242, 711052
2096921,2096921, 166439, 711465
2096921,2096921, 166180, 711400
2096921,2096921, 166345, 711270
2096921,2096921, 166461, 711259
2096921,2096921, 166472, 711376
2096921,2096921, 166253, 711343
2096921,2096921, 166588, 711383
2096921,2096921, 166428, 711673
2096921,2096921, 166559, 711469
2096921,2096921, 166310, 711396
2096921,2096921, 166559, 711738
2096921,2096921, 166340, 711870
2096921,2096921, 166194, 711785
2096921,2096921, 166376, 711791
2096921,2096921, 166225, 711791
2096921,2096921, 166474, 711842
2096921,2096921, 166611, 712096
2096921,2096921, 166449, 711649
2096921,2096921, 166363, 711702
2096921,2096921, 166636, 711628
2096921,2096921, 166691, 712277
2096921,2096921, 166736, 711742
2096921,2096921, 166481, 712186
2096921,2096921, 166481, 712334
2096921,2096921, 166671, 712043
2096921,2096921, 166644, 712254
2096921,2096921, 166436, 712283
2096921,2096921, 166437, 712176
2096921,2096921, 166470, 712199
2096921,2096921, 166745, 712144
2096921,2096921, 166952, 712333
2096921,2096921, 166468, 712284
2096921,2096921, 166465, 712264
2096921,2096921, 166775, 712083
2096921,2096921, 166596, 712335
2096921,2096921, 166678, 712395
2096921,2096921, 166595, 712421
2096921,2096921, 166660, 712285
2096921,2096921, 166527, 712410
2096921,2096921, 166704, 712466
2096921,2096921, 166591, 712907
2096921,2096921, 166786, 712820
2096921,2096921, 167033, 712501
2096921,2096921, 166612, 712787
2096921,2096921, 166692, 712851
2096921,2096921, 166710, 712707
2096921,2096921, 166681, 712607
2096921,2096921, 166378, 712678
2096921,2096921, 166661, 712527
2096921,2096921, 166807, 712924
2096921,2096921, 167009, 712832
2096921,2096921, 166832, 713055
2096921,2096921, 166889, 713015
2096921,2096921, 166906, 712971
2096921,2096921, 166607, 712883
2096921,2096921, 166640, 713070
2096921,2096921, 166679, 712663
2096921,2096921, 166745, 712952
2096921,2096921, 166571, 712885
2096921,2096921, 166549, 712958
2096921,2096921, 166698, 712941
2096921,2096921, 166852, 713135
2096921,2096921, 166734, 713270
2096921,2096921, 166918, 712852
2096921,2096921, 166787, 712977
2096921,2096921, 166920, 712758
2096921,2096921, 166550, 712880
2096921,2096921, 166935, 712943
2096921,2096921, 166741, 712548
2096921,2096921, 166945, 712668
2096921,2096921, 166794, 713001
2096921,2096921, 166865, 712937
2096921,2096921, 166770, 712811
2096921,2096921, 166933, 712907
2096921,2096921, 166659, 712959
2096921,2096921, 166624, 712811
2096921,2096921, 166654, 712830
2096921,2096921, 166520, 713020
2096921,2096921, 166669, 713043
2096921,2096921, 166720, 713086
2096921,2096921, 166698, 712891
2096921,2096921, 166916, 713091
2096921,2096921, 166777, 712859
2096921,2096921, 166811, 712743
2096921,2096921, 166693, 712742
2096921,2096921, 166794, 713030
2096921,2096921, 166823, 712790
2096921,2096921, 166752, 712988
2096921,2096921, 166792, 712916
2096921,2096921, 166708, 712722
2096921,2096921, 166576, 712655
2096921,2096921, 166776, 712885
2096921,2096921, 166599, 713013
2096921,2096921, 166723, 713077
2096921,2096921, 166481, 712779
2096921,2096921, 166248, 712901
2096921,2096921, 166379, 712901
2096921,2096921, 166548, 712943
2096921,2096921, 166544, 712975
2096921,2096921, 166547, 712769
2096921,2096921, 166765, 712856
2096921,2096921, 166954, 712746
2096921,2096921, 166686, 712815
2096921,2096921, 166735, 713049
2096921,2096921, 166874, 712861
2096921,2096921, 166383, 712963
2096921,2096921, 166628, 712907
2096921,2096921, 166673, 712425
2096921,2096921, 166625, 712753
2096921,2096921, 166440, 712903
2096921,2096921, 166387, 712321
2096921,2096921, 166541, 712486
2096921,2096921, 166526, 712224
2096921,2096921, 166442, 712405
2096921,2096921, 166275, 712226
2096921,2096921, 166445, 711874
2096921,2096921, 166154, 711470
2096921,2096921, 166276, 711670
2096921,2096921, 166595, 711581
2096921,2096921, 166561, 711760
2096921,2096921, 166140, 710813
2096921,2096921, 166354, 710706
2096921,2096921, 166185, 710406
2096921,2096921, 166206, 710769
2096921,2096921, 165878, 710520
2096921,2096921, 165981, 709277
2096921,2096921, 165472, 709169
2096921,2096921, 165888, 709520
2096921,2096921, 165676, 709250
2096921,2096921, 165703, 709421
2096921,2096921, 165538, 708140
2096921,2096921, 165597, 707592
2096921,2096921, 165006, 707951
2096921,2096921, 164778, 705022
2096921,2096921, 164734, 704609
2096921,2096921, 164750, 704576
2096921,2096921, 164697, 704530
2096921,2096921, 163936, 704620
2096921,2096921, 163584, 701605
2096921,2096921, 163899, 700874
2096921,2096921, 163632, 700354
2096921,2096921, 163586, 700390
2096921,2096921, 162861, 700328
2096921,2096921, 162941, 698064
2096921,2096921, 163234, 697620
2096921,2096921, 163008, 697711
2096921,2096921, 162917, 697573
2096921,2096921, 162711, 697333
2096921,2096921, 162420, 695783
2096921,2096921, 162463, 695343
2096921,2096921, 162591, 695440
2096921,2096921, 162545, 695491
2096921,2096921, 162319, 694987
2096921,2096921, 162036, 693957
2096921,2096921, 161979, 693611
2096921,2096921, 162086, 693574
2096921,2096921, 161894, 693328
2096921,2096921, 161803, 693362
2096921,2096921, 161924, 692578
2096921,2096921, 162028, 692410
2096921,2096921, 162044, 692157
2096921,2096921, 161961, 692245
2096921,2096921, 161631, 692068
2096921,2096921, 161518, 691682
2096921,2096921, 161688, 691283
2096921,2096921, 161571, 691351
2096921,2096921, 161531, 691429
2096921,2096921, 161493, 691273
2096921,2096921, 161753, 691179
2096921,2096921, 161589, 691031
2096921,2096921, 161648, 691075
2096921,2096921, 161364, 691147
2096921,2096921, 161480, 690931
2096921,2096921, 161405, 690597
2096921,2096921, 161622, 690487
2096921,2096921, 161312, 690635
2096921,2096921, 161370, 690846
2096921,2096921, 161490, 690571
2096921,2096921, 161087, 690810
2096921,2096921, 161453, 690711
2096921,2096921, 161648, 690950
2096921,2096921, 161104, 690803
2096921,2096921, 161033, 690478
2096921,2096921, 161517, 691111
2096921,2096921, 161468, 690813
2096921,2096921, 161473, 690916
2096921,2096921, 161480, 690600
2096921,2096921, 161616, 690881
2096921,2096921, 161567, 691120
2096921,2096921, 161652, 691091
2096921,2096921, 161679, 691072
2096921,2096921, 161636, 691085
2096921,2096921, 161433, 691124
2096921,2096921, 161754, 691139
2096921,2096921, 161408, 691393
2096921,2096921, 161572, 691537
2096921,2096921, 161735, 691629
2096921,2096921, 161974, 691758
2096921,2096921, 161989, 691881
2096921,2096921, 161856, 692007
2096921,2096921, 161629, 692439
2096921,2096921, 161443, 692083
2096921,2096921, 161841, 692027
2096921,2096921, 161626, 692580
2096921,2096921, 161753, 693086
2096921,2096921, 161568, 692784
2096921,2096921, 162088, 692550
2096921,2096921, 162150, 692363
2096921,2096921, 162108, 693344
2096921,2096921, 162167, 693499
2096921,2096921, 162270, 693454
2096921,2096921, 161884, 693331
2096921,2096921, 162029, 693467
2096921,2096921, 162106, 694296
2096921,2096921, 162103, 694456
2096921,2096921, 161879, 694329
2096921,2096921, 161857, 693945
2096921,2096921, 162152, 694336
2096921,2096921, 162310, 694691
2096921,2096921, 162187, 694863
2096921,2096921, 162543, 694902
2096921,2096921, 162340, 694953
2096921,2096921, 162459, 694683
2096921,2096921, 162439, 695428
2096921,2096921, 162458, 695573
2096921,2096921, 162558, 695444
2096921,2096921, 162865, 695456
2096921,2096921, 162804, 695395
2096921,2096921, 162613, 696163
2096921,2096921, 162765, 696226
2096921,2096921, 162796, 696198
2096921,2096921, 162789, 696295
2096921,2096921, 162888, 696585
2096921,2096921, 162868, 697067
2096921,2096921, 162941, 696943
2096921,2096921, 162722, 697044
2096921,2096921, 162682, 697108
2096921,2096921, 163060, 696839
2096921,2096921, 163080, 697265
2096921,2096921, 163114, 697356
2096921,2096921, 163158, 697869
2096921,2096921, 162871, 697537
2096921,2096921, 163034, 697484
2096921,2096921, 163292, 698322
2096921,2096921, 163275, 698267
2096921,2096921, 163011, 698603
2096921,2096921, 163246, 698340
2096921,2096921, 163315, 698346
2096921,2096921, 163282, 699131
2096921,2096921, 163399, 698962
2096921,2096921, 163181, 699228
2096921,2096921, 163410, 699211
2096921,2096921, 163557, 699056
2096921,2096921, 163485, 699444
2096921,2096921, 163676, 699310
2096921,2096921, 163561, 699530
2096921,2096921, 163307, 699782
2096921,2096921, 163399, 699678
2096921,2096921, 163866, 700137
2096921,2096921, 163748, 700284
2096921,2096921, 163602, 700321
2096921,2096921, 163398, 700044
2096921,2096921, 163828, 700126
2096921,2096921, 163829, 700723
2096921,2096921, 164237, 700725
2096921,2096921, 163847, 700804
2096921,2096921, 163782, 700831
2096921,2096921, 164055, 700927
2096921,2096921, 164044, 701416
2096921,2096921, 163837, 701208
2096921,2096921, 163887, 700915
2096921,2096921, 164075, 701147
2096921,2096921, 164102, 701021
2096921,2096921, 163858, 701365
2096921,2096921, 164204, 701399
2096921,2096921, 164032, 701099
2096921,2096921, 163890, 701388
2096921,2096921, 163862, 701431
2096921,2096921, 164025, 701832
2096921,2096921, 164166, 701672
2096921,2096921, 164087, 701467
2096921,2096921, 164045, 701481
2096921,2096921, 164065, 701605
2096921,2096921, 163976, 701221
2096921,2096921, 164203, 701663
2096921,2096921, 164010, 701507
2096921,2096921, 163897, 701341
2096921,2096921, 163980, 701418
2096921,2096921, 163992, 701714
2096921,2096921, 163930, 701805
2096921,2096921, 163949, 701793
2096921,2096921, 163959, 701527
2096921,2096921, 163910, 701642
2096921,2096921, 163836, 701566
2096921,2096921, 163706, 701448
2096921,2096921, 163707, 701443
2096921,2096921, 164033, 701209
2096921,2096921, 163953, 701211
2096921,2096921, 163705, 701166
2096921,2096921, 163661, 701071
2096921,2096921, 163843, 701117
2096921,2096921, 163636, 700993
2096921,2096921, 163917, 700997
2096921,2096921, 163938, 700486
2096921,2096921, 164040, 700666
2096921,2096921, 163586, 700707
2096921,2096921, 163717, 700864
2096921,2096921, 163938, 700644
2096921,2096921, 163860, 700657
2096921,2096921, 163740, 700732
2096921,2096921, 163900, 700726
2096921,2096921, 163829, 700378
2096921,2096921, 163743, 700705
2096921,2096921, 163627, 700424
2096921,2096921, 163651, 700443
2096921,2096921, 163673, 700318
2096921,2096921, 163877, 700200
2096921,2096921, 163475, 700120
2096921,2096921, 163846, 700266
2096921,2096921, 163663, 700071
2096921,2096921, 163545, 699995
2096921,2096921, 163504, 700085
2096921,2096921, 163495, 699814
2096921,2096921, 163541, 699922
2096921,2096921, 163570, 699958
2096921,2096921, 163671, 700069
2096921,2096921, 163692, 700128
2096921,2096921, 163906, 700029
2096921,2096921, 163699, 699895
2096921,2096921, 163822, 699935
2096921,2096921, 163692, 700027
2096921,2096921, 163680, 700059
2096921,2096921, 163783, 700041
2096921,2096921, 163669, 699958
2096921,2096921, 163670, 700156
2096921,2096921, 163547, 700195
2096921,2096921, 163864, 700248
2096921,2096921, 163797, 700369
2096921,2096921, 163627, 700643
2096921,2096921, 163698, 700257
2096921,2096921, 163790, 700419
2096921,2096921, 163765, 700317
2096921,2096921, 163534, 700515
2096921,2096921, 163721, 700629
2096921,2096921, 163672, 701082
2096921,2096921, 163565, 700733
2096921,2096921, 163485, 700385
2096921,2096921, 163722, 700488
2096921,2096921, 163785, 701223
2096921,2096921, 163888, 701277
2096921,2096921, 163998, 701344
2096921,2096921, 164082, 701220
2096921,2096921, 164142, 701261
2096921,2096921, 164361, 701536
2096921,2096921, 164042, 701477
2096921,2096921, 164041, 701831
2096921,2096921, 164132, 701706
2096921,2096921, 164008, 701761
2096921,2096921, 164005, 701842
2096921,2096921, 164147, 702301
2096921,2096921, 164044, 702470
2096921,2096921, 164196, 702074
2096921,2096921, 163998, 702228
2096921,2096921, 163949, 702322
2096921,2096921, 164047, 702385
2096921,2096921, 164142, 702425
2096921,2096921, 164105, 702440
2096921,2096921, 164211, 702919
2096921,2096921, 164195, 702881
2096921,2096921, 164541, 702857
2096921,2096921, 164338, 702808
2096921,2096921, 164282, 702904
2096921,2096921, 164312, 702982
2096921,2096921, 164540, 702844
2096921,2096921, 164390, 703095
2096921,2096921, 164203, 703182
2096921,2096921, 164414, 703394
2096921,2096921, 164513, 703196
2096921,2096921, 164384, 703452
2096921,2096921, 164649, 703401
2096921,2096921, 164241, 703241
2096921,2096921, 164576, 703240
2096921,2096921, 164446, 703124
2096921,2096921, 164521, 703836
2096921,2096921, 164439, 704055
2096921,2096921, 164425, 703817
2096921,2096921, 164633, 703826
2096921,2096921, 164621, 703900
2096921,2096921, 164646, 703985
2096921,2096921, 164624, 704074
2096921,2096921, 164604, 704355
2096921,2096921, 164616, 704435
2096921,2096921, 164775, 704250
2096921,2096921, 164757, 704194
2096921,2096921, 164693, 704460
2096921,2096921, 164518, 704487
2096921,2096921, 164820, 704510
2096921,2096921, 164882, 704590
2096921,2096921, 165045, 704798
2096921,2096921, 164774, 704544
2096921,2096921, 164799, 704831
2096921,2096921, 164695, 704684
2096921,2096921, 164563, 704715
2096921,2096921, 164796, 705147
2096921,2096921, 164690, 704965
2096921,2096921, 164933, 704721
2096921,2096921, 164876, 705366
2096921,2096921, 164904, 705132
2096921,2096921, 165015, 705344
2096921,2096921, 165056, 705067
2096921,2096921, 164795, 705502
2096921,2096921, 165008, 705769
2096921,2096921, 164746, 705541
2096921,2096921, 164967, 705718
2096921,2096921, 164844, 705653
2096921,2096921, 164988, 705783
2096921,2096921, 164913, 705462
2096921,2096921, 165299, 705525
2096921,2096921, 164965, 705819
2096921,2096921, 164852, 706038
2096921,2096921, 164992, 705938
2096921,2096921, 165099, 705973
2096921,2096921, 165184, 705657
2096921,2096921, 165022, 706221
2096921,2096921, 164983, 706330
2096921,2096921, 165310, 706430
2096921,2096921, 165172, 706193
2096921,2096921, 165168, 706155
2096921,2096921, 165136, 706371
2096921,2096921, 165398, 706382
2096921,2096921, 165277, 706184
2096921,2096921, 165151, 706233
2096921,2096921, 164919, 705956
2096921,2096921, 165150, 706489
2096921,2096921, 165160, 706621
2096921,2096921, 165213, 706690
2096921,2096921, 164970, 706558
2096921,2096921, 165155, 706711
2096921,2096921, 165253, 706837
2096921,2096921, 165030, 706848
2096921,2096921, 165015, 706893
2096921,2096921, 165004, 707022
2096921,2096921, 165318, 706798
2096921,2096921, 165104, 707031
2096921,2096921, 165092, 707295
2096921,2096921, 165257, 706754
2096921,2096921, 165329, 706799
2096921,2096921, 165651, 706866
2096921,2096921, 165503, 707451
2096921,2096921, 165128, 707220
2096921,2096921, 165328, 707243
2096921,2096921, 165284, 706991
2096921,2096921, 165066, 706936
2096921,2096921, 165142, 707255
2096921,2096921, 165506, 707313
2096921,2096921, 165411, 707570
2096921,2096921, 165270, 707436
2096921,2096921, 165450, 707434
2096921,2096921, 165529, 707500
2096921,2096921, 165731, 707760
2096921,2096921, 165540, 707981
2096921,2096921, 165638, 707727
2096921,2096921, 165371, 707367
2096921,2096921, 165482, 707560
2096921,2096921, 165457, 707739
2096921,2096921, 165588, 707779
2096921,2096921, 165430, 707578
2096921,2096921, 165482, 707867
2096921,2096921, 165583, 707539
2096921,2096921, 165425, 707858
2096921,2096921, 165472, 707671
2096921,2096921, 165348, 707845
2096921,2096921, 165193, 707813
2096921,2096921, 165540, 707703
2096921,2096921, 165628, 707770
2096921,2096921, 165391, 707850
2096921,2096921, 165245, 707955
2096921,2096921, 165329, 707967
2096921,2096921, 165670, 708103
2096921,2096921, 165585, 708283
2096921,2096921, 165726, 708222
2096921,2096921, 165603, 708270
2096921,2096921, 165652, 707896
2096921,2096921, 165596, 707952
2096921,2096921, 165444, 708083
2096921,2096921, 165463, 707863
2096921,2096921, 165350, 707951
2096921,2096921, 165714, 707825
2096921,2096921, 165523, 708067
2096921,2096921, 165395, 708188
2096921,2096921, 165418, 708164
2096921,2096921, 165594, 708271
2096921,2096921, 165601, 708149
2096921,2096921, 165416, 708159
2096921,2096921, 165652, 707992
2096921,2096921, 165190, 707998
2096921,2096921, 165457, 707797
2096921,2096921, 165318, 708181
2096921,2096921, 165621, 708577
2096921,2096921, 165586, 708560
2096921,2096921, 165547, 708565
2096921,2096921, 165555, 708284
2096921,2096921, 165620, 708044
2096921,2096921, 165394, 708016
2096921,2096921, 165597, 708120
2096921,2096921, 165747, 708135
2096921,2096921, 165867, 708309
2096921,2096921, 165635, 708269
2096921,2096921, 165612, 708002
2096921,2096921, 165469, 708103
2096921,2096921, 165705, 708214
2096921,2096921, 165630, 708096
2096921,2096921, 165416, 708176
2096921,2096921, 165329, 708774
2096921,2096921, 165521, 708583
2096921,2096921, 165540, 708196
2096921,2096921, 165601, 708479
2096921,2096921, 165614, 708303
2096921,2096921, 165665, 708484
2096921,2096921, 165926, 708338
2096921,2096921, 165668, 708298
2096921,2096921, 165673, 708572
2096921,2096921, 165323, 708601
2096921,2096921, 165544, 708568
2096921,2096921, 165790, 708511
2096921,2096921, 165999, 708417
2096921,2096921, 165830, 708084
2096921,2096921, 165594, 708448
2096921,2096921, 165466, 708753
2096921,2096921, 165581, 708935
2096921,2096921, 165726, 708730
2096921,2096921, 165969, 708801
2096921,2096921, 165475, 708605
2096921,2096921, 165515, 708461
2096921,2096921, 165570, 708509
2096921,2096921, 165518, 708804
2096921,2096921, 165951, 708384
2096921,2096921, 165843, 708614
2096921,2096921, 165883, 708670
2096921,2096921, 165552, 708682
2096921,2096921, 165832, 708562
2096921,2096921, 165516, 708824
2096921,2096921, 165662, 708788
2096921,2096921, 165443, 708295
2096921,2096921, 165546, 708622
2096921,2096921, 165412, 708743
2096921,2096921, 165807, 708600
2096921,2096921, 165553, 708232
2096921,2096921, 165397, 708455
2096921,2096921, 165852, 708501
2096921,2096921, 166041, 708769
2096921,2096921, 165707, 708555
2096921,2096921, 165625, 708755
2096921,2096921, 165407, 708866
2096921,2096921, 165383, 708643
2096921,2096921, 165438, 708648
2096921,2096921, 165722, 708101
2096921,2096921, 165499, 708708
2096921,2096921, 165942, 708514
2096921,2096921, 165657, 708545
2096921,2096921, 165639, 708660
2096921,2096921, 165460, 708639
2096921,2096921, 165620, 708726
2096921,2096921, 165566, 708390
2096921,2096921, 165638, 708368
2096921,2096921, 165431, 708421
2096921,2096921, 165774, 708430
2096921,2096921, 165877, 708285
2096921,2096921, 165815, 708577
2096921,2096921, 165924, 708427
2096921,2096921, 165678, 708432
2096921,2096921, 165561, 708380
2096921,2096921, 165421, 708471
2096921,2096921, 165680, 708533
2096921,2096921, 165669, 708371
2096921,2096921, 165538, 708084
2096921,2096921, 165567, 708424
2096921,2096921, 165532, 708232
2096921,2096921, 165465, 708562
2096921,2096921, 165484, 708268
2096921,2096921, 165580, 708362
2096921,2096921, 165782, 708320
2096921,2096921, 165680, 708186
2096921,2096921, 165132, 708079
2096921,2096921, 165205, 708293
2096921,2096921, 165524, 708022
2096921,2096921, 165642, 708319
2096921,2096921, 165593, 708241
2096921,2096921, 165432, 708183
2096921,2096921, 165464, 708142
2096921,2096921, 165422, 707982
2096921,2096921, 165660, 707987
2096921,2096921, 165428, 708177
2096921,2096921, 164958, 708037
2096921,2096921, 165470, 708049
2096921,2096921, 165330, 707935
2096921,2096921, 165581, 708013
2096921,2096921, 165686, 708033
2096921,2096921, 165502, 708043
2096921,2096921, 165693, 707866
2096921,2096921, 165467, 707867
2096921,2096921, 165452, 708131
2096921,2096921, 165326, 707943
2096921,2096921, 165493, 707692
2096921,2096921, 165299, 707811
2096921,2096921, 165206, 707930
2096921,2096921, 165457, 707889
2096921,2096921, 165117, 707535
2096921,2096921, 165328, 707326
2096921,2096921, 165130, 707015
2096921,2096921, 165310, 707085
2096921,2096921, 165391, 706897
2096921,2096921, 164956, 707371
2096921,2096921, 165045, 706417
2096921,2096921, 165237, 706466
2096921,2096921, 164955, 706302
2096921,2096921, 164983, 706438
2096921,2096921, 164782, 706688
2096921,2096921, 164882, 705559
2096921,2096921, 165104, 705227
2096921,2096921, 164985, 705464
2096921,2096921, 164570, 705251
2096921,2096921, 164443, 705137
2096921,2096921, 164557, 703967
2096921,2096921, 164392, 704038
2096921,2096921, 164342, 703743
2096921,2096921, 164650, 703646
2096921,2096921, 164224, 703725
2096921,2096921, 164124, 702491
2096921,2096921, 164088, 702084
2096921,2096921, 164203, 702196
2096921,2096921, 164062, 702176
2096921,2096921, 163404, 702366
2096921,2096921, 163273, 699756
2096921,2096921, 163222, 698903
2096921,2096921, 163412, 698997
2096921,2096921, 163333, 698874
2096921,2096921, 162574, 699037
2096921,2096921, 162163, 695787
2096921,2096921, 162400, 695100
2096921,2096921, 162418, 694701
2096921,2096921, 162542, 694566
2096921,2096921, 161899, 694795
2096921,2096921, 161720, 692522
2096921,2096921, 161640, 691933
2096921,2096921, 161787, 692145
2096921,2096921, 161474, 691927
2096921,2096921, 161310, 691617
2096921,2096921, 161161, 689987
2096921,2096921, 161144, 689774
2096921,2096921, 161040, 689447
2096921,2096921, 160754, 689798
2096921,2096921, 160692, 689369
2096921,2096921, 160527, 688105
2096921,2096921, 160585, 687815
2096921,2096921, 160601, 687538
2096921,2096921, 160765, 687596
2096921,2096921, 160504, 687656
2096921,2096921, 160246, 686646
2096921,2096921, 160568, 686462
2096921,2096921, 160483, 686469
2096921,2096921, 160869, 686283
2096921,2096921, 160342, 686052
2096921,2096921, 160121, 685538
2096921,2096921, 160055, 685476
2096921,2096921, 160050, 685317
2096921,2096921, 160254, 685527
2096921,2096921, 160313, 685423
2096921,2096921, 159868, 685184
2096921,2096921, 159948, 684989
2096921,2096921, 160002, 685010
2096921,2096921, 160140, 684730
2096921,2096921, 159882, 684506
2096921,2096921, 159878, 684649
2096921,2096921, 159965, 684385
2096921,2096921, 159914, 684639
2096921,2096921, 159825, 684306
2096921,2096921, 159804, 684344
2096921,2096921, 159893, 684405
2096921,2096921, 159992, 684488
2096921,2096921, 159886, 684578
2096921,2096921, 159783, 684624
2096921,2096921, 160089, 684486
2096921,2096921, 160405, 684850
2096921,2096921, 159986, 684960
2096921,2096921, 159864, 684575
2096921,2096921, 159930, 684681
2096921,2096921, 159856, 684520
2096921,2096921, 160073, 684744
2096921,2096921, 159966, 684902
2096921,2096921, 159936, 684805
2096921,2096921, 159474, 685088
2096921,2096921, 159849, 685020
2096921,2096921, 159970, 684951
2096921,2096921, 159803, 685237
2096921,2096921, 159828, 685284
2096921,2096921, 160050, 685303
2096921,2096921, 160396, 685189
2096921,2096921, 159984, 685885
2096921,2096921, 160030, 685670
2096921,2096921, 159995, 685761
2096921,2096921, 160065, 685896
2096921,2096921, 160056, 685866
2096921,2096921, 160375, 686225
2096921,2096921, 160568, 686120
2096921,2096921, 160365, 686545
2096921,2096921, 160131, 686403
2096921,2096921, 160647, 686470
2096921,2096921, 160527, 686687
2096921,2096921, 160189, 687125
2096921,2096921, 160643, 687237
2096921,2096921, 160702, 687100
2096921,2096921, 160825, 686864
2096921,2096921, 160662, 687570
2096921,2096921, 160613, 687748
2096921,2096921, 160673, 687963
2096921,2096921, 160622, 687580
2096921,2096921, 160754, 687518
2096921,2096921, 160859, 688179
2096921,2096921, 161099, 688264
2096921,2096921, 160844, 688328
2096921,2096921, 160670, 688645
2096921,2096921, 160937, 688394
2096921,2096921, 160926, 688759
2096921,2096921, 160718, 688862
2096921,2096921, 161099, 688895
2096921,2096921, 160990, 688957
2096921,2096921, 161096, 689106
2096921,2096921, 161310, 689430
2096921,2096921, 161361, 689513
2096921,2096921, 161153, 689622
2096921,2096921, 160951, 689749
2096921,2096921, 161075, 689564
2096921,2096921, 161162, 690124
2096921,2096921, 160926, 690092
2096921,2096921, 161114, 690157
2096921,2096921, 161462, 689964
2096921,2096921, 161391, 690263
2096921,2096921, 161791, 690647
2096921,2096921, 161430, 691005
2096921,2096921, 161504, 691027
2096921,2096921, 161312, 690915
2096921,2096921, 161345, 690889
2096921,2096921, 161498, 691361
2096921,2096921, 161585, 691370
2096921,2096921, 161680, 691260
2096921,2096921, 161440, 691447
2096921,2096921, 161584, 691685
2096921,2096921, 161680, 692215
2096921,2096921, 161711, 692314
2096921,2096921, 161753, 692621
2096921,2096921, 161628, 692272
2096921,2096921, 161716, 692279
2096921,2096921, 161959, 692953
2096921,2096921, 161880, 693195
2096921,2096921, 162005, 692983
2096921,2096921, 161845, 693142
2096921,2096921, 162105, 693012
2096921,2096921, 162098, 693469
2096921,2096921, 162127, 693379
2096921,2096921, 161837, 693411
2096921,2096921, 162234, 693541
2096921,2096921, 162047, 693467
2096921,2096921, 161959, 693906
2096921,2096921, 162125, 693963
2096921,2096921, 162119, 694076
2096921,2096921, 162286, 694075
2096921,2096921, 162123, 693985
2096921,2096921, 162427, 694307
2096921,2096921, 162426, 694457
2096921,2096921, 162278, 694279
2096921,2096921, 162287, 694115
2096921,2096921, 162164, 694321
2096921,2096921, 162131, 694638
2096921,2096921, 162582, 694572
2096921,2096921, 162523, 694576
2096921,2096921, 162492, 694672
2096921,2096921, 162269, 694722
2096921,2096921, 162412, 695015
2096921,2096921, 162394, 694915
2096921,2096921, 162295, 695340
2096921,2096921, 162273, 694878
2096921,2096921, 162462, 694782
2096921,2096921, 162489, 695042
2096921,2096921, 162328, 694829
2096921,2096921, 162078, 694767
2096921,2096921, 162539, 694798
2096921,2096921, 162496, 694906
2096921,2096921, 162629, 694639
2096921,2096921, 162402, 694866
2096921,2096921, 162309, 695264
2096921,2096921, 162219, 694965
2096921,2096921, 162424, 694819
2096921,2096921, 162323, 694747
2096921,2096921, 162339, 694915
2096921,2096921, 162317, 694503
2096921,2096921, 162260, 694509
2096921,2096921, 162202, 694243
2096921,2096921, 162060, 694410
2096921,2096921, 162444, 694446
2096921,2096921, 162355, 694307
2096921,2096921, 162222, 694460
2096921,2096921, 162084, 694366
2096921,2096921, 162216, 694156
2096921,2096921, 162461, 693861
2096921,2096921, 162205, 694150
2096921,2096921, 162361, 694162
2096921,2096921, 162256, 694097
2096921,2096921, 162344, 693949
2096921,2096921, 162244, 693894
2096921,2096921, 162349, 693997
2096921,2096921, 162340, 694064
2096921,2096921, 162275, 693906
2096921,2096921, 162066, 693551
2096921,2096921, 162010, 693382
2096921,2096921, 162144, 693630
2096921,2096921, 162127, 693613
2096921,2096921, 161998, 693686
2096921,2096921, 162039, 693787
2096921,2096921, 162123, 693935
2096921,2096921, 162054, 693679
2096921,2096921, 162063, 693802
2096921,2096921, 162052, 693830
2096921,2096921, 161974, 693564
2096921,2096921, 161951, 693704
2096921,2096921, 162021, 693511
2096921,2096921, 161986, 693571
2096921,2096921, 162094, 693740
2096921,2096921, 162242, 694056
2096921,2096921, 161979, 693580
2096921,2096921, 161980, 693835
2096921,2096921, 161710, 693535
2096921,2096921, 162111, 693725
2096921,2096921, 162078, 693832
2096921,2096921, 162204, 693851
2096921,2096921, 162147, 693603
2096921,2096921, 162264, 693737
2096921,2096921, 162208, 693617
2096921,2096921, 162323, 694170
2096921,2096921, 162098, 694240
2096921,2096921, 162375, 693955
2096921,2096921, 162253, 693927
2096921,2096921, 162272, 693886
2096921,2096921, 162180, 694434
2096921,2096921, 162400, 694598
2096921,2096921, 162232, 694299
2096921,2096921, 162377, 694639
2096921,2096921, 162413, 694665
2096921,2096921, 162699, 695254
2096921,2096921, 162295, 695395
2096921,2096921, 162380, 695192
2096921,2096921, 162363, 695308
2096921,2096921, 162267, 695285
2096921,2096921, 162688, 695684
2096921,2096921, 162577, 695763
2096921,2096921, 162353, 695356
2096921,2096921, 162323, 695543
2096921,2096921, 162612, 695761
2096921,2096921, 162661, 696185
2096921,2096921, 162600, 696320
2096921,2096921, 162635, 696111
2096921,2096921, 162602, 696015
2096921,2096921, 162804, 695980
2096921,2096921, 162765, 696392
2096921,2096921, 162598, 696581
2096921,2096921, 162753, 696392
2096921,2096921, 162863, 696321
2096921,2096921, 162965, 696366
2096921,2096921, 163245, 697042
2096921,2096921, 163190, 697046
2096921,2096921, 162824, 697255
2096921,2096921, 162841, 697245
2096921,2096921, 162910, 697216
2096921,2096921, 162970, 697532
2096921,2096921, 162837, 697491
2096921,2096921, 162686, 697163
2096921,2096921, 162702, 697493
2096921,2096921, 163010, 697307
2096921,2096921, 163067, 697645
2096921,2096921, 162981, 697988
2096921,2096921, 163069, 698062
2096921,2096921, 162951, 698124
2096921,2096921, 163039, 697725
2096921,2096921, 163118, 697820
2096921,2096921, 162916, 698095
2096921,2096921, 163080, 698120
2096921,2096921, 163210, 698120
2096921,2096921, 163334, 698421
2096921,2096921, 163309, 698639
2096921,2096921, 163211, 698863
2096921,2096921, 162959, 698481
2096921,2096921, 163275, 698706
2096921,2096921, 163300, 698971
2096921,2096921, 163034, 698868
2096921,2096921, 163455, 698958
2096921,2096921, 163514, 698916
2096921,2096921, 163540, 698979
2096921,2096921, 163340, 698792
2096921,2096921, 163650, 699394
2096921,2096921, 163380, 699362
2096921,2096921, 163367, 699550
2096921,2096921, 163172, 699263
2096921,2096921, 163340, 699318
2096921,2096921, 163518, 699590
2096921,2096921, 163651, 700160
2096921,2096921, 163488, 699703
2096921,2096921, 163521, 699704
2096921,2096921, 163701, 699745
2096921,2096921, 163637, 700402
2096921,2096921, 163499, 700231
2096921,2096921, 163703, 700500
2096921,2096921, 163838, 700152
2096921,2096921, 163667, 700137
2096921,2096921, 163563, 700607
2096921,2096921, 163744, 700722
2096921,2096921, 163810, 700289
2096921,2096921, 163728, 700451
2096921,2096921, 163992, 700694
2096921,2096921, 164193, 700671
2096921,2096921, 163992, 700819
2096921,2096921, 163707, 700995
2096921,2096921, 163708, 700993
2096921,2096921, 163642, 700989
2096921,2096921, 163921, 701436
2096921,2096921, 163635, 701317
2096921,2096921, 163744, 701151
2096921,2096921, 163647, 701256
2096921,2096921, 164100, 701120
2096921,2096921, 164163, 701504
2096921,2096921, 163888, 701509
2096921,2096921, 163914, 701970
2096921,2096921, 164095, 701579
2096921,2096921, 164229, 701655
2096921,2096921, 164012, 701826
2096921,2096921, 164180, 701617
2096921,2096921, 164015, 701625
2096921,2096921, 163896, 701924
2096921,2096921, 163803, 701720
2096921,2096921, 164286, 701819
2096921,2096921, 164348, 702141
2096921,2096921, 164403, 702161
2096921,2096921, 164215, 702023
2096921,2096921, 164319, 702171
2096921,2096921, 164131, 702295
2096921,2096921, 164051, 702487
2096921,2096921, 164301, 702292
2096921,2096921, 164144, 702414
2096921,2096921, 164383, 702405
2096921,2096921, 164528, 702523
2096921,2096921, 164385, 702472
2096921,2096921, 164323, 702664
2096921,2096921, 164301, 702711
2096921,2096921, 164173, 702754
2096921,2096921, 164476, 702798
2096921,2096921, 164015, 702843
2096921,2096921, 164105, 703011
2096921,2096921, 163999, 702987
2096921,2096921, 164325, 702856
2096921,2096921, 164463, 703064
2096921,2096921, 164238, 703105
2096921,2096921, 164182, 703232
2096921,2096921, 164221, 702839
2096921,2096921, 164109, 703048
2096921,2096921, 164352, 703107
2096921,2096921, 164372, 703368
2096921,2096921, 164608, 703245
2096921,2096921, 164556, 703355
2096921,2096921, 164561, 703414
2096921,2096921, 164716, 703575
2096921,2096921, 164488, 703803
2096921,2096921, 164158, 703617
2096921,2096921, 164357, 703452
2096921,2096921, 164209, 703704
2096921,2096921, 164614, 703653
2096921,2096921, 164332, 703892
2096921,2096921, 164539, 703839
2096921,2096921, 164348, 703545
2096921,2096921, 164443, 703561
2096921,2096921, 164364, 703934
2096921,2096921, 164486, 703940
2096921,2096921, 164393, 704132
2096921,2096921, 164454, 703773
2096921,2096921, 164729, 703985
2096921,2096921, 164656, 703996
2096921,2096921, 164602, 703996
2096921,2096921, 164666, 704138
2096921,2096921, 164807, 704118
2096921,2096921, 164422, 704227
2096921,2096921, 164434, 704376
2096921,2096921, 165032, 704368
2096921,2096921, 164591, 704110
2096921,2096921, 164429, 704421
2096921,2096921, 164488, 704442
2096921,2096921, 164604, 704456
2096921,2096921, 164680, 704393
2096921,2096921, 164436, 704216
2096921,2096921, 164623, 704063
2096921,2096921, 164759, 704231
2096921,2096921, 164678, 704272
2096921,2096921, 164474, 704534
2096921,2096921, 164704, 704609
2096921,2096921, 164904, 704705
2096921,2096921, 164756, 704532
2096921,2096921, 164399, 704617
2096921,2096921, 164404, 704813
2096921,2096921, 164693, 704845
2096921,2096921, 164684, 704619
2096921,2096921, 165004, 704515
2096921,2096921, 165007, 704557
2096921,2096921, 165069, 704846
2096921,2096921, 164939, 704678
2096921,2096921, 164561, 704847
2096921,2096921, 164597, 704749
2096921,2096921, 164744, 705359
2096921,2096921, 164651, 705062
2096921,2096921, 164952, 705003
2096921,2096921, 164762, 705094
2096921,2096921, 164773, 705190
2096921,2096921, 164852, 704988
2096921,2096921, 164698, 705390
2096921,2096921, 164808, 705433
2096921,2096921, 164724, 705254
2096921,2096921, 164859, 705180
2096921,2096921, 164867, 705138
2096921,2096921, 165229, 705268
2096921,2096921, 165045, 705286
2096921,2096921, 164785, 705282
2096921,2096921, 164961, 705326
2096921,2096921, 164684, 705400
2096921,2096921, 164937, 705557
2096921,2096921, 164915, 705467
2096921,2096921, 164901, 705490
2096921,2096921, 164749, 705507
2096921,2096921, 164948, 705629
2096921,2096921, 165076, 705475
2096921,2096921, 165040, 705554
2096921,2096921, 164916, 705667
2096921,2096921, 165158, 705962
2096921,2096921, 164911, 705683
2096921,2096921, 164800, 705939
2096921,2096921, 164734, 705889
2096921,2096921, 164776, 706140
2096921,2096921, 164841, 705833
2096921,2096921, 164974, 705553
2096921,2096921, 164937, 706127
2096921,2096921, 164863, 705748
2096921,2096921, 164852, 705649
2096921,2096921, 164781, 705906
2096921,2096921, 165126, 706245
2096921,2096921, 165237, 706275
2096921,2096921, 165242, 706049
2096921,2096921, 165165, 706114
2096921,2096921, 164966, 705801
2096921,2096921, 164862, 706306
2096921,2096921, 164898, 705888
2096921,2096921, 164941, 706329
2096921,2096921, 165073, 706127
2096921,2096921, 165194, 706239
2096921,2096921, 165211, 706305
2096921,2096921, 165029, 706382
2096921,2096921, 165048, 706519
2096921,2096921, 165102, 706439
2096921,2096921, 164905, 706315
2096921,2096921, 164999, 706364
2096921,2096921, 164847, 706315
2096921,2096921, 164915, 706409
2096921,2096921, 164950, 706217
2096921,2096921, 165054, 706285
2096921,2096921, 165307, 705992
2096921,2096921, 165296, 706138
2096921,2096921, 165292, 705954
2096921,2096921, 165116, 706209
2096921,2096921, 165234, 706747
2096921,2096921, 165094, 706550
2096921,2096921, 165340, 706463
2096921,2096921, 165001, 706759
2096921,2096921, 165016, 706461
2096921,2096921, 164917, 706716
2096921,2096921, 165194, 706441
2096921,2096921, 165017, 706530
2096921,2096921, 165342, 706716
2096921,2096921, 164939, 706554
2096921,2096921, 165109, 706595
2096921,2096921, 164989, 706772
2096921,2096921, 165280, 706831
2096921,2096921, 165005, 706788
2096921,2096921, 165071, 706530
2096921,2096921, 164931, 707015
2096921,2096921, 165115, 706808
2096921,2096921, 164878, 706655
2096921,2096921, 165076, 706458
2096921,2096921, 165169, 706764
2096921,2096921, 165298, 706592
2096921,2096921, 164953, 706892
2096921,2096921, 165159, 706668
2096921,2096921, 165219, 706784
2096921,2096921, 165347, 706517
2096921,2096921, 165279, 706814
2096921,2096921, 165236, 706705
2096921,2096921, 164911, 706516
2096921,2096921, 165029, 706696
2096921,2096921, 164999, 706537
2096921,2096921, 165328, 706605
2096921,2096921, 164956, 706916
2096921,2096921, 165157, 706694
2096921,2096921, 165030, 706771
2096921,2096921, 165184, 706618
2096921,2096921, 165134, 706521
2096921,2096921, 165213, 706311
2096921,2096921, 165114, 706195
2096921,2096921, 165200, 706582
2096921,2096921, 165140, 706383
2096921,2096921, 164979, 706189
2096921,2096921, 164957, 705586
2096921,2096921, 165253, 705794
2096921,2096921, 164946, 705538
2096921,2096921, 165374, 705524
2096921,2096921, 164974, 705610
2096921,2096921, 164616, 704828
2096921,2096921, 164706, 704802
2096921,2096921, 164830, 704895
2096921,2096921, 164491, 704868
2096921,2096921, 164668, 704750
2096921,2096921, 164261, 703871
2096921,2096921, 164516, 703429
2096921,2096921, 164494, 703509
2096921,2096921, 164397, 703532
2096921,2096921, 164050, 703244
2096921,2096921, 163813, 702198
2096921,2096921, 164115, 702299
2096921,2096921, 164190, 702227
2096921,2096921, 164598, 701945
2096921,2096921, 163738, 701753
2096921,2096921, 163365, 699505
2096921,2096921, 163237, 698915
2096921,2096921, 163134, 698720
2096921,2096921, 162660, 695213
2096921,2096921, 162179, 694807
2096921,2096921, 162337, 695013
2096921,2096921, 161921, 694592
2096921,2096921, 161499, 692553
2096921,2096921, 161678, 691943
2096921,2096921, 161720, 691821
2096921,2096921, 161688, 692242
2096921,2096921, 161350, 692059
2096921,2096921, 161215, 690337
2096921,2096921, 161127, 689668
2096921,2096921, 160708, 689613
2096921,2096921, 161106, 689584
2096921,2096921, 160482, 689453
2096921,2096921, 160653, 688160
2096921,2096921, 160344, 687954
2096921,2096921, 160547, 688042
2096921,2096921, 161007, 688142
2096921,2096921, 160550, 688169
2096921,2096921, 160355, 687306
2096921,2096921, 160416, 686861
2096921,2096921, 160502, 687007
2096921,2096921, 160541, 686898
2096921,2096921, 160385, 686917
2096921,2096921, 159964, 686414
2096921,2096921, 160315, 686582
2096921,2096921, 160630, 686291
2096921,2096921, 160358, 686475
2096921,2096921, 160380, 686136
2096921,2096921, 160297, 685875
2096921,2096921, 160018, 685694
2096921,2096921, 160269, 685729
2096921,2096921, 160103, 685658
2096921,2096921, 160023, 685797
2096921,2096921, 160151, 685409
2096921,2096921, 160074, 685505
2096921,2096921, 160229, 685338
2096921,2096921, 160120, 685825
2096921,2096921, 160256, 685545
2096921,2096921, 160299, 685900
2096921,2096921, 159946, 685444
2096921,2096921, 160343, 685660
2096921,2096921, 160256, 686111
2096921,2096921, 160470, 686054
2096921,2096921, 160142, 686199
2096921,2096921, 160219, 686232
2096921,2096921, 160293, 686327
2096921,2096921, 160290, 686214
2096921,2096921, 160485, 686258
2096921,2096921, 160298, 686371
2096921,2096921, 160387, 686549
2096921,2096921, 160431, 686609
2096921,2096921, 160526, 686760
2096921,2096921, 160470, 686588
2096921,2096921, 160262, 686742
2096921,2096921, 160525, 686805
2096921,2096921, 160367, 686844
2096921,2096921, 160169, 686949
2096921,2096921, 160493, 686970
2096921,2096921, 160613, 687791
2096921,2096921, 160640, 687637
2096921,2096921, 160806, 687478
2096921,2096921, 160483, 687721
2096921,2096921, 160486, 687908
2096921,2096921, 160715, 688107
2096921,2096921, 160432, 688228
2096921,2096921, 160743, 688395
2096921,2096921, 160730, 688457
2096921,2096921, 161073, 688370
2096921,2096921, 161041, 688840
2096921,2096921, 161187, 688647
2096921,2096921, 161020, 689368
2096921,2096921, 161041, 689291
2096921,2096921, 161244, 688953
2096921,2096921, 161323, 689308
2096921,2096921, 161262, 689782
2096921,2096921, 161426, 689988
2096921,2096921, 161627, 690012
2096921,2096921, 161416, 689661
2096921,2096921, 161412, 690644
2096921,2096921, 161407, 690642
2096921,2096921, 161347, 690663
2096921,2096921, 161285, 690558
2096921,2096921, 161419, 690474
2096921,2096921, 161360, 691241
2096921,2096921, 161541, 691349
2096921,2096921, 161517, 691249
2096921,2096921, 161602, 691471
2096921,2096921, 161681, 691669
2096921,2096921, 161384, 692346
2096921,2096921, 161730, 691943
2096921,2096921, 161653, 692119
2096921,2096921, 161456, 692236
2096921,2096921, 161501, 692061
2096921,2096921, 161707, 692969
2096921,2096921, 161936, 692829
2096921,2096921, 162071, 693052
2096921,2096921, 161690, 692931
2096921,2096921, 161979, 692978
2096921,2096921, 162205, 693876
2096921,2096921, 162154, 693556
2096921,2096921, 162183, 693669
2096921,2096921, 162090, 693662
2096921,2096921, 162097, 693822
2096921,2096921, 162250, 694236
2096921,2096921, 162326, 694463
2096921,2096921, 162317, 694546
2096921,2096921, 162298, 694810
2096921,2096921, 162848, 694481
2096921,2096921, 162627, 695099
2096921,2096921, 162555, 695640
2096921,2096921, 162554, 695481
2096921,2096921, 162594, 695509
2096921,2096921, 162773, 695425
2096921,2096921, 162386, 696160
2096921,2096921, 162464, 696380
2096921,2096921, 162598, 696039
2096921,2096921, 162579, 696105
2096921,2096921, 162674, 696147
2096921,2096921, 162828, 696820
2096921,2096921, 162915, 697038
2096921,2096921, 163079, 696972
2096921,2096921, 162808, 696903
2096921,2096921, 162950, 696764
2096921,2096921, 163012, 697364
2096921,2096921, 162857, 697273
2096921,2096921, 163004, 697236
2096921,2096921, 162941, 697345
2096921,2096921, 163263, 697551
2096921,2096921, 163015, 697992
2096921,2096921, 163298, 697862
2096921,2096921, 162968, 697964
2096921,2096921, 163140, 697924
2096921,2096921, 162916, 698006
2096921,2096921, 163280, 698024
2096921,2096921, 163009, 698164
2096921,2096921, 163216, 698216
2096921,2096921, 163199, 698118
2096921,2096921, 162991, 698314
2096921,2096921, 163053, 698261
2096921,2096921, 163303, 698411
2096921,2096921, 163357, 698629
2096921,2096921, 163192, 698413
2096921,2096921, 163179, 698257
2096921,2096921, 163592, 698448
2096921,2096921, 163409, 698626
2096921,2096921, 163242, 698631
2096921,2096921, 163183, 698643
2096921,2096921, 163291, 698671
2096921,2096921, 163459, 698756
2096921,2096921, 163256, 698670
2096921,2096921, 163415, 698752
2096921,2096921, 163140, 698586
2096921,2096921, 163345, 698593
2096921,2096921, 163190, 698373
2096921,2096921, 163225, 698444
2096921,2096921, 163325, 698505
2096921,2096921, 163299, 698644
2096921,2096921, 163269, 698536
2096921,2096921, 163249, 698540
2096921,2096921, 163072, 698455
2096921,2096921, 163094, 698501
2096921,2096921, 163171, 698305
2096921,2096921, 162916, 698270
2096921,2096921, 162834, 698222
2096921,2096921, 163058, 698494
2096921,2096921, 163284, 698589
2096921,2096921, 163229, 698404
2096921,2096921, 163080, 698432
2096921,2096921, 163036, 698197
2096921,2096921, 163343, 698334
2096921,2096921, 163571, 698304
2096921,2096921, 163351, 698287
2096921,2096921, 162974, 698224
2096921,2096921, 162955, 698444
2096921,2096921, 163276, 698063
2096921,2096921, 163407, 697964
2096921,2096921, 163318, 698168
2096921,2096921, 163436, 698124
2096921,2096921, 163098, 697918
2096921,2096921, 163280, 698193
2096921,2096921, 163483, 698329
2096921,2096921, 163216, 698218
2096921,2096921, 163097, 698203
2096921,2096921, 163412, 698225
2096921,2096921, 163393, 698318
2096921,2096921, 163208, 698476
2096921,2096921, 163226, 698294
2096921,2096921, 163381, 698424
2096921,2096921, 163156, 698215
2096921,2096921, 163286, 698584
2096921,2096921, 163421, 698511
2096921,2096921, 163375, 698581
2096921,2096921, 163217, 698372
2096921,2096921, 162988, 698745
2096921,2096921, 163128, 698722
2096921,2096921, 162925, 698949
2096921,2096921, 162867, 698637
2096921,2096921, 163147, 698803
2096921,2096921, 163277, 698927
2096921,2096921, 163613, 698989
2096921,2096921, 163233, 698908
2096921,2096921, 163227, 699450
2096921,2096921, 163470, 699052
2096921,2096921, 163810, 699564
2096921,2096921, 163228, 699583
2096921,2096921, 163472, 699508
2096921,2096921, 163581, 699819
2096921,2096921, 163691, 699734
2096921,2096921, 163774, 700061
2096921,2096921, 163642, 700255
2096921,2096921, 163648, 700239
2096921,2096921, 163913, 700180
2096921,2096921, 163740, 700150
2096921,2096921, 163677, 700775
2096921,2096921, 163869, 700664
2096921,2096921, 163660, 700831
2096921,2096921, 163604, 700559
2096921,2096921, 163717, 700930
2096921,2096921, 163563, 701416
2096921,2096921, 163931, 701313
2096921,2096921, 163925, 701471
2096921,2096921, 164061, 701687
2096921,2096921, 163961, 701543
2096921,2096921, 163774, 701810
2096921,2096921, 164099, 701689
2096921,2096921, 164318, 701941
2096921,2096921, 164064, 702275
2096921,2096921, 164097, 701921
2096921,2096921, 164307, 702147
2096921,2096921, 164186, 702303
2096921,2096921, 163771, 702234
2096921,2096921, 163983, 702270
2096921,2096921, 164226, 702167
2096921,2096921, 164177, 702753
2096921,2096921, 164237, 702887
2096921,2096921, 164215, 702619
2096921,2096921, 164357, 702577
2096921,2096921, 164525, 702573
2096921,2096921, 164473, 703208
2096921,2096921, 164199, 703162
2096921,2096921, 164750, 703495
2096921,2096921, 164254, 703437
2096921,2096921, 164383, 703299
2096921,2096921, 164114, 703523
2096921,2096921, 164643, 703785
2096921,2096921, 164355, 703822
2096921,2096921, 164323, 703870
2096921,2096921, 164596, 703853
2096921,2096921, 164852, 704590
2096921,2096921, 164735, 704380
2096921,2096921, 164511, 704561
2096921,2096921, 164457, 704364
2096921,2096921, 164726, 704485
2096921,2096921, 164572, 704658
2096921,2096921, 164439, 704675
2096921,2096921, 164523, 704795
2096921,2096921, 164641, 704670
2096921,2096921, 164814, 704511
2096921,2096921, 165075, 704922
2096921,2096921, 164945, 705310
2096921,2096921, 164841, 705323
2096921,2096921, 164682, 705366
2096921,2096921, 164892, 705092
2096921,2096921, 164776, 705856
2096921,2096921, 165031, 705628
2096921,2096921, 164758, 705578
2096921,2096921, 165096, 705536
2096921,2096921, 165117, 705746
2096921,2096921, 165043, 706105
2096921,2096921, 165278, 706248
2096921,2096921, 165159, 706163
2096921,2096921, 164709, 706327
2096921,2096921, 165306, 706219
2096921,2096921, 165206, 706275
2096921,2096921, 165213, 706392
2096921,2096921, 165506, 706568
2096921,2096921, 165318, 706780
2096921,2096921, 165151, 706869
2096921,2096921, 165438, 706918
2096921,2096921, 165190, 707236
2096921,2096921, 165381, 706937
2096921,2096921, 165210, 706547
2096921,2096921, 165468, 707084
2096921,2096921, 165452, 707261
2096921,2096921, 165643, 707361
2096921,2096921, 165467, 707514
2096921,2096921, 165582, 707560
2096921,2096921, 165572, 707640
2096921,2096921, 165637, 707769
2096921,2096921, 165629, 707738
2096921,2096921, 165366, 707720
2096921,2096921, 165487, 707703
2096921,2096921, 165676, 707699
2096921,2096921, 165549, 708033
2096921,2096921, 165722, 707958
2096921,2096921, 165417, 708065
2096921,2096921, 165616, 708111
2096921,2096921, 165625, 708316
2096921,2096921, 165584, 708324
2096921,2096921, 165289, 708586
2096921,2096921, 165591, 708683
2096921,2096921, 165648, 708323
2096921,2096921, 165547, 708466
2096921,2096921, 165720, 708608
2096921,2096921, 165587, 708544
2096921,2096921, 165507, 708697
2096921,2096921, 165622, 708768
2096921,2096921, 165717, 708836
2096921,2096921, 165685, 709016
2096921,2096921, 165867, 709118
2096921,2096921, 165842, 709080
2096921,2096921, 165852, 709293
2096921,2096921, 165591, 709308
2096921,2096921, 165576, 709103
2096921,2096921, 165729, 709118
2096921,2096921, 165483, 709149
2096921,2096921, 165685, 709079
2096921,2096921, 165933, 709265
2096921,2096921, 165670, 709651
2096921,2096921, 165971, 709793
2096921,2096921, 165745, 709749
2096921,2096921, 165703, 709636
2096921,2096921, 165916, 709336
2096921,2096921, 165998, 709623
2096921,2096921, 165617, 709844
2096921,2096921, 165784, 709864
2096921,2096921, 166387, 709997
2096921,2096921, 166147, 709808
2096921,2096921, 165951, 709916
2096921,2096921, 166010, 710202
2096921,2096921, 166226, 710265
2096921,2096921, 165832, 710318
2096921,2096921, 165904, 710081
2096921,2096921, 166286, 710494
2096921,2096921, 165943, 710666
2096921,2096921, 166105, 710372
2096921,2096921, 166007, 710462
2096921,2096921, 165687, 710311
2096921,2096921, 165924, 710668
2096921,2096921, 165876, 710627
2096921,2096921, 166012, 710666
2096921,2096921, 166007, 710798
2096921,2096921, 166250, 710736
2096921,2096921, 166100, 710753
2096921,2096921, 166066, 710580
2096921,2096921, 165938, 710773
2096921,2096921, 166271, 710863
2096921,2096921, 166258, 710920
2096921,2096921, 166403, 711248
2096921,2096921, 166412, 710968
2096921,2096921, 166410, 711054
2096921,2096921, 166150, 710848
2096921,2096921, 166172, 710917
2096921,2096921, 166483, 711021
2096921,2096921, 166139, 711293
2096921,2096921, 166294, 711144
2096921,2096921, 165991, 711109
2096921,2096921, 166167, 711111
2096921,2096921, 166179, 711444
2096921,2096921, 166192, 711257
2096921,2096921, 166205, 711428
2096921,2096921, 166107, 711369
2096921,2096921, 166325, 711371
2096921,2096921, 166373, 711259
2096921,2096921, 166188, 711464
2096921,2096921, 166200, 711245
2096921,2096921, 166179, 711459
2096921,2096921, 166499, 711364
2096921,2096921, 166267, 711598
2096921,2096921, 166703, 711604
2096921,2096921, 166637, 711848
2096921,2096921, 166297, 711885
2096921,2096921, 166286, 711808
2096921,2096921, 166246, 711968
2096921,2096921, 166176, 711949
2096921,2096921, 166222, 711876
2096921,2096921, 166240, 711524
2096921,2096921, 166248, 711908
2096921,2096921, 166636, 711935
2096921,2096921, 166643, 711857
2096921,2096921, 166589, 712129
2096921,2096921, 166539, 712157
2096921,2096921, 166659, 711978
2096921,2096921, 166448, 712146
2096921,2096921, 166530, 712129
2096921,2096921, 166374, 712588
2096921,2096921, 166557, 712437
2096921,2096921, 166628, 712224
2096921,2096921, 166573, 712418
2096921,2096921, 166712, 712363
2096921,2096921, 166789, 712539
2096921,2096921, 166640, 712314
2096921,2096921, 166431, 712586
2096921,2096921, 166276, 712637
2096921,2096921, 166538, 712572
2096921,2096921, 166275, 712602
2096921,2096921, 166349, 712680
2096921,2096921, 166560, 712715
2096921,2096921, 166466, 712849
2096921,2096921, 166774, 712623
2096921,2096921, 166676, 712869
2096921,2096921, 166702, 712485
2096921,2096921, 166724, 712517
2096921,2096921, 166657, 713118
2096921,2096921, 166456, 712769
2096921,2096921, 166395, 712896
2096921,2096921, 166610, 712885
2096921,2096921, 166757, 712837
2096921,2096921, 166900, 712864
2096921,2096921, 166811, 712888
2096921,2096921, 166740, 712883
2096921,2096921, 166601, 712793
2096921,2096921, 166545, 712727
2096921,2096921, 166731, 712873
2096921,2096921, 166774, 712937
2096921,2096921, 166803, 712912
2096921,2096921, 166639, 712858
2096921,2096921, 166926, 713090
2096921,2096921, 166706, 712898
2096921,2096921, 167025, 712718
2096921,2096921, 166821, 712864
2096921,2096921, 166773, 712890
2096921,2096921, 166636, 712968
2096921,2096921, 166602, 713226
2096921,2096921, 166537, 713150
2096921,2096921, 166656, 713021
2096921,2096921, 166538, 712977
2096921,2096921, 166530, 712943
2096921,2096921, 166606, 712804
2096921,2096921, 166695, 712980
2096921,2096921, 166577, 713161
2096921,2096921, 166506, 712792
2096921,2096921, 166569, 713016
2096921,2096921, 166937, 712939
2096921,2096921, 166593, 712544
2096921,2096921, 166624, 712910
2096921,2096921, 166687, 712765
2096921,2096921, 166896, 712820
2096921,2096921, 166705, 712692
2096921,2096921, 166886, 712734
2096921,2096921, 166799, 713105
2096921,2096921, 166949, 712994
2096921,2096921, 166893, 713002
2096921,2096921, 166761, 713201
2096921,2096921, 166901, 713286
2096921,2096921, 166692, 712964
2096921,2096921, 166602, 712973
2096921,2096921, 166609, 712981
2096921,2096921, 166601, 712674
2096921,2096921, 166845, 713099
2096921,2096921, 166611, 713013
2096921,2096921, 166825, 713005
2096921,2096921, 166568, 713121
2096921,2096921, 166789, 712945
2096921,2096921, 166900, 712952
2096921,2096921, 166738, 712988
2096921,2096921, 166827, 713017
2096921,2096921, 166732, 712943
2096921,2096921, 166780, 713041
2096921,2096921, 166849, 713146
2096921,2096921, 166543, 713166
2096921,2096921, 166877, 712963
2096921,2096921, 166723, 712805
2096921,2096921, 166434, 712807
2096921,2096921, 166586, 712917
2096921,2096921, 166576, 713051
2096921,2096921, 166945, 712856
2096921,2096921, 166666, 712852
2096921,2096921, 166800, 712432
2096921,2096921, 166604, 712349
2096921,2096921, 166316, 712226
2096921,2096921, 166524, 712351
2096921,2096921, 166482, 712280
2096921,2096921, 166515, 711614
2096921,2096921, 166080, 711899
2096921,2096921, 166235, 711911
2096921,2096921, 166209, 711768
2096921,2096921, 166073, 711615
2096921,2096921, 166311, 710639
2096921,2096921, 165977, 710967
2096921,2096921, 165960, 710685
2096921,2096921, 166086, 710707
2096921,2096921, 166169, 710171
2096921,2096921, 165895, 709467
2096921,2096921, 165850, 709258
2096921,2096921, 166237, 709301
2096921,2096921, 166036, 709311
2096921,2096921, 165704, 709371
2096921,2096921, 165708, 708140
2096921,2096921, 165757, 708021
2096921,2096921, 165495, 707943
2096921,2096921, 165515, 708148
2096921,2096921, 164909, 707375
2096921,2096921, 164926, 705250
2096921,2096921, 164948, 704552
2096921,2096921, 164889, 704459
2096921,2096921, 164799, 704518
2096921,2096921, 163761, 703940
2096921,2096921, 163936, 701277
2096921,2096921, 163695, 700793
2096921,2096921, 163619, 700647
2096921,2096921, 163651, 700890
2096921,2096921, 163018, 700126
2096921,2096921, 163395, 698338
2096921,2096921, 163199, 697688
2096921,2096921, 162794, 697567
2096921,2096921, 163261, 697418
2096921,2096921, 162609, 697184
2096921,2096921, 162613, 695614
2096921,2096921, 162609, 695276
2096921,2096921, 162562, 695202
2096921,2096921, 162596, 694995
2096921,2096921, 161926, 694883
2096921,2096921, 161989, 693721
2096921,2096921, 161988, 693804
2096921,2096921, 162202, 693557
2096921,2096921, 161946, 693463
2096921,2096921, 161805, 693519
2096921,2096921, 162081, 692499
2096921,2096921, 161814, 692437
2096921,2096921, 162167, 692583
2096921,2096921, 161860, 692526
2096921,2096921, 161527, 692182
2096921,2096921, 161572, 691442
2096921,2096921, 161620, 691140
2096921,2096921, 161628, 691256
2096921,2096921, 161837, 691656
2096921,2096921, 161524, 691429
2096921,2096921, 161730, 691168
2096921,2096921, 161648, 690976
2096921,2096921, 161525, 690968
2096921,2096921, 161517, 690830
2096921,2096921, 161182, 690722
2096921,2096921, 161330, 691157
2096921,2096921, 161357, 690697
2096921,2096921, 161616, 690987
2096921,2096921, 161367, 690815
2096921,2096921, 161581, 690749
2096921,2096921, 161396, 690701
2096921,2096921, 161462, 690593
2096921,2096921, 161313, 690607
2096921,2096921, 161310, 690749
2096921,2096921, 161369, 690517
2096921,2096921, 161281, 691212
2096921,2096921, 161502, 691119
2096921,2096921, 161505, 691492
2096921,2096921, 161491, 691218
2096921,2096921, 161363, 691412
2096921,2096921, 161325, 691271
2096921,2096921, 161534, 691268
2096921,2096921, 161648, 691096
2096921,2096921, 161565, 691055
2096921,2096921, 161408, 691134
2096921,2096921, 161550, 691335
2096921,2096921, 161502, 691451
2096921,2096921, 161754, 691877
2096921,2096921, 161616, 691912
2096921,2096921, 161612, 691774
2096921,2096921, 161810, 692058
2096921,2096921, 161738, 691894
2096921,2096921, 161641, 691859
2096921,2096921, 161769, 692067
2096921,2096921, 161958, 692111
2096921,2096921, 161878, 692813
2096921,2096921, 162019, 692631
2096921,2096921, 161963, 692839
2096921,2096921, 161932, 692703
2096921,2096921, 162254, 692641
2096921,2096921, 162254, 693206
2096921,2096921, 162223, 693548
2096921,2096921, 162205, 693875
2096921,2096921, 162020, 693800
2096921,2096921, 162040, 693714
2096921,2096921, 162362, 694027
2096921,2096921, 162559, 694154
2096921,2096921, 162189, 694184
2096921,2096921, 162501, 694202
2096921,2096921, 162291, 694462
2096921,2096921, 162370, 694936
2096921,2096921, 162538, 695048
2096921,2096921, 162692, 695006
2096921,2096921, 162617, 695067
2096921,2096921, 162509, 695215
2096921,2096921, 162568, 695514
2096921,2096921, 162576, 695634
2096921,2096921, 162255, 695577
2096921,2096921, 162715, 695817
2096921,2096921, 162511, 695638
2096921,2096921, 162895, 696107
2096921,2096921, 163019, 696372
2096921,2096921, 162805, 696182
2096921,2096921, 162777, 696199
2096921,2096921, 162796, 696484
2096921,2096921, 162567, 696642
2096921,2096921, 162908, 696808
2096921,2096921, 162774, 697020
2096921,2096921, 162824, 696923
2096921,2096921, 163068, 697209
2096921,2096921, 163007, 697412
2096921,2096921, 163042, 697553
2096921,2096921, 163152, 697600
2096921,2096921, 163104, 697516
2096921,2096921, 163248, 697765
2096921,2096921, 163432, 698070
2096921,2096921, 163498, 698214
2096921,2096921, 163165, 698445
2096921,2096921, 163427, 698476
2096921,2096921, 163586, 698490
2096921,2096921, 163588, 698891
2096921,2096921, 163237, 699198
2096921,2096921, 163464, 699118
2096921,2096921, 163070, 698832
2096921,2096921, 163446, 699098
2096921,2096921, 163114, 699290
2096921,2096921, 163371, 699781
2096921,2096921, 163574, 699878
2096921,2096921, 163625, 700016
2096921,2096921, 163710, 700036
2096921,2096921, 163701, 700354
2096921,2096921, 163728, 700413
2096921,2096921, 163699, 700205
2096921,2096921, 163673, 700210
2096921,2096921, 163860, 700690
2096921,2096921, 163773, 700782
2096921,2096921, 164013, 700661
2096921,2096921, 163839, 700512
2096921,2096921, 163873, 700680
2096921,2096921, 163688, 701111
2096921,2096921, 163899, 701027
2096921,2096921, 163877, 701226
2096921,2096921, 163870, 701325
2096921,2096921, 163909, 701398
2096921,2096921, 163937, 701354
2096921,2096921, 164062, 701535
2096921,2096921, 163687, 701424
2096921,2096921, 163983, 701530
2096921,2096921, 163829, 701439
2096921,2096921, 163846, 701590
2096921,2096921, 163985, 701758
2096921,2096921, 163703, 701748
2096921,2096921, 164193, 701763
2096921,2096921, 164195, 701600
2096921,2096921, 164167, 701641
2096921,2096921, 164159, 701636
2096921,2096921, 163829, 701598
2096921,2096921, 163737, 701398
2096921,2096921, 164018, 701297
2096921,2096921, 163991, 701428
2096921,2096921, 164168, 701459
2096921,2096921, 164211, 701663
2096921,2096921, 164073, 701448
2096921,2096921, 163982, 701648
2096921,2096921, 163804, 701481
2096921,2096921, 164048, 701065
2096921,2096921, 163917, 701402
2096921,2096921, 163719, 701499
2096921,2096921, 163902, 701283
2096921,2096921, 164133, 701357
2096921,2096921, 164149, 701255
2096921,2096921, 163956, 701356
2096921,2096921, 163755, 701305
2096921,2096921, 163796, 701303
2096921,2096921, 164177, 700918
2096921,2096921, 163695, 700760
2096921,2096921, 163445, 700848
2096921,2096921, 163752, 700775
2096921,2096921, 163838, 700556
2096921,2096921, 163839, 700959
2096921,2096921, 163822, 700652
2096921,2096921, 163853, 700732
2096921,2096921, 163750, 700461
2096921,2096921, 163695, 700391
2096921,2096921, 163840, 700488
2096921,2096921, 163612, 700285
2096921,2096921, 163746, 700196
2096921,2096921, 163674, 699882
2096921,2096921, 163768, 700476
2096921,2096921, 163704, 700357
2096921,2096921, 163767, 700337
2096921,2096921, 163700, 700335
2096921,2096921, 163737, 700416
2096921,2096921, 163675, 700463
2096921,2096921, 163748, 700104
2096921,2096921, 163766, 699940
2096921,2096921, 163579, 700294
2096921,2096921, 163765, 700121
2096921,2096921, 163860, 700130
2096921,2096921, 163652, 700176
2096921,2096921, 163686, 700335
2096921,2096921, 163763, 700147
2096921,2096921, 163788, 700220
2096921,2096921, 163714, 700183
2096921,2096921, 163470, 700507
2096921,2096921, 163823, 700377
2096921,2096921, 163448, 700355
2096921,2096921, 163458, 700075
2096921,2096921, 163405, 700228
2096921,2096921, 163705, 700372
2096921,2096921, 163822, 700667
2096921,2096921, 163815, 700528
2096921,2096921, 163870, 700642
2096921,2096921, 163748, 700554
2096921,2096921, 163861, 700947
2096921,2096921, 163899, 701008
2096921,2096921, 163916, 701192
2096921,2096921, 163598, 701163
2096921,2096921, 163963, 700957
2096921,2096921, 164202, 701184
2096921,2096921, 164031, 701151
2096921,2096921, 164052, 701644
2096921,2096921, 164135, 701925
2096921,2096921, 164180, 701685
2096921,2096921, 164091, 701819
2096921,2096921, 163970, 701964
2096921,2096921, 163991, 701901
2096921,2096921, 163949, 702187
2096921,2096921, 164228, 702093
2096921,2096921, 164268, 702166
2096921,2096921, 164185, 702125
2096921,2096921, 164267, 702408
2096921,2096921, 164107, 702403
2096921,2096921, 164116, 702307
2096921,2096921, 163843, 702226
2096921,2096921, 164128, 702523
2096921,2096921, 164127, 702558
2096921,2096921, 164234, 702751
2096921,2096921, 164435, 702812
2096921,2096921, 164538, 703113
2096921,2096921, 164572, 703401
2096921,2096921, 164360, 703454
2096921,2096921, 164620, 703257
2096921,2096921, 164441, 703128
2096921,2096921, 164503, 703401
2096921,2096921, 164377, 703257
2096921,2096921, 164148, 703687
2096921,2096921, 164614, 703243
2096921,2096921, 164423, 703205
2096921,2096921, 164279, 703732
2096921,2096921, 164173, 703766
2096921,2096921, 164284, 703763
2096921,2096921, 164572, 703753
2096921,2096921, 164557, 703416
2096921,2096921, 164479, 703692
2096921,2096921, 164483, 704013
2096921,2096921, 164505, 703933
2096921,2096921, 164554, 703959
2096921,2096921, 164596, 704055
2096921,2096921, 164831, 704018
2096921,2096921, 164765, 704217
2096921,2096921, 164845, 704476
2096921,2096921, 164342, 704547
2096921,2096921, 164722, 704429
2096921,2096921, 164676, 704422
2096921,2096921, 164593, 704755
2096921,2096921, 164713, 704722
2096921,2096921, 164679, 704796
2096921,2096921, 164672, 704643
2096921,2096921, 164826, 704705
2096921,2096921, 164898, 704983
2096921,2096921, 164773, 705076
2096921,2096921, 164825, 705099
2096921,2096921, 164778, 705008
2096921,2096921, 164512, 705315
2096921,2096921, 164984, 705581
2096921,2096921, 164821, 705378
2096921,2096921, 164727, 705346
2096921,2096921, 164950, 705509
2096921,2096921, 164730, 705456
2096921,2096921, 164800, 705360
2096921,2096921, 165170, 705468
2096921,2096921, 165077, 705559
2096921,2096921, 164758, 705816
2096921,2096921, 165182, 705578
2096921,2096921, 165263, 705716
2096921,2096921, 165036, 705866
2096921,2096921, 164535, 705668
2096921,2096921, 164920, 705625
2096921,2096921, 165085, 705881
2096921,2096921, 164971, 706279
2096921,2096921, 164937, 706442
2096921,2096921, 165080, 706455
2096921,2096921, 164903, 705968
2096921,2096921, 164766, 706122
2096921,2096921, 165091, 706558
2096921,2096921, 164974, 706502
2096921,2096921, 165157, 706378
2096921,2096921, 165179, 706495
2096921,2096921, 164854, 706766
2096921,2096921, 165346, 706666
2096921,2096921, 165515, 706714
2096921,2096921, 164998, 706671
2096921,2096921, 165220, 706779
2096921,2096921, 165270, 706772
2096921,2096921, 165376, 706669
2096921,2096921, 165120, 706609
2096921,2096921, 165277, 706879
2096921,2096921, 165200, 706990
2096921,2096921, 165787, 706969
2096921,2096921, 165433, 707163
2096921,2096921, 165429, 707230
2096921,2096921, 165400, 707148
2096921,2096921, 164933, 707148
2096921,2096921, 165199, 706699
2096921,2096921, 164984, 707072
2096921,2096921, 165298, 707253
2096921,2096921, 165285, 707380
2096921,2096921, 165238, 707409
2096921,2096921, 165497, 707470
2096921,2096921, 165492, 707638
2096921,2096921, 165301, 707468
2096921,2096921, 165183, 707216
2096921,2096921, 165269, 707452
2096921,2096921, 165340, 707451
2096921,2096921, 165016, 707590
2096921,2096921, 165335, 707716
2096921,2096921, 165542, 707747
2096921,2096921, 165569, 707960
2096921,2096921, 165328, 707883
2096921,2096921, 165005, 707684
2096921,2096921, 165457, 707814
2096921,2096921, 165642, 707681
2096921,2096921, 165451, 707909
2096921,2096921, 165349, 707673
2096921,2096921, 165532, 707746
2096921,2096921, 165501, 707806
2096921,2096921, 165377, 707795
2096921,2096921, 165313, 707782
2096921,2096921, 165242, 708008
2096921,2096921, 165090, 707731
2096921,2096921, 165203, 708098
2096921,2096921, 165615, 707864
2096921,2096921, 165605, 708140
2096921,2096921, 165344, 708360
2096921,2096921, 165197, 708388
2096921,2096921, 165230, 708227
2096921,2096921, 165429, 708200
2096921,2096921, 165379, 708149
2096921,2096921, 165533, 708394
2096921,2096921, 165295, 707901
2096921,2096921, 165237, 707871
2096921,2096921, 165357, 708259
2096921,2096921, 165428, 708086
2096921,2096921, 165662, 707844
2096921,2096921, 165631, 708185
2096921,2096921, 165540, 708168
2096921,2096921, 165458, 708241
2096921,2096921, 165451, 708137
2096921,2096921, 165687, 708071
2096921,2096921, 165258, 708286
2096921,2096921, 165706, 708466
2096921,2096921, 165663, 708370
2096921,2096921, 165585, 708704
2096921,2096921, 165703, 708328
2096921,2096921, 165786, 708384
2096921,2096921, 165706, 708113
2096921,2096921, 165774, 708404
2096921,2096921, 165593, 708206
2096921,2096921, 165404, 708441
2096921,2096921, 165415, 708554
2096921,2096921, 165638, 708441
2096921,2096921, 165663, 708643
2096921,2096921, 165580, 708677
2096921,2096921, 165438, 708422
2096921,2096921, 165668, 708481
2096921,2096921, 165559, 708636
2096921,2096921, 165801, 708213
2096921,2096921, 165824, 708461
2096921,2096921, 165578, 708558
2096921,2096921, 165804, 708745
2096921,2096921, 165597, 708567
2096921,2096921, 165646, 708657
2096921,2096921, 165473, 708829
2096921,2096921, 165542, 708636
2096921,2096921, 165291, 708289
2096921,2096921, 165532, 708503
2096921,2096921, 165623, 708903
2096921,2096921, 165682, 708736
2096921,2096921, 165397, 708971
2096921,2096921, 165767, 708749
2096921,2096921, 165680, 708388
2096921,2096921, 165957, 708463
2096921,2096921, 165404, 708579
2096921,2096921, 165676, 708834
2096921,2096921, 165720, 708754
2096921,2096921, 165647, 708890
2096921,2096921, 165365, 708878
2096921,2096921, 165610, 708915
2096921,2096921, 165836, 709163
2096921,2096921, 165683, 708728
2096921,2096921, 165541, 708723
2096921,2096921, 165794, 708656
2096921,2096921, 165485, 708574
2096921,2096921, 165728, 708593
2096921,2096921, 165415, 708815
2096921,2096921, 165555, 708973
2096921,2096921, 165766, 708678
2096921,2096921, 165838, 708814
2096921,2096921, 165548, 708673
2096921,2096921, 165764, 708768
2096921,2096921, 165807, 708880
2096921,2096921, 165650, 709027
2096921,2096921, 165566, 708609
2096921,2096921, 165485, 708958
2096921,2096921, 165736, 708615
2096921,2096921, 166107, 708737
2096921,2096921, 165635, 708708
2096921,2096921, 165797, 708600
2096921,2096921, 165631, 708650
2096921,2096921, 166050, 708609
2096921,2096921, 165381, 708691
2096921,2096921, 165700, 708769
2096921,2096921, 165654, 708827
2096921,2096921, 165932, 708846
2096921,2096921, 165776, 708996
2096921,2096921, 165896, 709088
2096921,2096921, 165523, 709185
2096921,2096921, 165577, 708653
2096921,2096921, 165453, 708827
2096921,2096921, 165811, 708939
2096921,2096921, 165881, 708872
2096921,2096921, 165763, 708601
2096921,2096921, 165887, 708790
2096921,2096921, 165721, 708489
2096921,2096921, 165428, 708419
2096921,2096921, 165817, 708589
2096921,2096921, 165945, 708580
2096921,2096921, 165786, 708784
2096921,2096921, 165561, 708697
2096921,2096921, 165985, 708745
2096921,2096921, 165679, 708649
2096921,2096921, 165285, 708782
2096921,2096921, 165421, 708414
2096921,2096921, 165532, 708571
2096921,2096921, 165328, 708556
2096921,2096921, 165805, 708446
2096921,2096921, 165618, 708447
2096921,2096921, 165625, 708414
2096921,2096921, 165585, 708563
2096921,2096921, 165842, 708702
2096921,2096921, 165807, 708421
2096921,2096921, 165694, 708318
2096921,2096921, 165830, 708361
2096921,2096921, 165401, 708444
2096921,2096921, 165601, 708257
2096921,2096921, 165409, 708305
2096921,2096921, 165720, 708071
2096921,2096921, 165552, 708448
2096921,2096921, 165598, 708545
2096921,2096921, 165688, 708490
2096921,2096921, 165489, 708334
2096921,2096921, 165728, 708379
2096921,2096921, 165569, 708352
2096921,2096921, 165695, 708412
2096921,2096921, 165281, 708030
2096921,2096921, 165462, 708397
2096921,2096921, 165584, 707830
2096921,2096921, 165700, 708204
2096921,2096921, 165384, 708346
2096921,2096921, 165461, 708056
2096921,2096921, 165577, 708165
2096921,2096921, 165599, 708377
2096921,2096921, 165346, 708014
2096921,2096921, 165527, 708379
2096921,2096921, 165406, 708233
2096921,2096921, 165527, 707953
2096921,2096921, 165532, 707690
2096921,2096921, 165441, 708167
2096921,2096921, 165280, 707873
2096921,2096921, 165429, 707402
2096921,2096921, 165184, 707106
2096921,2096921, 165469, 707365
2096921,2096921, 165313, 707089
2096921,2096921, 165186, 707108
2096921,2096921, 165231, 706682
2096921,2096921, 165113, 706414
2096921,2096921, 164983, 706463
2096921,2096921, 165014, 706600
2096921,2096921, 165034, 706144
2096921,2096921, 164734, 705638
2096921,2096921, 164816, 705271
2096921,2096921, 164834, 705374
2096921,2096921, 164985, 705411
2096921,2096921, 164432, 705129
2096921,2096921, 164337, 704364
2096921,2096921, 164295, 704003
2096921,2096921, 164557, 703989
2096921,2096921, 164564, 704104
2096921,2096921, 164332, 703733
2096921,2096921, 164181, 702920
2096921,2096921, 164622, 702695
2096921,2096921, 164469, 702500
2096921,2096921, 164206, 702216
2096921,2096921, 163386, 701659
2096921,2096921, 163456, 699693
2096921,2096921, 163263, 699162
2096921,2096921, 163164, 699214
2096921,2096921, 163416, 699175
2096921,2096921, 162506, 698572
2096921,2096921, 162654, 695827
2096921,2096921, 162700, 694968
2096921,2096921, 162472, 695090
2096921,2096921, 162276, 694912
2096921,2096921, 161775, 694428
2096921,2096921, 161670, 692313
2096921,2096921, 161750, 691706
2096921,2096921, 161944, 691747
2096921,2096921, 161754, 691860
2096921,2096921, 161228, 691651
2096921,2096921, 161173, 689991
2096921,2096921, 160834, 689609
2096921,2096921, 160961, 689354
2096921,2096921, 161011, 689286
2096921,2096921, 160837, 689371
2096921,2096921, 160887, 688164
2096921,2096921, 160680, 688059
2096921,2096921, 160607, 687796
2096921,2096921, 160579, 687967
2096921,2096921, 160606, 687770
2096921,2096921, 160431, 687052
2096921,2096921, 160257, 686838
2096921,2096921, 160572, 686769
2096921,2096921, 160620, 686689
2096921,2096921, 160273, 686418
2096921,2096921, 160293, 685949
2096921,2096921, 160111, 685751
2096921,2096921, 160258, 685674
2096921,2096921, 160258, 685618
2096921,2096921, 160161, 685670
2096921,2096921, 159995, 684885
2096921,2096921, 159740, 684644
2096921,2096921, 159902, 685269
2096921,2096921, 159839, 685546
2096921,2096921, 160135, 685434
2096921,2096921, 160069, 685254
2096921,2096921, 160035, 685040
2096921,2096921, 160131, 684641
2096921,2096921, 159859, 684752
2096921,2096921, 159672, 685068
2096921,2096921, 159825, 684918
2096921,2096921, 160167, 685012
2096921,2096921, 159828, 684704
2096921,2096921, 159862, 684900
2096921,2096921, 159837, 685067
2096921,2096921, 159930, 684932
2096921,2096921, 159819, 684941
2096921,2096921, 159905, 685144
2096921,2096921, 159992, 685151
2096921,2096921, 160217, 685480
2096921,2096921, 160144, 685370
2096921,2096921, 160110, 685334
2096921,2096921, 159999, 685269
2096921,2096921, 160063, 685385
2096921,2096921, 160132, 685159
2096921,2096921, 159832, 685571
2096921,2096921, 159883, 685380
2096921,2096921, 160085, 685459
2096921,2096921, 160259, 685529
2096921,2096921, 160069, 685865
2096921,2096921, 160368, 685995
2096921,2096921, 160423, 685870
2096921,2096921, 160228, 686064
2096921,2096921, 160087, 685836
2096921,2096921, 159990, 686003
2096921,2096921, 160155, 686424
2096921,2096921, 160254, 686479
2096921,2096921, 160231, 686459
2096921,2096921, 160521, 686839
2096921,2096921, 160438, 686860
2096921,2096921, 160512, 687316
2096921,2096921, 160669, 687496
2096921,2096921, 160235, 687488
2096921,2096921, 160293, 687113
2096921,2096921, 160646, 687411
2096921,2096921, 160617, 687584
2096921,2096921, 160863, 687851
2096921,2096921, 160306, 687994
2096921,2096921, 160492, 687980
2096921,2096921, 160724, 688064
2096921,2096921, 160699, 688280
2096921,2096921, 160849, 688210
2096921,2096921, 160639, 688818
2096921,2096921, 161196, 688514
2096921,2096921, 160851, 688614
2096921,2096921, 160964, 689052
2096921,2096921, 160832, 689258
2096921,2096921, 160641, 689021
2096921,2096921, 160944, 688920
2096921,2096921, 161155, 689098
2096921,2096921, 160875, 689457
2096921,2096921, 160958, 689823
2096921,2096921, 160953, 689783
2096921,2096921, 161264, 689836
2096921,2096921, 161037, 689825
2096921,2096921, 161362, 690219
2096921,2096921, 161129, 690041
2096921,2096921, 161445, 690321
2096921,2096921, 161228, 690101
2096921,2096921, 161266, 690360
2096921,2096921, 161544, 690674
2096921,2096921, 161596, 691193
2096921,2096921, 161514, 690856
2096921,2096921, 161509, 691318
2096921,2096921, 161470, 691212
2096921,2096921, 161627, 691511
2096921,2096921, 161557, 691664
2096921,2096921, 161701, 691648
2096921,2096921, 161252, 691983
2096921,2096921, 161557, 692178
2096921,2096921, 161875, 692357
2096921,2096921, 161805, 692490
2096921,2096921, 161837, 692584
2096921,2096921, 161848, 692563
2096921,2096921, 161872, 692274
2096921,2096921, 161950, 692917
2096921,2096921, 161974, 692986
2096921,2096921, 162037, 693104
2096921,2096921, 162300, 693158
2096921,2096921, 162378, 693585
2096921,2096921, 161964, 693707
2096921,2096921, 161914, 693832
2096921,2096921, 162115, 693724
2096921,2096921, 162252, 693830
2096921,2096921, 162170, 693587
2096921,2096921, 162219, 694097
2096921,2096921, 162208, 693861
2096921,2096921, 162004, 694023
2096921,2096921, 162156, 694117
2096921,2096921, 162631, 694616
2096921,2096921, 162640, 694605
2096921,2096921, 162323, 694501
2096921,2096921, 162133, 694454
2096921,2096921, 162325, 694516
2096921,2096921, 162225, 694463
2096921,2096921, 162429, 694662
2096921,2096921, 162364, 694925
2096921,2096921, 162268, 694868
2096921,2096921, 162315, 694617
2096921,2096921, 162320, 694823
2096921,2096921, 162243, 694940
2096921,2096921, 162307, 695228
2096921,2096921, 162450, 695025
2096921,2096921, 162600, 695284
2096921,2096921, 162191, 694716
2096921,2096921, 162329, 695023
2096921,2096921, 162251, 694958
2096921,2096921, 162257, 694941
2096921,2096921, 162064, 695144
2096921,2096921, 162128, 695060
2096921,2096921, 162277, 694895
2096921,2096921, 162473, 694995
2096921,2096921, 162385, 694974
2096921,2096921, 162322, 694922
2096921,2096921, 162286, 695187
2096921,2096921, 162150, 694875
2096921,2096921, 162180, 694849
2096921,2096921, 162155, 694876
2096921,2096921, 162031, 694525
2096921,2096921, 162400, 694754
2096921,2096921, 162414, 694797
2096921,2096921, 162306, 694897
2096921,2096921, 162220, 694537
2096921,2096921, 162148, 694444
2096921,2096921, 162346, 694427
2096921,2096921, 162076, 694217
2096921,2096921, 162070, 694228
2096921,2096921, 162179, 694184
2096921,2096921, 162149, 694147
2096921,2096921, 162048, 694257
2096921,2096921, 162194, 693897
2096921,2096921, 162147, 694000
2096921,2096921, 162389, 694236
2096921,2096921, 162345, 694452
2096921,2096921, 162134, 694159
2096921,2096921, 162306, 693782
2096921,2096921, 162329, 693700
2096921,2096921, 162102, 693791
2096921,2096921, 162355, 693846
2096921,2096921, 162112, 693985
2096921,2096921, 162183, 693738
2096921,2096921, 162081, 693476
2096921,2096921, 162162, 693611
2096921,2096921, 162156, 693753
2096921,2096921, 162274, 693996
2096921,2096921, 162265, 693697
2096921,2096921, 161993, 694053
2096921,2096921, 161873, 693798
2096921,2096921, 162218, 693710
2096921,2096921, 162164, 693614
2096921,2096921, 162264, 693789
2096921,2096921, 161807, 693734
2096921,2096921, 162069, 693627
2096921,2096921, 161985, 693869
2096921,2096921, 162070, 693903
2096921,2096921, 162185, 694107
2096921,2096921, 161996, 694109
2096921,2096921, 162078, 694137
2096921,2096921, 162492, 694161
2096921,2096921, 162306, 694210
2096921,2096921, 162303, 694187
2096921,2096921, 162270, 694288
2096921,2096921, 162596, 694219
2096921,2096921, 162086, 694418
2096921,2096921, 162177, 694549
2096921,2096921, 161949, 694474
2096921,2096921, 162275, 694704
2096921,2096921, 162156, 694628
2096921,2096921, 162057, 694773
2096921,2096921, 162456, 694969
2096921,2096921, 162658, 695252
2096921,2096921, 162616, 695316
2096921,2096921, 162542, 695402
2096921,2096921, 162418, 695362
2096921,2096921, 162779, 695255
2096921,2096921, 162589, 695891
2096921,2096921, 162504, 695921
2096921,2096921, 162445, 696041
2096921,2096921, 162847, 695842
2096921,2096921, 162435, 695870
2096921,2096921, 162526, 696198
2096921,2096921, 162579, 696429
2096921,2096921, 162745, 696243
2096921,2096921, 162591, 696248
2096921,2096921, 162673, 696585
2096921,2096921, 162667, 696875
2096921,2096921, 162914, 696693
2096921,2096921, 162488, 696792
2096921,2096921, 162857, 696511
2096921,2096921, 162827, 696555
2096921,2096921, 162829, 696781
2096921,2096921, 162599, 696822
2096921,2096921, 162905, 697195
2096921,2096921, 162862, 697263
2096921,2096921, 162820, 697096
2096921,2096921, 162978, 697302
2096921,2096921, 163183, 697483
2096921,2096921, 163121, 697369
2096921,2096921, 162993, 697581
2096921,2096921, 163040, 697592
2096921,2096921, 162891, 697887
2096921,2096921, 163068, 697845
2096921,2096921, 162840, 697815
2096921,2096921, 162807, 697848
2096921,2096921, 163064, 697871
2096921,2096921, 163311, 697795
2096921,2096921, 162975, 698065
2096921,2096921, 163057, 698243
2096921,2096921, 163411, 698490
2096921,2096921, 163086, 698317
2096921,2096921, 162892, 698756
2096921,2096921, 163325, 698642
2096921,2096921, 163345, 698585
2096921,2096921, 163245, 698604
2096921,2096921, 163231, 698941
2096921,2096921, 163058, 699036
2096921,2096921, 163095, 698762
2096921,2096921, 163364, 699012
2096921,2096921, 163444, 699103
2096921,2096921, 163511, 699330
2096921,2096921, 163613, 699684
2096921,2096921, 163311, 699523
2096921,2096921, 163383, 699661
2096921,2096921, 163634, 699438
2096921,2096921, 163648, 699623
2096921,2096921, 163817, 699728
2096921,2096921, 163714, 699761
2096921,2096921, 163917, 700000
2096921,2096921, 163447, 699962
2096921,2096921, 163521, 699809
2096921,2096921, 163340, 700433
2096921,2096921, 163878, 699968
2096921,2096921, 163792, 700097
2096921,2096921, 163388, 700070
2096921,2096921, 163393, 700281
2096921,2096921, 163500, 700527
2096921,2096921, 163782, 700372
2096921,2096921, 163517, 700103
2096921,2096921, 163603, 700260
2096921,2096921, 163590, 700624
2096921,2096921, 163815, 700876
2096921,2096921, 163789, 700715
2096921,2096921, 163793, 700865
2096921,2096921, 163874, 700915
2096921,2096921, 163697, 701009
2096921,2096921, 163759, 700934
2096921,2096921, 163698, 701322
2096921,2096921, 163808, 701104
2096921,2096921, 163887, 701251
2096921,2096921, 163875, 701101
2096921,2096921, 163704, 701355
2096921,2096921, 163828, 701516
2096921,2096921, 163691, 701521
2096921,2096921, 164248, 701414
2096921,2096921, 164033, 701505
2096921,2096921, 163904, 701744
2096921,2096921, 164010, 701912
2096921,2096921, 163719, 701887
2096921,2096921, 163603, 701831
2096921,2096921, 164008, 701635
2096921,2096921, 164096, 702102
2096921,2096921, 164178, 702115
2096921,2096921, 164055, 701975
2096921,2096921, 163859, 702111
2096921,2096921, 163746, 701744
2096921,2096921, 163989, 702025
2096921,2096921, 164437, 702336
2096921,2096921, 164038, 702456
2096921,2096921, 164050, 702541
2096921,2096921, 164211, 702455
2096921,2096921, 164268, 702546
2096921,2096921, 164125, 702448
2096921,2096921, 164331, 702623
2096921,2096921, 163912, 702707
2096921,2096921, 164138, 702660
2096921,2096921, 164224, 702707
2096921,2096921, 164398, 702878
2096921,2096921, 164200, 702795
2096921,2096921, 164042, 702894
2096921,2096921, 164341, 702660
2096921,2096921, 164144, 703054
2096921,2096921, 164482, 703471
2096921,2096921, 164270, 703148
2096921,2096921, 164240, 703397
2096921,2096921, 163988, 703136
2096921,2096921, 164094, 703507
2096921,2096921, 164061, 703487
2096921,2096921, 164195, 703257
2096921,2096921, 164353, 703165
2096921,2096921, 164148, 703301
2096921,2096921, 164243, 703559
2096921,2096921, 164253, 703659
2096921,2096921, 164239, 703535
2096921,2096921, 164418, 703377
2096921,2096921, 164309, 703744
2096921,2096921, 164456, 703692
2096921,2096921, 164496, 703582
2096921,2096921, 164421, 703408
2096921,2096921, 164506, 703596
2096921,2096921, 164646, 703795
2096921,2096921, 164282, 703591
2096921,2096921, 164355, 703968
2096921,2096921, 164133, 704186
2096921,2096921, 164526, 704007
2096921,2096921, 164394, 703971
2096921,2096921, 164196, 704078
2096921,2096921, 164414, 704143
2096921,2096921, 164351, 704233
2096921,2096921, 164614, 703903
2096921,2096921, 164474, 704020
2096921,2096921, 164485, 704231
2096921,2096921, 164400, 704271
2096921,2096921, 164205, 704278
2096921,2096921, 164420, 704359
2096921,2096921, 164235, 704068
2096921,2096921, 164684, 704261
2096921,2096921, 164646, 704232
2096921,2096921, 164674, 704473
2096921,2096921, 164520, 704252
2096921,2096921, 164444, 704335
2096921,2096921, 164675, 704455
2096921,2096921, 164477, 704351
2096921,2096921, 164348, 704511
2096921,2096921, 164811, 704607
2096921,2096921, 164869, 704555
2096921,2096921, 164721, 704462
2096921,2096921, 164733, 704634
2096921,2096921, 164748, 704622
2096921,2096921, 164620, 704641
2096921,2096921, 164807, 704776
2096921,2096921, 164601, 704696
2096921,2096921, 164853, 704746
2096921,2096921, 164830, 704538
2096921,2096921, 165066, 704600
2096921,2096921, 164554, 704777
2096921,2096921, 164475, 704924
2096921,2096921, 164804, 704985
2096921,2096921, 164739, 704870
2096921,2096921, 164460, 705135
2096921,2096921, 164836, 705105
2096921,2096921, 164853, 705285
2096921,2096921, 164987, 705365
2096921,2096921, 164943, 705190
2096921,2096921, 164473, 705419
2096921,2096921, 164918, 705169
2096921,2096921, 164758, 705142
2096921,2096921, 164740, 704990
2096921,2096921, 164685, 705221
2096921,2096921, 164852, 705408
2096921,2096921, 164852, 705332
2096921,2096921, 165187, 705494
2096921,2096921, 165046, 705607
2096921,2096921, 164841, 705241
2096921,2096921, 164939, 705668
2096921,2096921, 164837, 705486
2096921,2096921, 164787, 705731
2096921,2096921, 165033, 705549
2096921,2096921, 164874, 705525
2096921,2096921, 164988, 705786
2096921,2096921, 165031, 705780
2096921,2096921, 164934, 705520
2096921,2096921, 164967, 705511
2096921,2096921, 164991, 705709
2096921,2096921, 164880, 705951
2096921,2096921, 165039, 705809
2096921,2096921, 164741, 705880
2096921,2096921, 164919, 706000
2096921,2096921, 164631, 705984
2096921,2096921, 165002, 706084
2096921,2096921, 164777, 705968
2096921,2096921, 164846, 705740
2096921,2096921, 164722, 705852
2096921,2096921, 165122, 705814
2096921,2096921, 164889, 706138
2096921,2096921, 165102, 706039
2096921,2096921, 165121, 706163
2096921,2096921, 165055, 706066
2096921,2096921, 164862, 705960
2096921,2096921, 165074, 706078
2096921,2096921, 165205, 706298
2096921,2096921, 165066, 706262
2096921,2096921, 165200, 706347
2096921,2096921, 165120, 706281
2096921,2096921, 165187, 706255
2096921,2096921, 164960, 706366
2096921,2096921, 165053, 706280
2096921,2096921, 164867, 706358
2096921,2096921, 164901, 706399
2096921,2096921, 164818, 706245
2096921,2096921, 164982, 706461
2096921,2096921, 165216, 706328
2096921,2096921, 165201, 706552
2096921,2096921, 164980, 706486
2096921,2096921, 164971, 706654
2096921,2096921, 165093, 706465
2096921,2096921, 164985, 706421
2096921,2096921, 164897, 706407
2096921,2096921, 165127, 706655
2096921,2096921, 165152, 706552
2096921,2096921, 165134, 706622
2096921,2096921, 165361, 706438
2096921,2096921, 165073, 706579
2096921,2096921, 164992, 706441
2096921,2096921, 165159, 706378
2096921,2096921, 165117, 706530
2096921,2096921, 165190, 706707
2096921,2096921, 165178, 706531
2096921,2096921, 164943, 706498
2096921,2096921, 165110, 706516
2096921,2096921, 165096, 706801
2096921,2096921, 165094, 706810
2096921,2096921, 165043, 706663
2096921,2096921, 165375, 706835
2096921,2096921, 165194, 706684
2096921,2096921, 165092, 706525
2096921,2096921, 164722, 706953
2096921,2096921, 165157, 706487
2096921,2096921, 165403, 706581
2096921,2096921, 165134, 706606
2096921,2096921, 165197, 706368
2096921,2096921, 165313, 706853
2096921,2096921, 165046, 706917
2096921,2096921, 165264, 706771
2096921,2096921, 165297, 707085
2096921,2096921, 165005, 706467
2096921,2096921, 165081, 706629
2096921,2096921, 165048, 706407
2096921,2096921, 164990, 706596
2096921,2096921, 165278, 706604
2096921,2096921, 164972, 706427
2096921,2096921, 164832, 706469
2096921,2096921, 164947, 706189
2096921,2096921, 165259, 706295
2096921,2096921, 165307, 706174
2096921,2096921, 165038, 705785
2096921,2096921, 164867, 705622
2096921,2096921, 164955, 705352
2096921,2096921, 165096, 705422
2096921,2096921, 164846, 705365
2096921,2096921, 164395, 705231
2096921,2096921, 164650, 704547
2096921,2096921, 164729, 704425
2096921,2096921, 164749, 704832
2096921,2096921, 164620, 704735
2096921,2096921, 164311, 704337
2096921,2096921, 164445, 703408
2096921,2096921, 164697, 703290
2096921,2096921, 164272, 702889
2096921,2096921, 164359, 703165
2096921,2096921, 164235, 702975
2096921,2096921, 164200, 702203
2096921,2096921, 164049, 701963
2096921,2096921, 164049, 701990
2096921,2096921, 163961, 701630
2096921,2096921, 163557, 701224
2096921,2096921, 163408, 699490
2096921,2096921, 163402, 698920
2096921,2096921, 163395, 698857
2096921,2096921, 163738, 698901
2096921,2096921, 162541, 697525
2096921,2096921, 162456, 695574
2096921,2096921, 162322, 695214
2096921,2096921, 162411, 695075
2096921,2096921, 162053, 695016
2096921,2096921, 161653, 693854
2096921,2096921, 161311, 692528
2096921,2096921, 161613, 691983
2096921,2096921, 161567, 691662
2096921,2096921, 161706, 691982
2096921,2096921, 161144, 691127
2096921,2096921, 161425, 690164
2096921,2096921, 161010, 689675
2096921,2096921, 161194, 689557
2096921,2096921, 160941, 689533
2096921,2096921, 160851, 689138
2096921,2096921, 160845, 688150
2096921,2096921, 160555, 687982
2096921,2096921, 160482, 688089
2096921,2096921, 160868, 688017
2096921,2096921, 160445, 687713
2096921,2096921, 160445, 686920
2096921,2096921, 160656, 687096
2096921,2096921, 160467, 686966
2096921,2096921, 160288, 686974
2096921,2096921, 160304, 686684
2096921,2096921, 160253, 686553
2096921,2096921, 160095, 686424
2096921,2096921, 160373, 686017
2096921,2096921, 160572, 686109
2096921,2096921, 160259, 686107
2096921,2096921, 160072, 685994
2096921,2096921, 160417, 685771
2096921,2096921, 160328, 685796
2096921,2096921, 160405, 685662
2096921,2096921, 160109, 686043
2096921,2096921, 160137, 685828
2096921,2096921, 159978, 685459
2096921,2096921, 160138, 685275
2096921,2096921, 160050, 685688
2096921,2096921, 160247, 685785
2096921,2096921, 160118, 685782
2096921,2096921, 160285, 685641
2096921,2096921, 160367, 685696
2096921,2096921, 160218, 685782
2096921,2096921, 160551, 685906
2096921,2096921, 160467, 686162
2096921,2096921, 160536, 685847
2096921,2096921, 160344, 686038
2096921,2096921, 160174, 686392
2096921,2096921, 160294, 686161
2096921,2096921, 160176, 686433
2096921,2096921, 160234, 686299
2096921,2096921, 160059, 686736
2096921,2096921, 160278, 686414
2096921,2096921, 160496, 686659
2096921,2096921, 160061, 686519
2096921,2096921, 160257, 686751
2096921,2096921, 160392, 686674
2096921,2096921, 160388, 686663
2096921,2096921, 160400, 686882
2096921,2096921, 160465, 687630
2096921,2096921, 160317, 687525
2096921,2096921, 160489, 687466
2096921,2096921, 160478, 687364
2096921,2096921, 160577, 687871
2096921,2096921, 160713, 687796
2096921,2096921, 160663, 688021
2096921,2096921, 161149, 687905
2096921,2096921, 160776, 688132
2096921,2096921, 160974, 688345
2096921,2096921, 161167, 689196
2096921,2096921, 160912, 689101
2096921,2096921, 160967, 689337
2096921,2096921, 160839, 688987
2096921,2096921, 161022, 689319
2096921,2096921, 161278, 689704
2096921,2096921, 161262, 689752
2096921,2096921, 161170, 689572
2096921,2096921, 161237, 690058
2096921,2096921, 161412, 690357
2096921,2096921, 161296, 690621
2096921,2096921, 161187, 690587
2096921,2096921, 161345, 690402
2096921,2096921, 161249, 690316
2096921,2096921, 161572, 690670
2096921,2096921, 161559, 691082
2096921,2096921, 161485, 691640
2096921,2096921, 161460, 691443
2096921,2096921, 161486, 691174
2096921,2096921, 161617, 691778
2096921,2096921, 161695, 692093
2096921,2096921, 161582, 691873
2096921,2096921, 161817, 691921
2096921,2096921, 161659, 691809
2096921,2096921, 161759, 692435
2096921,2096921, 161886, 692608
2096921,2096921, 161897, 692824
2096921,2096921, 161753, 692591
2096921,2096921, 161982, 692697
2096921,2096921, 161966, 693141
2096921,2096921, 162239, 693236
2096921,2096921, 162257, 693608
2096921,2096921, 162247, 693590
2096921,2096921, 162072, 693625
2096921,2096921, 162225, 694006
2096921,2096921, 162311, 694471
2096921,2096921, 162082, 694413
2096921,2096921, 161980, 694385
2096921,2096921, 162244, 694672
2096921,2096921, 162818, 694837
2096921,2096921, 162358, 695318
2096921,2096921, 162534, 695165
2096921,2096921, 162855, 695377
2096921,2096921, 162710, 695200
2096921,2096921, 162586, 695625
2096921,2096921, 162619, 695948
2096921,2096921, 162557, 695891
2096921,2096921, 162405, 695949
2096921,2096921, 162508, 695955
2096921,2096921, 162691, 696332
2096921,2096921, 162796, 696527
2096921,2096921, 162941, 696467
2096921,2096921, 162889, 696796
2096921,2096921, 162804, 696781
2096921,2096921, 162941, 696794
2096921,2096921, 162876, 697372
2096921,2096921, 162920, 697395
2096921,2096921, 162835, 697372
2096921,2096921, 162950, 697371
2096921,2096921, 163286, 697415
2096921,2096921, 162866, 697775
2096921,2096921, 162925, 697802
2096921,2096921, 162577, 697525
2096921,2096921, 163095, 697639
2096921,2096921, 163035, 697759
2096921,2096921, 163059, 698026
2096921,2096921, 163109, 698110
2096921,2096921, 163289, 698214
2096921,2096921, 163010, 698190
2096921,2096921, 163142, 698488
2096921,2096921, 163030, 698528
2096921,2096921, 163369, 698693
2096921,2096921, 163476, 698592
2096921,2096921, 163393, 698681
2096921,2096921, 163185, 698551
2096921,2096921, 163346, 698490
2096921,2096921, 163262, 698479
2096921,2096921, 163350, 698224
2096921,2096921, 163068, 698468
2096921,2096921, 163364, 698604
2096921,2096921, 163408, 698584
2096921,2096921, 163335, 698746
2096921,2096921, 163220, 698344
2096921,2096921, 163223, 698523
2096921,2096921, 163151, 698294
2096921,2096921, 163324, 698504
2096921,2096921, 163228, 698702
2096921,2096921, 163186, 698801
2096921,2096921, 163368, 698735
2096921,2096921, 163438, 698318
2096921,2096921, 163496, 698398
2096921,2096921, 163073, 698492
2096921,2096921, 163443, 698560
2096921,2096921, 163194, 698676
2096921,2096921, 163157, 698595
2096921,2096921, 163257, 698273
2096921,2096921, 163011, 698532
2096921,2096921, 163172, 698098
2096921,2096921, 163127, 698258
2096921,2096921, 162812, 698245
2096921,2096921, 162967, 698291
2096921,2096921, 163242, 698288
2096921,2096921, 163451, 698091
2096921,2096921, 163203, 697837
2096921,2096921, 163079, 698204
2096921,2096921, 163045, 697925
2096921,2096921, 163077, 697899
2096921,2096921, 162896, 697690
2096921,2096921, 162813, 697983
2096921,2096921, 162847, 697837
2096921,2096921, 162885, 698146
2096921,2096921, 163114, 698241
2096921,2096921, 162933, 698267
2096921,2096921, 163238, 698167
2096921,2096921, 163009, 697908
2096921,2096921, 163278, 697987
2096921,2096921, 163330, 698103
2096921,2096921, 162978, 697945
2096921,2096921, 163027, 698338
2096921,2096921, 163323, 698204
2096921,2096921, 163361, 698327
2096921,2096921, 163080, 698439
2096921,2096921, 163247, 698227
2096921,2096921, 163221, 698326
2096921,2096921, 163574, 698407
2096921,2096921, 163395, 698510
2096921,2096921, 163553, 698529
2096921,2096921, 163260, 698682
2096921,2096921, 163227, 698556
2096921,2096921, 163149, 698869
2096921,2096921, 163486, 698699
2096921,2096921, 163497, 698680
2096921,2096921, 163368, 698653
2096921,2096921, 163295, 698802
2096921,2096921, 163168, 698816
2096921,2096921, 163410, 699235
2096921,2096921, 163193, 699705
2096921,2096921, 163541, 699654
2096921,2096921, 163920, 699513
2096921,2096921, 163883, 699727
2096921,2096921, 163885, 700149
2096921,2096921, 163651, 700177
2096921,2096921, 163539, 700017
2096921,2096921, 163487, 699939
2096921,2096921, 163382, 700007
2096921,2096921, 163539, 700421
2096921,2096921, 163801, 700541
2096921,2096921, 163755, 700575
2096921,2096921, 163702, 700879
2096921,2096921, 163864, 700963
2096921,2096921, 164031, 701325
2096921,2096921, 164238, 701359
2096921,2096921, 163599, 701226
2096921,2096921, 163829, 701627
2096921,2096921, 163909, 701333
2096921,2096921, 163866, 701631
2096921,2096921, 164005, 701429
2096921,2096921, 164030, 701840
2096921,2096921, 163839, 701634
2096921,2096921, 164290, 701819
2096921,2096921, 164148, 701826
2096921,2096921, 163957, 701951
2096921,2096921, 164277, 701906
2096921,2096921, 164178, 701887
2096921,2096921, 163967, 702016
2096921,2096921, 164142, 702419
2096921,2096921, 163953, 702679
2096921,2096921, 164386, 702529
2096921,2096921, 164128, 702630
2096921,2096921, 164525, 702642
2096921,2096921, 164160, 703057
2096921,2096921, 164415, 702875
2096921,2096921, 164301, 703090
2096921,2096921, 164065, 703335
2096921,2096921, 164352, 703352
2096921,2096921, 164433, 703885
2096921,2096921, 164213, 703780
2096921,2096921, 163962, 703802
2096921,2096921, 164322, 703786
2096921,2096921, 164381, 704049
2096921,2096921, 164457, 704040
2096921,2096921, 164663, 704023
2096921,2096921, 164735, 703764
2096921,2096921, 164571, 703804
2096921,2096921, 164705, 704280
2096921,2096921, 164875, 704660
2096921,2096921, 164675, 704395
2096921,2096921, 164797, 704601
2096921,2096921, 164596, 704486
2096921,2096921, 164704, 705161
2096921,2096921, 164793, 705118
2096921,2096921, 164898, 705066
2096921,2096921, 164716, 705201
2096921,2096921, 164602, 705015
2096921,2096921, 164513, 705148
2096921,2096921, 164897, 705241
2096921,2096921, 164958, 705216
2096921,2096921, 164570, 705728
2096921,2096921, 164965, 705706
2096921,2096921, 165182, 705728
2096921,2096921, 165063, 705717
2096921,2096921, 164938, 705761
2096921,2096921, 164973, 705904
2096921,2096921, 164986, 706056
2096921,2096921, 165000, 706017
2096921,2096921, 164707, 705945
2096921,2096921, 165124, 706265
2096921,2096921, 164853, 706364
2096921,2096921, 165122, 706308
2096921,2096921, 165359, 706704
2096921,2096921, 165431, 706739
2096921,2096921, 165143, 706751
2096921,2096921, 165033, 706514
2096921,2096921, 165220, 707094
2096921,2096921, 165383, 707081
2096921,2096921, 165202, 707321
2096921,2096921, 165292, 707196
2096921,2096921, 165400, 707489
2096921,2096921, 165363, 707660
2096921,2096921, 165358, 707250
2096921,2096921, 165721, 707197
2096921,2096921, 165450, 707249
2096921,2096921, 165461, 707639
2096921,2096921, 165489, 707710
2096921,2096921, 165903, 707818
2096921,2096921, 165467, 707710
2096921,2096921, 165577, 707779
2096921,2096921, 165191, 707678
2096921,2096921, 165440, 707982
2096921,2096921, 165516, 707989
2096921,2096921, 165487, 708120
2096921,2096921, 165547, 708326
2096921,2096921, 165656, 708620
2096921,2096921, 165575, 708087
2096921,2096921, 165669, 708556
2096921,2096921, 165691, 708711
2096921,2096921, 165677, 708637
2096921,2096921, 165614, 708688
2096921,2096921, 165626, 708308
2096921,2096921, 165792, 708710
2096921,2096921, 166023, 708736
2096921,2096921, 165926, 708644
2096921,2096921, 165723, 708908
2096921,2096921, 165591, 708790
2096921,2096921, 165802, 709196
2096921,2096921, 165975, 709298
2096921,2096921, 165899, 709092
2096921,2096921, 165898, 709177
2096921,2096921, 166030, 709291
2096921,2096921, 166020, 709318
2096921,2096921, 165783, 709557
2096921,2096921, 165821, 709646
2096921,2096921, 165919, 709709
2096921,2096921, 166024, 709635
2096921,2096921, 166067, 709695
2096921,2096921, 165654, 709669
2096921,2096921, 165987, 709615
2096921,2096921, 165646, 709531
2096921,2096921, 166006, 709652
2096921,2096921, 166215, 710067
2096921,2096921, 165908, 710220
2096921,2096921, 166083, 710095
2096921,2096921, 166188, 710022
2096921,2096921, 165774, 709802
2096921,2096921, 166100, 710216
2096921,2096921, 166099, 710569
2096921,2096921, 166097, 710708
2096921,2096921, 166393, 710593
2096921,2096921, 166213, 710556
2096921,2096921, 166309, 710667
2096921,2096921, 166296, 710608
2096921,2096921, 166036, 710545
2096921,2096921, 166284, 711055
2096921,2096921, 166275, 710649
2096921,2096921, 166501, 710588
2096921,2096921, 166466, 711026
2096921,2096921, 166163, 710954
2096921,2096921, 166073, 711257
2096921,2096921, 166319, 711086
2096921,2096921, 166283, 711004
2096921,2096921, 166370, 711184
2096921,2096921, 166157, 711250
2096921,2096921, 166508, 711182
2096921,2096921, 166397, 711140
2096921,2096921, 166213, 711002
2096921,2096921, 166316, 711228
2096921,2096921, 166227, 710980
2096921,2096921, 166532, 711432
2096921,2096921, 166321, 711287
2096921,2096921, 166149, 711332
2096921,2096921, 166274, 711352
2096921,2096921, 166390, 711267
2096921,2096921, 166431, 711373
2096921,2096921, 166424, 711560
2096921,2096921, 166347, 711410
2096921,2096921, 166396, 711706
2096921,2096921, 166400, 711374
2096921,2096921, 166338, 711693
2096921,2096921, 166434, 711575
2096921,2096921, 166398, 711766
2096921,2096921, 166547, 711699
2096921,2096921, 166267, 711782
2096921,2096921, 166114, 711593
2096921,2096921, 166168, 711873
2096921,2096921, 166588, 711766
2096921,2096921, 166284, 711872
2096921,2096921, 166277, 711964
2096921,2096921, 166402, 711842
2096921,2096921, 166718, 711581
2096921,2096921, 166432, 711775
2096921,2096921, 166561, 711921
2096921,2096921, 166414, 712004
2096921,2096921, 166610, 712073
2096921,2096921, 166455, 712377
2096921,2096921, 166661, 712033
2096921,2096921, 166573, 712320
2096921,2096921, 166527, 711950
2096921,2096921, 166473, 712167
2096921,2096921, 166476, 712470
2096921,2096921, 166674, 712536
2096921,2096921, 166820, 712543
2096921,2096921, 166661, 712312
2096921,2096921, 166577, 712245
2096921,2096921, 166534, 712501
2096921,2096921, 166620, 712219
2096921,2096921, 166576, 712523
2096921,2096921, 166869, 712873
2096921,2096921, 167052, 712755
2096921,2096921, 166834, 712414
2096921,2096921, 166466, 712932
2096921,2096921, 166551, 712627
2096921,2096921, 166385, 712586
2096921,2096921, 166549, 712586
2096921,2096921, 166565, 712703
2096921,2096921, 166696, 712712
2096921,2096921, 166820, 712565
2096921,2096921, 166542, 712662
2096921,2096921, 166406, 712808
2096921,2096921, 166685, 712622
2096921,2096921, 166879, 712829
2096921,2096921, 166799, 712620
2096921,2096921, 166611, 712825
2096921,2096921, 166705, 712882
2096921,2096921, 166865, 712676
2096921,2096921, 166822, 712946
2096921,2096921, 166889, 712933
2096921,2096921, 166673, 712858
2096921,2096921, 166966, 713305
2096921,2096921, 166860, 713061
2096921,2096921, 166688, 712827
2096921,2096921, 166654, 713043
2096921,2096921, 166695, 712966
2096921,2096921, 166745, 712903
2096921,2096921, 166613, 713158
2096921,2096921, 166915, 712734
2096921,2096921, 166862, 712970
2096921,2096921, 166748, 713019
2096921,2096921, 166310, 712838
2096921,2096921, 166758, 712947
2096921,2096921, 166677, 713483
2096921,2096921, 166718, 713091
2096921,2096921, 166786, 713197
2096921,2096921, 166841, 713129
2096921,2096921, 166709, 712914
2096921,2096921, 166776, 712975
2096921,2096921, 166649, 713371
2096921,2096921, 166688, 713222
2096921,2096921, 166789, 713019
2096921,2096921, 166851, 713120
2096921,2096921, 166439, 712973
2096921,2096921, 166553, 712834
2096921,2096921, 166630, 712769
2096921,2096921, 166482, 712929
2096921,2096921, 166806, 712806
2096921,2096921, 166797, 712859
2096921,2096921, 166773, 712961
2096921,2096921, 166738, 712894
2096921,2096921, 166789, 712858
2096921,2096921, 166891, 713046
2096921,2096921, 166812, 713135
2096921,2096921, 166632, 713256
2096921,2096921, 166365, 713252
2096921,2096921, 166799, 713041
2096921,2096921, 166956, 713008
2096921,2096921, 166714, 712902
2096921,2096921, 166967, 712995
2096921,2096921, 167185, 713246
2096921,2096921, 167113, 713217
2096921,2096921, 166968, 713405
2096921,2096921, 166818, 713387
2096921,2096921, 166811, 713090
2096921,2096921, 166899, 713150
2096921,2096921, 166935, 712721
2096921,2096921, 166526, 712695
2096921,2096921, 166715, 712858
2096921,2096921, 166774, 712946
2096921,2096921, 166726, 713098
2096921,2096921, 166527, 712301
2096921,2096921, 166728, 712359
2096921,2096921, 166440, 712309
2096921,2096921, 166395, 712400
2096921,2096921, 166393, 712208
2096921,2096921, 166157, 711749
2096921,2096921, 166454, 711496
2096921,2096921, 166397, 711808
2096921,2096921, 166339, 711711
2096921,2096921, 166222, 711587
2096921,2096921, 166440, 710957
2096921,2096921, 166345, 710986
2096921,2096921, 166010, 710882
2096921,2096921, 166322, 710909
2096921,2096921, 165907, 710299
2096921,2096921, 165933, 709346
2096921,2096921, 165639, 709095
2096921,2096921, 165993, 709206
2096921,2096921, 166069, 709756
2096921,2096921, 165517, 709058
2096921,2096921, 165281, 707970
2096921,2096921, 165543, 708070
2096921,2096921, 165509, 707985
2096921,2096921, 165538, 707933
2096921,2096921, 164892, 706772
2096921,2096921, 164785, 704949
2096921,2096921, 164855, 704538
2096921,2096921, 165076, 704647
2096921,2096921, 164920, 704518
2096921,2096921, 163739, 703335
2096921,2096921, 163596, 701195
2096921,2096921, 164128, 700709
2096921,2096921, 164077, 700412
2096921,2096921, 164021, 700852
2096921,2096921, 163550, 699658
2096921,2096921, 163139, 697777
2096921,2096921, 162582, 697610
2096921,2096921, 162804, 697820
2096921,2096921, 163162, 697593
2096921,2096921, 162620, 696717
2096921,2096921, 162538, 695704
2096921,2096921, 162494, 695487
2096921,2096921, 162549, 695232
2096921,2096921, 162452, 695436
2096921,2096921, 161958, 694373
2096921,2096921, 162137, 693784
2096921,2096921, 162240, 693395
2096921,2096921, 161989, 693551
2096921,2096921, 162033, 693604
2096921,2096921, 161977, 693330
2096921,2096921, 161880, 692739
2096921,2096921, 161831, 692486
2096921,2096921, 161545, 692448
2096921,2096921, 161978, 692411
2096921,2096921, 161652, 692162
2096921,2096921, 161578, 691411
2096921,2096921, 161965, 691366
2096921,2096921, 161567, 691434
2096921,2096921, 161621, 691743
2096921,2096921, 161365, 691342
2096921,2096921, 161411, 691038
2096921,2096921, 161715, 690860
2096921,2096921, 161758, 690975
2096921,2096921, 161297, 691143
2096921,2096921, 161235, 690955
2096921,2096921, 161385, 690837
2096921,2096921, 161356, 690585
2096921,2096921, 161236, 690827
2096921,2096921, 161467, 690865
2096921,2096921, 161397, 690878
2096921,2096921, 161570, 690966
2096921,2096921, 161473, 691005
2096921,2096921, 161203, 690931
2096921,2096921, 161159, 690896
2096921,2096921, 161684, 690622
2096921,2096921, 161454, 690943
2096921,2096921, 161513, 691088
2096921,2096921, 161442, 691062
2096921,2096921, 161648, 691333
2096921,2096921, 161669, 691263
2096921,2096921, 161404, 691431
2096921,2096921, 161851, 691707
2096921,2096921, 161598, 691053
2096921,2096921, 161472, 691108
2096921,2096921, 161289, 691213
2096921,2096921, 161646, 691754
2096921,2096921, 161763, 691537
2096921,2096921, 161839, 691386
2096921,2096921, 161325, 691387
2096921,2096921, 161763, 691950
2096921,2096921, 161799, 692194
2096921,2096921, 161770, 692024
2096921,2096921, 161848, 692106
2096921,2096921, 161776, 692222
2096921,2096921, 162106, 692287
2096921,2096921, 162025, 692973
2096921,2096921, 161889, 692673
2096921,2096921, 161541, 692604
2096921,2096921, 161824, 693057
2096921,2096921, 161916, 693213
2096921,2096921, 161941, 693682
2096921,2096921, 162091, 693719
2096921,2096921, 161815, 693607
2096921,2096921, 161959, 693984
2096921,2096921, 162243, 694440
2096921,2096921, 162267, 694434
2096921,2096921, 162351, 694499
2096921,2096921, 162501, 694417
2096921,2096921, 162231, 694178
2096921,2096921, 162487, 694308
2096921,2096921, 162871, 694711
2096921,2096921, 162400, 695009
2096921,2096921, 162387, 695077
2096921,2096921, 162325, 695017
2096921,2096921, 162554, 695180
2096921,2096921, 162465, 695587
2096921,2096921, 162739, 695700
2096921,2096921, 162648, 695509
2096921,2096921, 162831, 695914
2096921,2096921, 162867, 696065
2096921,2096921, 162913, 696273
2096921,2096921, 162702, 696465
2096921,2096921, 162723, 696753
2096921,2096921, 162435, 696334
2096921,2096921, 162969, 696704
2096921,2096921, 162720, 696713
2096921,2096921, 162939, 696723
2096921,2096921, 162939, 696905
2096921,2096921, 163058, 697221
2096921,2096921, 163128, 697475
2096921,2096921, 163285, 697573
2096921,2096921, 162920, 697750
2096921,2096921, 163188, 697675
2096921,2096921, 163208, 697694
2096921,2096921, 163257, 697887
2096921,2096921, 163084, 698484
2096921,2096921, 163532, 698731
2096921,2096921, 163342, 698400
2096921,2096921, 163481, 698477
2096921,2096921, 163516, 698808
2096921,2096921, 163624, 699143
2096921,2096921, 163556, 699235
2096921,2096921, 163602, 698948
2096921,2096921, 163295, 699250
2096921,2096921, 163531, 699631
2096921,2096921, 163562, 699776
2096921,2096921, 163572, 699872
2096921,2096921, 163720, 699957
2096921,2096921, 163510, 699976
2096921,2096921, 163671, 700023
2096921,2096921, 163690, 700248
2096921,2096921, 163687, 700171
2096921,2096921, 163913, 700303
2096921,2096921, 163618, 700540
2096921,2096921, 164247, 700702
2096921,2096921, 163517, 701023
2096921,2096921, 163464, 701186
2096921,2096921, 163767, 701157
2096921,2096921, 163916, 701099
2096921,2096921, 164062, 701227
2096921,2096921, 164012, 701210
2096921,2096921, 163869, 701298
2096921,2096921, 163673, 701257
2096921,2096921, 163836, 701500
2096921,2096921, 164181, 701332
2096921,2096921, 164112, 701834
2096921,2096921, 164233, 701483
2096921,2096921, 164059, 701519
2096921,2096921, 164179, 701406
2096921,2096921, 164083, 701751
2096921,2096921, 164173, 701514
2096921,2096921, 164356, 701925
2096921,2096921, 164016, 701723
2096921,2096921, 164235, 701935
2096921,2096921, 164050, 701914
2096921,2096921, 164094, 701917
2096921,2096921, 164161, 701707
2096921,2096921, 163957, 701651
2096921,2096921, 164060, 701869
2096921,2096921, 164067, 701676
2096921,2096921, 164101, 701645
2096921,2096921, 164080, 701842
2096921,2096921, 163714, 701743
2096921,2096921, 164074, 701873
2096921,2096921, 163955, 701447
2096921,2096921, 164059, 701334
2096921,2096921, 164070, 701433
2096921,2096921, 164070, 701500
2096921,2096921, 164204, 701469
2096921,2096921, 163878, 701616
2096921,2096921, 163838, 701654
2096921,2096921, 163767, 701400
2096921,2096921, 163921, 701255
2096921,2096921, 163892, 701174
2096921,2096921, 163763, 701231
2096921,2096921, 163797, 701069
2096921,2096921, 163786, 700876
2096921,2096921, 163717, 700971
2096921,2096921, 163890, 701373
2096921,2096921, 163968, 701321
2096921,2096921, 164085, 700800
2096921,2096921, 163805, 700927
2096921,2096921, 163701, 701119
2096921,2096921, 163738, 700757
2096921,2096921, 163854, 700762
2096921,2096921, 163732, 700330
2096921,2096921, 163571, 700660
2096921,2096921, 163670, 700487
2096921,2096921, 163675, 700504
2096921,2096921, 164079, 700354
2096921,2096921, 163684, 700600
2096921,2096921, 163516, 700518
2096921,2096921, 163548, 700275
2096921,2096921, 163648, 700235
2096921,2096921, 163717, 700379
2096921,2096921, 163485, 700459
2096921,2096921, 163539, 700294
2096921,2096921, 163692, 700362
2096921,2096921, 163874, 700644
2096921,2096921, 163739, 700327
2096921,2096921, 163736, 700481
2096921,2096921, 163701, 700103
2096921,2096921, 163419, 700080
2096921,2096921, 163575, 700413
2096921,2096921, 163576, 700684
2096921,2096921, 163741, 700706
2096921,2096921, 163461, 700449
2096921,2096921, 163397, 700621
2096921,2096921, 163748, 700437
2096921,2096921, 163964, 700518
2096921,2096921, 163786, 700829
2096921,2096921, 163770, 700740
2096921,2096921, 163795, 700825
2096921,2096921, 163976, 700477
2096921,2096921, 163845, 701241
2096921,2096921, 163714, 700930
2096921,2096921, 163855, 701239
2096921,2096921, 163997, 701023
2096921,2096921, 163887, 701207
2096921,2096921, 163766, 701230
2096921,2096921, 163865, 701437
2096921,2096921, 164127, 701492
2096921,2096921, 164101, 701705
2096921,2096921, 163992, 701773
2096921,2096921, 164102, 701679
2096921,2096921, 164229, 702031
2096921,2096921, 164084, 702161
2096921,2096921, 164087, 702193
2096921,2096921, 164149, 702144
2096921,2096921, 164151, 702297
2096921,2096921, 164340, 702344
2096921,2096921, 164198, 702181
2096921,2096921, 164540, 702574
2096921,2096921, 164311, 702185
2096921,2096921, 164234, 702489
2096921,2096921, 164469, 702772
2096921,2096921, 164170, 702749
2096921,2096921, 164365, 702802
2096921,2096921, 164390, 703045
2096921,2096921, 164348, 703173
2096921,2096921, 164152, 703548
2096921,2096921, 164308, 703222
2096921,2096921, 164317, 703181
2096921,2096921, 164334, 703306
2096921,2096921, 164180, 703309
2096921,2096921, 164579, 703262
2096921,2096921, 164547, 703327
2096921,2096921, 164517, 703484
2096921,2096921, 164253, 703923
2096921,2096921, 164747, 703638
2096921,2096921, 164789, 703988
2096921,2096921, 164975, 703713
2096921,2096921, 164722, 703735
2096921,2096921, 164915, 704023
2096921,2096921, 164698, 704087
2096921,2096921, 164540, 704386
2096921,2096921, 164484, 704266
2096921,2096921, 164872, 704135
2096921,2096921, 164563, 704249
2096921,2096921, 164797, 704180
2096921,2096921, 164637, 704463
2096921,2096921, 164789, 704764
2096921,2096921, 164676, 704567
2096921,2096921, 164612, 704500
2096921,2096921, 164772, 704742
2096921,2096921, 165007, 704920
2096921,2096921, 164431, 704819
2096921,2096921, 164640, 704743
2096921,2096921, 164492, 704671
2096921,2096921, 164833, 705025
2096921,2096921, 164777, 705212
2096921,2096921, 164844, 705283
2096921,2096921, 164874, 705442
2096921,2096921, 164688, 705204
2096921,2096921, 164857, 705583
2096921,2096921, 164782, 705590
2096921,2096921, 164922, 705607
2096921,2096921, 165105, 705587
2096921,2096921, 165014, 705488
2096921,2096921, 164906, 705468
2096921,2096921, 164731, 705678
2096921,2096921, 165156, 705948
2096921,2096921, 164977, 705778
2096921,2096921, 165301, 705911
2096921,2096921, 164809, 705971
2096921,2096921, 165056, 705984
2096921,2096921, 164853, 705722
2096921,2096921, 164973, 705845
2096921,2096921, 165018, 706057
2096921,2096921, 165284, 706231
2096921,2096921, 165308, 706330
2096921,2096921, 165219, 706317
2096921,2096921, 165260, 706426
2096921,2096921, 165114, 706498
2096921,2096921, 165424, 706380
2096921,2096921, 164960, 706216
2096921,2096921, 165000, 706508
2096921,2096921, 165175, 706628
2096921,2096921, 165321, 706670
2096921,2096921, 165617, 706585
2096921,2096921, 165055, 706902
2096921,2096921, 165360, 707112
2096921,2096921, 165205, 706973
2096921,2096921, 165229, 706673
2096921,2096921, 165251, 706763
2096921,2096921, 165080, 706819
2096921,2096921, 165257, 706957
2096921,2096921, 165059, 706880
2096921,2096921, 165358, 706843
2096921,2096921, 165538, 707088
2096921,2096921, 165447, 707333
2096921,2096921, 165371, 707249
2096921,2096921, 165301, 707421
2096921,2096921, 165487, 707057
2096921,2096921, 165310, 706968
2096921,2096921, 165191, 707396
2096921,2096921, 165358, 707115
2096921,2096921, 165367, 707398
2096921,2096921, 165345, 707447
2096921,2096921, 165480, 707644
2096921,2096921, 165567, 707709
2096921,2096921, 165298, 707332
2096921,2096921, 165480, 707321
2096921,2096921, 165464, 707348
2096921,2096921, 165423, 707635
2096921,2096921, 165653, 707657
2096921,2096921, 165455, 707545
2096921,2096921, 165372, 708063
2096921,2096921, 165492, 707914
2096921,2096921, 165647, 707742
2096921,2096921, 165618, 707941
2096921,2096921, 165550, 707949
2096921,2096921, 165484, 707943
2096921,2096921, 165847, 707820
2096921,2096921, 165260, 707847
2096921,2096921, 165477, 708259
2096921,2096921, 165646, 708087
2096921,2096921, 165713, 708128
2096921,2096921, 165852, 708384
2096921,2096921, 165406, 708334
2096921,2096921, 165409, 707857
2096921,2096921, 165509, 707950
2096921,2096921, 165411, 708173
2096921,2096921, 165343, 708352
2096921,2096921, 165551, 708040
2096921,2096921, 165568, 708319
2096921,2096921, 165546, 708343
2096921,2096921, 165830, 708524
2096921,2096921, 165767, 708321
2096921,2096921, 165662, 708484
2096921,2096921, 165643, 708077
2096921,2096921, 165470, 708412
2096921,2096921, 165459, 708557
2096921,2096921, 165564, 708327
2096921,2096921, 165668, 708147
2096921,2096921, 165878, 708241
2096921,2096921, 165885, 708029
2096921,2096921, 165398, 708307
2096921,2096921, 165461, 708708
2096921,2096921, 165487, 708734
2096921,2096921, 165705, 708395
2096921,2096921, 165813, 708394
2096921,2096921, 165478, 708349
2096921,2096921, 165615, 708665
2096921,2096921, 165714, 708330
2096921,2096921, 165608, 708290
2096921,2096921, 165782, 708614
2096921,2096921, 165501, 708465
2096921,2096921, 165839, 708699
2096921,2096921, 165821, 708657
2096921,2096921, 165951, 708774
2096921,2096921, 165856, 708457
2096921,2096921, 165850, 708420
2096921,2096921, 165481, 708614
2096921,2096921, 165557, 708574
2096921,2096921, 165528, 708664
2096921,2096921, 165618, 708588
2096921,2096921, 165637, 708965
