2096921,2096921,183470,627012,0
2096921,2096921,183476,627189,0
2096921,2096921,183525,626668,0
2096921,2096921,183377,626638,0
2096921,2096921,183253,626553,0
2096921,2096921,183319,626857,0
2096921,2096921,183294,626785,0
2096921,2096921,183004,626444,0
2096921,2096921,183083,626562,0
2096921,2096921,182850,626425,0
2096921,2096921,183078,626045,0
2096921,2096921,182937,626309,0
2096921,2096921,182805,626204,0
2096921,2096921,182843,626089,0
2096921,2096921,183041,625896,0
2096921,2096921,182986,626279,0
2096921,2096921,182986,626093,0
2096921,2096921,182820,625858,0
2096921,2096921,182644,625849,0
2096921,2096921,182717,625896,0
2096921,2096921,182763,625780,0
2096921,2096921,182890,625773,0
2096921,2096921,182753,625551,0
2096921,2096921,183046,625391,0
2096921,2096921,182773,625736,0
2096921,2096921,182557,625694,0
2096921,2096921,182632,625618,0
2096921,2096921,182815,625584,0
2096921,2096921,182561,625636,0
2096921,2096921,182438,625526,0
2096921,2096921,182512,625626,0
2096921,2096921,182641,625427,0
2096921,2096921,182495,625346,0
2096921,2096921,182400,625485,0
2096921,2096921,182619,625677,0
2096921,2096921,182848,625560,0
2096921,2096921,182758,625736,0
2096921,2096921,182517,625704,0
2096921,2096921,182417,625514,0
2096921,2096921,182494,625581,0
2096921,2096921,182359,625318,0
2096921,2096921,182430,625580,0
2096921,2096921,182612,625565,0
2096921,2096921,182542,625500,0
2096921,2096921,182698,625315,0
2096921,2096921,182684,626009,0
2096921,2096921,182688,625757,0
2096921,2096921,182669,625767,0
2096921,2096921,182575,625648,0
2096921,2096921,182612,625461,0
2096921,2096921,182472,625775,0
2096921,2096921,182580,625596,0
2096921,2096921,182918,625440,0
2096921,2096921,182511,625704,0
2096921,2096921,182495,625707,0
2096921,2096921,182734,625683,0
2096921,2096921,182996,625752,0
2096921,2096921,182870,625641,0
2096921,2096921,182576,625638,0
2096921,2096921,182854,625835,0
2096921,2096921,182848,625878,0
2096921,2096921,182574,625819,0
2096921,2096921,182793,625966,0
2096921,2096921,182886,625657,0
2096921,2096921,182953,626032,0
2096921,2096921,183042,625986,0
2096921,2096921,182865,625882,0
2096921,2096921,182998,625998,0
2096921,2096921,182798,625798,0
2096921,2096921,182887,626187,0
2096921,2096921,182905,626236,0
2096921,2096921,182958,625765,0
2096921,2096921,182990,626093,0
2096921,2096921,183029,626473,0
2096921,2096921,183071,626160,0
2096921,2096921,183222,626131,0
2096921,2096921,183056,626139,0
2096921,2096921,182879,626094,0
2096921,2096921,182955,626164,0
2096921,2096921,182802,626364,0
2096921,2096921,183038,626215,0
2096921,2096921,182640,626361,0
2096921,2096921,182880,626485,0
2096921,2096921,182915,626234,0
2096921,2096921,183097,626219,0
2096921,2096921,183156,625979,0
2096921,2096921,183165,626478,0
2096921,2096921,183339,626456,0
2096921,2096921,182906,626359,0
2096921,2096921,183122,626089,0
2096921,2096921,183076,626407,0
2096921,2096921,183057,626313,0
2096921,2096921,183314,626177,0
2096921,2096921,182975,626592,0
2096921,2096921,182817,626376,0
2096921,2096921,183105,626545,0
2096921,2096921,183359,626555,0
2096921,2096921,183232,626888,0
2096921,2096921,183231,626720,0
2096921,2096921,183280,626815,0
2096921,2096921,182962,626648,0
2096921,2096921,183016,626494,0
2096921,2096921,182903,626547,0
2096921,2096921,183364,626845,0
2096921,2096921,183303,626921,0
2096921,2096921,183381,626848,0
2096921,2096921,183461,627186,0
2096921,2096921,183306,626893,0
2096921,2096921,183304,626949,0
2096921,2096921,183392,627018,0
2096921,2096921,183406,627144,0
2096921,2096921,183313,626905,0
2096921,2096921,183548,626883,0
2096921,2096921,183581,626817,0
2096921,2096921,183291,626798,0
2096921,2096921,183296,627064,0
2096921,2096921,183526,627160,0
2096921,2096921,183645,627271,0
2096921,2096921,183468,627106,0
2096921,2096921,183447,627076,0
2096921,2096921,183595,627269,0
2096921,2096921,183613,627236,0
2096921,2096921,183602,627234,0
2096921,2096921,183773,626965,0
2096921,2096921,183485,627211,0
2096921,2096921,183717,627013,0
2096921,2096921,183613,626952,0
2096921,2096921,183660,627524,0
2096921,2096921,183467,627056,0
2096921,2096921,183668,627411,0
2096921,2096921,183585,627155,0
2096921,2096921,183774,627396,0
2096921,2096921,183873,626987,0
2096921,2096921,183640,627410,0
2096921,2096921,183517,627403,0
2096921,2096921,183802,627439,0
2096921,2096921,183481,627270,0
2096921,2096921,183645,627359,0
2096921,2096921,183780,627575,0
2096921,2096921,183534,627633,0
2096921,2096921,183509,627367,0
2096921,2096921,183457,627123,0
2096921,2096921,183774,627392,0
2096921,2096921,183623,627592,0
2096921,2096921,183741,627402,0
2096921,2096921,183941,627613,0
2096921,2096921,183583,627481,0
2096921,2096921,183619,627578,0
2096921,2096921,183638,627384,0
2096921,2096921,183593,627546,0
2096921,2096921,183543,627529,0
2096921,2096921,183367,627427,0
2096921,2096921,183277,627428,0
2096921,2096921,183498,627339,0
2096921,2096921,183567,627611,0
2096921,2096921,183649,627133,0
2096921,2096921,183596,627488,0
2096921,2096921,183534,627361,0
2096921,2096921,183503,627382,0
2096921,2096921,183634,627125,0
2096921,2096921,183306,627347,0
2096921,2096921,183479,627373,0
2096921,2096921,183431,627415,0
2096921,2096921,183793,627420,0
2096921,2096921,183673,627293,0
2096921,2096921,183843,627272,0
2096921,2096921,183432,627105,0
2096921,2096921,183432,627344,0
2096921,2096921,183568,627307,0
2096921,2096921,183576,627487,0
2096921,2096921,183684,627041,0
2096921,2096921,183960,627101,0
2096921,2096921,183172,627156,0
2096921,2096921,183411,627001,0
2096921,2096921,183514,627289,0
2096921,2096921,183713,627341,0
2096921,2096921,183451,627240,0
2096921,2096921,183515,626968,0
2096921,2096921,183448,627634,0
2096921,2096921,183515,627183,0
2096921,2096921,183325,627099,0
2096921,2096921,183414,627388,0
2096921,2096921,183173,627168,0
2096921,2096921,183511,627511,0
2096921,2096921,183533,627179,0
2096921,2096921,183476,627039,0
2096921,2096921,183344,627324,0
2096921,2096921,183379,627057,0
2096921,2096921,183501,627067,0
2096921,2096921,183332,626847,0
2096921,2096921,183402,627249,0
2096921,2096921,183451,627255,0
2096921,2096921,183590,627531,0
2096921,2096921,183478,627073,0
2096921,2096921,183637,627251,0
2096921,2096921,183749,627392,0
2096921,2096921,183493,627491,0
2096921,2096921,183322,627316,0
2096921,2096921,183650,627321,0
2096921,2096921,183399,627482,0
2096921,2096921,183623,627239,0
2096921,2096921,183725,627356,0
2096921,2096921,183777,627440,0
2096921,2096921,183732,627174,0
2096921,2096921,183856,627283,0
2096921,2096921,183668,627507,0
2096921,2096921,183564,627136,0
2096921,2096921,183829,627464,0
2096921,2096921,183687,627669,0
2096921,2096921,183533,627787,0
2096921,2096921,183583,627714,0
2096921,2096921,183661,627710,0
2096921,2096921,183545,627483,0
2096921,2096921,183820,627741,0
2096921,2096921,183792,627510,0
2096921,2096921,183743,627671,0
2096921,2096921,183694,627492,0
2096921,2096921,183610,627769,0
2096921,2096921,183685,627662,0
2096921,2096921,183704,627653,0
2096921,2096921,183688,627587,0
2096921,2096921,183589,627604,0
2096921,2096921,183737,627996,0
2096921,2096921,183586,627479,0
2096921,2096921,183825,627601,0
2096921,2096921,183917,627777,0
2096921,2096921,183612,627628,0
2096921,2096921,183965,627650,0
2096921,2096921,183942,627610,0
2096921,2096921,183696,627674,0
2096921,2096921,183610,627775,0
2096921,2096921,184083,627759,0
2096921,2096921,183975,628098,0
2096921,2096921,183861,627989,0
2096921,2096921,183914,628174,0
2096921,2096921,183863,627919,0
2096921,2096921,183786,627963,0
2096921,2096921,183911,627930,0
2096921,2096921,183622,628006,0
2096921,2096921,183857,627910,0
2096921,2096921,183694,628300,0
2096921,2096921,183794,627737,0
2096921,2096921,183856,628209,0
2096921,2096921,184151,628210,0
2096921,2096921,184149,627871,0
2096921,2096921,183999,627975,0
2096921,2096921,183729,627980,0
2096921,2096921,183777,628028,0
2096921,2096921,183684,628064,0
2096921,2096921,183816,628282,0
2096921,2096921,183988,628066,0
2096921,2096921,184046,628121,0
2096921,2096921,183865,628163,0
2096921,2096921,184042,628512,0
2096921,2096921,183928,628236,0
2096921,2096921,183795,628266,0
2096921,2096921,183879,627975,0
2096921,2096921,184072,628130,0
2096921,2096921,184245,627845,0
2096921,2096921,184015,627934,0
2096921,2096921,183879,628073,0
2096921,2096921,183773,628132,0
2096921,2096921,184030,628090,0
2096921,2096921,184162,627965,0
2096921,2096921,184224,628357,0
2096921,2096921,184089,628266,0
2096921,2096921,184152,628075,0
2096921,2096921,184206,628458,0
2096921,2096921,184058,628275,0
2096921,2096921,183968,627909,0
2096921,2096921,183971,628271,0
2096921,2096921,184195,628321,0
2096921,2096921,184024,628205,0
2096921,2096921,184128,628635,0
2096921,2096921,184173,628259,0
2096921,2096921,184147,628448,0
2096921,2096921,183979,628341,0
2096921,2096921,183942,628459,0
2096921,2096921,184010,628438,0
2096921,2096921,184234,628420,0
2096921,2096921,183988,628614,0
2096921,2096921,184172,628139,0
2096921,2096921,184259,628697,0
2096921,2096921,184349,628590,0
2096921,2096921,184132,628725,0
2096921,2096921,184259,628728,0
2096921,2096921,184019,628841,0
2096921,2096921,184392,628497,0
2096921,2096921,183996,628483,0
2096921,2096921,183972,628559,0
2096921,2096921,183905,628609,0
2096921,2096921,184433,628357,0
2096921,2096921,184024,628424,0
2096921,2096921,184228,628504,0
2096921,2096921,184450,628613,0
2096921,2096921,184219,628611,0
2096921,2096921,184191,628503,0
2096921,2096921,184210,628546,0
2096921,2096921,184249,628585,0
2096921,2096921,184030,628551,0
2096921,2096921,184058,628576,0
2096921,2096921,184218,628667,0
2096921,2096921,184381,628525,0
2096921,2096921,184338,628661,0
2096921,2096921,184670,628775,0
2096921,2096921,184176,628701,0
2096921,2096921,184545,628573,0
2096921,2096921,184392,628668,0
2096921,2096921,184327,628653,0
2096921,2096921,184425,628467,0
2096921,2096921,184123,628239,0
2096921,2096921,184156,628678,0
2096921,2096921,184499,628841,0
2096921,2096921,184508,628758,0
2096921,2096921,184582,628943,0
2096921,2096921,184235,628572,0
2096921,2096921,184166,628702,0
2096921,2096921,184535,628641,0
2096921,2096921,184372,628737,0
2096921,2096921,184298,628819,0
2096921,2096921,184322,629296,0
2096921,2096921,184286,628691,0
2096921,2096921,184305,628793,0
2096921,2096921,184425,628959,0
2096921,2096921,184271,628971,0
2096921,2096921,184510,628740,0
2096921,2096921,184530,629001,0
2096921,2096921,184587,629163,0
2096921,2096921,184227,628710,0
2096921,2096921,184210,628882,0
2096921,2096921,184196,629023,0
2096921,2096921,184622,628665,0
2096921,2096921,184538,628989,0
2096921,2096921,184545,628847,0
2096921,2096921,184365,628827,0
2096921,2096921,184537,629035,0
2096921,2096921,184353,628781,0
2096921,2096921,184172,628768,0
2096921,2096921,184436,628989,0
2096921,2096921,184128,628789,0
2096921,2096921,184304,628809,0
2096921,2096921,184402,629289,0
2096921,2096921,184267,628920,0
2096921,2096921,184464,628949,0
2096921,2096921,184613,629148,0
2096921,2096921,184462,629032,0
2096921,2096921,184521,628909,0
2096921,2096921,184353,629254,0
2096921,2096921,184259,629193,0
2096921,2096921,184200,629003,0
2096921,2096921,184133,628801,0
2096921,2096921,184319,628826,0
2096921,2096921,184656,628949,0
2096921,2096921,184464,628930,0
2096921,2096921,184437,629140,0
2096921,2096921,184500,628850,0
2096921,2096921,184477,628974,0
2096921,2096921,184372,629294,0
2096921,2096921,184400,629218,0
2096921,2096921,184305,629095,0
2096921,2096921,184353,629126,0
2096921,2096921,184489,628810,0
2096921,2096921,184473,629228,0
2096921,2096921,184595,628819,0
2096921,2096921,184617,629122,0
2096921,2096921,184705,628933,0
2096921,2096921,184430,629089,0
2096921,2096921,184591,629299,0
2096921,2096921,184456,629441,0
2096921,2096921,184402,629231,0
2096921,2096921,184403,629029,0
2096921,2096921,184421,628906,0
2096921,2096921,184538,629141,0
2096921,2096921,184311,629179,0
2096921,2096921,184492,629514,0
2096921,2096921,184537,629568,0
2096921,2096921,184604,629109,0
2096921,2096921,184782,629174,0
2096921,2096921,184595,629338,0
2096921,2096921,184525,629202,0
2096921,2096921,184456,628982,0
2096921,2096921,184646,628923,0
2096921,2096921,184441,629184,0
2096921,2096921,184569,629389,0
2096921,2096921,184571,629202,0
2096921,2096921,184679,629369,0
2096921,2096921,184569,629355,0
2096921,2096921,184398,629609,0
2096921,2096921,184492,628954,0
2096921,2096921,184618,629152,0
2096921,2096921,184500,629069,0
2096921,2096921,184474,629285,0
2096921,2096921,184516,629324,0
2096921,2096921,184326,629208,0
2096921,2096921,184780,629022,0
2096921,2096921,184769,629041,0
2096921,2096921,184536,629296,0
2096921,2096921,184418,629592,0
2096921,2096921,184691,629086,0
2096921,2096921,184514,629102,0
2096921,2096921,184511,629397,0
2096921,2096921,184678,629213,0
2096921,2096921,184430,629194,0
2096921,2096921,184608,629352,0
2096921,2096921,184592,629324,0
2096921,2096921,184904,629311,0
2096921,2096921,184454,629334,0
2096921,2096921,184653,629322,0
2096921,2096921,184311,629415,0
2096921,2096921,184442,629378,0
2096921,2096921,184187,629490,0
2096921,2096921,184665,629089,0
2096921,2096921,184533,629113,0
2096921,2096921,184640,629404,0
2096921,2096921,184663,629317,0
2096921,2096921,184651,629526,0
2096921,2096921,184534,629447,0
2096921,2096921,184566,629432,0
2096921,2096921,184930,629314,0
2096921,2096921,184545,629300,0
2096921,2096921,184527,629333,0
2096921,2096921,184574,629208,0
2096921,2096921,184465,629022,0
2096921,2096921,184584,628884,0
2096921,2096921,184593,628954,0
2096921,2096921,184702,629374,0
2096921,2096921,184578,629133,0
2096921,2096921,184460,629388,0
2096921,2096921,184536,629190,0
2096921,2096921,184347,629050,0
2096921,2096921,184664,629374,0
2096921,2096921,184554,629098,0
2096921,2096921,184844,629001,0
2096921,2096921,184721,629393,0
2096921,2096921,184449,629452,0
2096921,2096921,184510,629112,0
2096921,2096921,184539,629097,0
2096921,2096921,184521,629422,0
2096921,2096921,184635,629280,0
2096921,2096921,184653,629227,0
2096921,2096921,184654,629181,0
2096921,2096921,185056,629185,0
2096921,2096921,184667,629294,0
2096921,2096921,184582,629119,0
2096921,2096921,184832,629030,0
2096921,2096921,184834,629069,0
2096921,2096921,184772,629348,0
2096921,2096921,184672,629306,0
2096921,2096921,184455,629477,0
2096921,2096921,184329,629177,0
2096921,2096921,184182,629072,0
2096921,2096921,184301,629046,0
2096921,2096921,184561,629323,0
2096921,2096921,184791,628976,0
2096921,2096921,184463,629242,0
2096921,2096921,184457,629125,0
2096921,2096921,184633,629156,0
2096921,2096921,184348,629568,0
2096921,2096921,184344,629380,0
2096921,2096921,184591,629163,0
2096921,2096921,184642,629239,0
2096921,2096921,184131,629152,0
2096921,2096921,184425,629130,0
2096921,2096921,184193,629245,0
2096921,2096921,184123,629429,0
2096921,2096921,184503,629123,0
2096921,2096921,184653,629314,0
2096921,2096921,184624,629302,0
2096921,2096921,184450,629151,0
2096921,2096921,184446,629028,0
2096921,2096921,184479,629037,0
2096921,2096921,184440,628801,0
2096921,2096921,184455,628870,0
2096921,2096921,184533,628652,0
2096921,2096921,184403,629194,0
2096921,2096921,184184,629335,0
2096921,2096921,184348,629111,0
2096921,2096921,183994,628969,0
2096921,2096921,184167,629004,0
2096921,2096921,184179,628966,0
2096921,2096921,184379,628645,0
2096921,2096921,184330,628510,0
2096921,2096921,184226,628526,0
2096921,2096921,184299,628362,0
2096921,2096921,184352,628705,0
2096921,2096921,184272,628678,0
2096921,2096921,184010,628713,0
2096921,2096921,184030,628734,0
2096921,2096921,183837,628352,0
2096921,2096921,183911,628322,0
2096921,2096921,184123,628528,0
2096921,2096921,184100,628392,0
2096921,2096921,183807,627809,0
2096921,2096921,183869,627586,0
2096921,2096921,183836,627806,0
2096921,2096921,184014,627695,0
2096921,2096921,183889,627844,0
2096921,2096921,183573,627274,0
2096921,2096921,183423,627031,0
2096921,2096921,183441,627030,0
2096921,2096921,183320,627055,0
2096921,2096921,183595,627219,0
2096921,2096921,183456,626558,0
2096921,2096921,183155,626788,0
2096921,2096921,182843,626756,0
2096921,2096921,182986,626888,0
2096921,2096921,183075,626620,0
2096921,2096921,182744,626559,0
2096921,2096921,182934,626297,0
2096921,2096921,182939,626485,0
2096921,2096921,182940,626422,0
2096921,2096921,183238,626284,0
2096921,2096921,183067,626445,0
2096921,2096921,182837,625981,0
2096921,2096921,183024,625882,0
2096921,2096921,182749,626206,0
2096921,2096921,182799,625951,0
2096921,2096921,182859,626003,0
2096921,2096921,182683,626111,0
2096921,2096921,182798,625662,0
2096921,2096921,182730,625768,0
2096921,2096921,183044,625845,0
2096921,2096921,182797,625780,0
2096921,2096921,182739,625719,0
2096921,2096921,182837,625859,0
2096921,2096921,182741,625448,0
2096921,2096921,182508,625681,0
2096921,2096921,182747,625845,0
2096921,2096921,182370,625762,0
2096921,2096921,182517,625403,0
2096921,2096921,182447,625591,0
2096921,2096921,182417,625585,0
2096921,2096921,182603,625105,0
2096921,2096921,182629,625579,0
2096921,2096921,182743,625538,0
2096921,2096921,182848,625423,0
2096921,2096921,182658,625755,0
2096921,2096921,182713,625436,0
2096921,2096921,182604,625313,0
2096921,2096921,182537,625624,0
2096921,2096921,182854,625640,0
2096921,2096921,182553,625462,0
2096921,2096921,182583,625428,0
2096921,2096921,182231,625581,0
2096921,2096921,182464,625743,0
2096921,2096921,182714,625716,0
2096921,2096921,182732,625619,0
2096921,2096921,182854,625634,0
2096921,2096921,182529,625564,0
2096921,2096921,182912,625671,0
2096921,2096921,182770,625389,0
2096921,2096921,182477,625726,0
2096921,2096921,182503,625465,0
2096921,2096921,182700,625484,0
2096921,2096921,182769,625808,0
2096921,2096921,182598,625706,0
2096921,2096921,182660,625755,0
2096921,2096921,182916,625935,0
2096921,2096921,182959,625898,0
2096921,2096921,182596,626023,0
2096921,2096921,182753,625869,0
2096921,2096921,182787,625758,0
2096921,2096921,183100,625894,0
2096921,2096921,183050,625928,0
2096921,2096921,182902,625860,0
2096921,2096921,182623,625944,0
2096921,2096921,182624,625985,0
2096921,2096921,182880,625856,0
2096921,2096921,182720,626179,0
2096921,2096921,182860,625999,0
2096921,2096921,183110,626350,0
2096921,2096921,182865,626187,0
2096921,2096921,183004,626058,0
2096921,2096921,182951,626024,0
2096921,2096921,182853,626108,0
2096921,2096921,183218,626248,0
2096921,2096921,183060,626279,0
2096921,2096921,182639,626286,0
2096921,2096921,182594,626432,0
2096921,2096921,182885,626255,0
2096921,2096921,182886,626259,0
2096921,2096921,183115,626089,0
2096921,2096921,182979,626328,0
2096921,2096921,182987,626525,0
2096921,2096921,183211,626348,0
2096921,2096921,183219,626641,0
2096921,2096921,182995,626392,0
2096921,2096921,183132,626282,0
2096921,2096921,183217,626053,0
2096921,2096921,183122,626580,0
2096921,2096921,183059,626525,0
2096921,2096921,183129,626698,0
2096921,2096921,183031,626567,0
2096921,2096921,183059,626500,0
2096921,2096921,183201,626603,0
2096921,2096921,183338,626925,0
2096921,2096921,183109,626788,0
2096921,2096921,183156,626862,0
2096921,2096921,183204,626843,0
2096921,2096921,183256,626817,0
2096921,2096921,183202,626826,0
2096921,2096921,183311,626583,0
2096921,2096921,183599,626910,0
2096921,2096921,183497,626630,0
2096921,2096921,183368,626819,0
2096921,2096921,183151,626706,0
2096921,2096921,183297,626887,0
2096921,2096921,183307,626877,0
2096921,2096921,183558,627008,0
2096921,2096921,183586,626958,0
2096921,2096921,183207,626758,0
2096921,2096921,183240,626454,0
2096921,2096921,183323,627480,0
2096921,2096921,183322,627313,0
2096921,2096921,183668,627166,0
2096921,2096921,183919,627232,0
2096921,2096921,183686,627457,0
2096921,2096921,183311,627076,0
2096921,2096921,183163,627414,0
2096921,2096921,183316,627208,0
2096921,2096921,183144,627237,0
2096921,2096921,183650,627252,0
2096921,2096921,183563,627241,0
2096921,2096921,183568,627498,0
2096921,2096921,183674,627152,0
2096921,2096921,183457,627126,0
2096921,2096921,183432,627185,0
2096921,2096921,183458,627314,0
2096921,2096921,183552,627023,0
2096921,2096921,183132,627104,0
2096921,2096921,183518,627359,0
2096921,2096921,183399,627510,0
2096921,2096921,183713,627340,0
2096921,2096921,183449,627440,0
2096921,2096921,183743,627345,0
2096921,2096921,183494,627406,0
2096921,2096921,183692,627369,0
2096921,2096921,183776,627530,0
2096921,2096921,183476,627430,0
2096921,2096921,183510,627503,0
2096921,2096921,183760,627624,0
2096921,2096921,183307,627372,0
2096921,2096921,183262,627450,0
2096921,2096921,183671,627326,0
2096921,2096921,183484,627315,0
2096921,2096921,183663,627297,0
2096921,2096921,183562,627480,0
2096921,2096921,183576,627138,0
2096921,2096921,183231,627355,0
2096921,2096921,183560,627465,0
2096921,2096921,183534,627533,0
2096921,2096921,183739,627181,0
2096921,2096921,183623,627441,0
2096921,2096921,183783,627460,0
2096921,2096921,183764,627781,0
2096921,2096921,183638,627374,0
2096921,2096921,183547,627371,0
2096921,2096921,183604,627581,0
2096921,2096921,183502,627324,0
2096921,2096921,183329,627408,0
2096921,2096921,183705,627295,0
2096921,2096921,183552,627606,0
2096921,2096921,183416,627281,0
2096921,2096921,183821,627180,0
2096921,2096921,183211,627273,0
2096921,2096921,183428,627310,0
2096921,2096921,183339,627125,0
2096921,2096921,183552,627268,0
2096921,2096921,183347,627171,0
2096921,2096921,183582,626856,0
2096921,2096921,183690,627083,0
2096921,2096921,183645,627358,0
2096921,2096921,183529,627176,0
2096921,2096921,183432,627286,0
2096921,2096921,183396,627264,0
2096921,2096921,183436,627622,0
2096921,2096921,183617,627460,0
2096921,2096921,183635,627312,0
2096921,2096921,183377,627177,0
2096921,2096921,183573,627327,0
2096921,2096921,183609,627117,0
2096921,2096921,183705,627200,0
2096921,2096921,183524,627473,0
2096921,2096921,183353,627234,0
2096921,2096921,183744,627390,0
2096921,2096921,183324,627518,0
2096921,2096921,183292,627297,0
2096921,2096921,183579,627306,0
2096921,2096921,183192,626923,0
2096921,2096921,183501,626993,0
2096921,2096921,183640,626925,0
2096921,2096921,183587,627068,0
2096921,2096921,183570,627113,0
2096921,2096921,183565,627052,0
2096921,2096921,183595,627350,0
2096921,2096921,183448,627040,0
2096921,2096921,183510,627443,0
2096921,2096921,183537,627046,0
2096921,2096921,183532,627005,0
2096921,2096921,183587,627072,0
2096921,2096921,183507,627474,0
2096921,2096921,183499,626897,0
2096921,2096921,183397,627380,0
2096921,2096921,183709,627302,0
2096921,2096921,183749,627375,0
2096921,2096921,183694,627587,0
2096921,2096921,183795,627579,0
2096921,2096921,183525,627535,0
2096921,2096921,183466,627499,0
2096921,2096921,183504,627386,0
2096921,2096921,183548,627218,0
2096921,2096921,183634,627130,0
2096921,2096921,183434,627396,0
2096921,2096921,183714,627635,0
2096921,2096921,183658,627577,0
2096921,2096921,184053,627804,0
2096921,2096921,183689,627765,0
2096921,2096921,183673,627914,0
2096921,2096921,183656,627586,0
2096921,2096921,183653,627518,0
2096921,2096921,183630,627415,0
2096921,2096921,183764,627662,0
2096921,2096921,183877,627780,0
2096921,2096921,183782,627896,0
2096921,2096921,183892,627936,0
2096921,2096921,183820,627904,0
2096921,2096921,183810,627811,0
2096921,2096921,183578,627681,0
2096921,2096921,183806,627705,0
2096921,2096921,183754,627598,0
2096921,2096921,183854,627614,0
2096921,2096921,183819,627739,0
2096921,2096921,184225,627961,0
2096921,2096921,183941,627986,0
2096921,2096921,183759,627959,0
2096921,2096921,183785,627787,0
2096921,2096921,183917,627776,0
2096921,2096921,183784,627367,0
2096921,2096921,183814,627859,0
2096921,2096921,183897,627791,0
2096921,2096921,183770,627818,0
2096921,2096921,183978,627835,0
2096921,2096921,183734,628133,0
2096921,2096921,184083,628022,0
2096921,2096921,183621,628110,0
2096921,2096921,183961,628075,0
2096921,2096921,184058,628139,0
2096921,2096921,183908,628330,0
2096921,2096921,183820,628438,0
2096921,2096921,184005,628211,0
2096921,2096921,183843,628247,0
2096921,2096921,184107,627872,0
2096921,2096921,183967,628033,0
2096921,2096921,183975,628343,0
2096921,2096921,184126,628167,0
2096921,2096921,183866,628232,0
2096921,2096921,183790,628199,0
2096921,2096921,183892,628265,0
2096921,2096921,184156,628074,0
2096921,2096921,184162,628299,0
2096921,2096921,183944,628075,0
2096921,2096921,183849,627936,0
2096921,2096921,183856,627906,0
2096921,2096921,184106,628411,0
2096921,2096921,184124,628488,0
2096921,2096921,184152,628220,0
2096921,2096921,183954,628542,0
2096921,2096921,184079,628091,0
2096921,2096921,183894,628363,0
2096921,2096921,184071,628614,0
2096921,2096921,183907,628070,0
2096921,2096921,183957,628155,0
2096921,2096921,184192,628470,0
2096921,2096921,184129,628439,0
2096921,2096921,184161,628391,0
2096921,2096921,184027,628578,0
2096921,2096921,184195,628476,0
2096921,2096921,184183,628412,0
2096921,2096921,184278,628367,0
2096921,2096921,184177,628385,0
2096921,2096921,183961,628432,0
2096921,2096921,183833,628428,0
2096921,2096921,183984,628646,0
2096921,2096921,184060,628599,0
2096921,2096921,184366,628849,0
2096921,2096921,184008,628750,0
2096921,2096921,184230,628625,0
2096921,2096921,184170,628593,0
2096921,2096921,184061,628253,0
2096921,2096921,184245,628470,0
2096921,2096921,184113,628772,0
2096921,2096921,184065,628560,0
2096921,2096921,183996,628579,0
2096921,2096921,184348,628733,0
2096921,2096921,184129,628594,0
2096921,2096921,184146,628505,0
2096921,2096921,184321,628370,0
2096921,2096921,184163,628555,0
2096921,2096921,184327,628708,0
2096921,2096921,184149,628601,0
2096921,2096921,184229,628596,0
2096921,2096921,184140,628575,0
2096921,2096921,184268,628588,0
2096921,2096921,184319,628651,0
2096921,2096921,184272,628637,0
2096921,2096921,184263,628931,0
2096921,2096921,184278,628741,0
2096921,2096921,184194,628926,0
2096921,2096921,184075,628613,0
2096921,2096921,183989,628884,0
2096921,2096921,184116,628737,0
2096921,2096921,184151,628708,0
2096921,2096921,184089,628616,0
2096921,2096921,183984,628838,0
2096921,2096921,184162,628844,0
2096921,2096921,184079,628902,0
2096921,2096921,184561,628724,0
2096921,2096921,184587,628847,0
2096921,2096921,184061,628807,0
2096921,2096921,184136,628599,0
2096921,2096921,184193,628879,0
2096921,2096921,184184,628948,0
2096921,2096921,184409,628980,0
2096921,2096921,184156,629098,0
2096921,2096921,184164,628993,0
2096921,2096921,184351,629146,0
2096921,2096921,184211,628787,0
2096921,2096921,184384,629078,0
2096921,2096921,184214,628936,0
2096921,2096921,184217,628998,0
2096921,2096921,184355,628924,0
2096921,2096921,184493,628720,0
2096921,2096921,184357,628760,0
2096921,2096921,184317,629005,0
2096921,2096921,184135,628912,0
2096921,2096921,184419,629005,0
2096921,2096921,184442,629244,0
2096921,2096921,184439,628917,0
2096921,2096921,184449,629101,0
2096921,2096921,184400,628823,0
2096921,2096921,184322,628823,0
2096921,2096921,184412,628924,0
2096921,2096921,184355,628911,0
2096921,2096921,184211,628915,0
2096921,2096921,184460,628945,0
2096921,2096921,184358,628824,0
2096921,2096921,184479,628782,0
2096921,2096921,184788,628996,0
2096921,2096921,184501,628924,0
2096921,2096921,184492,628660,0
2096921,2096921,184292,628734,0
2096921,2096921,184298,629000,0
2096921,2096921,184570,629007,0
2096921,2096921,184673,629009,0
2096921,2096921,184485,628758,0
2096921,2096921,184367,629295,0
2096921,2096921,184496,629092,0
2096921,2096921,184519,629146,0
2096921,2096921,184611,629056,0
2096921,2096921,184781,629006,0
2096921,2096921,184255,629124,0
2096921,2096921,184475,628983,0
2096921,2096921,184511,629038,0
2096921,2096921,184389,629221,0
2096921,2096921,184670,629065,0
2096921,2096921,184625,629236,0
2096921,2096921,184548,629136,0
2096921,2096921,184538,628986,0
2096921,2096921,184633,629247,0
2096921,2096921,184218,629062,0
2096921,2096921,184447,629045,0
2096921,2096921,184510,629020,0
2096921,2096921,184543,629005,0
2096921,2096921,184361,628959,0
2096921,2096921,184472,629180,0
2096921,2096921,184404,629278,0
2096921,2096921,184796,629011,0
2096921,2096921,184733,629203,0
2096921,2096921,184441,629010,0
2096921,2096921,184488,629141,0
2096921,2096921,184498,629233,0
2096921,2096921,184366,629137,0
2096921,2096921,184550,629279,0
2096921,2096921,184635,629327,0
2096921,2096921,184539,629348,0
2096921,2096921,184411,629564,0
2096921,2096921,184464,629356,0
2096921,2096921,184490,629067,0
2096921,2096921,184346,629271,0
2096921,2096921,184534,629406,0
2096921,2096921,184515,629359,0
2096921,2096921,184318,629420,0
2096921,2096921,184588,629215,0
2096921,2096921,184613,629190,0
2096921,2096921,184536,629231,0
2096921,2096921,184515,629308,0
2096921,2096921,184396,629368,0
2096921,2096921,184451,629337,0
2096921,2096921,184572,629336,0
2096921,2096921,184400,629416,0
2096921,2096921,184624,629481,0
2096921,2096921,184755,629390,0
2096921,2096921,184650,629567,0
2096921,2096921,184179,629396,0
2096921,2096921,184454,629511,0
2096921,2096921,184459,629464,0
2096921,2096921,184259,629278,0
2096921,2096921,184411,628916,0
2096921,2096921,184703,629190,0
2096921,2096921,184690,629252,0
2096921,2096921,184538,629346,0
2096921,2096921,184621,629303,0
2096921,2096921,184343,629431,0
2096921,2096921,184611,628915,0
2096921,2096921,184725,629444,0
2096921,2096921,184920,629303,0
2096921,2096921,184459,629620,0
2096921,2096921,184876,629319,0
2096921,2096921,184709,629396,0
2096921,2096921,184825,629189,0
2096921,2096921,184735,629306,0
2096921,2096921,184597,629331,0
2096921,2096921,184770,629506,0
2096921,2096921,184571,629506,0
2096921,2096921,184300,629352,0
2096921,2096921,184686,629565,0
2096921,2096921,184536,629517,0
2096921,2096921,184787,629194,0
2096921,2096921,184619,629290,0
2096921,2096921,184701,629338,0
2096921,2096921,184379,629132,0
2096921,2096921,184616,629266,0
2096921,2096921,184440,629214,0
2096921,2096921,184382,629322,0
2096921,2096921,184731,629213,0
2096921,2096921,184572,629108,0
2096921,2096921,184652,629273,0
2096921,2096921,184481,629379,0
2096921,2096921,184523,628934,0
2096921,2096921,184621,629173,0
2096921,2096921,184878,629172,0
2096921,2096921,184680,629321,0
2096921,2096921,184835,629109,0
2096921,2096921,184466,629326,0
2096921,2096921,184753,629389,0
2096921,2096921,184517,629372,0
2096921,2096921,184715,629392,0
2096921,2096921,184411,629121,0
2096921,2096921,184570,629124,0
2096921,2096921,184694,629493,0
2096921,2096921,184631,629288,0
2096921,2096921,184526,629132,0
2096921,2096921,184491,629284,0
2096921,2096921,184496,629233,0
2096921,2096921,184335,629174,0
2096921,2096921,184492,629316,0
2096921,2096921,184434,629653,0
2096921,2096921,184629,629399,0
2096921,2096921,184302,629241,0
2096921,2096921,184542,629225,0
2096921,2096921,184654,629151,0
2096921,2096921,184477,629310,0
2096921,2096921,184670,629226,0
2096921,2096921,184530,629657,0
2096921,2096921,184635,629177,0
2096921,2096921,184708,629547,0
2096921,2096921,184528,629333,0
2096921,2096921,184503,629295,0
2096921,2096921,184464,629219,0
2096921,2096921,184399,629191,0
2096921,2096921,184553,629037,0
2096921,2096921,184525,628999,0
2096921,2096921,184490,629009,0
2096921,2096921,184297,628771,0
2096921,2096921,184500,629016,0
2096921,2096921,184642,629171,0
2096921,2096921,184845,629279,0
2096921,2096921,184474,628989,0
2096921,2096921,184283,628596,0
2096921,2096921,184490,628992,0
2096921,2096921,184458,629128,0
2096921,2096921,184317,628959,0
2096921,2096921,184469,628406,0
2096921,2096921,184619,628691,0
2096921,2096921,184356,628654,0
2096921,2096921,184264,628664,0
2096921,2096921,184218,628748,0
2096921,2096921,184127,628696,0
2096921,2096921,184139,628696,0
2096921,2096921,183993,628723,0
2096921,2096921,184091,628481,0
2096921,2096921,183974,628122,0
2096921,2096921,183863,628141,0
2096921,2096921,184012,628115,0
2096921,2096921,183714,628034,0
2096921,2096921,183921,628063,0
2096921,2096921,183968,627924,0
2096921,2096921,183581,627432,0
2096921,2096921,183124,627606,0
2096921,2096921,183327,627312,0
2096921,2096921,183331,627307,0
2096921,2096921,183504,627160,0
2096921,2096921,183215,626931,0
2096921,2096921,183157,626372,0
2096921,2096921,183157,626790,0
2096921,2096921,183031,626620,0
2096921,2096921,182991,626598,0
2096921,2096921,183077,626463,0
2096921,2096921,182760,626291,0
2096921,2096921,182698,626203,0
2096921,2096921,182650,626389,0
2096921,2096921,182957,626408,0
2096921,2096921,182657,625961,0
2096921,2096921,182688,626296,0
2096921,2096921,182886,626128,0
2096921,2096921,182811,626001,0
2096921,2096921,183170,625822,0
2096921,2096921,182702,625949,0
2096921,2096921,182611,625583,0
2096921,2096921,182574,625639,0
2096921,2096921,182470,625831,0
2096921,2096921,182742,625647,0
2096921,2096921,182873,625275,0
2096921,2096921,183019,625727,0
2096921,2096921,182811,625376,0
2096921,2096921,182735,625565,0
2096921,2096921,182672,625737,0
2096921,2096921,182438,625463,0
2096921,2096921,182600,625466,0
2096921,2096921,182643,625428,0
2096921,2096921,182480,625072,0
2096921,2096921,182586,625396,0
2096921,2096921,182807,625549,0
2096921,2096921,182731,625539,0
2096921,2096921,182633,625490,0
2096921,2096921,182599,625859,0
2096921,2096921,182706,625641,0
2096921,2096921,182566,625467,0
2096921,2096921,182679,625563,0
2096921,2096921,182564,625375,0
2096921,2096921,182152,625500,0
2096921,2096921,182510,625404,0
2096921,2096921,182603,625621,0
2096921,2096921,182981,625406,0
2096921,2096921,182804,625718,0
2096921,2096921,182513,625610,0
2096921,2096921,182412,625447,0
2096921,2096921,182791,625462,0
2096921,2096921,182570,625494,0
2096921,2096921,182549,625415,0
2096921,2096921,183018,625775,0
2096921,2096921,182726,625657,0
2096921,2096921,182825,625805,0
2096921,2096921,182766,625692,0
2096921,2096921,182732,625683,0
2096921,2096921,182678,625740,0
2096921,2096921,182665,625849,0
2096921,2096921,182930,625920,0
2096921,2096921,182752,625740,0
2096921,2096921,182570,625566,0
2096921,2096921,182900,625613,0
2096921,2096921,182877,625416,0
2096921,2096921,183050,625759,0
2096921,2096921,183200,625832,0
2096921,2096921,182919,626220,0
2096921,2096921,182865,626133,0
2096921,2096921,182609,626041,0
2096921,2096921,183077,625901,0
2096921,2096921,182799,625813,0
2096921,2096921,182812,625892,0
2096921,2096921,182698,625977,0
2096921,2096921,182986,625551,0
2096921,2096921,182722,626173,0
2096921,2096921,182622,625813,0
2096921,2096921,182586,626292,0
2096921,2096921,182897,626126,0
2096921,2096921,182847,625890,0
2096921,2096921,182722,626168,0
2096921,2096921,182811,626159,0
2096921,2096921,182740,626220,0
2096921,2096921,182836,626264,0
2096921,2096921,182754,626291,0
2096921,2096921,182952,626583,0
2096921,2096921,182947,626452,0
2096921,2096921,183477,626416,0
2096921,2096921,183093,626238,0
2096921,2096921,183179,626211,0
2096921,2096921,182945,626529,0
2096921,2096921,182986,626277,0
2096921,2096921,183032,626048,0
2096921,2096921,183341,626334,0
2096921,2096921,182919,626306,0
2096921,2096921,183006,626722,0
2096921,2096921,183331,626809,0
2096921,2096921,183141,626578,0
2096921,2096921,183311,626678,0
2096921,2096921,183312,626683,0
2096921,2096921,183119,626535,0
2096921,2096921,183355,626604,0
2096921,2096921,183339,626899,0
2096921,2096921,183012,626596,0
2096921,2096921,183068,626767,0
2096921,2096921,183452,626982,0
2096921,2096921,183252,626848,0
2096921,2096921,183285,626803,0
2096921,2096921,183238,627052,0
2096921,2096921,183447,626823,0
2096921,2096921,183383,626845,0
2096921,2096921,183428,627343,0
2096921,2096921,183323,626958,0
2096921,2096921,183307,626641,0
2096921,2096921,183276,626915,0
2096921,2096921,183200,626782,0
2096921,2096921,183493,626768,0
2096921,2096921,183320,627272,0
2096921,2096921,183323,627293,0
2096921,2096921,183221,627316,0
2096921,2096921,183370,626812,0
2096921,2096921,183504,626746,0
2096921,2096921,183163,627144,0
2096921,2096921,183190,626949,0
2096921,2096921,183486,626793,0
2096921,2096921,183237,627076,0
2096921,2096921,183623,627209,0
2096921,2096921,183566,627023,0
2096921,2096921,183678,627066,0
2096921,2096921,183741,627092,0
2096921,2096921,183603,627162,0
2096921,2096921,183511,627188,0
2096921,2096921,183539,627530,0
2096921,2096921,183332,627510,0
2096921,2096921,183521,627256,0
2096921,2096921,183638,627321,0
2096921,2096921,183610,627297,0
2096921,2096921,183682,627339,0
2096921,2096921,183706,627618,0
2096921,2096921,183675,627508,0
2096921,2096921,183562,627486,0
2096921,2096921,183835,627550,0
2096921,2096921,183361,627220,0
2096921,2096921,183718,627048,0
2096921,2096921,183429,627577,0
2096921,2096921,183803,627462,0
2096921,2096921,183839,627526,0
2096921,2096921,183815,627375,0
2096921,2096921,183522,627452,0
2096921,2096921,183750,627317,0
2096921,2096921,183536,627507,0
2096921,2096921,183771,627312,0
2096921,2096921,183480,627329,0
2096921,2096921,183456,627256,0
2096921,2096921,183411,627300,0
2096921,2096921,183254,627253,0
2096921,2096921,183740,627484,0
2096921,2096921,183775,627522,0
2096921,2096921,183538,627217,0
2096921,2096921,183774,627500,0
2096921,2096921,183708,627337,0
2096921,2096921,183546,627191,0
2096921,2096921,183504,626911,0
2096921,2096921,183494,626938,0
2096921,2096921,183424,627377,0
2096921,2096921,183458,627416,0
2096921,2096921,183414,627127,0
2096921,2096921,183321,627386,0
2096921,2096921,183649,627327,0
2096921,2096921,183439,627263,0
2096921,2096921,183373,626969,0
2096921,2096921,183289,627372,0
2096921,2096921,183302,626961,0
2096921,2096921,183395,626987,0
2096921,2096921,183232,626973,0
2096921,2096921,183419,627111,0
2096921,2096921,183689,627143,0
2096921,2096921,183471,627198,0
2096921,2096921,183460,627232,0
2096921,2096921,183767,627206,0
2096921,2096921,183514,627273,0
2096921,2096921,183222,627239,0
2096921,2096921,183327,627315,0
2096921,2096921,183450,627161,0
2096921,2096921,183261,627123,0
2096921,2096921,183436,627171,0
2096921,2096921,183385,627313,0
2096921,2096921,183398,627240,0
2096921,2096921,183370,627173,0
2096921,2096921,183534,627189,0
2096921,2096921,183560,627238,0
2096921,2096921,183612,627120,0
2096921,2096921,183594,627205,0
2096921,2096921,183682,627057,0
2096921,2096921,183361,627046,0
2096921,2096921,183494,627151,0
2096921,2096921,183356,626989,0
2096921,2096921,183243,627249,0
2096921,2096921,183543,627538,0
2096921,2096921,183376,627310,0
2096921,2096921,183529,627213,0
2096921,2096921,183643,627324,0
2096921,2096921,183341,627257,0
2096921,2096921,183123,627313,0
2096921,2096921,183543,627223,0
2096921,2096921,183761,627380,0
2096921,2096921,183629,627160,0
2096921,2096921,183520,627279,0
2096921,2096921,183346,627470,0
2096921,2096921,183536,627300,0
2096921,2096921,183761,627702,0
2096921,2096921,183471,627788,0
2096921,2096921,183375,627344,0
2096921,2096921,183620,627359,0
2096921,2096921,183518,627515,0
2096921,2096921,183667,627520,0
2096921,2096921,183735,627649,0
2096921,2096921,183619,627583,0
2096921,2096921,183683,627497,0
2096921,2096921,183852,627337,0
2096921,2096921,184012,627554,0
2096921,2096921,183804,627632,0
2096921,2096921,183924,627556,0
2096921,2096921,183878,627541,0
2096921,2096921,183824,627623,0
2096921,2096921,183799,627645,0
2096921,2096921,183815,627839,0
2096921,2096921,183718,627981,0
2096921,2096921,183852,627777,0
2096921,2096921,183538,627710,0
2096921,2096921,183761,627647,0
2096921,2096921,183476,627866,0
2096921,2096921,183662,627902,0
2096921,2096921,183957,627685,0
2096921,2096921,183563,627790,0
2096921,2096921,183726,627761,0
2096921,2096921,183794,627917,0
2096921,2096921,183853,628033,0
2096921,2096921,183634,628064,0
2096921,2096921,183936,627744,0
2096921,2096921,183897,627865,0
2096921,2096921,183805,628104,0
2096921,2096921,183739,627551,0
2096921,2096921,183687,627891,0
2096921,2096921,183764,627843,0
2096921,2096921,183751,627995,0
2096921,2096921,184004,627960,0
2096921,2096921,183677,628298,0
2096921,2096921,183852,628334,0
2096921,2096921,183757,628031,0
2096921,2096921,183963,628243,0
2096921,2096921,183985,628074,0
2096921,2096921,184060,628135,0
2096921,2096921,183959,627833,0
2096921,2096921,184049,628029,0
2096921,2096921,183954,628113,0
2096921,2096921,184185,628105,0
2096921,2096921,184117,628293,0
2096921,2096921,184041,628360,0
2096921,2096921,183643,628144,0
2096921,2096921,184203,628066,0
2096921,2096921,183884,628203,0
2096921,2096921,183880,628246,0
2096921,2096921,183610,628093,0
2096921,2096921,184105,628367,0
2096921,2096921,184233,628236,0
2096921,2096921,183891,628160,0
2096921,2096921,184124,628121,0
2096921,2096921,183994,628618,0
2096921,2096921,184030,628166,0
2096921,2096921,183967,628161,0
2096921,2096921,184292,628266,0
2096921,2096921,184118,628293,0
2096921,2096921,184149,628439,0
2096921,2096921,184190,628198,0
2096921,2096921,183843,628730,0
2096921,2096921,183942,628637,0
2096921,2096921,183999,628336,0
2096921,2096921,184101,628559,0
2096921,2096921,184110,628419,0
2096921,2096921,183957,628428,0
2096921,2096921,184066,628129,0
2096921,2096921,184079,628160,0
2096921,2096921,184315,628298,0
2096921,2096921,184439,628212,0
2096921,2096921,184300,628750,0
2096921,2096921,184021,628486,0
2096921,2096921,184070,628529,0
2096921,2096921,184217,628570,0
2096921,2096921,184070,628714,0
2096921,2096921,184136,628525,0
2096921,2096921,183933,628836,0
2096921,2096921,184300,628658,0
2096921,2096921,184211,628583,0
2096921,2096921,184503,628580,0
2096921,2096921,184153,628712,0
2096921,2096921,184255,628431,0
2096921,2096921,184310,628826,0
2096921,2096921,184081,628612,0
2096921,2096921,184248,628799,0
2096921,2096921,184071,628906,0
2096921,2096921,184045,628883,0
2096921,2096921,183990,628710,0
2096921,2096921,184240,628450,0
2096921,2096921,184020,628286,0
2096921,2096921,184194,628562,0
2096921,2096921,184659,628884,0
2096921,2096921,184411,628774,0
2096921,2096921,184199,628933,0
2096921,2096921,184260,628612,0
2096921,2096921,184312,628996,0
2096921,2096921,184468,628861,0
2096921,2096921,184362,628766,0
2096921,2096921,184248,628759,0
2096921,2096921,184084,628556,0
2096921,2096921,184488,628762,0
2096921,2096921,184377,628682,0
2096921,2096921,184212,628523,0
2096921,2096921,184487,628940,0
2096921,2096921,184324,628661,0
2096921,2096921,184219,629142,0
2096921,2096921,184589,628897,0
2096921,2096921,184543,628976,0
2096921,2096921,184269,628476,0
2096921,2096921,184149,628789,0
2096921,2096921,184191,628967,0
2096921,2096921,184384,628886,0
2096921,2096921,184619,629241,0
2096921,2096921,184387,629122,0
2096921,2096921,184108,628966,0
2096921,2096921,184215,628938,0
2096921,2096921,184503,628834,0
2096921,2096921,184216,628759,0
2096921,2096921,184576,629022,0
2096921,2096921,184586,628960,0
2096921,2096921,184296,629113,0
2096921,2096921,184637,629202,0
2096921,2096921,184385,629381,0
2096921,2096921,184541,628906,0
2096921,2096921,184302,628886,0
2096921,2096921,184432,628988,0
2096921,2096921,184203,628984,0
2096921,2096921,184503,628746,0
2096921,2096921,184257,628930,0
2096921,2096921,184481,628779,0
2096921,2096921,184689,628919,0
2096921,2096921,184527,629213,0
2096921,2096921,184535,629026,0
2096921,2096921,184749,629399,0
2096921,2096921,184757,629056,0
2096921,2096921,184520,628779,0
2096921,2096921,184377,628875,0
2096921,2096921,184522,629240,0
2096921,2096921,184531,629077,0
2096921,2096921,184544,628685,0
2096921,2096921,184446,629045,0
2096921,2096921,184266,629284,0
2096921,2096921,184765,629142,0
2096921,2096921,184589,628919,0
2096921,2096921,184545,628891,0
2096921,2096921,184740,629038,0
2096921,2096921,184721,629147,0
2096921,2096921,184396,629138,0
2096921,2096921,184515,629217,0
2096921,2096921,184398,629300,0
2096921,2096921,184436,629109,0
2096921,2096921,184924,628951,0
2096921,2096921,184558,629293,0
2096921,2096921,184556,629164,0
2096921,2096921,184591,629384,0
2096921,2096921,184334,629020,0
2096921,2096921,184373,629068,0
2096921,2096921,184660,629202,0
2096921,2096921,184630,629323,0
2096921,2096921,184655,629292,0
2096921,2096921,184578,629550,0
2096921,2096921,184480,629464,0
2096921,2096921,184651,629659,0
2096921,2096921,184601,629401,0
2096921,2096921,184596,629321,0
2096921,2096921,184345,629104,0
2096921,2096921,184383,629137,0
2096921,2096921,184738,628881,0
2096921,2096921,184563,629258,0
2096921,2096921,184315,629452,0
2096921,2096921,184774,629539,0
2096921,2096921,184814,629646,0
2096921,2096921,184846,629238,0
2096921,2096921,184472,629633,0
2096921,2096921,184327,629314,0
2096921,2096921,184562,629194,0
2096921,2096921,184134,629202,0
2096921,2096921,184311,629164,0
2096921,2096921,184430,628981,0
2096921,2096921,184616,629131,0
2096921,2096921,184673,628898,0
2096921,2096921,184608,629072,0
2096921,2096921,184335,629413,0
2096921,2096921,184479,629123,0
2096921,2096921,184778,629021,0
2096921,2096921,184326,629283,0
2096921,2096921,184420,629064,0
2096921,2096921,184463,629277,0
2096921,2096921,184708,629355,0
2096921,2096921,184408,629103,0
2096921,2096921,184769,629163,0
2096921,2096921,184886,629296,0
2096921,2096921,184715,629387,0
2096921,2096921,184528,629664,0
2096921,2096921,184493,629390,0
2096921,2096921,184572,629243,0
2096921,2096921,184701,629115,0
2096921,2096921,184848,629143,0
2096921,2096921,184685,629223,0
2096921,2096921,184787,629437,0
2096921,2096921,184756,629355,0
2096921,2096921,184488,629203,0
2096921,2096921,184721,629175,0
2096921,2096921,184626,629306,0
2096921,2096921,184536,629142,0
2096921,2096921,184569,629225,0
2096921,2096921,184448,629435,0
2096921,2096921,184563,629410,0
2096921,2096921,184596,629174,0
2096921,2096921,184613,629024,0
2096921,2096921,184539,629342,0
2096921,2096921,184702,629308,0
2096921,2096921,184681,629282,0
2096921,2096921,185017,629322,0
2096921,2096921,184786,629382,0
2096921,2096921,184720,629337,0
2096921,2096921,184733,629207,0
2096921,2096921,184129,629080,0
2096921,2096921,184583,629035,0
2096921,2096921,184800,629284,0
2096921,2096921,184635,629213,0
2096921,2096921,184779,629269,0
2096921,2096921,184797,629399,0
2096921,2096921,184846,629527,0
2096921,2096921,184420,629284,0
2096921,2096921,184642,629141,0
2096921,2096921,184670,629143,0
2096921,2096921,184736,628916,0
2096921,2096921,184531,629221,0
2096921,2096921,184477,629206,0
2096921,2096921,184848,629335,0
2096921,2096921,184760,629132,0
2096921,2096921,184669,629114,0
2096921,2096921,184640,629379,0
2096921,2096921,184571,629253,0
2096921,2096921,184412,629258,0
2096921,2096921,184795,629325,0
2096921,2096921,184635,629279,0
2096921,2096921,184321,629221,0
2096921,2096921,184790,628925,0
2096921,2096921,184968,629196,0
2096921,2096921,184403,628937,0
2096921,2096921,184828,629320,0
2096921,2096921,184822,629174,0
2096921,2096921,184707,629067,0
2096921,2096921,184253,628791,0
2096921,2096921,184599,629252,0
2096921,2096921,184418,628950,0
2096921,2096921,184466,629095,0
2096921,2096921,184817,629351,0
2096921,2096921,184589,629306,0
2096921,2096921,184818,629444,0
2096921,2096921,184839,629499,0
2096921,2096921,184937,629431,0
2096921,2096921,184916,629272,0
2096921,2096921,184362,629133,0
2096921,2096921,184570,629103,0
2096921,2096921,184631,629334,0
2096921,2096921,184592,629247,0
2096921,2096921,184353,628915,0
2096921,2096921,184479,628815,0
2096921,2096921,184588,629128,0
2096921,2096921,184520,628972,0
2096921,2096921,184388,629113,0
2096921,2096921,184414,629186,0
2096921,2096921,184404,629005,0
2096921,2096921,184364,628807,0
2096921,2096921,184292,629017,0
2096921,2096921,184375,628902,0
2096921,2096921,184221,628798,0
2096921,2096921,184380,628836,0
2096921,2096921,184417,628807,0
2096921,2096921,184415,628281,0
2096921,2096921,184272,628756,0
2096921,2096921,184625,628656,0
2096921,2096921,184332,628418,0
2096921,2096921,184295,628594,0
2096921,2096921,183763,628604,0
2096921,2096921,183912,628378,0
2096921,2096921,184181,628115,0
2096921,2096921,184088,628010,0
2096921,2096921,183700,627579,0
2096921,2096921,183951,627979,0
2096921,2096921,184102,627814,0
2096921,2096921,184081,627941,0
2096921,2096921,183772,627493,0
2096921,2096921,183399,627238,0
2096921,2096921,183424,627191,0
2096921,2096921,183525,627044,0
2096921,2096921,183398,627093,0
2096921,2096921,183043,626674,0
2096921,2096921,183469,626862,0
2096921,2096921,183357,626686,0
2096921,2096921,183487,626722,0
2096921,2096921,183210,626651,0
2096921,2096921,182921,626458,0
2096921,2096921,182972,626309,0
2096921,2096921,182903,626369,0
2096921,2096921,182838,626466,0
2096921,2096921,183016,626253,0
2096921,2096921,182866,626063,0
2096921,2096921,183077,625730,0
2096921,2096921,182835,625912,0
2096921,2096921,182946,626277,0
2096921,2096921,182923,626173,0
2096921,2096921,182698,625846,0
2096921,2096921,182817,625818,0
2096921,2096921,182837,625994,0
2096921,2096921,182734,625767,0
2096921,2096921,182906,625835,0
2096921,2096921,182736,625681,0
2096921,2096921,182645,625495,0
2096921,2096921,182872,625686,0
2096921,2096921,182957,625696,0
2096921,2096921,182718,625736,0
2096921,2096921,182677,625711,0
2096921,2096921,182842,625699,0
2096921,2096921,182458,625291,0
2096921,2096921,182529,625477,0
2096921,2096921,182754,625425,0
2096921,2096921,182748,625436,0
2096921,2096921,182894,625451,0
2096921,2096921,182649,625483,0
2096921,2096921,182592,625469,0
2096921,2096921,182517,625659,0
2096921,2096921,182672,625974,0
2096921,2096921,182502,625631,0
2096921,2096921,182456,625338,0
2096921,2096921,182556,625665,0
2096921,2096921,182526,625753,0
2096921,2096921,182600,625606,0
2096921,2096921,182742,625597,0
2096921,2096921,182695,625639,0
2096921,2096921,182715,625748,0
2096921,2096921,182952,625677,0
2096921,2096921,182777,625884,0
2096921,2096921,182825,625560,0
2096921,2096921,182883,625879,0
2096921,2096921,182688,625690,0
2096921,2096921,182745,625512,0
2096921,2096921,182843,625565,0
2096921,2096921,182814,625450,0
2096921,2096921,183114,625739,0
2096921,2096921,182865,625772,0
2096921,2096921,182599,625452,0
2096921,2096921,182879,625670,0
2096921,2096921,182740,625819,0
2096921,2096921,182393,625893,0
2096921,2096921,182625,625742,0
2096921,2096921,182898,625718,0
2096921,2096921,182916,625718,0
2096921,2096921,182821,625785,0
2096921,2096921,182955,626067,0
2096921,2096921,182747,626215,0
2096921,2096921,182911,626094,0
2096921,2096921,182833,625925,0
2096921,2096921,182861,626152,0
2096921,2096921,182767,626077,0
2096921,2096921,182962,626262,0
2096921,2096921,182599,626035,0
2096921,2096921,182537,625819,0
2096921,2096921,182876,626253,0
2096921,2096921,182985,626201,0
2096921,2096921,183010,626133,0
2096921,2096921,183375,626262,0
2096921,2096921,183275,626202,0
2096921,2096921,182878,626151,0
2096921,2096921,183077,626553,0
2096921,2096921,183172,626407,0
2096921,2096921,183053,626003,0
2096921,2096921,183069,626454,0
2096921,2096921,182774,626345,0
2096921,2096921,183285,626406,0
2096921,2096921,183099,626527,0
2096921,2096921,182858,626446,0
2096921,2096921,183082,626529,0
2096921,2096921,183124,626718,0
2096921,2096921,183176,626479,0
2096921,2096921,182935,626542,0
2096921,2096921,183018,626464,0
2096921,2096921,182924,626631,0
2096921,2096921,183087,626702,0
2096921,2096921,183226,626275,0
2096921,2096921,183427,626706,0
2096921,2096921,183261,626832,0
2096921,2096921,183050,626739,0
2096921,2096921,183265,626659,0
2096921,2096921,183115,626745,0
2096921,2096921,183418,626818,0
2096921,2096921,183464,626729,0
2096921,2096921,183524,627014,0
2096921,2096921,183208,627071,0
2096921,2096921,183134,627223,0
2096921,2096921,183175,626995,0
2096921,2096921,183010,626925,0
2096921,2096921,183160,627181,0
2096921,2096921,183464,626973,0
2096921,2096921,183381,627039,0
2096921,2096921,183438,627116,0
2096921,2096921,183416,626995,0
2096921,2096921,183223,627211,0
2096921,2096921,183539,627241,0
2096921,2096921,183522,627170,0
2096921,2096921,183300,626978,0
2096921,2096921,183463,627110,0
2096921,2096921,183694,627117,0
2096921,2096921,183522,627180,0
2096921,2096921,183662,627293,0
2096921,2096921,183516,627327,0
2096921,2096921,183628,627231,0
2096921,2096921,183823,627681,0
2096921,2096921,183379,627593,0
2096921,2096921,183520,627483,0
2096921,2096921,183637,627481,0
2096921,2096921,183377,627577,0
2096921,2096921,183433,627350,0
2096921,2096921,183458,627446,0
2096921,2096921,183902,627310,0
2096921,2096921,183496,627125,0
2096921,2096921,183514,627770,0
2096921,2096921,183604,627861,0
2096921,2096921,183637,627399,0
2096921,2096921,183595,627419,0
2096921,2096921,183754,627344,0
2096921,2096921,183612,627226,0
2096921,2096921,183681,627272,0
2096921,2096921,183468,627541,0
2096921,2096921,183399,627430,0
2096921,2096921,183581,627541,0
2096921,2096921,183551,627494,0
2096921,2096921,183576,627450,0
2096921,2096921,183429,627530,0
2096921,2096921,183559,627511,0
2096921,2096921,183709,627570,0
2096921,2096921,183645,627484,0
2096921,2096921,183723,627617,0
2096921,2096921,183667,627174,0
2096921,2096921,183630,627423,0
2096921,2096921,183580,627311,0
2096921,2096921,183514,627620,0
2096921,2096921,183786,627433,0
2096921,2096921,183666,627749,0
2096921,2096921,183834,627361,0
2096921,2096921,183758,627261,0
2096921,2096921,183891,627555,0
2096921,2096921,183225,627536,0
2096921,2096921,183417,627249,0
2096921,2096921,183547,627382,0
2096921,2096921,183786,627546,0
2096921,2096921,183798,627320,0
2096921,2096921,183737,627512,0
2096921,2096921,183654,627453,0
2096921,2096921,183602,627732,0
2096921,2096921,183682,627306,0
2096921,2096921,183646,627373,0
2096921,2096921,183224,627033,0
2096921,2096921,183274,627379,0
2096921,2096921,183134,627383,0
2096921,2096921,183227,627394,0
2096921,2096921,183289,627112,0
2096921,2096921,183464,627229,0
2096921,2096921,183535,627160,0
2096921,2096921,183575,627208,0
2096921,2096921,183586,627089,0
2096921,2096921,183672,627098,0
2096921,2096921,183699,627393,0
2096921,2096921,183247,627409,0
2096921,2096921,183586,627463,0
2096921,2096921,183755,627418,0
2096921,2096921,183576,627072,0
2096921,2096921,183526,626984,0
2096921,2096921,183650,627363,0
2096921,2096921,183645,627425,0
2096921,2096921,183569,627241,0
2096921,2096921,183308,627103,0
2096921,2096921,183438,627170,0
2096921,2096921,183635,627228,0
2096921,2096921,183543,627194,0
2096921,2096921,183452,626825,0
2096921,2096921,183283,627237,0
2096921,2096921,183669,627442,0
2096921,2096921,183683,627075,0
2096921,2096921,183675,627348,0
2096921,2096921,183355,627348,0
2096921,2096921,183581,627280,0
2096921,2096921,183663,627336,0
2096921,2096921,183703,627313,0
2096921,2096921,183504,627206,0
2096921,2096921,183829,627181,0
2096921,2096921,183672,627207,0
2096921,2096921,183564,627257,0
2096921,2096921,183732,627423,0
2096921,2096921,183733,627588,0
2096921,2096921,183764,627524,0
2096921,2096921,183742,627232,0
2096921,2096921,183746,627534,0
2096921,2096921,183347,627727,0
2096921,2096921,183468,627454,0
2096921,2096921,183653,627593,0
2096921,2096921,183742,627535,0
2096921,2096921,183601,627398,0
2096921,2096921,183772,627837,0
2096921,2096921,183721,627501,0
2096921,2096921,183769,627767,0
2096921,2096921,183803,627600,0
2096921,2096921,183802,627845,0
2096921,2096921,183707,627714,0
2096921,2096921,183719,627859,0
2096921,2096921,183594,627659,0
2096921,2096921,183711,627922,0
2096921,2096921,184081,627739,0
2096921,2096921,183822,627753,0
2096921,2096921,183852,627654,0
2096921,2096921,183790,627803,0
2096921,2096921,183742,627657,0
2096921,2096921,183545,627961,0
2096921,2096921,183649,627925,0
2096921,2096921,183687,627926,0
2096921,2096921,183787,627817,0
2096921,2096921,183697,628153,0
2096921,2096921,183649,627787,0
2096921,2096921,183732,627615,0
2096921,2096921,183808,628152,0
2096921,2096921,183978,627971,0
2096921,2096921,183908,627947,0
2096921,2096921,183822,627659,0
2096921,2096921,183802,627618,0
2096921,2096921,183685,627803,0
2096921,2096921,183726,628216,0
2096921,2096921,183891,627930,0
2096921,2096921,183939,627962,0
2096921,2096921,183889,628044,0
2096921,2096921,184259,628071,0
2096921,2096921,184053,628085,0
2096921,2096921,183916,628197,0
2096921,2096921,183758,627990,0
2096921,2096921,183706,628179,0
2096921,2096921,184008,628203,0
2096921,2096921,183971,628245,0
2096921,2096921,184124,627943,0
2096921,2096921,184037,628203,0
2096921,2096921,183924,628160,0
2096921,2096921,183861,628191,0
2096921,2096921,184106,628416,0
2096921,2096921,183854,628006,0
2096921,2096921,183846,628121,0
2096921,2096921,183917,628144,0
2096921,2096921,184080,628007,0
2096921,2096921,183713,628201,0
2096921,2096921,183960,628322,0
2096921,2096921,183827,628455,0
2096921,2096921,184008,628390,0
2096921,2096921,183986,628265,0
2096921,2096921,184231,628601,0
2096921,2096921,184109,628155,0
2096921,2096921,183957,628378,0
2096921,2096921,184090,628166,0
2096921,2096921,184056,628271,0
2096921,2096921,184036,628517,0
2096921,2096921,183874,628199,0
2096921,2096921,184265,628441,0
2096921,2096921,184039,628612,0
2096921,2096921,183994,628541,0
2096921,2096921,184201,628516,0
2096921,2096921,184011,628566,0
2096921,2096921,183912,628300,0
2096921,2096921,184162,628398,0
2096921,2096921,184113,628560,0
2096921,2096921,184266,628399,0
2096921,2096921,183906,628573,0
2096921,2096921,184294,628839,0
2096921,2096921,184255,628612,0
2096921,2096921,184517,628675,0
2096921,2096921,184293,628799,0
2096921,2096921,184070,628473,0
2096921,2096921,184353,628368,0
2096921,2096921,184092,628771,0
2096921,2096921,183987,628636,0
2096921,2096921,183989,628531,0
2096921,2096921,184338,628382,0
2096921,2096921,184553,628796,0
2096921,2096921,184593,628453,0
2096921,2096921,184214,628843,0
2096921,2096921,184341,628767,0
2096921,2096921,184098,628921,0
2096921,2096921,184338,628847,0
2096921,2096921,184316,628390,0
2096921,2096921,184268,628573,0
2096921,2096921,184254,628935,0
2096921,2096921,184157,628653,0
2096921,2096921,184373,628760,0
2096921,2096921,184347,628767,0
2096921,2096921,184250,628868,0
2096921,2096921,184394,628533,0
2096921,2096921,184738,628839,0
2096921,2096921,184464,628900,0
2096921,2096921,184381,628697,0
2096921,2096921,184312,628542,0
2096921,2096921,184309,628551,0
2096921,2096921,184392,628773,0
2096921,2096921,184543,628880,0
2096921,2096921,184442,628863,0
2096921,2096921,184327,628969,0
2096921,2096921,184536,629068,0
2096921,2096921,184425,628757,0
2096921,2096921,184294,628775,0
2096921,2096921,184620,629112,0
2096921,2096921,184369,629119,0
2096921,2096921,184435,628984,0
2096921,2096921,184402,628729,0
2096921,2096921,184333,628910,0
2096921,2096921,184448,628873,0
2096921,2096921,184449,629174,0
2096921,2096921,184314,629149,0
2096921,2096921,184553,629086,0
2096921,2096921,184484,629262,0
2096921,2096921,184259,629126,0
2096921,2096921,184307,628845,0
2096921,2096921,184551,629251,0
2096921,2096921,184509,629174,0
2096921,2096921,184396,628938,0
2096921,2096921,184395,628856,0
2096921,2096921,184223,628974,0
2096921,2096921,184144,629009,0
2096921,2096921,184426,629420,0
2096921,2096921,184420,628986,0
2096921,2096921,184322,628923,0
2096921,2096921,184502,628849,0
2096921,2096921,184575,628865,0
2096921,2096921,184859,628723,0
2096921,2096921,184602,629155,0
2096921,2096921,184467,629115,0
2096921,2096921,184582,629109,0
2096921,2096921,184981,629343,0
2096921,2096921,184633,629151,0
2096921,2096921,184592,628878,0
2096921,2096921,184641,628912,0
2096921,2096921,184416,628784,0
2096921,2096921,184198,628877,0
2096921,2096921,184351,629122,0
2096921,2096921,184454,629082,0
2096921,2096921,184481,629199,0
2096921,2096921,184582,629036,0
2096921,2096921,184416,629117,0
2096921,2096921,184622,629312,0
2096921,2096921,184508,629241,0
2096921,2096921,184441,628787,0
2096921,2096921,184122,628962,0
2096921,2096921,184535,629007,0
2096921,2096921,184316,629469,0
2096921,2096921,184350,629230,0
2096921,2096921,184203,629471,0
2096921,2096921,184642,629109,0
2096921,2096921,184391,629313,0
2096921,2096921,184592,629286,0
2096921,2096921,184573,629069,0
2096921,2096921,184638,629170,0
2096921,2096921,184362,629130,0
2096921,2096921,184456,629201,0
2096921,2096921,184510,629026,0
2096921,2096921,184403,629321,0
2096921,2096921,184563,628858,0
2096921,2096921,184568,628891,0
2096921,2096921,184501,629424,0
2096921,2096921,184539,629179,0
2096921,2096921,184783,629381,0
2096921,2096921,184555,629399,0
2096921,2096921,184384,629660,0
2096921,2096921,184538,629223,0
2096921,2096921,184709,629084,0
2096921,2096921,184328,629012,0
2096921,2096921,184562,629245,0
2096921,2096921,184677,629347,0
2096921,2096921,184539,629378,0
2096921,2096921,184485,629227,0
2096921,2096921,184334,629249,0
2096921,2096921,184562,629108,0
2096921,2096921,184613,629091,0
2096921,2096921,184433,629138,0
2096921,2096921,184623,629111,0
2096921,2096921,184505,629112,0
2096921,2096921,184895,629469,0
2096921,2096921,184737,629248,0
2096921,2096921,184630,629395,0
2096921,2096921,184265,629353,0
2096921,2096921,184123,629441,0
2096921,2096921,184465,629244,0
2096921,2096921,184569,629253,0
2096921,2096921,184492,629209,0
2096921,2096921,184521,629490,0
2096921,2096921,184641,629098,0
2096921,2096921,184465,629082,0
2096921,2096921,184790,629324,0
2096921,2096921,184375,629314,0
2096921,2096921,184429,629428,0
2096921,2096921,184620,629223,0
2096921,2096921,184425,629265,0
2096921,2096921,184620,629092,0
2096921,2096921,184400,629133,0
2096921,2096921,184459,629343,0
2096921,2096921,184525,629424,0
2096921,2096921,184681,629232,0
2096921,2096921,184565,629467,0
2096921,2096921,184653,629282,0
2096921,2096921,184543,629442,0
2096921,2096921,184571,629426,0
2096921,2096921,184678,629328,0
2096921,2096921,184582,629085,0
2096921,2096921,184694,629389,0
2096921,2096921,184568,629177,0
2096921,2096921,184773,629194,0
2096921,2096921,184519,629490,0
2096921,2096921,184403,629406,0
2096921,2096921,184502,629475,0
2096921,2096921,184417,629323,0
2096921,2096921,184450,629371,0
2096921,2096921,184726,629514,0
2096921,2096921,184760,629244,0
2096921,2096921,184589,629068,0
2096921,2096921,184415,629118,0
2096921,2096921,184339,628947,0
2096921,2096921,184544,629558,0
2096921,2096921,184706,629337,0
2096921,2096921,184718,629115,0
2096921,2096921,184845,629388,0
2096921,2096921,184474,629374,0
2096921,2096921,184601,629198,0
2096921,2096921,184575,629285,0
2096921,2096921,184592,629343,0
2096921,2096921,184416,629245,0
2096921,2096921,184610,629410,0
2096921,2096921,184760,629331,0
2096921,2096921,184755,629405,0
2096921,2096921,184824,629517,0
2096921,2096921,184650,629704,0
2096921,2096921,184398,629167,0
2096921,2096921,184804,629449,0
2096921,2096921,184356,629487,0
2096921,2096921,184694,629657,0
2096921,2096921,184647,629388,0
2096921,2096921,184740,629162,0
2096921,2096921,184912,629261,0
2096921,2096921,184506,629467,0
2096921,2096921,184620,629427,0
2096921,2096921,184589,629379,0
2096921,2096921,184614,629341,0
2096921,2096921,184599,629538,0
2096921,2096921,184539,629599,0
2096921,2096921,184758,629430,0
2096921,2096921,184503,629013,0
2096921,2096921,184539,629069,0
2096921,2096921,184757,629241,0
2096921,2096921,184620,629667,0
2096921,2096921,184727,629397,0
2096921,2096921,184620,629393,0
2096921,2096921,184543,629187,0
2096921,2096921,184338,629217,0
2096921,2096921,184655,629155,0
2096921,2096921,184293,629226,0
2096921,2096921,184326,629190,0
2096921,2096921,184382,629328,0
2096921,2096921,184453,628783,0
2096921,2096921,184560,628795,0
2096921,2096921,184526,629104,0
2096921,2096921,184634,629030,0
2096921,2096921,184650,628929,0
2096921,2096921,184169,629038,0
2096921,2096921,184213,628758,0
2096921,2096921,184066,628977,0
2096921,2096921,184532,628904,0
2096921,2096921,184141,628482,0
2096921,2096921,184265,628389,0
2096921,2096921,184370,628838,0
2096921,2096921,184281,628489,0
2096921,2096921,184129,628630,0
2096921,2096921,184346,628354,0
2096921,2096921,184194,628431,0
2096921,2096921,184026,628351,0
2096921,2096921,184247,628416,0
2096921,2096921,184235,628458,0
2096921,2096921,183698,628028,0
2096921,2096921,183873,627820,0
2096921,2096921,183841,628098,0
2096921,2096921,183708,627791,0
2096921,2096921,183892,627927,0
2096921,2096921,183422,627410,0
2096921,2096921,183332,627273,0
2096921,2096921,183025,627094,0
2096921,2096921,183066,627285,0
2096921,2096921,183046,627052,0
2096921,2096921,183083,626760,0
2096921,2096921,183300,626846,0
2096921,2096921,182952,626821,0
2096921,2096921,183190,626668,0
2096921,2096921,182939,626489,0
2096921,2096921,182949,626331,0
2096921,2096921,182890,626013,0
2096921,2096921,182887,626315,0
2096921,2096921,183050,626095,0
2096921,2096921,183160,626078,0
2096921,2096921,182839,626027,0
2096921,2096921,182839,626017,0
2096921,2096921,182998,626118,0
2096921,2096921,182969,626290,0
2096921,2096921,182835,626126,0
2096921,2096921,182815,625662,0
2096921,2096921,182745,625871,0
2096921,2096921,182705,625798,0
2096921,2096921,182690,625609,0
2096921,2096921,182702,625982,0
2096921,2096921,182615,625812,0
2096921,2096921,182689,625403,0
2096921,2096921,182555,625664,0
2096921,2096921,182553,625637,0
2096921,2096921,182621,625666,0
2096921,2096921,182579,625572,0
2096921,2096921,182724,625803,0
2096921,2096921,182597,625462,0
2096921,2096921,182833,625791,0
2096921,2096921,182702,625562,0
2096921,2096921,182725,625708,0
2096921,2096921,182461,625609,0
2096921,2096921,182441,625613,0
2096921,2096921,182515,625720,0
2096921,2096921,182667,625845,0
2096921,2096921,182961,625796,0
2096921,2096921,182494,625820,0
2096921,2096921,182557,625391,0
2096921,2096921,182846,625553,0
2096921,2096921,182860,625336,0
2096921,2096921,182701,625682,0
2096921,2096921,182680,625600,0
2096921,2096921,182761,625781,0
2096921,2096921,182692,625633,0
2096921,2096921,182742,625708,0
2096921,2096921,182596,625605,0
2096921,2096921,182739,625651,0
2096921,2096921,182529,625718,0
2096921,2096921,182574,625497,0
2096921,2096921,182726,625563,0
2096921,2096921,182866,625748,0
2096921,2096921,182604,625667,0
2096921,2096921,182781,625426,0
2096921,2096921,182749,625479,0
2096921,2096921,182700,625451,0
2096921,2096921,182235,625252,0
2096921,2096921,182735,625672,0
2096921,2096921,182796,625855,0
2096921,2096921,182968,625904,0
2096921,2096921,182758,626026,0
2096921,2096921,182947,626007,0
2096921,2096921,183068,626012,0
2096921,2096921,182929,625926,0
2096921,2096921,182778,625897,0
2096921,2096921,182564,626129,0
2096921,2096921,182753,626216,0
2096921,2096921,182843,626324,0
2096921,2096921,182494,625968,0
2096921,2096921,182716,626219,0
2096921,2096921,182798,626006,0
2096921,2096921,183133,626190,0
2096921,2096921,182777,626307,0
2096921,2096921,182850,626189,0
2096921,2096921,182780,626177,0
2096921,2096921,182722,626404,0
2096921,2096921,183078,626310,0
2096921,2096921,183100,626247,0
2096921,2096921,183080,626427,0
2096921,2096921,182989,626333,0
2096921,2096921,182804,626305,0
2096921,2096921,183074,626430,0
2096921,2096921,183039,626461,0
2096921,2096921,183053,626640,0
2096921,2096921,182764,626360,0
2096921,2096921,182997,626504,0
2096921,2096921,183097,626258,0
2096921,2096921,182950,626293,0
2096921,2096921,182907,626296,0
2096921,2096921,183095,626443,0
2096921,2096921,183089,626413,0
2096921,2096921,182962,626563,0
2096921,2096921,183159,626509,0
2096921,2096921,183032,626537,0
2096921,2096921,183097,626496,0
2096921,2096921,183236,626733,0
2096921,2096921,183128,626563,0
2096921,2096921,183418,626575,0
2096921,2096921,183291,626546,0
2096921,2096921,183323,626686,0
2096921,2096921,183205,626834,0
2096921,2096921,183197,626865,0
2096921,2096921,183452,627005,0
2096921,2096921,183560,626928,0
2096921,2096921,182953,626642,0
2096921,2096921,183149,626890,0
2096921,2096921,183544,627039,0
2096921,2096921,183068,626984,0
2096921,2096921,183060,627264,0
2096921,2096921,183440,627406,0
2096921,2096921,183566,627049,0
2096921,2096921,183650,626791,0
2096921,2096921,183458,627414,0
2096921,2096921,183461,627213,0
2096921,2096921,183122,627136,0
2096921,2096921,183365,627210,0
2096921,2096921,183291,627348,0
2096921,2096921,183393,627081,0
2096921,2096921,183486,626996,0
2096921,2096921,183444,627178,0
2096921,2096921,183483,626961,0
2096921,2096921,183504,627392,0
2096921,2096921,183399,627569,0
2096921,2096921,183375,627349,0
2096921,2096921,183609,627321,0
2096921,2096921,183698,627565,0
2096921,2096921,183473,627356,0
2096921,2096921,183720,627366,0
2096921,2096921,183491,627175,0
2096921,2096921,183672,627260,0
2096921,2096921,183583,627439,0
2096921,2096921,183577,627386,0
2096921,2096921,183678,627401,0
2096921,2096921,183849,627417,0
2096921,2096921,183627,627349,0
2096921,2096921,183442,627356,0
2096921,2096921,183715,627408,0
2096921,2096921,183179,627219,0
2096921,2096921,183580,627193,0
2096921,2096921,183428,627565,0
2096921,2096921,183599,627536,0
2096921,2096921,183850,627270,0
2096921,2096921,183482,627521,0
2096921,2096921,183431,627663,0
2096921,2096921,183478,627487,0
2096921,2096921,183873,627614,0
2096921,2096921,183553,627332,0
2096921,2096921,183323,627321,0
2096921,2096921,183581,627218,0
2096921,2096921,183457,627526,0
2096921,2096921,183515,627356,0
2096921,2096921,183443,626982,0
2096921,2096921,183226,627510,0
2096921,2096921,183544,627136,0
2096921,2096921,183470,627244,0
2096921,2096921,183500,627240,0
2096921,2096921,183521,627065,0
2096921,2096921,183655,627204,0
2096921,2096921,183415,627377,0
2096921,2096921,183360,627392,0
2096921,2096921,183547,627209,0
2096921,2096921,183664,627326,0
2096921,2096921,183712,627289,0
2096921,2096921,183628,627433,0
2096921,2096921,183395,627264,0
2096921,2096921,183384,627198,0
2096921,2096921,183451,627035,0
2096921,2096921,183390,627383,0
2096921,2096921,183526,627152,0
2096921,2096921,183417,627163,0
2096921,2096921,183368,626967,0
2096921,2096921,183394,627210,0
2096921,2096921,183802,627195,0
2096921,2096921,183376,627180,0
2096921,2096921,183549,627193,0
2096921,2096921,183483,627171,0
2096921,2096921,183349,627075,0
2096921,2096921,183470,627289,0
2096921,2096921,183517,627154,0
2096921,2096921,183664,627154,0
2096921,2096921,183440,627126,0
2096921,2096921,183863,627194,0
2096921,2096921,183452,627336,0
2096921,2096921,183458,627464,0
2096921,2096921,183646,627442,0
2096921,2096921,183370,627197,0
2096921,2096921,183287,627271,0
2096921,2096921,183532,627420,0
2096921,2096921,183597,627151,0
2096921,2096921,183187,627027,0
2096921,2096921,183496,627078,0
2096921,2096921,183482,627439,0
2096921,2096921,183612,627469,0
2096921,2096921,183639,627149,0
2096921,2096921,183417,627505,0
2096921,2096921,183376,627194,0
2096921,2096921,183503,627428,0
2096921,2096921,183576,627501,0
2096921,2096921,183526,627291,0
2096921,2096921,183634,627138,0
2096921,2096921,183390,627158,0
2096921,2096921,183544,627414,0
2096921,2096921,183238,627354,0
2096921,2096921,183729,627274,0
2096921,2096921,183861,627130,0
2096921,2096921,183886,627414,0
2096921,2096921,183563,627357,0
2096921,2096921,183460,627560,0
2096921,2096921,183663,627519,0
2096921,2096921,183592,627533,0
2096921,2096921,183692,627315,0
2096921,2096921,183773,627389,0
2096921,2096921,183601,627423,0
2096921,2096921,183444,627460,0
2096921,2096921,183913,627740,0
2096921,2096921,183573,627531,0
2096921,2096921,183563,627275,0
2096921,2096921,183575,627630,0
2096921,2096921,183593,627422,0
2096921,2096921,183805,627317,0
2096921,2096921,183754,627196,0
2096921,2096921,183717,627705,0
2096921,2096921,183912,627719,0
2096921,2096921,183935,627727,0
2096921,2096921,183867,628034,0
2096921,2096921,184016,628076,0
2096921,2096921,183934,627671,0
2096921,2096921,183612,627729,0
2096921,2096921,184014,627615,0
2096921,2096921,183852,627634,0
2096921,2096921,183829,627866,0
2096921,2096921,183972,627771,0
2096921,2096921,183958,627816,0
2096921,2096921,183761,627759,0
2096921,2096921,183498,627845,0
2096921,2096921,183697,627873,0
2096921,2096921,183628,627729,0
2096921,2096921,183709,627683,0
2096921,2096921,183802,627597,0
2096921,2096921,183776,627661,0
2096921,2096921,183818,627865,0
2096921,2096921,183984,627978,0
2096921,2096921,184091,628010,0
2096921,2096921,184055,627873,0
2096921,2096921,184128,628230,0
2096921,2096921,184058,628067,0
2096921,2096921,183961,628156,0
2096921,2096921,184149,627972,0
2096921,2096921,183958,627958,0
2096921,2096921,183988,627866,0
2096921,2096921,183869,627999,0
2096921,2096921,183913,628315,0
2096921,2096921,184060,628391,0
2096921,2096921,184261,628307,0
2096921,2096921,184053,628390,0
2096921,2096921,184088,628200,0
2096921,2096921,184040,628187,0
2096921,2096921,183773,628299,0
2096921,2096921,183913,628338,0
2096921,2096921,183999,628148,0
2096921,2096921,183891,628150,0
2096921,2096921,184146,628063,0
2096921,2096921,184073,628302,0
2096921,2096921,184088,628169,0
2096921,2096921,184130,628222,0
2096921,2096921,184013,628231,0
2096921,2096921,184062,628208,0
2096921,2096921,184131,628159,0
2096921,2096921,184114,628270,0
2096921,2096921,183947,628208,0
2096921,2096921,183815,628346,0
2096921,2096921,184220,628354,0
2096921,2096921,183902,628384,0
2096921,2096921,184227,628340,0
2096921,2096921,184244,628518,0
2096921,2096921,183715,628556,0
2096921,2096921,183871,628421,0
2096921,2096921,184100,628416,0
2096921,2096921,183766,628361,0
2096921,2096921,183947,628282,0
2096921,2096921,183921,628534,0
2096921,2096921,184057,628403,0
2096921,2096921,184130,628173,0
2096921,2096921,184403,628587,0
2096921,2096921,184304,628639,0
2096921,2096921,184346,628416,0
2096921,2096921,183925,628320,0
2096921,2096921,183845,628431,0
2096921,2096921,184124,628344,0
2096921,2096921,184242,628508,0
2096921,2096921,184258,628416,0
2096921,2096921,184508,628805,0
2096921,2096921,184344,628772,0
2096921,2096921,184336,628903,0
2096921,2096921,184233,628709,0
2096921,2096921,184318,628843,0
2096921,2096921,184195,628614,0
2096921,2096921,184130,628693,0
2096921,2096921,184417,628509,0
2096921,2096921,183986,628492,0
2096921,2096921,184166,628671,0
2096921,2096921,184180,628580,0
2096921,2096921,184136,628355,0
2096921,2096921,184193,628400,0
2096921,2096921,184405,628849,0
2096921,2096921,184087,628620,0
2096921,2096921,184530,628627,0
2096921,2096921,183904,628788,0
2096921,2096921,184168,628815,0
2096921,2096921,184439,628658,0
2096921,2096921,184423,628771,0
2096921,2096921,184472,628862,0
2096921,2096921,184503,628997,0
2096921,2096921,184469,628875,0
2096921,2096921,184282,628850,0
2096921,2096921,184347,628679,0
2096921,2096921,184388,628812,0
2096921,2096921,184152,629006,0
2096921,2096921,184146,628809,0
2096921,2096921,184169,628923,0
2096921,2096921,184055,629311,0
2096921,2096921,184284,628877,0
2096921,2096921,184578,628779,0
2096921,2096921,184472,629147,0
2096921,2096921,184284,628838,0
2096921,2096921,184583,629011,0
2096921,2096921,184318,628963,0
2096921,2096921,184186,628995,0
2096921,2096921,184266,629039,0
2096921,2096921,184417,628864,0
2096921,2096921,184390,628843,0
2096921,2096921,184621,629028,0
2096921,2096921,184728,629117,0
2096921,2096921,184224,629184,0
2096921,2096921,184515,629149,0
2096921,2096921,184508,629054,0
2096921,2096921,184625,628631,0
2096921,2096921,184282,628909,0
2096921,2096921,184254,628916,0
2096921,2096921,184249,628885,0
2096921,2096921,184434,628802,0
2096921,2096921,184334,628900,0
2096921,2096921,184620,629062,0
2096921,2096921,184341,628713,0
2096921,2096921,184229,629160,0
2096921,2096921,184560,629190,0
2096921,2096921,184443,628909,0
2096921,2096921,184150,629014,0
2096921,2096921,184119,629031,0
2096921,2096921,184349,628929,0
2096921,2096921,184416,628945,0
2096921,2096921,184510,628774,0
2096921,2096921,184733,628989,0
2096921,2096921,184592,629013,0
2096921,2096921,184468,629209,0
2096921,2096921,184434,629162,0
2096921,2096921,184466,629111,0
2096921,2096921,184539,629061,0
2096921,2096921,184831,628927,0
2096921,2096921,184358,629075,0
2096921,2096921,184540,629386,0
2096921,2096921,184275,629055,0
2096921,2096921,184233,629084,0
2096921,2096921,184425,629205,0
2096921,2096921,184412,629255,0
2096921,2096921,184516,629237,0
2096921,2096921,184330,628985,0
2096921,2096921,184726,629186,0
2096921,2096921,184440,628981,0
2096921,2096921,184552,628959,0
2096921,2096921,184238,629489,0
2096921,2096921,184584,629221,0
2096921,2096921,184607,629188,0
2096921,2096921,184532,628981,0
2096921,2096921,184380,628868,0
2096921,2096921,184763,629148,0
2096921,2096921,184501,629001,0
2096921,2096921,184352,628931,0
2096921,2096921,184417,629180,0
2096921,2096921,184497,629199,0
2096921,2096921,184383,629333,0
2096921,2096921,184496,629331,0
2096921,2096921,184440,629224,0
2096921,2096921,184469,629097,0
2096921,2096921,184619,629203,0
2096921,2096921,184331,629455,0
2096921,2096921,184640,629152,0
2096921,2096921,184370,628902,0
2096921,2096921,184494,629201,0
2096921,2096921,184199,629494,0
2096921,2096921,184339,629130,0
2096921,2096921,184470,629376,0
2096921,2096921,184401,629232,0
2096921,2096921,184306,629213,0
2096921,2096921,184465,629372,0
2096921,2096921,184458,629174,0
2096921,2096921,184535,629047,0
2096921,2096921,184446,629111,0
2096921,2096921,184436,629119,0
2096921,2096921,184636,629038,0
2096921,2096921,184531,629226,0
2096921,2096921,184536,629276,0
2096921,2096921,184525,629409,0
2096921,2096921,184779,629398,0
2096921,2096921,184477,629158,0
2096921,2096921,184521,629343,0
2096921,2096921,184597,629319,0
2096921,2096921,184563,628883,0
2096921,2096921,184318,629402,0
2096921,2096921,184538,629337,0
2096921,2096921,184367,629050,0
2096921,2096921,184865,629164,0
2096921,2096921,184623,629357,0
2096921,2096921,184746,629454,0
2096921,2096921,184479,629265,0
2096921,2096921,184670,629449,0
2096921,2096921,184745,629147,0
2096921,2096921,184623,629255,0
2096921,2096921,184271,629165,0
2096921,2096921,184487,629064,0
2096921,2096921,184356,629199,0
2096921,2096921,184472,629193,0
2096921,2096921,184657,629286,0
2096921,2096921,184451,629261,0
2096921,2096921,184655,629118,0
2096921,2096921,184621,629538,0
2096921,2096921,184357,629148,0
2096921,2096921,184330,629071,0
2096921,2096921,184485,629254,0
2096921,2096921,184446,629129,0
2096921,2096921,184701,629418,0
2096921,2096921,184652,629333,0
2096921,2096921,184619,629395,0
2096921,2096921,184450,629651,0
2096921,2096921,184520,629238,0
2096921,2096921,184527,629430,0
2096921,2096921,184503,629333,0
2096921,2096921,184466,629379,0
2096921,2096921,184507,629358,0
2096921,2096921,184618,629224,0
2096921,2096921,184269,629419,0
2096921,2096921,184599,629210,0
2096921,2096921,184565,629499,0
2096921,2096921,184735,629399,0
2096921,2096921,184506,629284,0
2096921,2096921,184396,629089,0
2096921,2096921,184690,629180,0
2096921,2096921,184506,628904,0
2096921,2096921,184355,629084,0
2096921,2096921,184423,629409,0
2096921,2096921,184370,629329,0
2096921,2096921,184475,628938,0
2096921,2096921,184549,629241,0
2096921,2096921,184605,629271,0
2096921,2096921,184401,629351,0
2096921,2096921,184545,629291,0
2096921,2096921,184146,629115,0
2096921,2096921,184542,629148,0
2096921,2096921,184320,629099,0
2096921,2096921,184630,629122,0
2096921,2096921,184542,629146,0
2096921,2096921,184578,629513,0
2096921,2096921,184663,629247,0
2096921,2096921,184719,629162,0
2096921,2096921,184652,629343,0
2096921,2096921,184322,629326,0
2096921,2096921,184412,629250,0
2096921,2096921,184356,629432,0
2096921,2096921,184454,629408,0
2096921,2096921,184647,629247,0
2096921,2096921,184438,629482,0
2096921,2096921,184194,629105,0
2096921,2096921,184654,629037,0
2096921,2096921,184378,629354,0
2096921,2096921,184815,629352,0
2096921,2096921,184480,629344,0
2096921,2096921,184442,628909,0
2096921,2096921,184460,629028,0
2096921,2096921,184643,628962,0
2096921,2096921,184363,628946,0
2096921,2096921,184268,628783,0
2096921,2096921,184301,628883,0
2096921,2096921,184142,629034,0
2096921,2096921,184176,628511,0
2096921,2096921,184583,628625,0
2096921,2096921,184224,628814,0
2096921,2096921,184149,628338,0
2096921,2096921,184094,628579,0
2096921,2096921,184046,628628,0
2096921,2096921,184053,628454,0
2096921,2096921,184189,628563,0
2096921,2096921,183819,628100,0
2096921,2096921,183587,627868,0
2096921,2096921,184008,627856,0
2096921,2096921,183928,627957,0
2096921,2096921,183576,627875,0
2096921,2096921,183709,627198,0
2096921,2096921,183778,627282,0
2096921,2096921,183554,627263,0
2096921,2096921,183535,626995,0
2096921,2096921,183752,627111,0
2096921,2096921,183391,626882,0
2096921,2096921,183275,626786,0
2096921,2096921,183297,626866,0
2096921,2096921,182919,626771,0
2096921,2096921,183103,626673,0
2096921,2096921,182930,626256,0
2096921,2096921,183001,626521,0
2096921,2096921,183123,626150,0
2096921,2096921,183141,626244,0
2096921,2096921,182965,626326,0
2096921,2096921,182944,626178,0
2096921,2096921,183254,625985,0
2096921,2096921,182712,626097,0
2096921,2096921,182991,625973,0
2096921,2096921,183095,626077,0
2096921,2096921,182851,625951,0
2096921,2096921,182804,625549,0
2096921,2096921,182929,625711,0
2096921,2096921,182809,625703,0
2096921,2096921,182970,625835,0
2096921,2096921,182924,625867,0
2096921,2096921,182837,625841,0
2096921,2096921,182573,625666,0
2096921,2096921,182732,625887,0
2096921,2096921,182585,625808,0
2096921,2096921,182458,625690,0
2096921,2096921,182718,625586,0
2096921,2096921,182481,626045,0
2096921,2096921,182563,625440,0
2096921,2096921,182604,625652,0
2096921,2096921,182709,625775,0
2096921,2096921,182664,625693,0
2096921,2096921,182725,625624,0
2096921,2096921,182668,625685,0
2096921,2096921,182665,625457,0
2096921,2096921,182428,625307,0
2096921,2096921,182787,625591,0
2096921,2096921,182824,625425,0
2096921,2096921,182661,625623,0
2096921,2096921,182837,625705,0
2096921,2096921,182600,625413,0
2096921,2096921,182775,625671,0
2096921,2096921,182726,625798,0
2096921,2096921,182740,625761,0
2096921,2096921,182843,625897,0
2096921,2096921,182817,625805,0
2096921,2096921,182519,625490,0
2096921,2096921,182768,625559,0
2096921,2096921,182531,625619,0
2096921,2096921,182548,625664,0
2096921,2096921,182577,625838,0
2096921,2096921,182576,626052,0
2096921,2096921,182728,625937,0
2096921,2096921,182856,625734,0
2096921,2096921,182545,625820,0
2096921,2096921,182850,625986,0
2096921,2096921,182591,625662,0
2096921,2096921,183015,626026,0
2096921,2096921,182867,626095,0
2096921,2096921,182923,625867,0
2096921,2096921,182893,625941,0
2096921,2096921,182822,626101,0
2096921,2096921,182767,626010,0
2096921,2096921,182825,625925,0
2096921,2096921,182944,625846,0
2096921,2096921,182923,625943,0
2096921,2096921,182856,626084,0
2096921,2096921,183089,625943,0
2096921,2096921,183022,625998,0
2096921,2096921,182919,626334,0
2096921,2096921,182798,626352,0
2096921,2096921,183261,626252,0
2096921,2096921,183210,626179,0
2096921,2096921,182861,626255,0
2096921,2096921,182950,626016,0
2096921,2096921,182914,626281,0
2096921,2096921,182875,626104,0
2096921,2096921,182877,626122,0
2096921,2096921,183260,626125,0
2096921,2096921,183000,626339,0
2096921,2096921,183213,626177,0
2096921,2096921,183202,626733,0
2096921,2096921,183198,626645,0
2096921,2096921,182991,626525,0
2096921,2096921,183122,626606,0
2096921,2096921,182905,626512,0
2096921,2096921,183180,626074,0
2096921,2096921,183183,626235,0
2096921,2096921,183211,626432,0
2096921,2096921,183251,626528,0
2096921,2096921,183235,626911,0
2096921,2096921,183054,626486,0
2096921,2096921,183050,626658,0
2096921,2096921,183124,626538,0
2096921,2096921,182821,626592,0
2096921,2096921,183090,626565,0
2096921,2096921,183059,626679,0
2096921,2096921,183253,626698,0
2096921,2096921,183036,626424,0
2096921,2096921,183111,626745,0
2096921,2096921,183089,626870,0
2096921,2096921,183729,626951,0
2096921,2096921,183480,627083,0
2096921,2096921,183190,626887,0
2096921,2096921,183376,626906,0
2096921,2096921,183631,627072,0
2096921,2096921,183531,626976,0
2096921,2096921,183261,626689,0
2096921,2096921,183328,626885,0
2096921,2096921,183333,626776,0
2096921,2096921,183313,626949,0
2096921,2096921,183583,627071,0
2096921,2096921,183614,627077,0
2096921,2096921,183627,627167,0
2096921,2096921,183618,626984,0
2096921,2096921,183291,626934,0
2096921,2096921,183366,626957,0
2096921,2096921,183193,626968,0
2096921,2096921,183134,626965,0
2096921,2096921,183450,627424,0
2096921,2096921,183782,627425,0
2096921,2096921,183545,627058,0
2096921,2096921,183828,627379,0
2096921,2096921,183756,627450,0
2096921,2096921,183426,627107,0
2096921,2096921,183263,627141,0
2096921,2096921,183364,627264,0
2096921,2096921,183463,627239,0
2096921,2096921,183498,627297,0
2096921,2096921,183528,627333,0
2096921,2096921,183600,627496,0
2096921,2096921,183731,627527,0
2096921,2096921,183525,627604,0
2096921,2096921,183542,627393,0
2096921,2096921,183600,627314,0
2096921,2096921,183541,627419,0
2096921,2096921,183648,627482,0
2096921,2096921,183584,627215,0
2096921,2096921,183378,627092,0
2096921,2096921,183714,627471,0
2096921,2096921,183657,627459,0
2096921,2096921,183842,627501,0
2096921,2096921,183697,627431,0
2096921,2096921,183643,627775,0
2096921,2096921,183281,627373,0
2096921,2096921,183731,627264,0
2096921,2096921,183670,627413,0
2096921,2096921,183475,627378,0
2096921,2096921,183494,627235,0
2096921,2096921,183854,627666,0
2096921,2096921,183528,627532,0
2096921,2096921,183749,627548,0
2096921,2096921,184057,627587,0
2096921,2096921,183594,627512,0
2096921,2096921,183576,627359,0
2096921,2096921,183498,627327,0
2096921,2096921,183498,627328,0
2096921,2096921,183429,627402,0
2096921,2096921,183610,627225,0
2096921,2096921,183760,627342,0
2096921,2096921,183791,627408,0
2096921,2096921,183734,627441,0
2096921,2096921,183542,627487,0
2096921,2096921,183651,627269,0
2096921,2096921,183940,627473,0
2096921,2096921,183559,627315,0
2096921,2096921,183725,627024,0
2096921,2096921,183624,627280,0
2096921,2096921,183717,627389,0
2096921,2096921,183249,627269,0
2096921,2096921,183561,627366,0
2096921,2096921,183543,627200,0
2096921,2096921,183411,627535,0
2096921,2096921,183599,627332,0
2096921,2096921,183358,627563,0
2096921,2096921,183520,627280,0
2096921,2096921,183336,627501,0
2096921,2096921,183500,627214,0
2096921,2096921,183344,627507,0
2096921,2096921,183373,627160,0
2096921,2096921,183211,627249,0
2096921,2096921,183492,627316,0
2096921,2096921,183585,627483,0
2096921,2096921,183889,627317,0
2096921,2096921,183378,627427,0
2096921,2096921,183566,627212,0
2096921,2096921,183468,627236,0
2096921,2096921,183508,627184,0
2096921,2096921,183788,627234,0
2096921,2096921,183889,627245,0
2096921,2096921,183661,627490,0
2096921,2096921,183973,627400,0
2096921,2096921,183687,627272,0
2096921,2096921,183648,627102,0
2096921,2096921,183548,627347,0
2096921,2096921,183514,627235,0
2096921,2096921,183567,627320,0
2096921,2096921,183449,627440,0
2096921,2096921,183234,627393,0
2096921,2096921,183322,627255,0
2096921,2096921,183433,627362,0
2096921,2096921,183680,627419,0
2096921,2096921,183767,627367,0
2096921,2096921,183588,627681,0
2096921,2096921,183739,627741,0
2096921,2096921,183517,627699,0
2096921,2096921,183682,627533,0
2096921,2096921,183560,627706,0
2096921,2096921,183743,627634,0
2096921,2096921,183738,627590,0
2096921,2096921,183645,627494,0
2096921,2096921,183833,627331,0
2096921,2096921,183688,627642,0
2096921,2096921,183637,627241,0
2096921,2096921,183751,627177,0
2096921,2096921,183801,627837,0
2096921,2096921,183673,627705,0
2096921,2096921,183661,627395,0
2096921,2096921,183832,627515,0
2096921,2096921,183635,627420,0
2096921,2096921,183878,627566,0
2096921,2096921,183984,627878,0
2096921,2096921,183724,627902,0
2096921,2096921,184013,627883,0
2096921,2096921,183681,627843,0
2096921,2096921,184038,627623,0
2096921,2096921,183622,627468,0
2096921,2096921,183663,627716,0
2096921,2096921,183620,627732,0
2096921,2096921,183861,627810,0
2096921,2096921,184099,627851,0
2096921,2096921,183986,628132,0
2096921,2096921,183926,627669,0
2096921,2096921,183899,628091,0
2096921,2096921,183833,627731,0
2096921,2096921,183831,627976,0
2096921,2096921,183690,627889,0
2096921,2096921,183755,627969,0
2096921,2096921,184010,627792,0
2096921,2096921,184244,628127,0
2096921,2096921,183865,628092,0
2096921,2096921,183909,627746,0
2096921,2096921,183889,627969,0
2096921,2096921,183850,627989,0
2096921,2096921,184132,627948,0
2096921,2096921,184335,628235,0
2096921,2096921,183931,628149,0
2096921,2096921,184089,628115,0
2096921,2096921,184078,627989,0
2096921,2096921,183920,628033,0
2096921,2096921,184201,628164,0
2096921,2096921,184049,628174,0
2096921,2096921,184281,628459,0
2096921,2096921,184077,628420,0
2096921,2096921,184151,628422,0
2096921,2096921,183997,628319,0
2096921,2096921,183902,628402,0
2096921,2096921,184050,628160,0
2096921,2096921,183893,628101,0
2096921,2096921,184042,628064,0
2096921,2096921,184113,628419,0
2096921,2096921,184101,628217,0
2096921,2096921,184095,628474,0
2096921,2096921,183826,628430,0
2096921,2096921,183809,628340,0
2096921,2096921,183994,628357,0
2096921,2096921,184177,628550,0
2096921,2096921,183942,628271,0
2096921,2096921,183817,628000,0
2096921,2096921,183956,628629,0
2096921,2096921,183958,628318,0
2096921,2096921,184259,628201,0
2096921,2096921,184281,628315,0
2096921,2096921,184116,628431,0
2096921,2096921,184195,628282,0
2096921,2096921,184023,628575,0
2096921,2096921,184124,628330,0
2096921,2096921,183989,628461,0
2096921,2096921,183953,628539,0
2096921,2096921,184237,628281,0
2096921,2096921,184253,628550,0
2096921,2096921,184043,628585,0
2096921,2096921,184472,628732,0
2096921,2096921,184380,628616,0
2096921,2096921,184364,628600,0
2096921,2096921,184051,628775,0
2096921,2096921,184252,628716,0
2096921,2096921,183942,628843,0
2096921,2096921,183956,628418,0
2096921,2096921,183901,628477,0
2096921,2096921,184225,628712,0
2096921,2096921,184297,628507,0
2096921,2096921,184289,628595,0
2096921,2096921,184569,628737,0
2096921,2096921,184089,628844,0
2096921,2096921,184248,628498,0
2096921,2096921,184235,628597,0
2096921,2096921,184121,628711,0
2096921,2096921,184435,628824,0
2096921,2096921,184312,628699,0
2096921,2096921,184265,628930,0
2096921,2096921,184378,628790,0
2096921,2096921,184577,628915,0
2096921,2096921,184401,628673,0
2096921,2096921,184405,628771,0
2096921,2096921,184415,628368,0
2096921,2096921,184174,628611,0
2096921,2096921,184518,628543,0
2096921,2096921,184225,628909,0
2096921,2096921,184010,628885,0
2096921,2096921,184148,628762,0
2096921,2096921,184433,628983,0
2096921,2096921,184409,628802,0
2096921,2096921,184409,628480,0
2096921,2096921,184258,628797,0
2096921,2096921,184150,628801,0
2096921,2096921,184113,628667,0
2096921,2096921,184124,628978,0
2096921,2096921,184473,628879,0
2096921,2096921,184112,628955,0
2096921,2096921,184420,629010,0
2096921,2096921,184278,629063,0
2096921,2096921,184391,628907,0
2096921,2096921,184264,628971,0
2096921,2096921,184071,628919,0
2096921,2096921,184250,628791,0
2096921,2096921,184569,628971,0
2096921,2096921,184407,629210,0
2096921,2096921,184483,629060,0
2096921,2096921,184131,628821,0
2096921,2096921,184406,628960,0
2096921,2096921,184350,628955,0
2096921,2096921,184356,628995,0
2096921,2096921,184336,629078,0
2096921,2096921,184160,628909,0
2096921,2096921,184277,628975,0
2096921,2096921,184441,628927,0
2096921,2096921,184456,628994,0
2096921,2096921,184558,629071,0
2096921,2096921,184328,628890,0
2096921,2096921,184396,628927,0
2096921,2096921,184488,629091,0
2096921,2096921,184483,628889,0
2096921,2096921,184448,628766,0
2096921,2096921,184405,629104,0
2096921,2096921,184692,628706,0
2096921,2096921,184590,628677,0
2096921,2096921,184464,628709,0
2096921,2096921,184458,628959,0
2096921,2096921,184534,629039,0
2096921,2096921,184309,629051,0
2096921,2096921,184374,629046,0
2096921,2096921,184379,629148,0
2096921,2096921,184578,629011,0
2096921,2096921,184271,629074,0
2096921,2096921,184364,628903,0
2096921,2096921,184332,629266,0
2096921,2096921,184596,628926,0
2096921,2096921,184501,629015,0
2096921,2096921,184576,629111,0
2096921,2096921,184419,629043,0
2096921,2096921,184758,629177,0
2096921,2096921,184709,629129,0
2096921,2096921,184333,629330,0
2096921,2096921,184429,629019,0
2096921,2096921,184531,629181,0
2096921,2096921,184489,629152,0
2096921,2096921,184351,629114,0
2096921,2096921,184580,629192,0
2096921,2096921,184420,629267,0
2096921,2096921,184658,629151,0
2096921,2096921,184575,629338,0
2096921,2096921,184335,629290,0
2096921,2096921,184338,628969,0
2096921,2096921,184484,629292,0
2096921,2096921,184460,629495,0
2096921,2096921,184431,629258,0
2096921,2096921,184643,629282,0
2096921,2096921,184388,629258,0
2096921,2096921,184779,629169,0
2096921,2096921,184551,629254,0
2096921,2096921,184697,629069,0
2096921,2096921,184675,629217,0
2096921,2096921,184617,629191,0
2096921,2096921,184570,629024,0
2096921,2096921,184605,628938,0
2096921,2096921,184553,629007,0
2096921,2096921,184455,629045,0
2096921,2096921,184480,629416,0
2096921,2096921,184558,629325,0
2096921,2096921,184600,629273,0
2096921,2096921,184636,629214,0
2096921,2096921,184738,629443,0
2096921,2096921,184378,629193,0
2096921,2096921,184574,629033,0
2096921,2096921,184557,629140,0
2096921,2096921,184358,629320,0
2096921,2096921,184327,629201,0
2096921,2096921,184373,629318,0
2096921,2096921,184419,629488,0
2096921,2096921,184749,629259,0
2096921,2096921,184576,629360,0
2096921,2096921,184551,628985,0
2096921,2096921,184576,629159,0
2096921,2096921,184371,629041,0
2096921,2096921,184662,629182,0
2096921,2096921,184501,629303,0
2096921,2096921,184633,629290,0
2096921,2096921,184572,629482,0
2096921,2096921,184673,629496,0
2096921,2096921,184804,629436,0
2096921,2096921,184651,629508,0
2096921,2096921,185079,629347,0
2096921,2096921,184881,629362,0
2096921,2096921,184572,629328,0
2096921,2096921,184489,629343,0
2096921,2096921,184665,629260,0
2096921,2096921,184457,629339,0
2096921,2096921,184416,629447,0
2096921,2096921,184562,629249,0
2096921,2096921,184531,629107,0
2096921,2096921,184562,629390,0
2096921,2096921,184729,629447,0
2096921,2096921,184687,629004,0
2096921,2096921,184523,629304,0
2096921,2096921,184505,629012,0
2096921,2096921,184679,629173,0
2096921,2096921,184594,629325,0
2096921,2096921,184646,629183,0
2096921,2096921,184742,629354,0
2096921,2096921,184500,629561,0
2096921,2096921,184414,629549,0
2096921,2096921,184867,629381,0
2096921,2096921,184595,629358,0
2096921,2096921,184552,629156,0
2096921,2096921,184640,629184,0
2096921,2096921,184477,629200,0
2096921,2096921,184392,629526,0
2096921,2096921,184345,629661,0
2096921,2096921,184822,629360,0
2096921,2096921,184526,629441,0
2096921,2096921,184639,629442,0
2096921,2096921,184712,629443,0
2096921,2096921,184498,629682,0
2096921,2096921,184801,629260,0
2096921,2096921,184534,629122,0
2096921,2096921,184730,629200,0
2096921,2096921,184543,629369,0
2096921,2096921,184498,629138,0
2096921,2096921,184619,629324,0
2096921,2096921,184440,629248,0
2096921,2096921,184201,629428,0
2096921,2096921,184540,629284,0
2096921,2096921,184571,629512,0
2096921,2096921,184456,629491,0
2096921,2096921,184397,629285,0
2096921,2096921,184639,629102,0
2096921,2096921,184563,629032,0
2096921,2096921,184505,628848,0
2096921,2096921,184408,629267,0
2096921,2096921,184366,629122,0
2096921,2096921,184657,629376,0
2096921,2096921,184677,629280,0
2096921,2096921,184426,629421,0
2096921,2096921,184605,629064,0
2096921,2096921,184569,629411,0
2096921,2096921,184665,628979,0
2096921,2096921,184767,628971,0
2096921,2096921,184840,629073,0
2096921,2096921,184724,629073,0
2096921,2096921,184600,628962,0
2096921,2096921,184703,629189,0
2096921,2096921,184543,629151,0
2096921,2096921,184471,628950,0
2096921,2096921,184423,629016,0
2096921,2096921,184366,628981,0
2096921,2096921,184121,628778,0
2096921,2096921,184535,628834,0
2096921,2096921,184229,629067,0
2096921,2096921,184329,629082,0
2096921,2096921,184552,629175,0
2096921,2096921,184315,628792,0
2096921,2096921,184413,628671,0
2096921,2096921,184339,628884,0
2096921,2096921,184182,628705,0
2096921,2096921,184218,628454,0
2096921,2096921,184157,628403,0
2096921,2096921,183933,628307,0
2096921,2096921,184179,628344,0
2096921,2096921,184268,628600,0
2096921,2096921,184111,628254,0
2096921,2096921,184122,627925,0
2096921,2096921,184105,627994,0
2096921,2096921,183844,628092,0
2096921,2096921,184217,628140,0
2096921,2096921,183746,627536,0
2096921,2096921,183413,627286,0
2096921,2096921,183468,627169,0
2096921,2096921,183818,627200,0
2096921,2096921,183197,627178,0
2096921,2096921,183217,626932,0
2096921,2096921,183354,626864,0
2096921,2096921,183346,626627,0
2096921,2096921,183331,626478,0
2096921,2096921,183834,626479,0
2096921,2096921,183393,626727,0
2096921,2096921,183228,626486,0
2096921,2096921,183083,626368,0
2096921,2096921,183077,626411,0
2096921,2096921,183106,626115,0
2096921,2096921,182925,626395,0
2096921,2096921,183246,626357,0
2096921,2096921,182955,626190,0
2096921,2096921,182971,626197,0
2096921,2096921,182974,626140,0
2096921,2096921,182930,625858,0
2096921,2096921,182758,625742,0
2096921,2096921,182722,625669,0
2096921,2096921,182732,625827,0
2096921,2096921,182723,625642,0
2096921,2096921,182599,625478,0
2096921,2096921,182649,625692,0
2096921,2096921,182954,625858,0
2096921,2096921,182847,626015,0
2096921,2096921,182619,625775,0
2096921,2096921,182555,625706,0
2096921,2096921,182625,625653,0
2096921,2096921,182506,625533,0
2096921,2096921,182645,625695,0
2096921,2096921,182778,625702,0
2096921,2096921,182709,625455,0
2096921,2096921,182724,625725,0
2096921,2096921,182725,625803,0
2096921,2096921,182656,625880,0
2096921,2096921,182905,625628,0
2096921,2096921,182855,625788,0
2096921,2096921,182605,625734,0
2096921,2096921,182783,625405,0
2096921,2096921,182853,625588,0
2096921,2096921,182723,625616,0
2096921,2096921,182651,625842,0
2096921,2096921,182699,625875,0
2096921,2096921,182628,625826,0
2096921,2096921,182700,625549,0
2096921,2096921,182769,625465,0
2096921,2096921,182580,625350,0
2096921,2096921,182937,625620,0
2096921,2096921,182517,625643,0
2096921,2096921,182531,625609,0
2096921,2096921,182576,625521,0
2096921,2096921,182944,625878,0
2096921,2096921,182519,625621,0
2096921,2096921,182835,625491,0
2096921,2096921,182681,625808,0
2096921,2096921,182708,625755,0
2096921,2096921,182688,625628,0
2096921,2096921,182811,625857,0
2096921,2096921,182619,625496,0
2096921,2096921,182688,625672,0
2096921,2096921,182814,625815,0
2096921,2096921,182928,625971,0
2096921,2096921,183264,625866,0
2096921,2096921,182743,626054,0
2096921,2096921,182676,626167,0
2096921,2096921,182890,626089,0
2096921,2096921,182911,625847,0
2096921,2096921,182665,626077,0
2096921,2096921,182716,625984,0
2096921,2096921,183016,625951,0
2096921,2096921,183101,626094,0
2096921,2096921,182722,626189,0
2096921,2096921,183010,626142,0
2096921,2096921,183155,626190,0
2096921,2096921,183256,626438,0
2096921,2096921,183184,626319,0
2096921,2096921,183057,626342,0
2096921,2096921,182986,626353,0
2096921,2096921,182959,626395,0
2096921,2096921,183015,626177,0
2096921,2096921,183114,626328,0
2096921,2096921,183090,626297,0
2096921,2096921,183038,626262,0
2096921,2096921,183108,626493,0
2096921,2096921,183157,626682,0
2096921,2096921,183167,626583,0
2096921,2096921,183144,626528,0
2096921,2096921,183149,626423,0
2096921,2096921,182921,626352,0
2096921,2096921,182878,626345,0
2096921,2096921,183052,626542,0
2096921,2096921,182959,626432,0
2096921,2096921,183114,626511,0
2096921,2096921,183269,626632,0
2096921,2096921,183172,626433,0
2096921,2096921,183345,626539,0
2096921,2096921,183537,626873,0
2096921,2096921,183115,626655,0
2096921,2096921,183151,626628,0
2096921,2096921,183202,626795,0
2096921,2096921,183263,626681,0
2096921,2096921,183246,626974,0
2096921,2096921,183416,626931,0
2096921,2096921,183416,627190,0
2096921,2096921,183590,627212,0
2096921,2096921,183036,627076,0
2096921,2096921,183322,626885,0
2096921,2096921,183364,627026,0
2096921,2096921,183640,626991,0
2096921,2096921,183085,626988,0
2096921,2096921,183173,626881,0
2096921,2096921,183419,627329,0
2096921,2096921,183804,626955,0
2096921,2096921,183748,627132,0
2096921,2096921,183592,627296,0
2096921,2096921,183548,626850,0
2096921,2096921,183600,627181,0
2096921,2096921,183737,627092,0
2096921,2096921,183576,627456,0
2096921,2096921,183610,627312,0
2096921,2096921,183631,627125,0
2096921,2096921,183517,627086,0
2096921,2096921,183535,627201,0
2096921,2096921,183252,627278,0
2096921,2096921,183360,627074,0
2096921,2096921,183525,627564,0
2096921,2096921,183432,627298,0
2096921,2096921,183563,627188,0
2096921,2096921,183643,627252,0
2096921,2096921,183582,627349,0
2096921,2096921,183161,626964,0
2096921,2096921,183541,627088,0
2096921,2096921,183671,627584,0
2096921,2096921,183465,627497,0
2096921,2096921,183670,627617,0
2096921,2096921,183556,627296,0
2096921,2096921,183566,627276,0
2096921,2096921,183810,627238,0
2096921,2096921,183815,627487,0
2096921,2096921,183442,627388,0
2096921,2096921,183568,627486,0
2096921,2096921,183725,627463,0
2096921,2096921,183590,627257,0
2096921,2096921,183537,627593,0
2096921,2096921,183634,627653,0
2096921,2096921,183623,627530,0
2096921,2096921,183547,627463,0
2096921,2096921,183461,627341,0
2096921,2096921,183533,627355,0
2096921,2096921,183831,627411,0
2096921,2096921,183943,627210,0
2096921,2096921,183495,627640,0
2096921,2096921,183712,627614,0
2096921,2096921,183720,627346,0
2096921,2096921,183375,627102,0
2096921,2096921,183453,627261,0
2096921,2096921,183538,627398,0
2096921,2096921,183514,627119,0
2096921,2096921,183895,627529,0
2096921,2096921,183619,627611,0
2096921,2096921,183817,627492,0
2096921,2096921,183667,627274,0
2096921,2096921,183622,627546,0
2096921,2096921,183871,627271,0
2096921,2096921,183726,627341,0
2096921,2096921,183526,627279,0
2096921,2096921,183684,627475,0
2096921,2096921,183647,627491,0
2096921,2096921,183356,627232,0
2096921,2096921,183542,627064,0
2096921,2096921,183503,627327,0
2096921,2096921,183550,627271,0
2096921,2096921,183495,627507,0
2096921,2096921,183772,627288,0
2096921,2096921,183501,627177,0
2096921,2096921,183742,627192,0
2096921,2096921,183567,627229,0
2096921,2096921,183175,627209,0
2096921,2096921,183450,627006,0
2096921,2096921,183340,627371,0
2096921,2096921,183296,627305,0
2096921,2096921,183364,627025,0
2096921,2096921,183739,627170,0
2096921,2096921,183624,627315,0
2096921,2096921,183548,627142,0
2096921,2096921,183396,627193,0
2096921,2096921,183276,627349,0
2096921,2096921,183458,627125,0
2096921,2096921,183657,627324,0
2096921,2096921,183581,627228,0
2096921,2096921,183552,627151,0
2096921,2096921,183720,627261,0
2096921,2096921,183355,627466,0
2096921,2096921,183343,627453,0
2096921,2096921,183412,627581,0
2096921,2096921,183448,627442,0
2096921,2096921,183324,627338,0
2096921,2096921,183298,627411,0
2096921,2096921,183463,627321,0
2096921,2096921,183601,627150,0
2096921,2096921,183486,627473,0
2096921,2096921,183359,627261,0
2096921,2096921,183396,627413,0
2096921,2096921,183371,627408,0
2096921,2096921,183542,627451,0
2096921,2096921,183611,627315,0
2096921,2096921,183661,627586,0
2096921,2096921,183739,627654,0
2096921,2096921,183504,627521,0
2096921,2096921,183802,627440,0
2096921,2096921,183405,627621,0
2096921,2096921,183695,627629,0
2096921,2096921,183620,627588,0
2096921,2096921,183766,627652,0
2096921,2096921,183401,627522,0
2096921,2096921,183459,627384,0
2096921,2096921,183416,627482,0
2096921,2096921,183788,627369,0
2096921,2096921,183824,627412,0
2096921,2096921,183606,627531,0
2096921,2096921,183596,627759,0
2096921,2096921,183748,627973,0
2096921,2096921,183897,627764,0
2096921,2096921,184039,627921,0
2096921,2096921,183956,627908,0
2096921,2096921,183767,627742,0
2096921,2096921,183782,627782,0
2096921,2096921,183763,627865,0
2096921,2096921,183798,627946,0
2096921,2096921,183609,627998,0
2096921,2096921,183892,627803,0
2096921,2096921,183703,627894,0
2096921,2096921,183990,628047,0
2096921,2096921,183780,627945,0
2096921,2096921,183654,627786,0
2096921,2096921,183531,627866,0
2096921,2096921,183548,627979,0
2096921,2096921,183812,628045,0
2096921,2096921,183901,627821,0
2096921,2096921,183749,627829,0
2096921,2096921,183787,627988,0
2096921,2096921,183826,627973,0
2096921,2096921,183969,628283,0
2096921,2096921,184149,628239,0
2096921,2096921,183973,628147,0
2096921,2096921,183838,628216,0
2096921,2096921,183901,628226,0
2096921,2096921,183946,628037,0
2096921,2096921,184031,628085,0
2096921,2096921,183850,628229,0
2096921,2096921,183923,628205,0
2096921,2096921,184042,628470,0
2096921,2096921,183976,628485,0
2096921,2096921,183990,628020,0
2096921,2096921,184290,627945,0
2096921,2096921,184235,628156,0
2096921,2096921,183963,628231,0
2096921,2096921,184363,628134,0
2096921,2096921,184202,628415,0
2096921,2096921,183939,627981,0
2096921,2096921,184140,628081,0
2096921,2096921,184229,628508,0
2096921,2096921,184339,628652,0
2096921,2096921,184332,628433,0
2096921,2096921,183902,628293,0
2096921,2096921,184031,628571,0
2096921,2096921,183814,628405,0
2096921,2096921,183851,628383,0
2096921,2096921,183746,628334,0
2096921,2096921,184036,628265,0
2096921,2096921,184320,628406,0
2096921,2096921,184080,628690,0
2096921,2096921,184314,628525,0
2096921,2096921,184111,628512,0
2096921,2096921,184043,628374,0
2096921,2096921,183993,628419,0
2096921,2096921,183627,628183,0
2096921,2096921,183992,628320,0
2096921,2096921,184148,628471,0
2096921,2096921,184088,628449,0
2096921,2096921,184094,628413,0
2096921,2096921,184276,628609,0
2096921,2096921,184265,628942,0
2096921,2096921,184020,628424,0
2096921,2096921,184083,628652,0
2096921,2096921,184143,628624,0
2096921,2096921,184058,628566,0
2096921,2096921,183980,628357,0
2096921,2096921,184067,628685,0
2096921,2096921,184336,628595,0
2096921,2096921,184296,628740,0
2096921,2096921,184173,628715,0
2096921,2096921,183987,628677,0
2096921,2096921,184277,628365,0
2096921,2096921,184433,628756,0
2096921,2096921,184313,628553,0
2096921,2096921,184299,628527,0
2096921,2096921,184079,628554,0
2096921,2096921,184220,628644,0
2096921,2096921,184370,628669,0
2096921,2096921,184211,628686,0
2096921,2096921,184354,628845,0
2096921,2096921,184684,628663,0
2096921,2096921,184292,628764,0
2096921,2096921,184330,628681,0
2096921,2096921,184293,628694,0
2096921,2096921,184480,628602,0
2096921,2096921,184024,628972,0
2096921,2096921,184246,628431,0
2096921,2096921,184220,628860,0
2096921,2096921,184330,628614,0
2096921,2096921,184223,628787,0
2096921,2096921,184333,628916,0
2096921,2096921,184352,628809,0
2096921,2096921,184502,628687,0
2096921,2096921,184473,628709,0
2096921,2096921,184467,628907,0
2096921,2096921,184209,628587,0
2096921,2096921,184284,628913,0
2096921,2096921,184424,628983,0
2096921,2096921,184228,628832,0
2096921,2096921,184451,628862,0
2096921,2096921,184353,628884,0
2096921,2096921,184520,628745,0
2096921,2096921,184331,628721,0
2096921,2096921,184008,628795,0
2096921,2096921,184212,628766,0
2096921,2096921,184316,628734,0
2096921,2096921,184228,628870,0
2096921,2096921,184283,628828,0
2096921,2096921,184434,629065,0
2096921,2096921,184361,628714,0
2096921,2096921,184357,629033,0
2096921,2096921,184532,629171,0
2096921,2096921,184278,629300,0
2096921,2096921,184612,628942,0
2096921,2096921,184338,629436,0
2096921,2096921,184498,629102,0
2096921,2096921,184664,628960,0
2096921,2096921,184399,628759,0
2096921,2096921,184390,628908,0
2096921,2096921,184456,628992,0
2096921,2096921,184662,629130,0
2096921,2096921,184407,628914,0
2096921,2096921,184349,629066,0
2096921,2096921,184440,629131,0
2096921,2096921,184476,628789,0
2096921,2096921,184526,628768,0
2096921,2096921,184562,629100,0
2096921,2096921,184551,629062,0
2096921,2096921,184541,629157,0
2096921,2096921,184253,629258,0
2096921,2096921,184464,629104,0
2096921,2096921,184432,629357,0
2096921,2096921,184389,628878,0
2096921,2096921,184463,628983,0
2096921,2096921,184275,628962,0
2096921,2096921,184421,628997,0
2096921,2096921,184345,629036,0
2096921,2096921,184543,628833,0
2096921,2096921,184579,629078,0
2096921,2096921,184532,629035,0
2096921,2096921,184614,629133,0
2096921,2096921,184573,629273,0
2096921,2096921,184526,629339,0
2096921,2096921,184676,629369,0
2096921,2096921,184484,629153,0
2096921,2096921,184473,628832,0
2096921,2096921,184491,629242,0
2096921,2096921,184269,628730,0
2096921,2096921,184620,629035,0
2096921,2096921,184763,629318,0
2096921,2096921,184607,629309,0
2096921,2096921,184680,629014,0
2096921,2096921,184761,629420,0
2096921,2096921,184565,629191,0
2096921,2096921,184347,629302,0
2096921,2096921,184331,629307,0
2096921,2096921,184503,629388,0
2096921,2096921,184403,629239,0
2096921,2096921,184561,629318,0
2096921,2096921,184531,629132,0
2096921,2096921,184483,629097,0
2096921,2096921,184617,629442,0
2096921,2096921,184825,629257,0
2096921,2096921,184327,629318,0
2096921,2096921,184689,628961,0
2096921,2096921,184742,629122,0
2096921,2096921,184558,629057,0
2096921,2096921,184388,629064,0
2096921,2096921,184369,629073,0
2096921,2096921,184660,629261,0
2096921,2096921,184796,629105,0
2096921,2096921,184580,629224,0
2096921,2096921,184613,629253,0
2096921,2096921,184560,629268,0
2096921,2096921,184350,629117,0
2096921,2096921,184584,629354,0
2096921,2096921,184703,629269,0
2096921,2096921,184469,629128,0
2096921,2096921,184842,629150,0
2096921,2096921,184779,629428,0
2096921,2096921,184634,629450,0
2096921,2096921,184573,629168,0
2096921,2096921,184873,629260,0
2096921,2096921,184350,629149,0
2096921,2096921,184406,629253,0
2096921,2096921,184405,629257,0
2096921,2096921,184316,629033,0
2096921,2096921,184520,629244,0
2096921,2096921,184424,629438,0
2096921,2096921,184455,629196,0
2096921,2096921,184579,629350,0
2096921,2096921,184728,629358,0
2096921,2096921,184647,629512,0
2096921,2096921,184932,629396,0
2096921,2096921,184510,629254,0
2096921,2096921,184378,629340,0
2096921,2096921,184853,629261,0
2096921,2096921,184789,629410,0
2096921,2096921,184458,629219,0
2096921,2096921,184704,629030,0
2096921,2096921,184739,629291,0
2096921,2096921,184559,629573,0
2096921,2096921,184436,629260,0
2096921,2096921,184354,629288,0
2096921,2096921,184682,629186,0
2096921,2096921,184617,629047,0
2096921,2096921,184504,629226,0
2096921,2096921,184540,629222,0
2096921,2096921,184532,629159,0
2096921,2096921,184521,629479,0
2096921,2096921,184680,629512,0
2096921,2096921,184737,629604,0
2096921,2096921,184435,629203,0
2096921,2096921,184528,629461,0
2096921,2096921,184498,629216,0
2096921,2096921,184645,629089,0
2096921,2096921,184390,629216,0
2096921,2096921,184627,629085,0
2096921,2096921,184498,629180,0
2096921,2096921,184665,629209,0
2096921,2096921,184798,629565,0
2096921,2096921,184699,629304,0
2096921,2096921,184886,629479,0
2096921,2096921,184559,629385,0
2096921,2096921,184660,629282,0
2096921,2096921,184596,629439,0
2096921,2096921,184544,629398,0
2096921,2096921,184510,629266,0
2096921,2096921,184619,629414,0
2096921,2096921,184695,629378,0
2096921,2096921,184584,629267,0
2096921,2096921,184756,629367,0
2096921,2096921,184747,629193,0
2096921,2096921,184506,629286,0
2096921,2096921,184849,629191,0
2096921,2096921,184586,629151,0
2096921,2096921,184641,629323,0
2096921,2096921,184613,628982,0
2096921,2096921,184395,629560,0
2096921,2096921,184670,629347,0
2096921,2096921,184795,629381,0
2096921,2096921,184770,629450,0
2096921,2096921,184772,629334,0
2096921,2096921,184840,629602,0
2096921,2096921,184536,629130,0
2096921,2096921,184419,628934,0
2096921,2096921,184814,628761,0
2096921,2096921,184735,629071,0
2096921,2096921,184440,629210,0
2096921,2096921,184436,629243,0
2096921,2096921,184357,629228,0
2096921,2096921,184403,629305,0
2096921,2096921,184630,629234,0
2096921,2096921,184275,629230,0
2096921,2096921,184354,628869,0
2096921,2096921,184257,629026,0
2096921,2096921,184231,628995,0
2096921,2096921,184096,628845,0
2096921,2096921,184457,629011,0
2096921,2096921,184122,628846,0
2096921,2096921,184420,628839,0
2096921,2096921,184341,628473,0
2096921,2096921,184087,628734,0
2096921,2096921,183687,628645,0
2096921,2096921,184005,628708,0
2096921,2096921,183977,628620,0
2096921,2096921,183935,628167,0
2096921,2096921,184113,628374,0
2096921,2096921,184370,628485,0
2096921,2096921,183756,628095,0
2096921,2096921,183978,628098,0
2096921,2096921,183850,628061,0
2096921,2096921,183517,628219,0
2096921,2096921,183787,627820,0
2096921,2096921,183568,627418,0
2096921,2096921,183430,627209,0
2096921,2096921,183611,626957,0
2096921,2096921,183626,626839,0
2096921,2096921,183673,627200,0
2096921,2096921,183321,626714,0
2096921,2096921,183346,626967,0
2096921,2096921,183198,626899,0
2096921,2096921,183031,626895,0
2096921,2096921,183091,626802,0
2096921,2096921,182856,626473,0
2096921,2096921,182918,626463,0
2096921,2096921,183257,626359,0
2096921,2096921,183188,626074,0
2096921,2096921,183005,626097,0
2096921,2096921,182993,626417,0
2096921,2096921,182778,626253,0
2096921,2096921,183056,625984,0
2096921,2096921,183160,626041,0
2096921,2096921,182944,626115,0
2096921,2096921,182876,625954,0
2096921,2096921,182898,626119,0
2096921,2096921,182799,625911,0
2096921,2096921,182922,625846,0
2096921,2096921,182751,625811,0
2096921,2096921,182576,625925,0
2096921,2096921,182827,625570,0
2096921,2096921,182712,625659,0
2096921,2096921,182645,625653,0
2096921,2096921,182766,625762,0
2096921,2096921,182640,625530,0
2096921,2096921,182756,625494,0
2096921,2096921,182748,625450,0
2096921,2096921,182629,625657,0
2096921,2096921,182684,625640,0
2096921,2096921,182633,625608,0
2096921,2096921,182581,625487,0
2096921,2096921,182701,625640,0
2096921,2096921,182598,625666,0
2096921,2096921,182461,625857,0
2096921,2096921,182739,625642,0
2096921,2096921,182447,625436,0
2096921,2096921,182546,625600,0
2096921,2096921,182748,625469,0
2096921,2096921,182193,625765,0
2096921,2096921,182460,626075,0
2096921,2096921,182291,625963,0
2096921,2096921,182640,625721,0
2096921,2096921,182875,626013,0
2096921,2096921,182734,625944,0
2096921,2096921,182604,625735,0
2096921,2096921,182615,625402,0
2096921,2096921,182677,625641,0
2096921,2096921,182748,625397,0
2096921,2096921,182853,625791,0
2096921,2096921,182863,625668,0
2096921,2096921,182928,625665,0
2096921,2096921,183054,625791,0
2096921,2096921,182608,625535,0
2096921,2096921,182744,625404,0
2096921,2096921,182862,625719,0
2096921,2096921,182737,626004,0
2096921,2096921,182585,626016,0
2096921,2096921,182503,625911,0
2096921,2096921,182657,625862,0
2096921,2096921,182787,625889,0
2096921,2096921,182776,626129,0
2096921,2096921,182883,626168,0
2096921,2096921,182624,625895,0
2096921,2096921,182912,626149,0
2096921,2096921,182830,625907,0
2096921,2096921,182846,626163,0
2096921,2096921,182979,626300,0
2096921,2096921,182722,626230,0
2096921,2096921,182662,625764,0
2096921,2096921,182824,626104,0
2096921,2096921,182855,626149,0
2096921,2096921,183094,626171,0
2096921,2096921,182828,626303,0
2096921,2096921,182838,626267,0
2096921,2096921,182951,626227,0
2096921,2096921,183083,626298,0
2096921,2096921,182858,626328,0
2096921,2096921,182923,626168,0
2096921,2096921,183151,626453,0
2096921,2096921,182883,626276,0
2096921,2096921,183297,626284,0
2096921,2096921,183354,626701,0
2096921,2096921,182946,626649,0
2096921,2096921,183025,626416,0
2096921,2096921,183084,626303,0
2096921,2096921,183077,626400,0
2096921,2096921,183126,626319,0
2096921,2096921,183207,626681,0
2096921,2096921,183109,626581,0
2096921,2096921,183100,626490,0
2096921,2096921,183349,626655,0
2096921,2096921,183196,626558,0
2096921,2096921,182933,626472,0
2096921,2096921,183158,626569,0
2096921,2096921,183333,626475,0
2096921,2096921,183321,626526,0
2096921,2096921,183384,626538,0
2096921,2096921,183473,626860,0
2096921,2096921,183444,626607,0
2096921,2096921,183481,626940,0
2096921,2096921,183214,626921,0
2096921,2096921,183285,626853,0
2096921,2096921,183366,626633,0
2096921,2096921,183029,626642,0
2096921,2096921,183518,626828,0
2096921,2096921,183280,627077,0
2096921,2096921,183261,626961,0
2096921,2096921,183319,626946,0
2096921,2096921,183457,626919,0
2096921,2096921,183221,626906,0
2096921,2096921,183276,627232,0
2096921,2096921,183555,627369,0
2096921,2096921,183558,627096,0
2096921,2096921,183436,626843,0
2096921,2096921,183630,627101,0
2096921,2096921,183312,627046,0
2096921,2096921,183414,627044,0
2096921,2096921,183653,627010,0
2096921,2096921,183682,627204,0
2096921,2096921,183777,627327,0
2096921,2096921,183680,627463,0
2096921,2096921,183558,627269,0
2096921,2096921,183466,627338,0
2096921,2096921,183294,627292,0
2096921,2096921,183602,627073,0
2096921,2096921,183456,627019,0
2096921,2096921,183590,627497,0
2096921,2096921,183408,627342,0
2096921,2096921,183502,627507,0
2096921,2096921,183736,627494,0
2096921,2096921,183988,627552,0
2096921,2096921,183828,627623,0
2096921,2096921,183558,627442,0
2096921,2096921,183349,627357,0
2096921,2096921,183645,627347,0
2096921,2096921,183641,627238,0
2096921,2096921,183336,627119,0
2096921,2096921,183750,627117,0
2096921,2096921,183714,627561,0
2096921,2096921,183772,627486,0
2096921,2096921,183754,627369,0
2096921,2096921,183787,627435,0
2096921,2096921,183609,627410,0
2096921,2096921,183572,627483,0
2096921,2096921,183415,627185,0
2096921,2096921,183320,627263,0
2096921,2096921,183644,627380,0
2096921,2096921,183529,627635,0
2096921,2096921,183844,627518,0
2096921,2096921,183716,627661,0
2096921,2096921,183942,627686,0
2096921,2096921,183697,627403,0
2096921,2096921,183699,627406,0
2096921,2096921,183526,627195,0
2096921,2096921,183534,627163,0
2096921,2096921,183413,627144,0
2096921,2096921,183538,627415,0
2096921,2096921,183554,627402,0
2096921,2096921,183425,627303,0
2096921,2096921,183288,627449,0
2096921,2096921,183511,627524,0
2096921,2096921,183759,627442,0
2096921,2096921,183306,627772,0
2096921,2096921,183249,627147,0
2096921,2096921,183503,627245,0
2096921,2096921,183563,627231,0
2096921,2096921,183416,627255,0
2096921,2096921,183634,627262,0
2096921,2096921,183688,627372,0
2096921,2096921,183600,627548,0
2096921,2096921,183804,627473,0
2096921,2096921,183662,627502,0
2096921,2096921,183453,627244,0
2096921,2096921,183431,627355,0
2096921,2096921,183354,627350,0
2096921,2096921,183311,627055,0
2096921,2096921,183482,627257,0
2096921,2096921,183766,627289,0
2096921,2096921,183549,627147,0
2096921,2096921,183645,626966,0
2096921,2096921,183734,627174,0
2096921,2096921,183544,627195,0
2096921,2096921,183432,627181,0
2096921,2096921,183341,627260,0
2096921,2096921,183383,627158,0
2096921,2096921,183331,627276,0
2096921,2096921,183430,627314,0
2096921,2096921,183493,627449,0
2096921,2096921,183681,627239,0
2096921,2096921,183381,627436,0
2096921,2096921,183661,627649,0
2096921,2096921,183561,627441,0
2096921,2096921,183564,627120,0
2096921,2096921,183582,627330,0
2096921,2096921,183391,627273,0
2096921,2096921,183414,627283,0
2096921,2096921,183738,627147,0
2096921,2096921,183531,627163,0
2096921,2096921,183597,626950,0
2096921,2096921,183533,627266,0
2096921,2096921,183627,627292,0
2096921,2096921,183581,627223,0
2096921,2096921,183366,627508,0
2096921,2096921,183368,627408,0
2096921,2096921,183474,627502,0
2096921,2096921,183499,627347,0
2096921,2096921,183550,627629,0
2096921,2096921,183554,627507,0
2096921,2096921,183671,627755,0
2096921,2096921,183674,627674,0
2096921,2096921,183747,627650,0
2096921,2096921,183644,627623,0
2096921,2096921,183478,627657,0
2096921,2096921,183637,627653,0
2096921,2096921,183800,627639,0
2096921,2096921,183720,627556,0
2096921,2096921,183308,627802,0
2096921,2096921,183767,627856,0
2096921,2096921,183783,627744,0
2096921,2096921,183947,627744,0
2096921,2096921,183944,628089,0
2096921,2096921,183671,627925,0
2096921,2096921,183704,627983,0
2096921,2096921,183925,628056,0
2096921,2096921,183823,627951,0
2096921,2096921,183594,627795,0
2096921,2096921,183931,627692,0
2096921,2096921,183907,628004,0
2096921,2096921,183867,627774,0
2096921,2096921,184106,628128,0
2096921,2096921,183780,628073,0
2096921,2096921,183922,627826,0
2096921,2096921,184074,627586,0
2096921,2096921,183806,627792,0
2096921,2096921,183598,627935,0
2096921,2096921,183792,628010,0
2096921,2096921,183884,627771,0
2096921,2096921,183784,627705,0
2096921,2096921,183942,627867,0
2096921,2096921,183998,627915,0
2096921,2096921,183920,627790,0
2096921,2096921,184080,628184,0
2096921,2096921,183890,628188,0
2096921,2096921,183948,628123,0
2096921,2096921,184244,628140,0
2096921,2096921,183907,627961,0
2096921,2096921,183786,628187,0
