
2096921,2096921, 305833, 387412
2096921,2096921, 306076, 387461
2096921,2096921, 305950, 387146
2096921,2096921, 305909, 387393
2096921,2096921, 305995, 387250
2096921,2096921, 306244, 387233
2096921,2096921, 306146, 387335
2096921,2096921, 306065, 387414
2096921,2096921, 306008, 387378
2096921,2096921, 306048, 387503
2096921,2096921, 306187, 387708
2096921,2096921, 306215, 388007
2096921,2096921, 306191, 387956
2096921,2096921, 306558, 388139
2096921,2096921, 306696, 387752
2096921,2096921, 306558, 387858
2096921,2096921, 306409, 387690
2096921,2096921, 306436, 387792
2096921,2096921, 306320, 387645
2096921,2096921, 306496, 388075
2096921,2096921, 306606, 387940
2096921,2096921, 306820, 388066
2096921,2096921, 306895, 388061
2096921,2096921, 306857, 388006
2096921,2096921, 306903, 387973
2096921,2096921, 306849, 388489
2096921,2096921, 306746, 388377
2096921,2096921, 306750, 388311
2096921,2096921, 307014, 388543
2096921,2096921, 306974, 388143
2096921,2096921, 306773, 388266
2096921,2096921, 306695, 388440
2096921,2096921, 306743, 388466
2096921,2096921, 306887, 388387
2096921,2096921, 307017, 388295
2096921,2096921, 306954, 388791
2096921,2096921, 307060, 388711
2096921,2096921, 307265, 388560
2096921,2096921, 307358, 388556
2096921,2096921, 307110, 388705
2096921,2096921, 307479, 388875
2096921,2096921, 307151, 388767
2096921,2096921, 306997, 388688
2096921,2096921, 307201, 388761
2096921,2096921, 307490, 388827
2096921,2096921, 307425, 389176
2096921,2096921, 307468, 388954
2096921,2096921, 307383, 389077
2096921,2096921, 307408, 389081
2096921,2096921, 307259, 388872
2096921,2096921, 307466, 389030
2096921,2096921, 307484, 389232
2096921,2096921, 307306, 389188
2096921,2096921, 307701, 389289
2096921,2096921, 307818, 389039
2096921,2096921, 307675, 389447
2096921,2096921, 307364, 389369
2096921,2096921, 307845, 389412
2096921,2096921, 307469, 389497
2096921,2096921, 307613, 389628
2096921,2096921, 307851, 389527
2096921,2096921, 307958, 389684
2096921,2096921, 308009, 389622
2096921,2096921, 308101, 389631
2096921,2096921, 307833, 389623
2096921,2096921, 308018, 389780
2096921,2096921, 307967, 389756
2096921,2096921, 307911, 389730
2096921,2096921, 307885, 389664
2096921,2096921, 307808, 389455
2096921,2096921, 308112, 389960
2096921,2096921, 308221, 389869
2096921,2096921, 308176, 389959
2096921,2096921, 308282, 390057
2096921,2096921, 308209, 390276
2096921,2096921, 308178, 390108
2096921,2096921, 308087, 390022
2096921,2096921, 308311, 389859
2096921,2096921, 308103, 390032
2096921,2096921, 308125, 389961
2096921,2096921, 308221, 390216
2096921,2096921, 308186, 390038
2096921,2096921, 308361, 390147
2096921,2096921, 308226, 390332
2096921,2096921, 308269, 390348
2096921,2096921, 308438, 390385
2096921,2096921, 308376, 390326
2096921,2096921, 308486, 390372
2096921,2096921, 308353, 390104
2096921,2096921, 308535, 390219
2096921,2096921, 308358, 390416
2096921,2096921, 308817, 390400
2096921,2096921, 308451, 390639
2096921,2096921, 308308, 390485
2096921,2096921, 308683, 390349
2096921,2096921, 308825, 390394
2096921,2096921, 309176, 390681
2096921,2096921, 308819, 390601
2096921,2096921, 308563, 390518
2096921,2096921, 308736, 390647
2096921,2096921, 308870, 390968
2096921,2096921, 308719, 390716
2096921,2096921, 308722, 390778
2096921,2096921, 309010, 390739
2096921,2096921, 308784, 390763
2096921,2096921, 308772, 390790
2096921,2096921, 308954, 390813
2096921,2096921, 309067, 391000
2096921,2096921, 308865, 390915
2096921,2096921, 309157, 391042
2096921,2096921, 308935, 391162
2096921,2096921, 308989, 391229
2096921,2096921, 309263, 391016
2096921,2096921, 309179, 391396
2096921,2096921, 309234, 391143
2096921,2096921, 309240, 391212
2096921,2096921, 309150, 391493
2096921,2096921, 309153, 391240
2096921,2096921, 309123, 390875
2096921,2096921, 309121, 391169
2096921,2096921, 309080, 391169
2096921,2096921, 308938, 391161
2096921,2096921, 309029, 391356
2096921,2096921, 308962, 391320
2096921,2096921, 309031, 391068
2096921,2096921, 309180, 390944
2096921,2096921, 309021, 391086
2096921,2096921, 308808, 391038
2096921,2096921, 308875, 390846
2096921,2096921, 308622, 390687
2096921,2096921, 308487, 390663
2096921,2096921, 308279, 390616
2096921,2096921, 308521, 390648
2096921,2096921, 308596, 390758
2096921,2096921, 308339, 390575
2096921,2096921, 308240, 390055
2096921,2096921, 308182, 390449
2096921,2096921, 307965, 390190
2096921,2096921, 307929, 390265
2096921,2096921, 307589, 389989
2096921,2096921, 307477, 389817
2096921,2096921, 307505, 389819
2096921,2096921, 307382, 389713
2096921,2096921, 307552, 389746
2096921,2096921, 306963, 389867
2096921,2096921, 306330, 388798
2096921,2096921, 306224, 388539
2096921,2096921, 306127, 388423
2096921,2096921, 306195, 388286
2096921,2096921, 305254, 388294
2096921,2096921, 305019, 386733
2096921,2096921, 304696, 386571
2096921,2096921, 304631, 386794
2096921,2096921, 304638, 386574
2096921,2096921, 303982, 386707
2096921,2096921, 303441, 385772
2096921,2096921, 303363, 385648
2096921,2096921, 303368, 385296
2096921,2096921, 303134, 385305
2096921,2096921, 302741, 385282
2096921,2096921, 302437, 384731
2096921,2096921, 302496, 384454
2096921,2096921, 302277, 384408
2096921,2096921, 302485, 384674
2096921,2096921, 302059, 384334
2096921,2096921, 301793, 383661
2096921,2096921, 302041, 383635
2096921,2096921, 302002, 383770
2096921,2096921, 301850, 383685
2096921,2096921, 301516, 383684
2096921,2096921, 301333, 383440
2096921,2096921, 301421, 383385
2096921,2096921, 301687, 383418
2096921,2096921, 301802, 383617
2096921,2096921, 301416, 383628
2096921,2096921, 301334, 383009
2096921,2096921, 301412, 383200
2096921,2096921, 301541, 383173
2096921,2096921, 301428, 383056
2096921,2096921, 301090, 382912
2096921,2096921, 300871, 383011
2096921,2096921, 301122, 382943
2096921,2096921, 301196, 383028
2096921,2096921, 301348, 383139
2096921,2096921, 301330, 382933
2096921,2096921, 301359, 383145
2096921,2096921, 301162, 383447
2096921,2096921, 301090, 383190
2096921,2096921, 301480, 383413
2096921,2096921, 301450, 383129
2096921,2096921, 301411, 383414
2096921,2096921, 301352, 383470
2096921,2096921, 301376, 383409
2096921,2096921, 301114, 383236
2096921,2096921, 301241, 383178
2096921,2096921, 301535, 383425
2096921,2096921, 301635, 383269
2096921,2096921, 301477, 383809
2096921,2096921, 301627, 383874
2096921,2096921, 301617, 383487
2096921,2096921, 301887, 384062
2096921,2096921, 301825, 383951
2096921,2096921, 301909, 383737
2096921,2096921, 302042, 383884
2096921,2096921, 302267, 383817
2096921,2096921, 301928, 383762
2096921,2096921, 301948, 384050
2096921,2096921, 301871, 384208
2096921,2096921, 301894, 383803
2096921,2096921, 302385, 383992
2096921,2096921, 302492, 384138
2096921,2096921, 302349, 384352
2096921,2096921, 302532, 384514
2096921,2096921, 302742, 384728
2096921,2096921, 302625, 384904
2096921,2096921, 302775, 384718
2096921,2096921, 302918, 384806
2096921,2096921, 302889, 384847
2096921,2096921, 302667, 384765
2096921,2096921, 302820, 384998
2096921,2096921, 302742, 385345
2096921,2096921, 303205, 385468
2096921,2096921, 303298, 385435
2096921,2096921, 303296, 385397
2096921,2096921, 303349, 385505
2096921,2096921, 303740, 385698
2096921,2096921, 303975, 385740
2096921,2096921, 303513, 385954
2096921,2096921, 303398, 385837
2096921,2096921, 303781, 385865
2096921,2096921, 303837, 386228
2096921,2096921, 303870, 386133
2096921,2096921, 304304, 386552
2096921,2096921, 304252, 386326
2096921,2096921, 304282, 386383
2096921,2096921, 304276, 386693
2096921,2096921, 304534, 386705
2096921,2096921, 304344, 386735
2096921,2096921, 304448, 386529
2096921,2096921, 304421, 386322
2096921,2096921, 304903, 386802
2096921,2096921, 304740, 387108
2096921,2096921, 305034, 387227
2096921,2096921, 304832, 386931
2096921,2096921, 304987, 386980
2096921,2096921, 305248, 387521
2096921,2096921, 305168, 387467
2096921,2096921, 305048, 387620
2096921,2096921, 305186, 387775
2096921,2096921, 305411, 387620
2096921,2096921, 305619, 388041
2096921,2096921, 305427, 387845
2096921,2096921, 305747, 387977
2096921,2096921, 305467, 387854
2096921,2096921, 305739, 388146
2096921,2096921, 305733, 388675
2096921,2096921, 305939, 388550
2096921,2096921, 306006, 388099
2096921,2096921, 306006, 388575
2096921,2096921, 306549, 388431
2096921,2096921, 306695, 389071
2096921,2096921, 306568, 389254
2096921,2096921, 306325, 389138
2096921,2096921, 306372, 389204
2096921,2096921, 306687, 389061
2096921,2096921, 306976, 389264
2096921,2096921, 306942, 389273
2096921,2096921, 306925, 389455
2096921,2096921, 306775, 389627
2096921,2096921, 306873, 389572
2096921,2096921, 307008, 390073
2096921,2096921, 306997, 389939
2096921,2096921, 307178, 389986
2096921,2096921, 307212, 389998
2096921,2096921, 307485, 389680
2096921,2096921, 307306, 390283
2096921,2096921, 307523, 390103
2096921,2096921, 307527, 390279
2096921,2096921, 307672, 390355
2096921,2096921, 307512, 390383
2096921,2096921, 307684, 390439
2096921,2096921, 307720, 390570
2096921,2096921, 307911, 390493
2096921,2096921, 307824, 390668
2096921,2096921, 307980, 390669
2096921,2096921, 307858, 390824
2096921,2096921, 307875, 390762
2096921,2096921, 307958, 391061
2096921,2096921, 308035, 390912
2096921,2096921, 307982, 390953
2096921,2096921, 308193, 390859
2096921,2096921, 308224, 391198
2096921,2096921, 308110, 391407
2096921,2096921, 307992, 391261
2096921,2096921, 308422, 391070
2096921,2096921, 308306, 391255
2096921,2096921, 308153, 391269
2096921,2096921, 308093, 391432
2096921,2096921, 308145, 391133
2096921,2096921, 308485, 391069
2096921,2096921, 308357, 391381
2096921,2096921, 308445, 391141
2096921,2096921, 308266, 391210
2096921,2096921, 308300, 391372
2096921,2096921, 308260, 391257
2096921,2096921, 308344, 391083
2096921,2096921, 308200, 391247
2096921,2096921, 308081, 391181
2096921,2096921, 308150, 391305
2096921,2096921, 308253, 391191
2096921,2096921, 308434, 391116
2096921,2096921, 308258, 391162
2096921,2096921, 308194, 391221
2096921,2096921, 308266, 391314
2096921,2096921, 308418, 391059
2096921,2096921, 308406, 391358
2096921,2096921, 308300, 391199
2096921,2096921, 308132, 391027
2096921,2096921, 308441, 390825
2096921,2096921, 308395, 391044
2096921,2096921, 308093, 391080
2096921,2096921, 308019, 391123
2096921,2096921, 308337, 391288
2096921,2096921, 308361, 391426
2096921,2096921, 308272, 391312
2096921,2096921, 308295, 391363
2096921,2096921, 308332, 391370
2096921,2096921, 308541, 391469
2096921,2096921, 308561, 391283
2096921,2096921, 308225, 391322
2096921,2096921, 308254, 391312
2096921,2096921, 308521, 391131
2096921,2096921, 308281, 391022
2096921,2096921, 308620, 391101
2096921,2096921, 308417, 391198
2096921,2096921, 308541, 391551
2096921,2096921, 308673, 391422
2096921,2096921, 308395, 391503
2096921,2096921, 308458, 391404
2096921,2096921, 308282, 391284
2096921,2096921, 308735, 391320
2096921,2096921, 308399, 391637
2096921,2096921, 308484, 391637
2096921,2096921, 308344, 391581
2096921,2096921, 308510, 391550
2096921,2096921, 308875, 391703
2096921,2096921, 308661, 391658
2096921,2096921, 308732, 391649
2096921,2096921, 308704, 391472
2096921,2096921, 308699, 391642
2096921,2096921, 308703, 391721
2096921,2096921, 308979, 391896
2096921,2096921, 308775, 391889
2096921,2096921, 308835, 391859
2096921,2096921, 309122, 391662
2096921,2096921, 309143, 391764
2096921,2096921, 308996, 391724
2096921,2096921, 308946, 391854
2096921,2096921, 309026, 392094
2096921,2096921, 309027, 392141
2096921,2096921, 309415, 392284
2096921,2096921, 309353, 392461
2096921,2096921, 309559, 392309
2096921,2096921, 309302, 392343
2096921,2096921, 309382, 392415
2096921,2096921, 309465, 392592
2096921,2096921, 309105, 392602
2096921,2096921, 309528, 392737
2096921,2096921, 309537, 392809
2096921,2096921, 309681, 392559
2096921,2096921, 309724, 392869
2096921,2096921, 309901, 393098
2096921,2096921, 309931, 393188
2096921,2096921, 310148, 392998
2096921,2096921, 310036, 392844
2096921,2096921, 310299, 393259
2096921,2096921, 310196, 393362
2096921,2096921, 310202, 393251
2096921,2096921, 309874, 392991
2096921,2096921, 310114, 392925
2096921,2096921, 310103, 393231
2096921,2096921, 310532, 393393
2096921,2096921, 310579, 393361
2096921,2096921, 310533, 393278
2096921,2096921, 310358, 393038
2096921,2096921, 310392, 393394
2096921,2096921, 310317, 393648
2096921,2096921, 310563, 393360
2096921,2096921, 310236, 393659
2096921,2096921, 310404, 393533
2096921,2096921, 310723, 393789
2096921,2096921, 310771, 393841
2096921,2096921, 310583, 393881
2096921,2096921, 310910, 393720
2096921,2096921, 310936, 394157
2096921,2096921, 311056, 394187
2096921,2096921, 310902, 394202
2096921,2096921, 311234, 394341
2096921,2096921, 310709, 394150
2096921,2096921, 310857, 394100
2096921,2096921, 311089, 394202
2096921,2096921, 311062, 394274
2096921,2096921, 311064, 394389
2096921,2096921, 311353, 394353
2096921,2096921, 311298, 394631
2096921,2096921, 311292, 394447
2096921,2096921, 311205, 394608
2096921,2096921, 311489, 394723
2096921,2096921, 311361, 394742
2096921,2096921, 311648, 394497
2096921,2096921, 311591, 394851
2096921,2096921, 311603, 394697
2096921,2096921, 311629, 394689
2096921,2096921, 311704, 394813
2096921,2096921, 311555, 394758
2096921,2096921, 311784, 394727
2096921,2096921, 311586, 395122
2096921,2096921, 311858, 394594
2096921,2096921, 311913, 394964
2096921,2096921, 311638, 395112
2096921,2096921, 311868, 395390
2096921,2096921, 311650, 395131
2096921,2096921, 312007, 395321
2096921,2096921, 312054, 395078
2096921,2096921, 311990, 395240
2096921,2096921, 312033, 395197
2096921,2096921, 312012, 395420
2096921,2096921, 312082, 395300
2096921,2096921, 312180, 395327
2096921,2096921, 312283, 395090
2096921,2096921, 312203, 395497
2096921,2096921, 312422, 395573
2096921,2096921, 312571, 395821
2096921,2096921, 312296, 395540
2096921,2096921, 312526, 395286
2096921,2096921, 312407, 395772
2096921,2096921, 312117, 395654
2096921,2096921, 312151, 395794
2096921,2096921, 312385, 395696
2096921,2096921, 312490, 395703
2096921,2096921, 312409, 396045
2096921,2096921, 312360, 395927
2096921,2096921, 312598, 395787
2096921,2096921, 312599, 396197
2096921,2096921, 312671, 395799
2096921,2096921, 312717, 396078
2096921,2096921, 312806, 396340
2096921,2096921, 312656, 396007
2096921,2096921, 312710, 396092
2096921,2096921, 312716, 396074
2096921,2096921, 312579, 396253
2096921,2096921, 312591, 396162
2096921,2096921, 312579, 396277
2096921,2096921, 312650, 396114
2096921,2096921, 312858, 396262
2096921,2096921, 312940, 396056
2096921,2096921, 313102, 396178
2096921,2096921, 312914, 395997
2096921,2096921, 313015, 396090
2096921,2096921, 312791, 396143
2096921,2096921, 313170, 396278
2096921,2096921, 312989, 396149
2096921,2096921, 312947, 396251
2096921,2096921, 313170, 396396
2096921,2096921, 312979, 396508
2096921,2096921, 312922, 396490
2096921,2096921, 312954, 396408
2096921,2096921, 313097, 396593
2096921,2096921, 313043, 396678
2096921,2096921, 313250, 396687
2096921,2096921, 313136, 396679
2096921,2096921, 313280, 396577
2096921,2096921, 313004, 396866
2096921,2096921, 313226, 396625
2096921,2096921, 313248, 396718
2096921,2096921, 313149, 396591
2096921,2096921, 313099, 396576
2096921,2096921, 313217, 396593
2096921,2096921, 313352, 396680
2096921,2096921, 313571, 396687
2096921,2096921, 313737, 396965
2096921,2096921, 313682, 396864
2096921,2096921, 313485, 397005
2096921,2096921, 313564, 396818
2096921,2096921, 313538, 397157
2096921,2096921, 313461, 397084
2096921,2096921, 313574, 397084
2096921,2096921, 313529, 396779
2096921,2096921, 313728, 397081
2096921,2096921, 313683, 397112
2096921,2096921, 313703, 397343
2096921,2096921, 313741, 396993
2096921,2096921, 313496, 397204
2096921,2096921, 313568, 397186
2096921,2096921, 313764, 396946
2096921,2096921, 313544, 396862
2096921,2096921, 313577, 397052
2096921,2096921, 313827, 397024
2096921,2096921, 313688, 397050
2096921,2096921, 313635, 397120
2096921,2096921, 313861, 397055
2096921,2096921, 314046, 397183
2096921,2096921, 313841, 397298
2096921,2096921, 313751, 397198
2096921,2096921, 313847, 397254
2096921,2096921, 313941, 397263
2096921,2096921, 313929, 397300
2096921,2096921, 313994, 397155
2096921,2096921, 313769, 397372
2096921,2096921, 313825, 397284
2096921,2096921, 313688, 397385
2096921,2096921, 313833, 397370
2096921,2096921, 313831, 397230
2096921,2096921, 313972, 397425
2096921,2096921, 313964, 397386
2096921,2096921, 313958, 397345
2096921,2096921, 313689, 397234
2096921,2096921, 313873, 397121
2096921,2096921, 313926, 397496
2096921,2096921, 314009, 397423
2096921,2096921, 314263, 397713
2096921,2096921, 314225, 397518
2096921,2096921, 314146, 397505
2096921,2096921, 313941, 397702
2096921,2096921, 314086, 397597
2096921,2096921, 313809, 397562
2096921,2096921, 314059, 397475
2096921,2096921, 313905, 397246
2096921,2096921, 314232, 397541
2096921,2096921, 314121, 397331
2096921,2096921, 314322, 397491
2096921,2096921, 314354, 397500
2096921,2096921, 314155, 397566
2096921,2096921, 314110, 397599
2096921,2096921, 314301, 397250
2096921,2096921, 314108, 397670
2096921,2096921, 314155, 397700
2096921,2096921, 314024, 398008
2096921,2096921, 313976, 397690
2096921,2096921, 314330, 397596
2096921,2096921, 314338, 397770
2096921,2096921, 314163, 397906
2096921,2096921, 314408, 397970
2096921,2096921, 314332, 398000
2096921,2096921, 314438, 397761
2096921,2096921, 314468, 397954
2096921,2096921, 314453, 397819
2096921,2096921, 314300, 397711
2096921,2096921, 314470, 397870
2096921,2096921, 314431, 398007
2096921,2096921, 314411, 397822
2096921,2096921, 314464, 397999
2096921,2096921, 314620, 398004
2096921,2096921, 314294, 397890
2096921,2096921, 314302, 397833
2096921,2096921, 314374, 397716
2096921,2096921, 314535, 397690
2096921,2096921, 314321, 397840
2096921,2096921, 314510, 397489
2096921,2096921, 314588, 397857
2096921,2096921, 314561, 398165
2096921,2096921, 314501, 398245
2096921,2096921, 314255, 397781
2096921,2096921, 314506, 397908
2096921,2096921, 314265, 397778
2096921,2096921, 314209, 397774
2096921,2096921, 314759, 397740
2096921,2096921, 314636, 397662
2096921,2096921, 314657, 397791
2096921,2096921, 314690, 397875
2096921,2096921, 314372, 397939
2096921,2096921, 314446, 398005
2096921,2096921, 314434, 398088
2096921,2096921, 314281, 398369
2096921,2096921, 314423, 398119
2096921,2096921, 314437, 398081
2096921,2096921, 314353, 397878
2096921,2096921, 314270, 398102
2096921,2096921, 314439, 398134
2096921,2096921, 314525, 398053
2096921,2096921, 314765, 398223
2096921,2096921, 314552, 398038
2096921,2096921, 314536, 397961
2096921,2096921, 314738, 398008
2096921,2096921, 314701, 398247
2096921,2096921, 314642, 397902
2096921,2096921, 314438, 398087
2096921,2096921, 314520, 398005
2096921,2096921, 314417, 397921
2096921,2096921, 314437, 398153
2096921,2096921, 314435, 397887
2096921,2096921, 314349, 398399
2096921,2096921, 314694, 397927
2096921,2096921, 314617, 397888
2096921,2096921, 314629, 397854
2096921,2096921, 314561, 397925
2096921,2096921, 314748, 397939
2096921,2096921, 314561, 397992
2096921,2096921, 314304, 397840
2096921,2096921, 314310, 398189
2096921,2096921, 314500, 397984
2096921,2096921, 314533, 398087
2096921,2096921, 314456, 397724
2096921,2096921, 314535, 398077
2096921,2096921, 314396, 398140
2096921,2096921, 314293, 397996
2096921,2096921, 314564, 397979
2096921,2096921, 314601, 397844
2096921,2096921, 314162, 397924
2096921,2096921, 314560, 398094
2096921,2096921, 314582, 397787
2096921,2096921, 314735, 398072
2096921,2096921, 314479, 397758
2096921,2096921, 314416, 397891
2096921,2096921, 314328, 397836
2096921,2096921, 314528, 397783
2096921,2096921, 314505, 397767
2096921,2096921, 314302, 397926
2096921,2096921, 314257, 397825
2096921,2096921, 314183, 397821
2096921,2096921, 313814, 397665
2096921,2096921, 314229, 397683
2096921,2096921, 314185, 397359
2096921,2096921, 314315, 397559
2096921,2096921, 314154, 397515
2096921,2096921, 313898, 397286
2096921,2096921, 313971, 397223
2096921,2096921, 313828, 397233
2096921,2096921, 313714, 397239
2096921,2096921, 313461, 397243
2096921,2096921, 313369, 396983
2096921,2096921, 313316, 396921
2096921,2096921, 313170, 396784
2096921,2096921, 313309, 396628
2096921,2096921, 312798, 396643
2096921,2096921, 312712, 396284
2096921,2096921, 312765, 395878
2096921,2096921, 312590, 396134
2096921,2096921, 312795, 395783
2096921,2096921, 312258, 396221
2096921,2096921, 312101, 395467
2096921,2096921, 312189, 395107
2096921,2096921, 312153, 395087
2096921,2096921, 312179, 395258
2096921,2096921, 311072, 395218
2096921,2096921, 310515, 394036
2096921,2096921, 310298, 394100
2096921,2096921, 310349, 393754
2096921,2096921, 310230, 393817
2096921,2096921, 309520, 393618
2096921,2096921, 308887, 392076
2096921,2096921, 308746, 391986
2096921,2096921, 308903, 392091
2096921,2096921, 308654, 391939
2096921,2096921, 307821, 391966
2096921,2096921, 307676, 390797
2096921,2096921, 307537, 390344
2096921,2096921, 307800, 390527
2096921,2096921, 307471, 390437
2096921,2096921, 306810, 390581
2096921,2096921, 306453, 389646
2096921,2096921, 306602, 389375
2096921,2096921, 306674, 389396
2096921,2096921, 306554, 389391
2096921,2096921, 305543, 389460
2096921,2096921, 305429, 388697
2096921,2096921, 305142, 388439
2096921,2096921, 305607, 388640
2096921,2096921, 305731, 388432
2096921,2096921, 305501, 388425
2096921,2096921, 305218, 388047
2096921,2096921, 305063, 387944
2096921,2096921, 305057, 387987
2096921,2096921, 305074, 387688
2096921,2096921, 304553, 387606
2096921,2096921, 304782, 387149
2096921,2096921, 304531, 387504
2096921,2096921, 304672, 387227
2096921,2096921, 304486, 387309
2096921,2096921, 304224, 387529
2096921,2096921, 304228, 387024
2096921,2096921, 304293, 387325
2096921,2096921, 304183, 387035
2096921,2096921, 304412, 386994
2096921,2096921, 304244, 386954
2096921,2096921, 304082, 386910
2096921,2096921, 304093, 386808
2096921,2096921, 303784, 386545
2096921,2096921, 303871, 386804
2096921,2096921, 303992, 386919
2096921,2096921, 304075, 387045
2096921,2096921, 304332, 386958
2096921,2096921, 304246, 386992
2096921,2096921, 304050, 386875
2096921,2096921, 304044, 386763
2096921,2096921, 304250, 386924
2096921,2096921, 304238, 386687
2096921,2096921, 304252, 386779
2096921,2096921, 303997, 386812
2096921,2096921, 304247, 386990
2096921,2096921, 304226, 386983
2096921,2096921, 304101, 386791
2096921,2096921, 304216, 386852
2096921,2096921, 304430, 386896
2096921,2096921, 304270, 386911
2096921,2096921, 304233, 386848
2096921,2096921, 303996, 386734
2096921,2096921, 304276, 386877
2096921,2096921, 304024, 387073
2096921,2096921, 304270, 386755
2096921,2096921, 304354, 386919
2096921,2096921, 304351, 387254
2096921,2096921, 304303, 387396
2096921,2096921, 304549, 387066
2096921,2096921, 304663, 387204
2096921,2096921, 304556, 387336
2096921,2096921, 304832, 387186
2096921,2096921, 304651, 387455
2096921,2096921, 304657, 387414
2096921,2096921, 304617, 387407
2096921,2096921, 305089, 387669
2096921,2096921, 305038, 387332
2096921,2096921, 304983, 387721
2096921,2096921, 304982, 387632
2096921,2096921, 304959, 387497
2096921,2096921, 305321, 387619
2096921,2096921, 305209, 387656
2096921,2096921, 305318, 387806
2096921,2096921, 305147, 387725
2096921,2096921, 305403, 387953
2096921,2096921, 305379, 388093
2096921,2096921, 305263, 388129
2096921,2096921, 305225, 388201
2096921,2096921, 305459, 387869
2096921,2096921, 305531, 388154
2096921,2096921, 305452, 387804
2096921,2096921, 305481, 387915
2096921,2096921, 305457, 388107
2096921,2096921, 305515, 388278
2096921,2096921, 305671, 388436
2096921,2096921, 305924, 388592
2096921,2096921, 305752, 388365
2096921,2096921, 305601, 388691
2096921,2096921, 305716, 388571
2096921,2096921, 305670, 388363
2096921,2096921, 305916, 388334
2096921,2096921, 305932, 388602
2096921,2096921, 305751, 388319
2096921,2096921, 305926, 388444
2096921,2096921, 306178, 388765
2096921,2096921, 306302, 388858
2096921,2096921, 306525, 388821
2096921,2096921, 306330, 388919
2096921,2096921, 306401, 388745
2096921,2096921, 306691, 389001
2096921,2096921, 306601, 389114
2096921,2096921, 306645, 389229
2096921,2096921, 306252, 389000
2096921,2096921, 306534, 389199
2096921,2096921, 306537, 388927
2096921,2096921, 306414, 389182
2096921,2096921, 306685, 389195
2096921,2096921, 306891, 389576
2096921,2096921, 306786, 389566
2096921,2096921, 306962, 389523
2096921,2096921, 307011, 389453
2096921,2096921, 306717, 389646
2096921,2096921, 306884, 389630
2096921,2096921, 306967, 389675
2096921,2096921, 307054, 389375
2096921,2096921, 307327, 389612
2096921,2096921, 307183, 389317
2096921,2096921, 307143, 389700
2096921,2096921, 306861, 389466
2096921,2096921, 307453, 389644
2096921,2096921, 307259, 389856
2096921,2096921, 307137, 389857
2096921,2096921, 307127, 389678
2096921,2096921, 307214, 389796
2096921,2096921, 307139, 389779
2096921,2096921, 307185, 389912
2096921,2096921, 307419, 389750
2096921,2096921, 307008, 389896
2096921,2096921, 307186, 389557
2096921,2096921, 307265, 389730
2096921,2096921, 307247, 389786
2096921,2096921, 307101, 389931
2096921,2096921, 307134, 389631
2096921,2096921, 307197, 389620
2096921,2096921, 307033, 389534
2096921,2096921, 307413, 389719
2096921,2096921, 307305, 389814
2096921,2096921, 307521, 389893
2096921,2096921, 307348, 389871
2096921,2096921, 307130, 389994
2096921,2096921, 306899, 389780
2096921,2096921, 307189, 389486
2096921,2096921, 307122, 389692
2096921,2096921, 307203, 389572
2096921,2096921, 306897, 389709
2096921,2096921, 307171, 389749
2096921,2096921, 307042, 389647
2096921,2096921, 306849, 389548
2096921,2096921, 306957, 389649
2096921,2096921, 306764, 389637
2096921,2096921, 306869, 389173
2096921,2096921, 306692, 389244
2096921,2096921, 306724, 388961
2096921,2096921, 306795, 389158
2096921,2096921, 306605, 389258
2096921,2096921, 306529, 388951
2096921,2096921, 306789, 389226
2096921,2096921, 306786, 389124
2096921,2096921, 306590, 389473
2096921,2096921, 306596, 389100
2096921,2096921, 306296, 388879
2096921,2096921, 306600, 388944
2096921,2096921, 306640, 388778
2096921,2096921, 306712, 388801
2096921,2096921, 306363, 388747
2096921,2096921, 306384, 388454
2096921,2096921, 306162, 388455
2096921,2096921, 306208, 388708
2096921,2096921, 306384, 388538
2096921,2096921, 306290, 388719
2096921,2096921, 306088, 388330
2096921,2096921, 306144, 388601
2096921,2096921, 305849, 388541
2096921,2096921, 305933, 388595
2096921,2096921, 305905, 387970
2096921,2096921, 305862, 388099
2096921,2096921, 305935, 388366
2096921,2096921, 306073, 388220
2096921,2096921, 305913, 388181
2096921,2096921, 305900, 388070
2096921,2096921, 305561, 388073
2096921,2096921, 305713, 388167
2096921,2096921, 305548, 388244
2096921,2096921, 305711, 388266
2096921,2096921, 305634, 388031
2096921,2096921, 305806, 387967
2096921,2096921, 305808, 388191
2096921,2096921, 305686, 387955
2096921,2096921, 305567, 387952
2096921,2096921, 305805, 387851
2096921,2096921, 305624, 387887
2096921,2096921, 305535, 387859
2096921,2096921, 305742, 387760
2096921,2096921, 305836, 387644
2096921,2096921, 305579, 387720
2096921,2096921, 305548, 387904
2096921,2096921, 305679, 387620
2096921,2096921, 305688, 387599
2096921,2096921, 305616, 387862
2096921,2096921, 305358, 387759
2096921,2096921, 305514, 387648
2096921,2096921, 305624, 387934
2096921,2096921, 305584, 387974
2096921,2096921, 305832, 388094
2096921,2096921, 305706, 387848
2096921,2096921, 305920, 387906
2096921,2096921, 305978, 388213
2096921,2096921, 306078, 388064
2096921,2096921, 306086, 388308
2096921,2096921, 306229, 388018
2096921,2096921, 305907, 388106
2096921,2096921, 305735, 388111
2096921,2096921, 305696, 388042
2096921,2096921, 305620, 388082
2096921,2096921, 305941, 387899
2096921,2096921, 306087, 388091
2096921,2096921, 306044, 388326
2096921,2096921, 306319, 388236
2096921,2096921, 306027, 388281
2096921,2096921, 306025, 387944
2096921,2096921, 305789, 388104
2096921,2096921, 306296, 387940
2096921,2096921, 306418, 388014
2096921,2096921, 306158, 388143
2096921,2096921, 306162, 388387
2096921,2096921, 306156, 388056
2096921,2096921, 305991, 388385
2096921,2096921, 306259, 388382
2096921,2096921, 306338, 388399
2096921,2096921, 306396, 388325
2096921,2096921, 306557, 388446
2096921,2096921, 306399, 388400
2096921,2096921, 306137, 388461
2096921,2096921, 306276, 388220
2096921,2096921, 306453, 388380
2096921,2096921, 306350, 388076
2096921,2096921, 306350, 388226
2096921,2096921, 306171, 388114
2096921,2096921, 306163, 388364
2096921,2096921, 306473, 388291
2096921,2096921, 306438, 388508
2096921,2096921, 306470, 388562
2096921,2096921, 306119, 388714
2096921,2096921, 306077, 388322
2096921,2096921, 306288, 388289
2096921,2096921, 306471, 388221
2096921,2096921, 306465, 388462
2096921,2096921, 306257, 388160
2096921,2096921, 306374, 388534
2096921,2096921, 306715, 388348
2096921,2096921, 306563, 388275
2096921,2096921, 306280, 388415
2096921,2096921, 306296, 388399
2096921,2096921, 306397, 388620
2096921,2096921, 306461, 388445
2096921,2096921, 306844, 388550
2096921,2096921, 306621, 388765
2096921,2096921, 306439, 388332
2096921,2096921, 306600, 388448
2096921,2096921, 306493, 388413
2096921,2096921, 306539, 388165
2096921,2096921, 306528, 388418
2096921,2096921, 306371, 388269
2096921,2096921, 306437, 388423
2096921,2096921, 306790, 388395
2096921,2096921, 306631, 388301
2096921,2096921, 306777, 388516
2096921,2096921, 306640, 388276
2096921,2096921, 306679, 388312
2096921,2096921, 306670, 388328
2096921,2096921, 306605, 388303
2096921,2096921, 306637, 388223
2096921,2096921, 306730, 388364
2096921,2096921, 306519, 388171
2096921,2096921, 306964, 388458
2096921,2096921, 306572, 388452
2096921,2096921, 306533, 388544
2096921,2096921, 306703, 388723
2096921,2096921, 307086, 388265
2096921,2096921, 306624, 388365
2096921,2096921, 306675, 388350
2096921,2096921, 306716, 388188
2096921,2096921, 306674, 388444
2096921,2096921, 306435, 388211
2096921,2096921, 306888, 388519
2096921,2096921, 306906, 388459
2096921,2096921, 306814, 388627
2096921,2096921, 306847, 388666
2096921,2096921, 306815, 388371
2096921,2096921, 306694, 388344
2096921,2096921, 306640, 388658
2096921,2096921, 306505, 388493
2096921,2096921, 306506, 388446
2096921,2096921, 306751, 388573
2096921,2096921, 306798, 388919
2096921,2096921, 306907, 388871
2096921,2096921, 306801, 388556
2096921,2096921, 306767, 388508
2096921,2096921, 306761, 388633
2096921,2096921, 306831, 388334
2096921,2096921, 306702, 388405
2096921,2096921, 306689, 388484
2096921,2096921, 306652, 388474
2096921,2096921, 306632, 388201
2096921,2096921, 306759, 388382
2096921,2096921, 306666, 388238
2096921,2096921, 306641, 388190
2096921,2096921, 306368, 388275
2096921,2096921, 306652, 388464
2096921,2096921, 306616, 388365
2096921,2096921, 306802, 388367
2096921,2096921, 306550, 388356
2096921,2096921, 306665, 388434
2096921,2096921, 306693, 388277
2096921,2096921, 306691, 388423
2096921,2096921, 306535, 388419
2096921,2096921, 307060, 388489
2096921,2096921, 306802, 388540
2096921,2096921, 306606, 388469
2096921,2096921, 306422, 388453
2096921,2096921, 306576, 388626
2096921,2096921, 306649, 388346
2096921,2096921, 306881, 388571
2096921,2096921, 306676, 388398
2096921,2096921, 306677, 388274
2096921,2096921, 306556, 388244
2096921,2096921, 306610, 388282
2096921,2096921, 306609, 388353
2096921,2096921, 306767, 388112
2096921,2096921, 306628, 387997
2096921,2096921, 306563, 388252
2096921,2096921, 306516, 388221
2096921,2096921, 306637, 388308
2096921,2096921, 306482, 388391
2096921,2096921, 306525, 388403
2096921,2096921, 306725, 388523
2096921,2096921, 306664, 387950
2096921,2096921, 306758, 388328
2096921,2096921, 306419, 388297
2096921,2096921, 306480, 388459
2096921,2096921, 306282, 388220
2096921,2096921, 306654, 388128
2096921,2096921, 306658, 388292
2096921,2096921, 306667, 388168
2096921,2096921, 306590, 388229
2096921,2096921, 306298, 388251
2096921,2096921, 306496, 388200
2096921,2096921, 306536, 388202
2096921,2096921, 306687, 387938
2096921,2096921, 306597, 388063
2096921,2096921, 306179, 387789
2096921,2096921, 306261, 388012
2096921,2096921, 306375, 387801
2096921,2096921, 306133, 387978
2096921,2096921, 306044, 388148
2096921,2096921, 306268, 388147
2096921,2096921, 306347, 388060
2096921,2096921, 306410, 387976
2096921,2096921, 306443, 388016
2096921,2096921, 306119, 388038
2096921,2096921, 306369, 387697
2096921,2096921, 306181, 387908
2096921,2096921, 306324, 387671
2096921,2096921, 306163, 387657
2096921,2096921, 306480, 387766
2096921,2096921, 306017, 387955
2096921,2096921, 306262, 387757
2096921,2096921, 306190, 387773
2096921,2096921, 306451, 388006
2096921,2096921, 306240, 388167
2096921,2096921, 306398, 387806
2096921,2096921, 306312, 387584
2096921,2096921, 306254, 387813
2096921,2096921, 306532, 387699
2096921,2096921, 306365, 387719
2096921,2096921, 306172, 387679
2096921,2096921, 306402, 387661
2096921,2096921, 306477, 387993
2096921,2096921, 306205, 388050
2096921,2096921, 306372, 387661
2096921,2096921, 306614, 387571
2096921,2096921, 306329, 387720
2096921,2096921, 306075, 387612
2096921,2096921, 306096, 387570
2096921,2096921, 306295, 387426
2096921,2096921, 306195, 387636
2096921,2096921, 306056, 387769
2096921,2096921, 306204, 387545
2096921,2096921, 306473, 387264
2096921,2096921, 306233, 387627
2096921,2096921, 306124, 387449
2096921,2096921, 306277, 387485
2096921,2096921, 305995, 387569
2096921,2096921, 306081, 387583
2096921,2096921, 306121, 387635
2096921,2096921, 306104, 387765
2096921,2096921, 306074, 387604
2096921,2096921, 306125, 387705
2096921,2096921, 306084, 387580
2096921,2096921, 306382, 387525
2096921,2096921, 306126, 387428
2096921,2096921, 306164, 387323
2096921,2096921, 306076, 386962
2096921,2096921, 306228, 387373
2096921,2096921, 306149, 387621
2096921,2096921, 306175, 387302
2096921,2096921, 305747, 387634
2096921,2096921, 306071, 387273
2096921,2096921, 306099, 387418
2096921,2096921, 306055, 387288
2096921,2096921, 306080, 387073
2096921,2096921, 305785, 387189
2096921,2096921, 305825, 387134
2096921,2096921, 305906, 387151
2096921,2096921, 306060, 387372
2096921,2096921, 305911, 387338
2096921,2096921, 306015, 387288
2096921,2096921, 306114, 387176
2096921,2096921, 306015, 387409
2096921,2096921, 306365, 387148
2096921,2096921, 305971, 387098
2096921,2096921, 305773, 387242
2096921,2096921, 305977, 387256
2096921,2096921, 305928, 387199
2096921,2096921, 305703, 387116
2096921,2096921, 305750, 387114
2096921,2096921, 306013, 387126
2096921,2096921, 305889, 387064
2096921,2096921, 305876, 387328
2096921,2096921, 305767, 386983
2096921,2096921, 305853, 387000
2096921,2096921, 305698, 386867
2096921,2096921, 305803, 386662
2096921,2096921, 306020, 386760
2096921,2096921, 305843, 387194
2096921,2096921, 305544, 386704
2096921,2096921, 305466, 386718
2096921,2096921, 305699, 386691
2096921,2096921, 305970, 386910
2096921,2096921, 305923, 386757
2096921,2096921, 305630, 387054
2096921,2096921, 305579, 386889
2096921,2096921, 305716, 386879
2096921,2096921, 305610, 386974
2096921,2096921, 305507, 386902
2096921,2096921, 305540, 386746
2096921,2096921, 305480, 386903
2096921,2096921, 305397, 386569
2096921,2096921, 305409, 386814
2096921,2096921, 305465, 387054
2096921,2096921, 305254, 386774
2096921,2096921, 305392, 386650
2096921,2096921, 305465, 386427
2096921,2096921, 305509, 386748
2096921,2096921, 305393, 386641
2096921,2096921, 305671, 386530
2096921,2096921, 305595, 386776
2096921,2096921, 305646, 386760
2096921,2096921, 305411, 387017
2096921,2096921, 305408, 386576
2096921,2096921, 305333, 386322
2096921,2096921, 305192, 386517
2096921,2096921, 305206, 386594
2096921,2096921, 305471, 386648
2096921,2096921, 305197, 386306
2096921,2096921, 304891, 386373
2096921,2096921, 304823, 386392
2096921,2096921, 305128, 385823
2096921,2096921, 305032, 385996
2096921,2096921, 304838, 385944
2096921,2096921, 304744, 385899
2096921,2096921, 304695, 385665
2096921,2096921, 304618, 385777
2096921,2096921, 304539, 385578
2096921,2096921, 304351, 385775
2096921,2096921, 304008, 385384
2096921,2096921, 304202, 385358
2096921,2096921, 304215, 385431
2096921,2096921, 304600, 385586
2096921,2096921, 303929, 385327
2096921,2096921, 303788, 384952
2096921,2096921, 303374, 384729
2096921,2096921, 303411, 384370
2096921,2096921, 303468, 384397
2096921,2096921, 303207, 384496
2096921,2096921, 302902, 383898
2096921,2096921, 302862, 383686
2096921,2096921, 302948, 383582
2096921,2096921, 302914, 383843
2096921,2096921, 301924, 383653
2096921,2096921, 301487, 382740
2096921,2096921, 301668, 382273
2096921,2096921, 301683, 382319
2096921,2096921, 301513, 382212
2096921,2096921, 300526, 382171
2096921,2096921, 300020, 380967
2096921,2096921, 299694, 380603
2096921,2096921, 300051, 380631
2096921,2096921, 299686, 380651
2096921,2096921, 298996, 380622
2096921,2096921, 298304, 379462
2096921,2096921, 298265, 379100
2096921,2096921, 298483, 378990
2096921,2096921, 298417, 378708
2096921,2096921, 297921, 379000
2096921,2096921, 297591, 377941
2096921,2096921, 297334, 378141
2096921,2096921, 297362, 377960
2096921,2096921, 297332, 378258
2096921,2096921, 296945, 378154
2096921,2096921, 296759, 377474
2096921,2096921, 296656, 377139
2096921,2096921, 296503, 377179
2096921,2096921, 296566, 377072
2096921,2096921, 296329, 377253
2096921,2096921, 296474, 376640
2096921,2096921, 296492, 376796
2096921,2096921, 296426, 376594
2096921,2096921, 296103, 376794
2096921,2096921, 295974, 376802
2096921,2096921, 295844, 376301
2096921,2096921, 295912, 376213
2096921,2096921, 295841, 376066
2096921,2096921, 295703, 376211
2096921,2096921, 295542, 376284
2096921,2096921, 295434, 376081
2096921,2096921, 295652, 375989
2096921,2096921, 295276, 375975
2096921,2096921, 295508, 375722
2096921,2096921, 295877, 375770
2096921,2096921, 295389, 376024
2096921,2096921, 295494, 375910
2096921,2096921, 295494, 375781
2096921,2096921, 295340, 375786
2096921,2096921, 295460, 375892
2096921,2096921, 295338, 376078
2096921,2096921, 295092, 375750
2096921,2096921, 295144, 375987
2096921,2096921, 295442, 376136
2096921,2096921, 295441, 376199
2096921,2096921, 295591, 376119
2096921,2096921, 295566, 375762
2096921,2096921, 295854, 376017
2096921,2096921, 295720, 376216
2096921,2096921, 295834, 376003
2096921,2096921, 295785, 376412
2096921,2096921, 295695, 376120
2096921,2096921, 295659, 376123
2096921,2096921, 295630, 375976
2096921,2096921, 295511, 376037
2096921,2096921, 295697, 376159
2096921,2096921, 295393, 376051
2096921,2096921, 295452, 376188
2096921,2096921, 295758, 376305
2096921,2096921, 295990, 376076
2096921,2096921, 296005, 376700
2096921,2096921, 295922, 376347
2096921,2096921, 295764, 376305
2096921,2096921, 296194, 376213
2096921,2096921, 296082, 376398
2096921,2096921, 296245, 376587
2096921,2096921, 295933, 376827
2096921,2096921, 296252, 376541
2096921,2096921, 296032, 376915
2096921,2096921, 296648, 376714
2096921,2096921, 296535, 377095
2096921,2096921, 296736, 377128
2096921,2096921, 296669, 377158
2096921,2096921, 296762, 377205
2096921,2096921, 296668, 376989
2096921,2096921, 296887, 377070
2096921,2096921, 296998, 377228
2096921,2096921, 297106, 377399
2096921,2096921, 297015, 377495
2096921,2096921, 297264, 377367
2096921,2096921, 297151, 377811
2096921,2096921, 297243, 378141
2096921,2096921, 297267, 377982
2096921,2096921, 297427, 377980
2096921,2096921, 297405, 378004
2096921,2096921, 297682, 377588
2096921,2096921, 297682, 377691
2096921,2096921, 297553, 378029
2096921,2096921, 297642, 377923
2096921,2096921, 297737, 378171
2096921,2096921, 297779, 378088
2096921,2096921, 297935, 378420
2096921,2096921, 297723, 378494
2096921,2096921, 297872, 378638
2096921,2096921, 297937, 378529
2096921,2096921, 298138, 378540
2096921,2096921, 298075, 378620
2096921,2096921, 298042, 378699
2096921,2096921, 298001, 378635
2096921,2096921, 298535, 378312
2096921,2096921, 298433, 378790
2096921,2096921, 298493, 379046
2096921,2096921, 298499, 378912
2096921,2096921, 298610, 379134
2096921,2096921, 298796, 378992
2096921,2096921, 298677, 379190
2096921,2096921, 298501, 379311
2096921,2096921, 298741, 379364
2096921,2096921, 298898, 379426
2096921,2096921, 298568, 379415
2096921,2096921, 299153, 379681
2096921,2096921, 299160, 379636
2096921,2096921, 299128, 379660
2096921,2096921, 298980, 379579
2096921,2096921, 299208, 379650
2096921,2096921, 299512, 380129
2096921,2096921, 299310, 380161
2096921,2096921, 299182, 379625
2096921,2096921, 299180, 379930
2096921,2096921, 299683, 379936
2096921,2096921, 299361, 380266
2096921,2096921, 299482, 380331
2096921,2096921, 299557, 380455
2096921,2096921, 299350, 380511
2096921,2096921, 299521, 380465
2096921,2096921, 299621, 380323
2096921,2096921, 299708, 380351
2096921,2096921, 299743, 380333
2096921,2096921, 299797, 380396
2096921,2096921, 299981, 380468
2096921,2096921, 300064, 380607
2096921,2096921, 299883, 380944
2096921,2096921, 299989, 380775
2096921,2096921, 300241, 380728
2096921,2096921, 300193, 380805
2096921,2096921, 299953, 380938
2096921,2096921, 300133, 380735
2096921,2096921, 299866, 380574
2096921,2096921, 299956, 380807
2096921,2096921, 300020, 380628
2096921,2096921, 300242, 381092
2096921,2096921, 300410, 380893
2096921,2096921, 300357, 381029
2096921,2096921, 300093, 380931
2096921,2096921, 300133, 381048
2096921,2096921, 300120, 380755
2096921,2096921, 300029, 380824
2096921,2096921, 300295, 380736
2096921,2096921, 300246, 380865
2096921,2096921, 300303, 380614
2096921,2096921, 300320, 380999
2096921,2096921, 300279, 380745
2096921,2096921, 300420, 380832
2096921,2096921, 300335, 380972
2096921,2096921, 299948, 380892
2096921,2096921, 300170, 380808
2096921,2096921, 300172, 380692
2096921,2096921, 299874, 380908
2096921,2096921, 299704, 381062
2096921,2096921, 299963, 380689
2096921,2096921, 299897, 380754
2096921,2096921, 300193, 380739
2096921,2096921, 299964, 380758
2096921,2096921, 299886, 380618
2096921,2096921, 299711, 380501
2096921,2096921, 299910, 380445
2096921,2096921, 299884, 380753
2096921,2096921, 299795, 380538
2096921,2096921, 299791, 380558
2096921,2096921, 299898, 380801
2096921,2096921, 299703, 380572
2096921,2096921, 299887, 380599
2096921,2096921, 299825, 380557
2096921,2096921, 299440, 380626
2096921,2096921, 299740, 380628
2096921,2096921, 299719, 380147
2096921,2096921, 299962, 380249
2096921,2096921, 299567, 380240
2096921,2096921, 299712, 380515
2096921,2096921, 299528, 380478
2096921,2096921, 299597, 380402
2096921,2096921, 299687, 380472
2096921,2096921, 299887, 380520
2096921,2096921, 299583, 380521
2096921,2096921, 299592, 380344
2096921,2096921, 299721, 380255
2096921,2096921, 299706, 380180
2096921,2096921, 299536, 380647
2096921,2096921, 299729, 380348
2096921,2096921, 299607, 380281
2096921,2096921, 299737, 380490
2096921,2096921, 300050, 380474
2096921,2096921, 300005, 380452
2096921,2096921, 299852, 380414
2096921,2096921, 300086, 380409
2096921,2096921, 299978, 380545
2096921,2096921, 299966, 380606
2096921,2096921, 299713, 380641
2096921,2096921, 299795, 380252
2096921,2096921, 299724, 380611
2096921,2096921, 299869, 380332
2096921,2096921, 299545, 380369
2096921,2096921, 299870, 380711
2096921,2096921, 299869, 380730
2096921,2096921, 300257, 380699
2096921,2096921, 300183, 380608
2096921,2096921, 300009, 380856
2096921,2096921, 299966, 380916
2096921,2096921, 300272, 380906
2096921,2096921, 300289, 381030
2096921,2096921, 300628, 381251
2096921,2096921, 300362, 381335
2096921,2096921, 300504, 381025
2096921,2096921, 300443, 381248
2096921,2096921, 300500, 380843
2096921,2096921, 300587, 381479
2096921,2096921, 300453, 381370
2096921,2096921, 300481, 381293
2096921,2096921, 300523, 381193
2096921,2096921, 300505, 381250
2096921,2096921, 300630, 381522
2096921,2096921, 300762, 381796
2096921,2096921, 300976, 381530
2096921,2096921, 300771, 381758
2096921,2096921, 300871, 381401
2096921,2096921, 300924, 381700
2096921,2096921, 301029, 381769
2096921,2096921, 300970, 381714
2096921,2096921, 301266, 381834
2096921,2096921, 301113, 381751
2096921,2096921, 301342, 382203
2096921,2096921, 301340, 382041
2096921,2096921, 301490, 381877
2096921,2096921, 301229, 382099
2096921,2096921, 301606, 381913
2096921,2096921, 301423, 382271
2096921,2096921, 301559, 382171
2096921,2096921, 301360, 382290
2096921,2096921, 301518, 382194
2096921,2096921, 301380, 382048
2096921,2096921, 301802, 382417
2096921,2096921, 301524, 382530
2096921,2096921, 301533, 382476
2096921,2096921, 301638, 382475
2096921,2096921, 301828, 382714
2096921,2096921, 301930, 382392
2096921,2096921, 302130, 382683
2096921,2096921, 301533, 383064
2096921,2096921, 301679, 382586
2096921,2096921, 302089, 382912
2096921,2096921, 302146, 383163
2096921,2096921, 302069, 383080
2096921,2096921, 302110, 382819
2096921,2096921, 301781, 382947
2096921,2096921, 302218, 382752
2096921,2096921, 302282, 383057
2096921,2096921, 302289, 383280
2096921,2096921, 302094, 383420
2096921,2096921, 302156, 383176
2096921,2096921, 302441, 383251
2096921,2096921, 302688, 383380
2096921,2096921, 302502, 383572
2096921,2096921, 302713, 383543
2096921,2096921, 302740, 383609
2096921,2096921, 302463, 383613
2096921,2096921, 302652, 383687
2096921,2096921, 302567, 383704
2096921,2096921, 302579, 383645
2096921,2096921, 302613, 383560
2096921,2096921, 303010, 383571
2096921,2096921, 302575, 383897
2096921,2096921, 302761, 383708
2096921,2096921, 303015, 383677
2096921,2096921, 303001, 383900
2096921,2096921, 302991, 383487
2096921,2096921, 302973, 384034
2096921,2096921, 303155, 383805
2096921,2096921, 303098, 383909
2096921,2096921, 303201, 384224
2096921,2096921, 303235, 383801
2096921,2096921, 303487, 384088
2096921,2096921, 303239, 384287
2096921,2096921, 303424, 384376
2096921,2096921, 303396, 384419
2096921,2096921, 303431, 384225
2096921,2096921, 303470, 384488
2096921,2096921, 303332, 384277
2096921,2096921, 303348, 384406
2096921,2096921, 303551, 384487
2096921,2096921, 303843, 384787
2096921,2096921, 303860, 384903
2096921,2096921, 303524, 384925
2096921,2096921, 303877, 384686
2096921,2096921, 304137, 384799
2096921,2096921, 303758, 384746
2096921,2096921, 304053, 384913
2096921,2096921, 303845, 384990
2096921,2096921, 303814, 384990
2096921,2096921, 303904, 384943
2096921,2096921, 303855, 384935
2096921,2096921, 303902, 384935
2096921,2096921, 304053, 385170
2096921,2096921, 304284, 385173
2096921,2096921, 304245, 385280
2096921,2096921, 304501, 385038
2096921,2096921, 304245, 385256
2096921,2096921, 304333, 385305
2096921,2096921, 304503, 385468
2096921,2096921, 304263, 385146
2096921,2096921, 304381, 385500
2096921,2096921, 304456, 385718
2096921,2096921, 304465, 385513
2096921,2096921, 304338, 385641
2096921,2096921, 304439, 385449
2096921,2096921, 304525, 385589
2096921,2096921, 304408, 385881
2096921,2096921, 304452, 385689
2096921,2096921, 304515, 385514
2096921,2096921, 304596, 385848
2096921,2096921, 304851, 385770
2096921,2096921, 304860, 385886
2096921,2096921, 304897, 386175
2096921,2096921, 304890, 385723
2096921,2096921, 304774, 386040
2096921,2096921, 304687, 385871
2096921,2096921, 304904, 386095
2096921,2096921, 304859, 386173
2096921,2096921, 304874, 386473
2096921,2096921, 304747, 386048
2096921,2096921, 304884, 385980
2096921,2096921, 304931, 386161
2096921,2096921, 304970, 386269
2096921,2096921, 304948, 386300
2096921,2096921, 305036, 386329
2096921,2096921, 304880, 386442
2096921,2096921, 305222, 386809
2096921,2096921, 305250, 386582
2096921,2096921, 305118, 386679
2096921,2096921, 304897, 386685
2096921,2096921, 305086, 386612
2096921,2096921, 305359, 386772
2096921,2096921, 305572, 387045
2096921,2096921, 305524, 386668
2096921,2096921, 305431, 386834
2096921,2096921, 305406, 386713
2096921,2096921, 305623, 386872
2096921,2096921, 305667, 386731
2096921,2096921, 305636, 386843
2096921,2096921, 305598, 387149
2096921,2096921, 305777, 386870
2096921,2096921, 305637, 386963
2096921,2096921, 305832, 387065
2096921,2096921, 305813, 387335
2096921,2096921, 305896, 387101
2096921,2096921, 305696, 387094
2096921,2096921, 305960, 387315
2096921,2096921, 305882, 387098
2096921,2096921, 306015, 387167
2096921,2096921, 305908, 387311
2096921,2096921, 305993, 387345
2096921,2096921, 305970, 387429
2096921,2096921, 306000, 387343
2096921,2096921, 306139, 387597
2096921,2096921, 306124, 387460
2096921,2096921, 306209, 387442
2096921,2096921, 306183, 387774
2096921,2096921, 306103, 387668
2096921,2096921, 306102, 387681
2096921,2096921, 306187, 387713
2096921,2096921, 306169, 387716
2096921,2096921, 306249, 387684
2096921,2096921, 306354, 387653
2096921,2096921, 306474, 387920
2096921,2096921, 306368, 387623
2096921,2096921, 306400, 387943
2096921,2096921, 306555, 387704
2096921,2096921, 306721, 387929
2096921,2096921, 306489, 387771
2096921,2096921, 306689, 388114
2096921,2096921, 306611, 387971
2096921,2096921, 306844, 388151
2096921,2096921, 306804, 388088
2096921,2096921, 306713, 388248
2096921,2096921, 306761, 388064
2096921,2096921, 306739, 388010
2096921,2096921, 306726, 388046
2096921,2096921, 306760, 388098
2096921,2096921, 306641, 388399
2096921,2096921, 306829, 388567
2096921,2096921, 306863, 388386
2096921,2096921, 307093, 388428
2096921,2096921, 306803, 388652
2096921,2096921, 307020, 388664
2096921,2096921, 306840, 388490
2096921,2096921, 307029, 388612
2096921,2096921, 306993, 388668
2096921,2096921, 307062, 388455
2096921,2096921, 307009, 388671
2096921,2096921, 307069, 388931
2096921,2096921, 307365, 388566
2096921,2096921, 307395, 388830
2096921,2096921, 307217, 388798
2096921,2096921, 307255, 389155
2096921,2096921, 307296, 388970
2096921,2096921, 307366, 388961
2096921,2096921, 307206, 389102
2096921,2096921, 307540, 389032
2096921,2096921, 307629, 388970
2096921,2096921, 307523, 389100
2096921,2096921, 307640, 389148
2096921,2096921, 307763, 389457
2096921,2096921, 307896, 389184
2096921,2096921, 307723, 389667
2096921,2096921, 307724, 389335
2096921,2096921, 307974, 389741
2096921,2096921, 307814, 389378
2096921,2096921, 307595, 389437
2096921,2096921, 307889, 389547
2096921,2096921, 307962, 389642
2096921,2096921, 307862, 389330
2096921,2096921, 308155, 389702
2096921,2096921, 308063, 389602
2096921,2096921, 307825, 389613
2096921,2096921, 307835, 389666
2096921,2096921, 308266, 389783
2096921,2096921, 308126, 389917
2096921,2096921, 308030, 390151
2096921,2096921, 308112, 389916
2096921,2096921, 308257, 389770
2096921,2096921, 308082, 389838
2096921,2096921, 308092, 389859
2096921,2096921, 308167, 390005
2096921,2096921, 308179, 389973
2096921,2096921, 308114, 390056
2096921,2096921, 308065, 389957
2096921,2096921, 308412, 390345
2096921,2096921, 308330, 390100
2096921,2096921, 308125, 390121
2096921,2096921, 308086, 390174
2096921,2096921, 308484, 390084
2096921,2096921, 308688, 390413
2096921,2096921, 308576, 390237
2096921,2096921, 308472, 390340
2096921,2096921, 307928, 390249
2096921,2096921, 308188, 390318
2096921,2096921, 308461, 390135
2096921,2096921, 308394, 390384
2096921,2096921, 308516, 390528
2096921,2096921, 308396, 390267
2096921,2096921, 308319, 390339
2096921,2096921, 308748, 390594
2096921,2096921, 308589, 390616
2096921,2096921, 308463, 390855
2096921,2096921, 308800, 390411
2096921,2096921, 309006, 390433
2096921,2096921, 308902, 390740
2096921,2096921, 308869, 390768
2096921,2096921, 308548, 390812
2096921,2096921, 308600, 390473
2096921,2096921, 308517, 390598
2096921,2096921, 309019, 390607
2096921,2096921, 308709, 390639
2096921,2096921, 308841, 390885
2096921,2096921, 308810, 390711
2096921,2096921, 308894, 390618
2096921,2096921, 308821, 391001
2096921,2096921, 308684, 390785
2096921,2096921, 308974, 390891
2096921,2096921, 309023, 391035
2096921,2096921, 308694, 391039
2096921,2096921, 308548, 390809
2096921,2096921, 308522, 390518
2096921,2096921, 308548, 390880
2096921,2096921, 308553, 390729
2096921,2096921, 308746, 390911
2096921,2096921, 308611, 390860
2096921,2096921, 308479, 390728
2096921,2096921, 308522, 390890
2096921,2096921, 308647, 390884
2096921,2096921, 308293, 390918
2096921,2096921, 308269, 390464
2096921,2096921, 308240, 390397
2096921,2096921, 308339, 390529
2096921,2096921, 308120, 390304
2096921,2096921, 307820, 390343
2096921,2096921, 307759, 390045
2096921,2096921, 307919, 390258
2096921,2096921, 308017, 390015
2096921,2096921, 307881, 389845
2096921,2096921, 307557, 389872
2096921,2096921, 307476, 389525
2096921,2096921, 307324, 389336
2096921,2096921, 307371, 389408
2096921,2096921, 307069, 389553
2096921,2096921, 306453, 389522
2096921,2096921, 305863, 388305
2096921,2096921, 305977, 387950
2096921,2096921, 306075, 387989
2096921,2096921, 306150, 388088
2096921,2096921, 305010, 387976
2096921,2096921, 304945, 386610
2096921,2096921, 304441, 386147
2096921,2096921, 304476, 386468
2096921,2096921, 304114, 386321
2096921,2096921, 303487, 386400
2096921,2096921, 303100, 385191
2096921,2096921, 303200, 385131
2096921,2096921, 303276, 385139
2096921,2096921, 303076, 385102
2096921,2096921, 302537, 385123
2096921,2096921, 302427, 384537
2096921,2096921, 302511, 384123
2096921,2096921, 302488, 384157
2096921,2096921, 302410, 384155
2096921,2096921, 301741, 384436
2096921,2096921, 301769, 383879
2096921,2096921, 301659, 383634
2096921,2096921, 301525, 383698
2096921,2096921, 301876, 383473
2096921,2096921, 301501, 383547
2096921,2096921, 301497, 383422
2096921,2096921, 301314, 383412
2096921,2096921, 301502, 383187
2096921,2096921, 301426, 382924
2096921,2096921, 301162, 383311
2096921,2096921, 300779, 383184
2096921,2096921, 300756, 382827
2096921,2096921, 300960, 382855
2096921,2096921, 301189, 382980
2096921,2096921, 301150, 383059
2096921,2096921, 301027, 382950
2096921,2096921, 301129, 382747
2096921,2096921, 300923, 383187
2096921,2096921, 301171, 382895
2096921,2096921, 300785, 382990
2096921,2096921, 300745, 382550
2096921,2096921, 300804, 382721
2096921,2096921, 300888, 382868
2096921,2096921, 300868, 382777
2096921,2096921, 300901, 383011
2096921,2096921, 301079, 383066
2096921,2096921, 301062, 383297
2096921,2096921, 301286, 383281
2096921,2096921, 301232, 383242
2096921,2096921, 301290, 383071
2096921,2096921, 301410, 383157
2096921,2096921, 301211, 383267
2096921,2096921, 300908, 383403
2096921,2096921, 301214, 383006
2096921,2096921, 301485, 383233
2096921,2096921, 301633, 383323
2096921,2096921, 301589, 383651
2096921,2096921, 301522, 383592
2096921,2096921, 301871, 383800
2096921,2096921, 301916, 383619
2096921,2096921, 301658, 383690
2096921,2096921, 301548, 383544
2096921,2096921, 301422, 383757
2096921,2096921, 301558, 383538
2096921,2096921, 301951, 383489
2096921,2096921, 301932, 383872
2096921,2096921, 302171, 384033
2096921,2096921, 302331, 383834
2096921,2096921, 302320, 384298
2096921,2096921, 302563, 384064
2096921,2096921, 302679, 384539
2096921,2096921, 302445, 384714
2096921,2096921, 302461, 384955
2096921,2096921, 302457, 384528
2096921,2096921, 302949, 384636
2096921,2096921, 303008, 384909
2096921,2096921, 302891, 385042
2096921,2096921, 303150, 385221
2096921,2096921, 303079, 385284
2096921,2096921, 303025, 385074
2096921,2096921, 303380, 385450
2096921,2096921, 303293, 385273
2096921,2096921, 303510, 385604
2096921,2096921, 303344, 385514
2096921,2096921, 303236, 385522
2096921,2096921, 303939, 386006
2096921,2096921, 303868, 386154
2096921,2096921, 303784, 385753
2096921,2096921, 303956, 385746
2096921,2096921, 304066, 385981
2096921,2096921, 303846, 386299
2096921,2096921, 304192, 386463
2096921,2096921, 304222, 386444
2096921,2096921, 304084, 386178
2096921,2096921, 304551, 386286
2096921,2096921, 304438, 386850
2096921,2096921, 304816, 387060
2096921,2096921, 304458, 386870
2096921,2096921, 304869, 386795
2096921,2096921, 305256, 386784
2096921,2096921, 304977, 387003
2096921,2096921, 304977, 387179
2096921,2096921, 305077, 387383
2096921,2096921, 304804, 387290
2096921,2096921, 305250, 387582
2096921,2096921, 305456, 387709
2096921,2096921, 305823, 387833
2096921,2096921, 305285, 387844
2096921,2096921, 305572, 388011
2096921,2096921, 305429, 387843
2096921,2096921, 305632, 388178
2096921,2096921, 305813, 388393
2096921,2096921, 305904, 388248
2096921,2096921, 305820, 388369
2096921,2096921, 306163, 388145
2096921,2096921, 306358, 388700
2096921,2096921, 306334, 388894
2096921,2096921, 306004, 389039
2096921,2096921, 306507, 388772
2096921,2096921, 306786, 388914
2096921,2096921, 306591, 389082
2096921,2096921, 306863, 389208
2096921,2096921, 306840, 389302
2096921,2096921, 306620, 389161
2096921,2096921, 306949, 389132
2096921,2096921, 306983, 389378
2096921,2096921, 307031, 389462
2096921,2096921, 306966, 389395
2096921,2096921, 306946, 389474
2096921,2096921, 307140, 389584
2096921,2096921, 307154, 389815
2096921,2096921, 307261, 389800
2096921,2096921, 307492, 390222
2096921,2096921, 307410, 389722
2096921,2096921, 307515, 389623
2096921,2096921, 307678, 390222
2096921,2096921, 307956, 390154
2096921,2096921, 307534, 390124
2096921,2096921, 307644, 390230
2096921,2096921, 307828, 390293
2096921,2096921, 307923, 390408
2096921,2096921, 307694, 390748
2096921,2096921, 307650, 390416
2096921,2096921, 307859, 390450
2096921,2096921, 307845, 390567
2096921,2096921, 307971, 390477
2096921,2096921, 308054, 390633
2096921,2096921, 308066, 390666
2096921,2096921, 308212, 390801
2096921,2096921, 307963, 390777
2096921,2096921, 307952, 390658
2096921,2096921, 307954, 390553
2096921,2096921, 307709, 390562
2096921,2096921, 307988, 390571
2096921,2096921, 308118, 390865
2096921,2096921, 308086, 390942
2096921,2096921, 308137, 391203
2096921,2096921, 308299, 391047
2096921,2096921, 308463, 391019
2096921,2096921, 308235, 390947
2096921,2096921, 308276, 391001
2096921,2096921, 308149, 390956
2096921,2096921, 308206, 390955
2096921,2096921, 308150, 390987
2096921,2096921, 308266, 390921
2096921,2096921, 307898, 391113
2096921,2096921, 308275, 391347
2096921,2096921, 308108, 391235
2096921,2096921, 308270, 391186
2096921,2096921, 308325, 390954
2096921,2096921, 308170, 390988
2096921,2096921, 308143, 391212
2096921,2096921, 308229, 390951
2096921,2096921, 308182, 391101
2096921,2096921, 308141, 390828
2096921,2096921, 308057, 391138
2096921,2096921, 308302, 391124
2096921,2096921, 308406, 391442
2096921,2096921, 308275, 390980
2096921,2096921, 307961, 391189
2096921,2096921, 308291, 390992
2096921,2096921, 308071, 391319
2096921,2096921, 307932, 390833
2096921,2096921, 307976, 391062
2096921,2096921, 308169, 390918
2096921,2096921, 308196, 391166
2096921,2096921, 308191, 390912
2096921,2096921, 308231, 391230
2096921,2096921, 308413, 390800
2096921,2096921, 308500, 391096
2096921,2096921, 308391, 391166
2096921,2096921, 308463, 390975
2096921,2096921, 308294, 390919
2096921,2096921, 308163, 391137
2096921,2096921, 308316, 391010
2096921,2096921, 308366, 391347
2096921,2096921, 308525, 391333
2096921,2096921, 308119, 391343
2096921,2096921, 308402, 391164
2096921,2096921, 308470, 391409
2096921,2096921, 308355, 391422
2096921,2096921, 308155, 391390
2096921,2096921, 308526, 391447
2096921,2096921, 308732, 391500
2096921,2096921, 308699, 391474
2096921,2096921, 308798, 391645
2096921,2096921, 309061, 391693
2096921,2096921, 308860, 391585
2096921,2096921, 308869, 391647
2096921,2096921, 308967, 391508
2096921,2096921, 309066, 391332
2096921,2096921, 308860, 392052
2096921,2096921, 308842, 392008
2096921,2096921, 308943, 391853
2096921,2096921, 309483, 392053
2096921,2096921, 309022, 392547
2096921,2096921, 309494, 392261
2096921,2096921, 309515, 392259
2096921,2096921, 309363, 392415
2096921,2096921, 309416, 392563
2096921,2096921, 309407, 392617
2096921,2096921, 309689, 392332
2096921,2096921, 309291, 392537
2096921,2096921, 309301, 392481
2096921,2096921, 309601, 392251
2096921,2096921, 309800, 392603
2096921,2096921, 309584, 392774
2096921,2096921, 309848, 392853
2096921,2096921, 309965, 392990
2096921,2096921, 310037, 393009
2096921,2096921, 310062, 393229
2096921,2096921, 310010, 393007
2096921,2096921, 310150, 393427
2096921,2096921, 309889, 393104
2096921,2096921, 309962, 393037
2096921,2096921, 310234, 393330
2096921,2096921, 310264, 393352
2096921,2096921, 310321, 393507
2096921,2096921, 310293, 393362
2096921,2096921, 310635, 393242
2096921,2096921, 310658, 393355
2096921,2096921, 310743, 393546
2096921,2096921, 310629, 393461
2096921,2096921, 310482, 393558
2096921,2096921, 310642, 393627
2096921,2096921, 310602, 393844
2096921,2096921, 310493, 393738
2096921,2096921, 310455, 393942
2096921,2096921, 310410, 393540
2096921,2096921, 310755, 393646
2096921,2096921, 310955, 394175
2096921,2096921, 311221, 394026
2096921,2096921, 311049, 394237
2096921,2096921, 311037, 394131
2096921,2096921, 310748, 394237
2096921,2096921, 311026, 394421
2096921,2096921, 311015, 394359
2096921,2096921, 311176, 394244
2096921,2096921, 310786, 394346
2096921,2096921, 311024, 394014
2096921,2096921, 311305, 394424
2096921,2096921, 311140, 394413
2096921,2096921, 311112, 394446
2096921,2096921, 311498, 394467
2096921,2096921, 311475, 394649
2096921,2096921, 311450, 394638
2096921,2096921, 311332, 394962
2096921,2096921, 311576, 394793
2096921,2096921, 311596, 394788
2096921,2096921, 311644, 394748
2096921,2096921, 311757, 394948
2096921,2096921, 311805, 394829
2096921,2096921, 311660, 394811
2096921,2096921, 311776, 394846
2096921,2096921, 311779, 394990
2096921,2096921, 311883, 395424
2096921,2096921, 312107, 395113
2096921,2096921, 312100, 395209
2096921,2096921, 311987, 395309
2096921,2096921, 311919, 395266
2096921,2096921, 311977, 395257
2096921,2096921, 312193, 395172
2096921,2096921, 312014, 395380
2096921,2096921, 312026, 395293
2096921,2096921, 312236, 395348
2096921,2096921, 312371, 395570
2096921,2096921, 312324, 395725
2096921,2096921, 312189, 395734
2096921,2096921, 312091, 395556
2096921,2096921, 312368, 395481
2096921,2096921, 312606, 395574
2096921,2096921, 312503, 395720
2096921,2096921, 312222, 395433
2096921,2096921, 312222, 395476
2096921,2096921, 312121, 395808
2096921,2096921, 312595, 395835
2096921,2096921, 312621, 396043
2096921,2096921, 312648, 395844
2096921,2096921, 312541, 396049
2096921,2096921, 312578, 396103
2096921,2096921, 312695, 395959
2096921,2096921, 312776, 396130
2096921,2096921, 312673, 396136
2096921,2096921, 312649, 396270
2096921,2096921, 312724, 395996
2096921,2096921, 312997, 396073
2096921,2096921, 312946, 396188
2096921,2096921, 313021, 396189
2096921,2096921, 312926, 396133
2096921,2096921, 313087, 396445
2096921,2096921, 313104, 396305
2096921,2096921, 313001, 396146
2096921,2096921, 312916, 396076
2096921,2096921, 313056, 396491
2096921,2096921, 312966, 396347
2096921,2096921, 313034, 396500
2096921,2096921, 313036, 396468
2096921,2096921, 313185, 396464
2096921,2096921, 313071, 396428
2096921,2096921, 313391, 396354
2096921,2096921, 313241, 396566
2096921,2096921, 313244, 396435
2096921,2096921, 313220, 396760
2096921,2096921, 312989, 396509
2096921,2096921, 313119, 396752
2096921,2096921, 313482, 396640
2096921,2096921, 313296, 396735
2096921,2096921, 313331, 396798
2096921,2096921, 313378, 396713
2096921,2096921, 313430, 396504
2096921,2096921, 313380, 396503
2096921,2096921, 313159, 396566
2096921,2096921, 313158, 396728
2096921,2096921, 313514, 396764
2096921,2096921, 313460, 396716
2096921,2096921, 313554, 396905
2096921,2096921, 313535, 397105
2096921,2096921, 313516, 396602
2096921,2096921, 313486, 397025
2096921,2096921, 313603, 396727
2096921,2096921, 313498, 397006
2096921,2096921, 313496, 397099
2096921,2096921, 313415, 396943
2096921,2096921, 313482, 397068
2096921,2096921, 313599, 397103
2096921,2096921, 313731, 397035
2096921,2096921, 313751, 396952
2096921,2096921, 313531, 396661
2096921,2096921, 313490, 396982
2096921,2096921, 313784, 396913
2096921,2096921, 313783, 397117
2096921,2096921, 313564, 396911
2096921,2096921, 313653, 397116
2096921,2096921, 313813, 396769
2096921,2096921, 313831, 397183
2096921,2096921, 313725, 397311
2096921,2096921, 313687, 397458
2096921,2096921, 313723, 397541
2096921,2096921, 314232, 397298
2096921,2096921, 313854, 397112
2096921,2096921, 313823, 397023
2096921,2096921, 313668, 397255
2096921,2096921, 313682, 397204
2096921,2096921, 313976, 396950
2096921,2096921, 313992, 396955
2096921,2096921, 313789, 397311
2096921,2096921, 313989, 397451
2096921,2096921, 314194, 397263
2096921,2096921, 313692, 397478
2096921,2096921, 313918, 397286
2096921,2096921, 313910, 397588
2096921,2096921, 314025, 397450
2096921,2096921, 313799, 397241
2096921,2096921, 313850, 397237
2096921,2096921, 314179, 397308
2096921,2096921, 314007, 397456
2096921,2096921, 314163, 397336
2096921,2096921, 314070, 397390
2096921,2096921, 313884, 397672
2096921,2096921, 314074, 397602
2096921,2096921, 314440, 397683
2096921,2096921, 314192, 397569
2096921,2096921, 313930, 397625
2096921,2096921, 314189, 397556
2096921,2096921, 314218, 397654
2096921,2096921, 314192, 397451
2096921,2096921, 314423, 397698
2096921,2096921, 314408, 397709
2096921,2096921, 314399, 397570
2096921,2096921, 314372, 397450
2096921,2096921, 314161, 397470
2096921,2096921, 314241, 397441
2096921,2096921, 314163, 397642
2096921,2096921, 314109, 397745
2096921,2096921, 314367, 397703
2096921,2096921, 314161, 397827
2096921,2096921, 314094, 397996
2096921,2096921, 314009, 397782
2096921,2096921, 314347, 397954
2096921,2096921, 314037, 397835
2096921,2096921, 314308, 397813
2096921,2096921, 314115, 397874
2096921,2096921, 314166, 397699
2096921,2096921, 314201, 397690
2096921,2096921, 314334, 397905
2096921,2096921, 314513, 397790
2096921,2096921, 314728, 397704
2096921,2096921, 314395, 397983
2096921,2096921, 314339, 397870
2096921,2096921, 314248, 397853
2096921,2096921, 314282, 397933
2096921,2096921, 314330, 397950
2096921,2096921, 314299, 397912
2096921,2096921, 314325, 398358
2096921,2096921, 314412, 397757
2096921,2096921, 314485, 397695
2096921,2096921, 314607, 397594
2096921,2096921, 314312, 397648
2096921,2096921, 314429, 397872
2096921,2096921, 314219, 397908
2096921,2096921, 314252, 397630
2096921,2096921, 314201, 397784
2096921,2096921, 314397, 397823
2096921,2096921, 314432, 397782
2096921,2096921, 314289, 397952
2096921,2096921, 314438, 398149
2096921,2096921, 314500, 398154
2096921,2096921, 314478, 397851
2096921,2096921, 314503, 397931
2096921,2096921, 314558, 398164
2096921,2096921, 314362, 398001
2096921,2096921, 314208, 397893
2096921,2096921, 314278, 397859
2096921,2096921, 314457, 397898
2096921,2096921, 314652, 397969
2096921,2096921, 314581, 397918
2096921,2096921, 314645, 397774
2096921,2096921, 314305, 397747
2096921,2096921, 314632, 398276
2096921,2096921, 314623, 397927
2096921,2096921, 314690, 398047
2096921,2096921, 314077, 398018
2096921,2096921, 314447, 397770
2096921,2096921, 314400, 398024
2096921,2096921, 314497, 397843
2096921,2096921, 314361, 397916
2096921,2096921, 314440, 397829
2096921,2096921, 314397, 397806
2096921,2096921, 314690, 397977
2096921,2096921, 314282, 397804
2096921,2096921, 314479, 397670
2096921,2096921, 314661, 397584
2096921,2096921, 314566, 397701
2096921,2096921, 314396, 398061
2096921,2096921, 314468, 398041
2096921,2096921, 314385, 397867
2096921,2096921, 314458, 397974
2096921,2096921, 314496, 398054
2096921,2096921, 314402, 397999
2096921,2096921, 314501, 398126
2096921,2096921, 314566, 397909
2096921,2096921, 314587, 397736
2096921,2096921, 314492, 397871
2096921,2096921, 314400, 397757
2096921,2096921, 314417, 397835
2096921,2096921, 314599, 397929
2096921,2096921, 314605, 398029
2096921,2096921, 314552, 397967
2096921,2096921, 314559, 397774
2096921,2096921, 314489, 398249
2096921,2096921, 314298, 397829
2096921,2096921, 314293, 397979
2096921,2096921, 314758, 398039
2096921,2096921, 314691, 397880
2096921,2096921, 314313, 398013
2096921,2096921, 313998, 397582
2096921,2096921, 314026, 397476
2096921,2096921, 314151, 397602
2096921,2096921, 314209, 397649
2096921,2096921, 313854, 397471
2096921,2096921, 313787, 396863
2096921,2096921, 313701, 397096
2096921,2096921, 313836, 397303
2096921,2096921, 314127, 397199
2096921,2096921, 313567, 397293
2096921,2096921, 313354, 396684
2096921,2096921, 313233, 396672
2096921,2096921, 313288, 396825
2096921,2096921, 313292, 396652
2096921,2096921, 312916, 396594
2096921,2096921, 312849, 396064
2096921,2096921, 312929, 396059
2096921,2096921, 312781, 395807
2096921,2096921, 312747, 396055
2096921,2096921, 312286, 396048
2096921,2096921, 312077, 395705
2096921,2096921, 311896, 395749
2096921,2096921, 311855, 395625
2096921,2096921, 312054, 395527
2096921,2096921, 311077, 395241
2096921,2096921, 310560, 393944
2096921,2096921, 310607, 393633
2096921,2096921, 310205, 393603
2096921,2096921, 310636, 393897
2096921,2096921, 309200, 393655
2096921,2096921, 308952, 392185
2096921,2096921, 308730, 391826
2096921,2096921, 308928, 392097
2096921,2096921, 309024, 391718
2096921,2096921, 307679, 391891
2096921,2096921, 307398, 390801
2096921,2096921, 307267, 390631
2096921,2096921, 307409, 390288
2096921,2096921, 307604, 390721
2096921,2096921, 306942, 390395
2096921,2096921, 306679, 389493
2096921,2096921, 306601, 389550
2096921,2096921, 306662, 389453
2096921,2096921, 306705, 389400
2096921,2096921, 306142, 389406
2096921,2096921, 305856, 388456
2096921,2096921, 305676, 388387
2096921,2096921, 305499, 388391
2096921,2096921, 305583, 388722
2096921,2096921, 305121, 388646
2096921,2096921, 305037, 387912
2096921,2096921, 305125, 388203
2096921,2096921, 305039, 388052
2096921,2096921, 304948, 387883
2096921,2096921, 304726, 387818
2096921,2096921, 305005, 387439
2096921,2096921, 304624, 387434
2096921,2096921, 304431, 387588
2096921,2096921, 304490, 387265
2096921,2096921, 304091, 387287
2096921,2096921, 304164, 387307
2096921,2096921, 303925, 387299
2096921,2096921, 304203, 387103
2096921,2096921, 304244, 387223
2096921,2096921, 304375, 387246
2096921,2096921, 304269, 386903
2096921,2096921, 304300, 387202
2096921,2096921, 304114, 386966
2096921,2096921, 304221, 386875
2096921,2096921, 303905, 386781
2096921,2096921, 303838, 386881
2096921,2096921, 304307, 386735
2096921,2096921, 304198, 386926
2096921,2096921, 304221, 387042
2096921,2096921, 304402, 386944
2096921,2096921, 304118, 386852
2096921,2096921, 304099, 386900
2096921,2096921, 304101, 387000
2096921,2096921, 304075, 386827
2096921,2096921, 304107, 386689
2096921,2096921, 304111, 387133
2096921,2096921, 304110, 387054
2096921,2096921, 304232, 387142
2096921,2096921, 304309, 387211
2096921,2096921, 304407, 387230
2096921,2096921, 304301, 386779
2096921,2096921, 304290, 386734
2096921,2096921, 304227, 386998
2096921,2096921, 304364, 387206
2096921,2096921, 304613, 387106
2096921,2096921, 304639, 387158
2096921,2096921, 304304, 387178
2096921,2096921, 304350, 387085
2096921,2096921, 304532, 387444
2096921,2096921, 304702, 387067
2096921,2096921, 304757, 387097
2096921,2096921, 304981, 387361
2096921,2096921, 304921, 387374
2096921,2096921, 304964, 387244
2096921,2096921, 304930, 387508
2096921,2096921, 304831, 387709
2096921,2096921, 305018, 387566
2096921,2096921, 304952, 387843
2096921,2096921, 304976, 387766
2096921,2096921, 305116, 387609
2096921,2096921, 305171, 387698
2096921,2096921, 305115, 388031
2096921,2096921, 305238, 388005
2096921,2096921, 305229, 388096
2096921,2096921, 305502, 388118
2096921,2096921, 305618, 388238
2096921,2096921, 305497, 388114
2096921,2096921, 305593, 388110
2096921,2096921, 305705, 388050
2096921,2096921, 305708, 388117
2096921,2096921, 305594, 388579
2096921,2096921, 305404, 388338
2096921,2096921, 305586, 388241
2096921,2096921, 305737, 388248
2096921,2096921, 305729, 388359
2096921,2096921, 305722, 388208
2096921,2096921, 305857, 388526
2096921,2096921, 305835, 388709
2096921,2096921, 305967, 388509
2096921,2096921, 306079, 388498
2096921,2096921, 306246, 388849
2096921,2096921, 306333, 388550
2096921,2096921, 306310, 388630
2096921,2096921, 306231, 388711
2096921,2096921, 306149, 388644
2096921,2096921, 306299, 388879
2096921,2096921, 306210, 389257
2096921,2096921, 306353, 388956
2096921,2096921, 306276, 388884
2096921,2096921, 306617, 388867
2096921,2096921, 306671, 389338
2096921,2096921, 306450, 389100
2096921,2096921, 306552, 389241
2096921,2096921, 306653, 389267
2096921,2096921, 306527, 389277
2096921,2096921, 306734, 389218
2096921,2096921, 306525, 389514
2096921,2096921, 306776, 389536
2096921,2096921, 306795, 389342
2096921,2096921, 306753, 389217
2096921,2096921, 307064, 389379
2096921,2096921, 307002, 389375
2096921,2096921, 307078, 389814
2096921,2096921, 306917, 389817
2096921,2096921, 307288, 389683
2096921,2096921, 306996, 389913
2096921,2096921, 307247, 390041
2096921,2096921, 307212, 389835
2096921,2096921, 307228, 390042
2096921,2096921, 307196, 389968
2096921,2096921, 307347, 389948
2096921,2096921, 307324, 389975
2096921,2096921, 307164, 390009
2096921,2096921, 307257, 390143
2096921,2096921, 307430, 389950
2096921,2096921, 307254, 390069
2096921,2096921, 307380, 390090
2096921,2096921, 307487, 389978
2096921,2096921, 307435, 390254
2096921,2096921, 307520, 390214
2096921,2096921, 307507, 389887
2096921,2096921, 307588, 389800
2096921,2096921, 307312, 390011
2096921,2096921, 307502, 389878
2096921,2096921, 307565, 390168
2096921,2096921, 307566, 389972
2096921,2096921, 307605, 390172
2096921,2096921, 307352, 390180
2096921,2096921, 307441, 390109
2096921,2096921, 307098, 390010
2096921,2096921, 307297, 389953
2096921,2096921, 307276, 389742
2096921,2096921, 307255, 389611
2096921,2096921, 307329, 389693
2096921,2096921, 307582, 389443
2096921,2096921, 307332, 390040
2096921,2096921, 307593, 389776
2096921,2096921, 307428, 389816
2096921,2096921, 307330, 389826
2096921,2096921, 307176, 389690
2096921,2096921, 307162, 389787
2096921,2096921, 307330, 389781
2096921,2096921, 307040, 389448
2096921,2096921, 307182, 389583
2096921,2096921, 306986, 389461
2096921,2096921, 306650, 389465
2096921,2096921, 306888, 389367
2096921,2096921, 306645, 389312
2096921,2096921, 306882, 389454
2096921,2096921, 306894, 389171
2096921,2096921, 306828, 389190
2096921,2096921, 306829, 389059
2096921,2096921, 306824, 389008
2096921,2096921, 306821, 388970
2096921,2096921, 306821, 388992
2096921,2096921, 306581, 388855
2096921,2096921, 306333, 388598
2096921,2096921, 306161, 388908
2096921,2096921, 306447, 388722
2096921,2096921, 306067, 388588
2096921,2096921, 306047, 388598
2096921,2096921, 306432, 388465
2096921,2096921, 306505, 388438
2096921,2096921, 306502, 388923
2096921,2096921, 306380, 388707
2096921,2096921, 306269, 388413
2096921,2096921, 306357, 388483
2096921,2096921, 306025, 388550
2096921,2096921, 306142, 388399
2096921,2096921, 305725, 388445
2096921,2096921, 305892, 388209
2096921,2096921, 305608, 388128
2096921,2096921, 305628, 388288
2096921,2096921, 305953, 388026
2096921,2096921, 305850, 388172
2096921,2096921, 305971, 388294
2096921,2096921, 306149, 388177
2096921,2096921, 306039, 388463
2096921,2096921, 305910, 388330
2096921,2096921, 305654, 388083
2096921,2096921, 305672, 388235
2096921,2096921, 305642, 388267
2096921,2096921, 305883, 388336
2096921,2096921, 305846, 388122
2096921,2096921, 305786, 388080
2096921,2096921, 305513, 388125
2096921,2096921, 305643, 387939
2096921,2096921, 305967, 388157
2096921,2096921, 305795, 388108
2096921,2096921, 305932, 387737
2096921,2096921, 305991, 388053
2096921,2096921, 306048, 387956
2096921,2096921, 305943, 388114
2096921,2096921, 305988, 388058
2096921,2096921, 306024, 388009
2096921,2096921, 306131, 388294
2096921,2096921, 306041, 388295
2096921,2096921, 306065, 388158
2096921,2096921, 305911, 388094
2096921,2096921, 306259, 388361
2096921,2096921, 306225, 388118
2096921,2096921, 306131, 388371
2096921,2096921, 306051, 388101
2096921,2096921, 306023, 388221
2096921,2096921, 306394, 388192
2096921,2096921, 306465, 388393
2096921,2096921, 306183, 388326
2096921,2096921, 306040, 388243
2096921,2096921, 306242, 388456
2096921,2096921, 306060, 388327
2096921,2096921, 306163, 388232
2096921,2096921, 306216, 388252
2096921,2096921, 306163, 388412
2096921,2096921, 306228, 388301
2096921,2096921, 306348, 388542
2096921,2096921, 306630, 388372
2096921,2096921, 306532, 388449
2096921,2096921, 306403, 388669
2096921,2096921, 306486, 388574
2096921,2096921, 306331, 388508
2096921,2096921, 306261, 388303
2096921,2096921, 306309, 388362
2096921,2096921, 306208, 388476
2096921,2096921, 306279, 388678
2096921,2096921, 306606, 388365
2096921,2096921, 306584, 388879
2096921,2096921, 306524, 388483
2096921,2096921, 306371, 388475
2096921,2096921, 306777, 388718
2096921,2096921, 306644, 388670
2096921,2096921, 306554, 388569
2096921,2096921, 306636, 388366
2096921,2096921, 306603, 388459
2096921,2096921, 306808, 388661
2096921,2096921, 306648, 388561
2096921,2096921, 306636, 388714
2096921,2096921, 306699, 388513
2096921,2096921, 306903, 388830
2096921,2096921, 306869, 388601
2096921,2096921, 306945, 388924
2096921,2096921, 307028, 388527
2096921,2096921, 306705, 388696
2096921,2096921, 306861, 388438
2096921,2096921, 307024, 388536
2096921,2096921, 306791, 388493
2096921,2096921, 306649, 388603
2096921,2096921, 306866, 388689
2096921,2096921, 307024, 388807
2096921,2096921, 306668, 388343
2096921,2096921, 306696, 388474
2096921,2096921, 306859, 388671
2096921,2096921, 306723, 388798
2096921,2096921, 306825, 388761
2096921,2096921, 306923, 388945
2096921,2096921, 306698, 388814
2096921,2096921, 306848, 388801
2096921,2096921, 306638, 388753
2096921,2096921, 306824, 389094
2096921,2096921, 306698, 388593
2096921,2096921, 306806, 388654
2096921,2096921, 306749, 388966
2096921,2096921, 306689, 388825
2096921,2096921, 307197, 388740
2096921,2096921, 307208, 388583
2096921,2096921, 307094, 388608
2096921,2096921, 306906, 388878
2096921,2096921, 307142, 388873
2096921,2096921, 307206, 388974
2096921,2096921, 306783, 388880
2096921,2096921, 306828, 388706
2096921,2096921, 307157, 388701
2096921,2096921, 306960, 388893
2096921,2096921, 306844, 388864
2096921,2096921, 307178, 388941
2096921,2096921, 307053, 388973
2096921,2096921, 306915, 389195
2096921,2096921, 307144, 388851
2096921,2096921, 307476, 388864
2096921,2096921, 306978, 388816
2096921,2096921, 307009, 388577
2096921,2096921, 306827, 388476
2096921,2096921, 306937, 388617
2096921,2096921, 306839, 388641
2096921,2096921, 307090, 388681
2096921,2096921, 307060, 388707
2096921,2096921, 307009, 388816
2096921,2096921, 306822, 388978
2096921,2096921, 306908, 389043
2096921,2096921, 306880, 389123
2096921,2096921, 306812, 388899
2096921,2096921, 306874, 388387
2096921,2096921, 306959, 388636
2096921,2096921, 306638, 388708
2096921,2096921, 306932, 388553
2096921,2096921, 306907, 388446
2096921,2096921, 307007, 388736
2096921,2096921, 306664, 388780
2096921,2096921, 306831, 388925
2096921,2096921, 306863, 388824
2096921,2096921, 306753, 388846
2096921,2096921, 306637, 388688
2096921,2096921, 306758, 388799
2096921,2096921, 306840, 388419
2096921,2096921, 306733, 388411
2096921,2096921, 306869, 388617
2096921,2096921, 306954, 388542
2096921,2096921, 306725, 388675
2096921,2096921, 306959, 388753
2096921,2096921, 306911, 388698
2096921,2096921, 306941, 388591
2096921,2096921, 306928, 388333
2096921,2096921, 307212, 388523
2096921,2096921, 306866, 388588
2096921,2096921, 306809, 388507
2096921,2096921, 306951, 388737
2096921,2096921, 307137, 388646
2096921,2096921, 307018, 388705
2096921,2096921, 306963, 388547
2096921,2096921, 306934, 388709
2096921,2096921, 306804, 388789
2096921,2096921, 306986, 388560
2096921,2096921, 307024, 388484
2096921,2096921, 306631, 388322
2096921,2096921, 306672, 388380
2096921,2096921, 306626, 388410
2096921,2096921, 306791, 388647
2096921,2096921, 306927, 388784
2096921,2096921, 306949, 388533
2096921,2096921, 306897, 388293
2096921,2096921, 307040, 388577
2096921,2096921, 306785, 388800
2096921,2096921, 306664, 388567
2096921,2096921, 306616, 388434
2096921,2096921, 306762, 388535
2096921,2096921, 306622, 388405
2096921,2096921, 307057, 388210
2096921,2096921, 306794, 388281
2096921,2096921, 306818, 388217
2096921,2096921, 306774, 388199
2096921,2096921, 306374, 388282
2096921,2096921, 306515, 388112
2096921,2096921, 306571, 388145
2096921,2096921, 306460, 387947
2096921,2096921, 306542, 388152
2096921,2096921, 306880, 388352
2096921,2096921, 306602, 388086
2096921,2096921, 306624, 388114
2096921,2096921, 306742, 388299
2096921,2096921, 306523, 388297
2096921,2096921, 306401, 388129
2096921,2096921, 306622, 388146
2096921,2096921, 306589, 388291
2096921,2096921, 306659, 388192
2096921,2096921, 306495, 388032
2096921,2096921, 307051, 388311
2096921,2096921, 306740, 388110
2096921,2096921, 306565, 387961
2096921,2096921, 306853, 388080
2096921,2096921, 306658, 388328
2096921,2096921, 306808, 388041
2096921,2096921, 306702, 387896
2096921,2096921, 306349, 387743
2096921,2096921, 306371, 388208
2096921,2096921, 306705, 387970
2096921,2096921, 306376, 388006
2096921,2096921, 306404, 387985
2096921,2096921, 306464, 388048
2096921,2096921, 306559, 387723
2096921,2096921, 306284, 387570
2096921,2096921, 306179, 387940
2096921,2096921, 306266, 387852
2096921,2096921, 306417, 387601
2096921,2096921, 306474, 387642
2096921,2096921, 306436, 387501
2096921,2096921, 306404, 387640
2096921,2096921, 306300, 387739
2096921,2096921, 306174, 387819
2096921,2096921, 306282, 387759
2096921,2096921, 306398, 387833
2096921,2096921, 306251, 387768
2096921,2096921, 306422, 388030
2096921,2096921, 306233, 387736
2096921,2096921, 306248, 387610
2096921,2096921, 306354, 387612
2096921,2096921, 306468, 387646
2096921,2096921, 306370, 387666
2096921,2096921, 306241, 387706
2096921,2096921, 306213, 387683
2096921,2096921, 306464, 387637
2096921,2096921, 306366, 387589
2096921,2096921, 306170, 387397
2096921,2096921, 306102, 387516
2096921,2096921, 306411, 387651
2096921,2096921, 306371, 387350
2096921,2096921, 306372, 387554
2096921,2096921, 305962, 387408
2096921,2096921, 306195, 387602
2096921,2096921, 306348, 387613
2096921,2096921, 306443, 387772
2096921,2096921, 306196, 387423
2096921,2096921, 306084, 387418
2096921,2096921, 306153, 387701
2096921,2096921, 306225, 387665
2096921,2096921, 306269, 387456
2096921,2096921, 306081, 387428
2096921,2096921, 306291, 387542
2096921,2096921, 306200, 387463
2096921,2096921, 306010, 387663
2096921,2096921, 306353, 387414
2096921,2096921, 305975, 387418
2096921,2096921, 305916, 387212
2096921,2096921, 305976, 387204
2096921,2096921, 306042, 387229
2096921,2096921, 306033, 387518
2096921,2096921, 306124, 387312
2096921,2096921, 306103, 387084
2096921,2096921, 306129, 387260
2096921,2096921, 306042, 387316
2096921,2096921, 305756, 387264
2096921,2096921, 305847, 387260
2096921,2096921, 305775, 387083
2096921,2096921, 306106, 387123
2096921,2096921, 305927, 387219
2096921,2096921, 305936, 387245
2096921,2096921, 305800, 387023
2096921,2096921, 305717, 387075
2096921,2096921, 305703, 386981
2096921,2096921, 305631, 387154
2096921,2096921, 305949, 387269
2096921,2096921, 305746, 386982
2096921,2096921, 305729, 386735
2096921,2096921, 305931, 386861
2096921,2096921, 305732, 387159
2096921,2096921, 305708, 386785
2096921,2096921, 305778, 387117
2096921,2096921, 305547, 386848
2096921,2096921, 305721, 386880
2096921,2096921, 305852, 387000
2096921,2096921, 305906, 386901
2096921,2096921, 305573, 386834
2096921,2096921, 305638, 386708
2096921,2096921, 305586, 386980
2096921,2096921, 305660, 386964
2096921,2096921, 305743, 386871
2096921,2096921, 305631, 386768
2096921,2096921, 305607, 387087
2096921,2096921, 305461, 387005
2096921,2096921, 305442, 386794
2096921,2096921, 305355, 386643
2096921,2096921, 305534, 387071
2096921,2096921, 305496, 386829
2096921,2096921, 305476, 386661
2096921,2096921, 305551, 386450
2096921,2096921, 305320, 386666
2096921,2096921, 305283, 386624
2096921,2096921, 305071, 386336
2096921,2096921, 305188, 386268
2096921,2096921, 305232, 386214
2096921,2096921, 305097, 386012
2096921,2096921, 304934, 386006
2096921,2096921, 304968, 385812
2096921,2096921, 304774, 386016
2096921,2096921, 304635, 385830
2096921,2096921, 304697, 385635
2096921,2096921, 304618, 385666
2096921,2096921, 304481, 385422
2096921,2096921, 304627, 385432
2096921,2096921, 304386, 385550
2096921,2096921, 304551, 385130
2096921,2096921, 303719, 385083
2096921,2096921, 303640, 384774
2096921,2096921, 303610, 384644
2096921,2096921, 303620, 384917
2096921,2096921, 303934, 384793
2096921,2096921, 303248, 384682
2096921,2096921, 302990, 384154
2096921,2096921, 302924, 384241
2096921,2096921, 303307, 383874
2096921,2096921, 303167, 383753
2096921,2096921, 301945, 384162
2096921,2096921, 301452, 382818
2096921,2096921, 301475, 382242
2096921,2096921, 301572, 382228
2096921,2096921, 301630, 382453
2096921,2096921, 300423, 382346
2096921,2096921, 300246, 380879
2096921,2096921, 300103, 380817
2096921,2096921, 300007, 380687
2096921,2096921, 299966, 380665
2096921,2096921, 298791, 380645
2096921,2096921, 298500, 379518
2096921,2096921, 298545, 379113
2096921,2096921, 298512, 379022
2096921,2096921, 298634, 378831
2096921,2096921, 297655, 378962
2096921,2096921, 297668, 378286
2096921,2096921, 297752, 378210
2096921,2096921, 297678, 378078
2096921,2096921, 297472, 378007
2096921,2096921, 296812, 378053
2096921,2096921, 296921, 377440
2096921,2096921, 296557, 377408
2096921,2096921, 296848, 377166
2096921,2096921, 296515, 377457
2096921,2096921, 295974, 377392
2096921,2096921, 296263, 376850
2096921,2096921, 296231, 376726
2096921,2096921, 296148, 377113
2096921,2096921, 296432, 376891
2096921,2096921, 295944, 376918
2096921,2096921, 296000, 376275
2096921,2096921, 295746, 376273
2096921,2096921, 295898, 376492
2096921,2096921, 296014, 376529
2096921,2096921, 295785, 376495
2096921,2096921, 295612, 376307
2096921,2096921, 295524, 375789
2096921,2096921, 295610, 375973
2096921,2096921, 295522, 376053
2096921,2096921, 295363, 375934
2096921,2096921, 295459, 375875
2096921,2096921, 295801, 375825
2096921,2096921, 295560, 376037
2096921,2096921, 295585, 375819
2096921,2096921, 295565, 375882
2096921,2096921, 295757, 375984
2096921,2096921, 295636, 375737
2096921,2096921, 295695, 376130
2096921,2096921, 295554, 376023
2096921,2096921, 295775, 375731
2096921,2096921, 295881, 376020
2096921,2096921, 295890, 375815
2096921,2096921, 295813, 375642
2096921,2096921, 295669, 376070
2096921,2096921, 295482, 375804
2096921,2096921, 295515, 376203
2096921,2096921, 295644, 376006
2096921,2096921, 295514, 376160
2096921,2096921, 295613, 376093
2096921,2096921, 295865, 376075
2096921,2096921, 295733, 376296
2096921,2096921, 296092, 376159
2096921,2096921, 295773, 376240
2096921,2096921, 295756, 376300
2096921,2096921, 295940, 376305
2096921,2096921, 296020, 376652
2096921,2096921, 295936, 376200
2096921,2096921, 296217, 376714
2096921,2096921, 296047, 376287
2096921,2096921, 296376, 376571
2096921,2096921, 296473, 376386
2096921,2096921, 296320, 376911
2096921,2096921, 296087, 376549
2096921,2096921, 296370, 376623
2096921,2096921, 296533, 376864
2096921,2096921, 296554, 376929
2096921,2096921, 296522, 376794
2096921,2096921, 296771, 377086
2096921,2096921, 296428, 377042
2096921,2096921, 296904, 376968
2096921,2096921, 296928, 377471
2096921,2096921, 296951, 377156
2096921,2096921, 297172, 377537
2096921,2096921, 296989, 377495
2096921,2096921, 297241, 377504
2096921,2096921, 297370, 377669
2096921,2096921, 297518, 377608
2096921,2096921, 297286, 377504
2096921,2096921, 297410, 377647
2096921,2096921, 297593, 377715
2096921,2096921, 297304, 378036
2096921,2096921, 297602, 378293
2096921,2096921, 297516, 378297
2096921,2096921, 297849, 378192
2096921,2096921, 297874, 377851
2096921,2096921, 297768, 378447
2096921,2096921, 297798, 378245
2096921,2096921, 297650, 378429
2096921,2096921, 297736, 378347
2096921,2096921, 297926, 378341
2096921,2096921, 297895, 378468
2096921,2096921, 297972, 378677
2096921,2096921, 298098, 378673
2096921,2096921, 298298, 378648
2096921,2096921, 298366, 378689
2096921,2096921, 298493, 378994
2096921,2096921, 298346, 378977
2096921,2096921, 298548, 379011
2096921,2096921, 298325, 379070
2096921,2096921, 298413, 378886
2096921,2096921, 298888, 379350
2096921,2096921, 298793, 379181
2096921,2096921, 298820, 379245
2096921,2096921, 298691, 379447
2096921,2096921, 299022, 379404
2096921,2096921, 299078, 379877
2096921,2096921, 298885, 380026
2096921,2096921, 299141, 379496
2096921,2096921, 299110, 379466
2096921,2096921, 299180, 379647
2096921,2096921, 299253, 380099
2096921,2096921, 299383, 379991
2096921,2096921, 299282, 379837
2096921,2096921, 299194, 379868
2096921,2096921, 299631, 380003
2096921,2096921, 299408, 380195
2096921,2096921, 299706, 380067
2096921,2096921, 299607, 380103
2096921,2096921, 299498, 380348
2096921,2096921, 299677, 380079
2096921,2096921, 299751, 380336
2096921,2096921, 299932, 380531
2096921,2096921, 299994, 380377
2096921,2096921, 299622, 380383
2096921,2096921, 299686, 380673
2096921,2096921, 299721, 380483
2096921,2096921, 299930, 380628
2096921,2096921, 299866, 380626
2096921,2096921, 299852, 380581
2096921,2096921, 300011, 380552
2096921,2096921, 300056, 380764
2096921,2096921, 299921, 380563
2096921,2096921, 299984, 380869
2096921,2096921, 300102, 380743
2096921,2096921, 299959, 380636
2096921,2096921, 299986, 380732
2096921,2096921, 300108, 380884
2096921,2096921, 299975, 380930
2096921,2096921, 299983, 380855
2096921,2096921, 300135, 380835
2096921,2096921, 300349, 380761
2096921,2096921, 300208, 380566
2096921,2096921, 300460, 380792
2096921,2096921, 300136, 380775
2096921,2096921, 300226, 380827
2096921,2096921, 300184, 380935
2096921,2096921, 300306, 380839
2096921,2096921, 300027, 381041
2096921,2096921, 300226, 380913
2096921,2096921, 300042, 380641
2096921,2096921, 300034, 380740
2096921,2096921, 299950, 380906
2096921,2096921, 299848, 380881
2096921,2096921, 300004, 380732
2096921,2096921, 300245, 380827
2096921,2096921, 300006, 380300
2096921,2096921, 299907, 380736
2096921,2096921, 299901, 380670
2096921,2096921, 299803, 380721
2096921,2096921, 300048, 380907
2096921,2096921, 300211, 380671
2096921,2096921, 299690, 380536
2096921,2096921, 299853, 380368
2096921,2096921, 299904, 380316
2096921,2096921, 299744, 380610
2096921,2096921, 299742, 380587
2096921,2096921, 300045, 380610
2096921,2096921, 299757, 380306
2096921,2096921, 299756, 380638
2096921,2096921, 299824, 380503
2096921,2096921, 299610, 380429
2096921,2096921, 299613, 380532
2096921,2096921, 299576, 380572
2096921,2096921, 299617, 380315
2096921,2096921, 299852, 380402
2096921,2096921, 299861, 380520
2096921,2096921, 299577, 380610
2096921,2096921, 299376, 380487
2096921,2096921, 300148, 380497
2096921,2096921, 299881, 380271
2096921,2096921, 299717, 380228
2096921,2096921, 299573, 380522
2096921,2096921, 299660, 380392
2096921,2096921, 299660, 380574
2096921,2096921, 299937, 380190
2096921,2096921, 299744, 380143
2096921,2096921, 299636, 380659
2096921,2096921, 299557, 380501
2096921,2096921, 299934, 380336
2096921,2096921, 299944, 380552
2096921,2096921, 300055, 380719
2096921,2096921, 299982, 380362
2096921,2096921, 299860, 380464
2096921,2096921, 299709, 380618
2096921,2096921, 299883, 380527
2096921,2096921, 299844, 380559
2096921,2096921, 299813, 380498
2096921,2096921, 299809, 380662
2096921,2096921, 299932, 380435
2096921,2096921, 299783, 380614
2096921,2096921, 300109, 380723
2096921,2096921, 300047, 380711
2096921,2096921, 300014, 380651
2096921,2096921, 300275, 380941
2096921,2096921, 300265, 380982
2096921,2096921, 300581, 381176
2096921,2096921, 300464, 380906
2096921,2096921, 300369, 381054
2096921,2096921, 300496, 381037
2096921,2096921, 300463, 380924
2096921,2096921, 300479, 380973
2096921,2096921, 300512, 380913
2096921,2096921, 300402, 381184
2096921,2096921, 300217, 381276
2096921,2096921, 300852, 381121
2096921,2096921, 300814, 381494
2096921,2096921, 300711, 381291
2096921,2096921, 300974, 381412
2096921,2096921, 300831, 381655
2096921,2096921, 300813, 381411
2096921,2096921, 301232, 381745
2096921,2096921, 301292, 381803
2096921,2096921, 300801, 381599
2096921,2096921, 300974, 381811
2096921,2096921, 301350, 381793
2096921,2096921, 301255, 382083
2096921,2096921, 301036, 382000
2096921,2096921, 301404, 381980
2096921,2096921, 301079, 381992
2096921,2096921, 300921, 382117
2096921,2096921, 301256, 382127
2096921,2096921, 301229, 382099
2096921,2096921, 301324, 382008
2096921,2096921, 301043, 382213
2096921,2096921, 301532, 382208
2096921,2096921, 301617, 382495
2096921,2096921, 301741, 382575
2096921,2096921, 301605, 382467
2096921,2096921, 301480, 382457
2096921,2096921, 301690, 382354
2096921,2096921, 301917, 382763
2096921,2096921, 301875, 382792
2096921,2096921, 301917, 383022
2096921,2096921, 301910, 382505
2096921,2096921, 301989, 382825
2096921,2096921, 302067, 382909
2096921,2096921, 301995, 382842
2096921,2096921, 302088, 383064
2096921,2096921, 302144, 382679
2096921,2096921, 302058, 382857
2096921,2096921, 302020, 383001
2096921,2096921, 302182, 382984
2096921,2096921, 302002, 382938
2096921,2096921, 302310, 383247
2096921,2096921, 302338, 383134
2096921,2096921, 302279, 383341
2096921,2096921, 302479, 383130
2096921,2096921, 302510, 383181
2096921,2096921, 302532, 383537
2096921,2096921, 302399, 383408
2096921,2096921, 302486, 383368
2096921,2096921, 302398, 383556
2096921,2096921, 302606, 383624
2096921,2096921, 302358, 383374
2096921,2096921, 302518, 383434
2096921,2096921, 302839, 383641
2096921,2096921, 302839, 383735
2096921,2096921, 302802, 383610
2096921,2096921, 302766, 383562
2096921,2096921, 303086, 383588
2096921,2096921, 303027, 383749
2096921,2096921, 302925, 383933
2096921,2096921, 303322, 383951
2096921,2096921, 303009, 383904
2096921,2096921, 303332, 383908
2096921,2096921, 303138, 384107
2096921,2096921, 303331, 384098
2096921,2096921, 303388, 384394
2096921,2096921, 303459, 384211
2096921,2096921, 303628, 384248
2096921,2096921, 303309, 384139
2096921,2096921, 303263, 384177
2096921,2096921, 303324, 384378
2096921,2096921, 303409, 384445
2096921,2096921, 303517, 384426
2096921,2096921, 303439, 384650
2096921,2096921, 303921, 384494
2096921,2096921, 303545, 384579
2096921,2096921, 303451, 384503
2096921,2096921, 303615, 384614
2096921,2096921, 303526, 384827
2096921,2096921, 303834, 384873
2096921,2096921, 303681, 384736
2096921,2096921, 303898, 384839
2096921,2096921, 303907, 384781
2096921,2096921, 303992, 384863
2096921,2096921, 303918, 384882
2096921,2096921, 303917, 384992
2096921,2096921, 303873, 385032
2096921,2096921, 303989, 384955
2096921,2096921, 304092, 384937
2096921,2096921, 304129, 385286
2096921,2096921, 304122, 385077
2096921,2096921, 304217, 385197
2096921,2096921, 304165, 385092
2096921,2096921, 303970, 385575
2096921,2096921, 304207, 385428
2096921,2096921, 304467, 385364
2096921,2096921, 304232, 385450
2096921,2096921, 304337, 385301
2096921,2096921, 304182, 385771
2096921,2096921, 304338, 385636
2096921,2096921, 304279, 385659
2096921,2096921, 304239, 385673
2096921,2096921, 304695, 385830
2096921,2096921, 304644, 385750
2096921,2096921, 304841, 385613
2096921,2096921, 304713, 385676
2096921,2096921, 304657, 386034
2096921,2096921, 304628, 385888
2096921,2096921, 304843, 385923
2096921,2096921, 304770, 386024
2096921,2096921, 304369, 385774
2096921,2096921, 304934, 385907
2096921,2096921, 305030, 385975
2096921,2096921, 305046, 386002
2096921,2096921, 305202, 386165
2096921,2096921, 305128, 386536
2096921,2096921, 304896, 386329
2096921,2096921, 305051, 386310
2096921,2096921, 304914, 386483
2096921,2096921, 305128, 386286
2096921,2096921, 304952, 386528
2096921,2096921, 305118, 386398
2096921,2096921, 305091, 386425
2096921,2096921, 305476, 386378
2096921,2096921, 305269, 386600
2096921,2096921, 305215, 386527
2096921,2096921, 305067, 386575
2096921,2096921, 305423, 386705
2096921,2096921, 305128, 386759
2096921,2096921, 305189, 386507
2096921,2096921, 305291, 386768
2096921,2096921, 305491, 386792
2096921,2096921, 305928, 386613
2096921,2096921, 305818, 386797
2096921,2096921, 305441, 386965
2096921,2096921, 305637, 386883
2096921,2096921, 305837, 386861
2096921,2096921, 305862, 386721
2096921,2096921, 305429, 387094
2096921,2096921, 305702, 387037
2096921,2096921, 305727, 387167
2096921,2096921, 306045, 387291
2096921,2096921, 305755, 387225
2096921,2096921, 305815, 387039
2096921,2096921, 305816, 387160
2096921,2096921, 305725, 386944
2096921,2096921, 305668, 387293
2096921,2096921, 305648, 386921
2096921,2096921, 305914, 387261
2096921,2096921, 306022, 387341
2096921,2096921, 306149, 387310
2096921,2096921, 305999, 387544
2096921,2096921, 306133, 387398
2096921,2096921, 306233, 387634
2096921,2096921, 306024, 387605
2096921,2096921, 306240, 387732
2096921,2096921, 306187, 387568
2096921,2096921, 306379, 387621
2096921,2096921, 306228, 387646
2096921,2096921, 306306, 387855
2096921,2096921, 306152, 387889
2096921,2096921, 306354, 387719
2096921,2096921, 306460, 387766
2096921,2096921, 306550, 387689
2096921,2096921, 306491, 387855
2096921,2096921, 306434, 388033
2096921,2096921, 306295, 388123
2096921,2096921, 306469, 388060
2096921,2096921, 306605, 387916
2096921,2096921, 306513, 387954
2096921,2096921, 306586, 388006
2096921,2096921, 306564, 388122
2096921,2096921, 306668, 388272
2096921,2096921, 306749, 388132
2096921,2096921, 306923, 388040
2096921,2096921, 306746, 388103
2096921,2096921, 306478, 388295
2096921,2096921, 306687, 388304
2096921,2096921, 306735, 388609
2096921,2096921, 306727, 388326
2096921,2096921, 306960, 388550
2096921,2096921, 306857, 388539
2096921,2096921, 307051, 388545
2096921,2096921, 307148, 388775
2096921,2096921, 307051, 388714
2096921,2096921, 307176, 388640
2096921,2096921, 307549, 388765
2096921,2096921, 307144, 388789
2096921,2096921, 307020, 389064
2096921,2096921, 307187, 389155
2096921,2096921, 307042, 388951
2096921,2096921, 307232, 388859
2096921,2096921, 307236, 388799
2096921,2096921, 307556, 389105
2096921,2096921, 307474, 388886
2096921,2096921, 307343, 388969
2096921,2096921, 307314, 389238
2096921,2096921, 307389, 388933
2096921,2096921, 307563, 389005
2096921,2096921, 307656, 388971
2096921,2096921, 307415, 389299
2096921,2096921, 307548, 388943
2096921,2096921, 307574, 389301
2096921,2096921, 307594, 389650
2096921,2096921, 307684, 389676
2096921,2096921, 308116, 389375
2096921,2096921, 307813, 389441
2096921,2096921, 307824, 389246
2096921,2096921, 307753, 389640
2096921,2096921, 307636, 389372
2096921,2096921, 307475, 389409
2096921,2096921, 307526, 389596
2096921,2096921, 307735, 389815
2096921,2096921, 307866, 389797
2096921,2096921, 307896, 389795
2096921,2096921, 307887, 389598
2096921,2096921, 308065, 389953
2096921,2096921, 307825, 389581
2096921,2096921, 308008, 389768
2096921,2096921, 308156, 389677
2096921,2096921, 308161, 389693
2096921,2096921, 307952, 389727
2096921,2096921, 308109, 389931
2096921,2096921, 307992, 390152
2096921,2096921, 308265, 389976
2096921,2096921, 308283, 390096
2096921,2096921, 308226, 389752
2096921,2096921, 308071, 389881
2096921,2096921, 308024, 390238
2096921,2096921, 308442, 390032
2096921,2096921, 308228, 389973
2096921,2096921, 308214, 389884
2096921,2096921, 308451, 389933
2096921,2096921, 308408, 390245
2096921,2096921, 308652, 390276
2096921,2096921, 308413, 390089
2096921,2096921, 308287, 390334
2096921,2096921, 308503, 389958
2096921,2096921, 308530, 390276
2096921,2096921, 308298, 390387
2096921,2096921, 308566, 390307
2096921,2096921, 308548, 390194
2096921,2096921, 308731, 390077
2096921,2096921, 308817, 390429
2096921,2096921, 308902, 390583
2096921,2096921, 308521, 390729
2096921,2096921, 308669, 390639
2096921,2096921, 308698, 390308
2096921,2096921, 308724, 390577
2096921,2096921, 308543, 390472
2096921,2096921, 308554, 390466
2096921,2096921, 308412, 390802
2096921,2096921, 308336, 390509
2096921,2096921, 308679, 390461
2096921,2096921, 308602, 390379
2096921,2096921, 308546, 390554
2096921,2096921, 308645, 390380
2096921,2096921, 308010, 390741
2096921,2096921, 308272, 390456
2096921,2096921, 308226, 390199
2096921,2096921, 308315, 390257
2096921,2096921, 308372, 390454
2096921,2096921, 308008, 390237
2096921,2096921, 308023, 390174
2096921,2096921, 308319, 390214
2096921,2096921, 308084, 390141
2096921,2096921, 308245, 390200
2096921,2096921, 307603, 390051
2096921,2096921, 307658, 389455
2096921,2096921, 307549, 389640
2096921,2096921, 307511, 389431
2096921,2096921, 307207, 389607
2096921,2096921, 307074, 389423
2096921,2096921, 306981, 389630
2096921,2096921, 306937, 389227
2096921,2096921, 307083, 389366
2096921,2096921, 307195, 389081
2096921,2096921, 306088, 389140
2096921,2096921, 305899, 387938
2096921,2096921, 305775, 387960
2096921,2096921, 305847, 387627
2096921,2096921, 305581, 387755
2096921,2096921, 304476, 387592
2096921,2096921, 304236, 386308
2096921,2096921, 304116, 386211
2096921,2096921, 304028, 385988
2096921,2096921, 304039, 386127
2096921,2096921, 303113, 386053
2096921,2096921, 303141, 385226
2096921,2096921, 303175, 384749
2096921,2096921, 303207, 384710
2096921,2096921, 303092, 384720
2096921,2096921, 302369, 384761
2096921,2096921, 302106, 384118
2096921,2096921, 302144, 383759
2096921,2096921, 302206, 383675
2096921,2096921, 302116, 384021
2096921,2096921, 301845, 383608
2096921,2096921, 301554, 383388
2096921,2096921, 301448, 383295
2096921,2096921, 301429, 383163
2096921,2096921, 301605, 383300
2096921,2096921, 301481, 383405
2096921,2096921, 301429, 382907
2096921,2096921, 301253, 382846
2096921,2096921, 301114, 382653
2096921,2096921, 301155, 382615
2096921,2096921, 300900, 382633
2096921,2096921, 301102, 382438
2096921,2096921, 300706, 382647
2096921,2096921, 300715, 382692
2096921,2096921, 300892, 382515
2096921,2096921, 300842, 382652
2096921,2096921, 300890, 382665
2096921,2096921, 300878, 382411
2096921,2096921, 300782, 382674
2096921,2096921, 300825, 382509
2096921,2096921, 300627, 382244
2096921,2096921, 300586, 382364
2096921,2096921, 300901, 382694
2096921,2096921, 300631, 382381
2096921,2096921, 300750, 382380
2096921,2096921, 300788, 382492
2096921,2096921, 301017, 382772
2096921,2096921, 300940, 382807
2096921,2096921, 300904, 383033
2096921,2096921, 300927, 383051
2096921,2096921, 301047, 382730
2096921,2096921, 301074, 382809
2096921,2096921, 301333, 382900
2096921,2096921, 301079, 382743
2096921,2096921, 301058, 383057
2096921,2096921, 301192, 382959
2096921,2096921, 301514, 383193
2096921,2096921, 301491, 383264
2096921,2096921, 301401, 383345
2096921,2096921, 301230, 383411
2096921,2096921, 301473, 383571
2096921,2096921, 301673, 383559
2096921,2096921, 301299, 383681
2096921,2096921, 301280, 383424
2096921,2096921, 301523, 383525
2096921,2096921, 301740, 383569
2096921,2096921, 301816, 384016
2096921,2096921, 302044, 384141
2096921,2096921, 302072, 384292
2096921,2096921, 302060, 383828
2096921,2096921, 302282, 383725
2096921,2096921, 302089, 384277
2096921,2096921, 302353, 384388
2096921,2096921, 302355, 384235
2096921,2096921, 302131, 384183
2096921,2096921, 302417, 384496
2096921,2096921, 302399, 384665
2096921,2096921, 302701, 384992
2096921,2096921, 302644, 385110
2096921,2096921, 302677, 384867
2096921,2096921, 303262, 385039
2096921,2096921, 303103, 385443
2096921,2096921, 303158, 385310
2096921,2096921, 303239, 385291
2096921,2096921, 303155, 385339
2096921,2096921, 303480, 385306
2096921,2096921, 303162, 385721
2096921,2096921, 303342, 385695
2096921,2096921, 303588, 385818
2096921,2096921, 303430, 385687
2096921,2096921, 303687, 385587
2096921,2096921, 303966, 385947
2096921,2096921, 304024, 386224
2096921,2096921, 303960, 386150
2096921,2096921, 304012, 386112
2096921,2096921, 304250, 386388
2096921,2096921, 303919, 386633
2096921,2096921, 304336, 386694
2096921,2096921, 304322, 386750
2096921,2096921, 304208, 386797
2096921,2096921, 304713, 386753
2096921,2096921, 304874, 387004
2096921,2096921, 304711, 387042
2096921,2096921, 304710, 386921
2096921,2096921, 304843, 386999
2096921,2096921, 305445, 387017
2096921,2096921, 305218, 387396
2096921,2096921, 305198, 387480
2096921,2096921, 305321, 387615
2096921,2096921, 305100, 387541
2096921,2096921, 305602, 387609
2096921,2096921, 305414, 387826
2096921,2096921, 305632, 388083
2096921,2096921, 305778, 388082
2096921,2096921, 305898, 387707
2096921,2096921, 305904, 387918
2096921,2096921, 306122, 388668
2096921,2096921, 306052, 388571
2096921,2096921, 306465, 388602
2096921,2096921, 306045, 388676
2096921,2096921, 306566, 388675
2096921,2096921, 306591, 388891
2096921,2096921, 306603, 388856
2096921,2096921, 306569, 388788
2096921,2096921, 306617, 388828
2096921,2096921, 306608, 389037
2096921,2096921, 307015, 389453
2096921,2096921, 306866, 389453
2096921,2096921, 306708, 389417
2096921,2096921, 306626, 389512
2096921,2096921, 307113, 389383
2096921,2096921, 306747, 389855
2096921,2096921, 307297, 389819
2096921,2096921, 307013, 389844
2096921,2096921, 307326, 389752
2096921,2096921, 307314, 389664
2096921,2096921, 307522, 390080
2096921,2096921, 307409, 390089
2096921,2096921, 307346, 390162
2096921,2096921, 307250, 390077
2096921,2096921, 307416, 390037
2096921,2096921, 307321, 390073
2096921,2096921, 307496, 390072
2096921,2096921, 307284, 390067
2096921,2096921, 307964, 390049
2096921,2096921, 307641, 390224
2096921,2096921, 307677, 390523
2096921,2096921, 307935, 390547
2096921,2096921, 307970, 390534
2096921,2096921, 307824, 390541
2096921,2096921, 307792, 390500
2096921,2096921, 307723, 390328
2096921,2096921, 307988, 390646
2096921,2096921, 307703, 390634
2096921,2096921, 307798, 390505
2096921,2096921, 307803, 390711
2096921,2096921, 308107, 390647
2096921,2096921, 308048, 390587
2096921,2096921, 307805, 390766
2096921,2096921, 307899, 390643
2096921,2096921, 307747, 390642
2096921,2096921, 307913, 390820
2096921,2096921, 307997, 390765
2096921,2096921, 307984, 390943
2096921,2096921, 308025, 391045
2096921,2096921, 308109, 391117
2096921,2096921, 308002, 390597
2096921,2096921, 307969, 390804
2096921,2096921, 308024, 390846
2096921,2096921, 308068, 390761
2096921,2096921, 307794, 390813
2096921,2096921, 307947, 390648
2096921,2096921, 307875, 390909
2096921,2096921, 308085, 390448
2096921,2096921, 307993, 390374
2096921,2096921, 307771, 390777
2096921,2096921, 307676, 390875
2096921,2096921, 307781, 391045
2096921,2096921, 308050, 391129
2096921,2096921, 307950, 390980
2096921,2096921, 308121, 390949
2096921,2096921, 308035, 390834
2096921,2096921, 307926, 390954
2096921,2096921, 307929, 390748
2096921,2096921, 308014, 390649
2096921,2096921, 308115, 390911
2096921,2096921, 308083, 390797
2096921,2096921, 307934, 390809
2096921,2096921, 308024, 390664
2096921,2096921, 307883, 390817
2096921,2096921, 307897, 390757
2096921,2096921, 307948, 391162
2096921,2096921, 308155, 391170
2096921,2096921, 308042, 391151
2096921,2096921, 308151, 391355
2096921,2096921, 308135, 391083
2096921,2096921, 308055, 391070
2096921,2096921, 308129, 391298
2096921,2096921, 308283, 391125
2096921,2096921, 308452, 391098
2096921,2096921, 308442, 391414
2096921,2096921, 308220, 391460
2096921,2096921, 308251, 391426
2096921,2096921, 308022, 391060
2096921,2096921, 308337, 391215
2096921,2096921, 308433, 391640
2096921,2096921, 308359, 391512
2096921,2096921, 308719, 391565
2096921,2096921, 308643, 391313
2096921,2096921, 308424, 391526
2096921,2096921, 308756, 391528
2096921,2096921, 308926, 391896
2096921,2096921, 308875, 391693
2096921,2096921, 308834, 391962
2096921,2096921, 308757, 391827
2096921,2096921, 309240, 391860
2096921,2096921, 309196, 391877
2096921,2096921, 309275, 392283
2096921,2096921, 309221, 392119
2096921,2096921, 309364, 392177
2096921,2096921, 309289, 392017
2096921,2096921, 309236, 392529
2096921,2096921, 309246, 392229
2096921,2096921, 309378, 392581
2096921,2096921, 309361, 392779
2096921,2096921, 309781, 392749
2096921,2096921, 309891, 392603
2096921,2096921, 309749, 392723
2096921,2096921, 309744, 392905
2096921,2096921, 309789, 393114
2096921,2096921, 310049, 392651
2096921,2096921, 310070, 392981
2096921,2096921, 310035, 392992
2096921,2096921, 310015, 392924
2096921,2096921, 310091, 392831
2096921,2096921, 310018, 392929
2096921,2096921, 310088, 393266
2096921,2096921, 310231, 393298
2096921,2096921, 310377, 393448
2096921,2096921, 310384, 393243
2096921,2096921, 310432, 393330
2096921,2096921, 310130, 393205
2096921,2096921, 310413, 393423
2096921,2096921, 310329, 393416
2096921,2096921, 310327, 393429
2096921,2096921, 310510, 393645
2096921,2096921, 310396, 393674
2096921,2096921, 310703, 393766
2096921,2096921, 310783, 393701
2096921,2096921, 310762, 393648
2096921,2096921, 310693, 393680
2096921,2096921, 310740, 393894
2096921,2096921, 310538, 393915
2096921,2096921, 310862, 394088
2096921,2096921, 311127, 394157
2096921,2096921, 310785, 394171
2096921,2096921, 311163, 394140
2096921,2096921, 311004, 394101
2096921,2096921, 310923, 394179
2096921,2096921, 310874, 394143
2096921,2096921, 310983, 394252
2096921,2096921, 311168, 394332
2096921,2096921, 311112, 394252
2096921,2096921, 311071, 394610
2096921,2096921, 311060, 394529
2096921,2096921, 311149, 394664
2096921,2096921, 311207, 394560
2096921,2096921, 311453, 394744
2096921,2096921, 311620, 394642
2096921,2096921, 311534, 394892
2096921,2096921, 311472, 394748
2096921,2096921, 311697, 394753
2096921,2096921, 311496, 394696
2096921,2096921, 311663, 394823
2096921,2096921, 311559, 394668
2096921,2096921, 311667, 394853
2096921,2096921, 311615, 394926
2096921,2096921, 311890, 395233
2096921,2096921, 311659, 395146
2096921,2096921, 311866, 395229
2096921,2096921, 311868, 395241
2096921,2096921, 312002, 395412
2096921,2096921, 311903, 395280
2096921,2096921, 311912, 395452
2096921,2096921, 312047, 395502
2096921,2096921, 312137, 395351
2096921,2096921, 312216, 395540
2096921,2096921, 312289, 395467
2096921,2096921, 312084, 395509
2096921,2096921, 312236, 395682
2096921,2096921, 312394, 395631
2096921,2096921, 312791, 395601
2096921,2096921, 312411, 395508
2096921,2096921, 312343, 395582
2096921,2096921, 312381, 395617
2096921,2096921, 312731, 395890
2096921,2096921, 312698, 396037
2096921,2096921, 312642, 395923
2096921,2096921, 312620, 395981
2096921,2096921, 312721, 396020
2096921,2096921, 312357, 395808
2096921,2096921, 312654, 395913
2096921,2096921, 312511, 395969
2096921,2096921, 312386, 395889
2096921,2096921, 312503, 395932
2096921,2096921, 312646, 396274
2096921,2096921, 312716, 396010
2096921,2096921, 312878, 396271
2096921,2096921, 312873, 396049
2096921,2096921, 312795, 396384
2096921,2096921, 313084, 396179
2096921,2096921, 313042, 396154
2096921,2096921, 313082, 396199
2096921,2096921, 312861, 396164
2096921,2096921, 312944, 395856
2096921,2096921, 313047, 396290
2096921,2096921, 313166, 396482
2096921,2096921, 313170, 396366
2096921,2096921, 312989, 396752
2096921,2096921, 312972, 396554
2096921,2096921, 313067, 396465
2096921,2096921, 313068, 396369
2096921,2096921, 313285, 396510
2096921,2096921, 313142, 396392
2096921,2096921, 313060, 396495
2096921,2096921, 313386, 396457
2096921,2096921, 313264, 396527
2096921,2096921, 313190, 396479
2096921,2096921, 313569, 396568
2096921,2096921, 313335, 396955
2096921,2096921, 313640, 396452
2096921,2096921, 313466, 396686
2096921,2096921, 313378, 396831
2096921,2096921, 313554, 396640
2096921,2096921, 313546, 396916
2096921,2096921, 313567, 396696
2096921,2096921, 313348, 396902
2096921,2096921, 313363, 396722
2096921,2096921, 313508, 396854
2096921,2096921, 313307, 396964
2096921,2096921, 313562, 396826
2096921,2096921, 313553, 396970
2096921,2096921, 313616, 396875
2096921,2096921, 313671, 396715
2096921,2096921, 313642, 397121
2096921,2096921, 313759, 397140
2096921,2096921, 313692, 397143
2096921,2096921, 313618, 397224
2096921,2096921, 313469, 397267
2096921,2096921, 313746, 396972
2096921,2096921, 313396, 397187
2096921,2096921, 313753, 396920
2096921,2096921, 313845, 397113
2096921,2096921, 313933, 397216
2096921,2096921, 314212, 397212
2096921,2096921, 313883, 397304
2096921,2096921, 313757, 397239
2096921,2096921, 313996, 397362
2096921,2096921, 313898, 397309
2096921,2096921, 313791, 397334
2096921,2096921, 313511, 397216
2096921,2096921, 313913, 397025
2096921,2096921, 313939, 397169
2096921,2096921, 314100, 397229
2096921,2096921, 313783, 397335
2096921,2096921, 313546, 397074
2096921,2096921, 313920, 397257
2096921,2096921, 313928, 397268
2096921,2096921, 314129, 397750
2096921,2096921, 313996, 397169
2096921,2096921, 314046, 397400
2096921,2096921, 314038, 397289
2096921,2096921, 314192, 397195
2096921,2096921, 313977, 397347
2096921,2096921, 313944, 397432
2096921,2096921, 314013, 397243
2096921,2096921, 314203, 397405
2096921,2096921, 313903, 397280
2096921,2096921, 313875, 397559
2096921,2096921, 314186, 397498
2096921,2096921, 314297, 397514
2096921,2096921, 314139, 397516
2096921,2096921, 314202, 397540
2096921,2096921, 314118, 397648
2096921,2096921, 314043, 397227
2096921,2096921, 314168, 397466
2096921,2096921, 314103, 397308
2096921,2096921, 314129, 397527
2096921,2096921, 314196, 397790
2096921,2096921, 314139, 397613
2096921,2096921, 314140, 397731
2096921,2096921, 313945, 397679
2096921,2096921, 314203, 397774
2096921,2096921, 314203, 397868
2096921,2096921, 314402, 397428
2096921,2096921, 314352, 397646
2096921,2096921, 314524, 397627
2096921,2096921, 314180, 397595
2096921,2096921, 314127, 397769
2096921,2096921, 313959, 397758
2096921,2096921, 314306, 397638
2096921,2096921, 314321, 397786
2096921,2096921, 314300, 397880
2096921,2096921, 314470, 397858
2096921,2096921, 314666, 397841
2096921,2096921, 314567, 397926
2096921,2096921, 314389, 397791
2096921,2096921, 314509, 397789
2096921,2096921, 314540, 397990
2096921,2096921, 314499, 397797
2096921,2096921, 314383, 397872
2096921,2096921, 314325, 397688
2096921,2096921, 314200, 397685
2096921,2096921, 314304, 397709
2096921,2096921, 314643, 398085
2096921,2096921, 314522, 397936
2096921,2096921, 314299, 397819
2096921,2096921, 314245, 397932
2096921,2096921, 314696, 397916
2096921,2096921, 314679, 398086
2096921,2096921, 314593, 398224
2096921,2096921, 314315, 397952
2096921,2096921, 314342, 398239
2096921,2096921, 314412, 397620
2096921,2096921, 314331, 398018
2096921,2096921, 314415, 398090
2096921,2096921, 314479, 398069
2096921,2096921, 314364, 397899
2096921,2096921, 314555, 398224
2096921,2096921, 314355, 397890
2096921,2096921, 314573, 397787
2096921,2096921, 314472, 398141
2096921,2096921, 314605, 398189
2096921,2096921, 314508, 398089
2096921,2096921, 314703, 398091
2096921,2096921, 314578, 398140
2096921,2096921, 314490, 398107
2096921,2096921, 314257, 398024
2096921,2096921, 314406, 397928
2096921,2096921, 314515, 398180
2096921,2096921, 314645, 397877
2096921,2096921, 314415, 398075
2096921,2096921, 314596, 397937
2096921,2096921, 314251, 398009
2096921,2096921, 315002, 397833
2096921,2096921, 314427, 397728
2096921,2096921, 314557, 397832
2096921,2096921, 314424, 398149
2096921,2096921, 314573, 398251
2096921,2096921, 314607, 398137
2096921,2096921, 314486, 397844
2096921,2096921, 314652, 397988
2096921,2096921, 314455, 397745
2096921,2096921, 314285, 398070
2096921,2096921, 314623, 397915
2096921,2096921, 314575, 398134
2096921,2096921, 314683, 398094
2096921,2096921, 314683, 398246
2096921,2096921, 314626, 397897
2096921,2096921, 314633, 398048
2096921,2096921, 314754, 398037
2096921,2096921, 314599, 398316
2096921,2096921, 314439, 397804
2096921,2096921, 314449, 397858
2096921,2096921, 314583, 398070
2096921,2096921, 314497, 398111
2096921,2096921, 314496, 397958
2096921,2096921, 314558, 398218
2096921,2096921, 314518, 398158
2096921,2096921, 314500, 397990
2096921,2096921, 314583, 397934
2096921,2096921, 314509, 398230
2096921,2096921, 314414, 398022
2096921,2096921, 314593, 398183
2096921,2096921, 314562, 397953
2096921,2096921, 314158, 398061
2096921,2096921, 314325, 397627
2096921,2096921, 314405, 397756
2096921,2096921, 314192, 397402
2096921,2096921, 314092, 397566
2096921,2096921, 313838, 397439
2096921,2096921, 313788, 397244
2096921,2096921, 313715, 397047
2096921,2096921, 313719, 397045
2096921,2096921, 313813, 397076
2096921,2096921, 313502, 397465
2096921,2096921, 313425, 396969
2096921,2096921, 313474, 397065
2096921,2096921, 313483, 396879
2096921,2096921, 313628, 396828
2096921,2096921, 312759, 396917
2096921,2096921, 312855, 396513
2096921,2096921, 312596, 396119
2096921,2096921, 312722, 396188
2096921,2096921, 312657, 396345
2096921,2096921, 312479, 396029
2096921,2096921, 312307, 395775
2096921,2096921, 312103, 395711
2096921,2096921, 312331, 395572
2096921,2096921, 312165, 395495
2096921,2096921, 310847, 395287
2096921,2096921, 310684, 394349
2096921,2096921, 310564, 393947
2096921,2096921, 310789, 393940
2096921,2096921, 310785, 393760
2096921,2096921, 309295, 394161
2096921,2096921, 309063, 392327
2096921,2096921, 309023, 392081
2096921,2096921, 308849, 391937
2096921,2096921, 309051, 391989
2096921,2096921, 308066, 391796
2096921,2096921, 307781, 390835
2096921,2096921, 307662, 390428
2096921,2096921, 307481, 390283
2096921,2096921, 307385, 390363
2096921,2096921, 306732, 390527
2096921,2096921, 306668, 389610
2096921,2096921, 306532, 389355
2096921,2096921, 306621, 389415
2096921,2096921, 306504, 389503
2096921,2096921, 305781, 389161
2096921,2096921, 305836, 388642
2096921,2096921, 305989, 388582
2096921,2096921, 305902, 388436
2096921,2096921, 305812, 388532
2096921,2096921, 305184, 388572
2096921,2096921, 305106, 388312
2096921,2096921, 305227, 388265
2096921,2096921, 305069, 388014
2096921,2096921, 305297, 387952
2096921,2096921, 305013, 388108
2096921,2096921, 304692, 387912
2096921,2096921, 304647, 387854
2096921,2096921, 304516, 387720
2096921,2096921, 304685, 387648
2096921,2096921, 304650, 387431
2096921,2096921, 304377, 387258
2096921,2096921, 304594, 387121
2096921,2096921, 304585, 386951
2096921,2096921, 304322, 387142
2096921,2096921, 304144, 387316
2096921,2096921, 304224, 387024
2096921,2096921, 304279, 386990
2096921,2096921, 304323, 387073
2096921,2096921, 303966, 386848
2096921,2096921, 304630, 387145
2096921,2096921, 304225, 387218
2096921,2096921, 304650, 386770
2096921,2096921, 304664, 386956
2096921,2096921, 304447, 386899
2096921,2096921, 304254, 387111
2096921,2096921, 304327, 387120
2096921,2096921, 304161, 386898
2096921,2096921, 304266, 386928
2096921,2096921, 304054, 386787
2096921,2096921, 304353, 387221
2096921,2096921, 304399, 387018
2096921,2096921, 304476, 387116
2096921,2096921, 304224, 387043
2096921,2096921, 304280, 386981
2096921,2096921, 304448, 387093
2096921,2096921, 304532, 386919
2096921,2096921, 304267, 386989
2096921,2096921, 304421, 387350
2096921,2096921, 304304, 387066
2096921,2096921, 304668, 387024
2096921,2096921, 304676, 387208
2096921,2096921, 304549, 387343
2096921,2096921, 304626, 387506
2096921,2096921, 304523, 387255
2096921,2096921, 304418, 387359
2096921,2096921, 304596, 387326
2096921,2096921, 304728, 387565
2096921,2096921, 304844, 387374
2096921,2096921, 304763, 387479
2096921,2096921, 305044, 387758
2096921,2096921, 305107, 387879
2096921,2096921, 305323, 387859
2096921,2096921, 305164, 387784
2096921,2096921, 305263, 387971
2096921,2096921, 305373, 388067
2096921,2096921, 305447, 388175
2096921,2096921, 305339, 388186
2096921,2096921, 305399, 388271
2096921,2096921, 305146, 388101
2096921,2096921, 305287, 387899
2096921,2096921, 305760, 388417
2096921,2096921, 305304, 388036
2096921,2096921, 305514, 388220
2096921,2096921, 305640, 388518
2096921,2096921, 305907, 388376
2096921,2096921, 305927, 388428
2096921,2096921, 305584, 388560
2096921,2096921, 305701, 388725
2096921,2096921, 305704, 388518
2096921,2096921, 305981, 388347
2096921,2096921, 305850, 388875
2096921,2096921, 306271, 388756
2096921,2096921, 306318, 389091
2096921,2096921, 306258, 388831
2096921,2096921, 306396, 389031
2096921,2096921, 306617, 388668
2096921,2096921, 306362, 389203
2096921,2096921, 306288, 389078
2096921,2096921, 306205, 389096
