2096921,2096921,161184,671085,0
2096921,2096921,161223,671478,0
2096921,2096921,161015,671023,0
2096921,2096921,161083,671431,0
2096921,2096921,161265,671386,0
2096921,2096921,160955,671280,0
2096921,2096921,161262,671377,0
2096921,2096921,161474,671549,0
2096921,2096921,161206,671222,0
2096921,2096921,161152,671365,0
2096921,2096921,161678,671482,0
2096921,2096921,161345,672047,0
2096921,2096921,161371,671874,0
2096921,2096921,161421,671658,0
2096921,2096921,161325,671696,0
2096921,2096921,161455,672035,0
2096921,2096921,161625,672154,0
2096921,2096921,161474,672066,0
2096921,2096921,161553,672303,0
2096921,2096921,161648,672488,0
2096921,2096921,161707,672192,0
2096921,2096921,161668,672434,0
2096921,2096921,161900,672441,0
2096921,2096921,161584,672592,0
2096921,2096921,161651,672748,0
2096921,2096921,161712,672925,0
2096921,2096921,161719,672815,0
2096921,2096921,161739,672847,0
2096921,2096921,162185,672776,0
2096921,2096921,161904,672769,0
2096921,2096921,161911,673048,0
2096921,2096921,161789,673147,0
2096921,2096921,161974,673074,0
2096921,2096921,161799,672910,0
2096921,2096921,161770,673458,0
2096921,2096921,161813,673288,0
2096921,2096921,161880,673431,0
2096921,2096921,161875,673208,0
2096921,2096921,161950,673481,0
2096921,2096921,161934,673586,0
2096921,2096921,162424,673922,0
2096921,2096921,161934,673690,0
2096921,2096921,162198,674086,0
2096921,2096921,162310,674011,0
2096921,2096921,162014,673955,0
2096921,2096921,162310,673884,0
2096921,2096921,162321,674129,0
2096921,2096921,162287,674219,0
2096921,2096921,162185,674077,0
2096921,2096921,162250,674302,0
2096921,2096921,162265,674279,0
2096921,2096921,162693,674133,0
2096921,2096921,162593,674270,0
2096921,2096921,162298,673930,0
2096921,2096921,162396,674119,0
2096921,2096921,162646,674389,0
2096921,2096921,162190,674893,0
2096921,2096921,162142,674604,0
2096921,2096921,162563,674551,0
2096921,2096921,162259,674470,0
2096921,2096921,162344,674486,0
2096921,2096921,162441,674916,0
2096921,2096921,162583,674904,0
2096921,2096921,162634,674839,0
2096921,2096921,162699,674790,0
2096921,2096921,162661,674965,0
2096921,2096921,162674,674891,0
2096921,2096921,162834,675122,0
2096921,2096921,162774,675275,0
2096921,2096921,162819,675357,0
2096921,2096921,162974,675453,0
2096921,2096921,162858,675417,0
2096921,2096921,163102,675090,0
2096921,2096921,163012,675389,0
2096921,2096921,162876,675440,0
2096921,2096921,162755,675207,0
2096921,2096921,162930,675544,0
2096921,2096921,162889,675687,0
2096921,2096921,162819,675559,0
2096921,2096921,162847,675655,0
2096921,2096921,163334,675610,0
2096921,2096921,162960,675666,0
2096921,2096921,162805,675596,0
2096921,2096921,162910,675762,0
2096921,2096921,162659,675696,0
2096921,2096921,163242,675982,0
2096921,2096921,163071,675857,0
2096921,2096921,163066,675853,0
2096921,2096921,163186,675839,0
2096921,2096921,163176,676036,0
2096921,2096921,162922,676038,0
2096921,2096921,163347,676038,0
2096921,2096921,163261,676525,0
2096921,2096921,163025,676519,0
2096921,2096921,163083,676438,0
2096921,2096921,163140,675913,0
2096921,2096921,163119,675949,0
2096921,2096921,163019,676027,0
2096921,2096921,162994,676398,0
2096921,2096921,162780,676048,0
2096921,2096921,163026,676340,0
2096921,2096921,162901,676423,0
2096921,2096921,163185,676299,0
2096921,2096921,163244,676543,0
2096921,2096921,163232,676845,0
2096921,2096921,163359,676503,0
2096921,2096921,163411,676679,0
2096921,2096921,163279,676543,0
2096921,2096921,162912,676487,0
2096921,2096921,163075,676661,0
2096921,2096921,163314,676704,0
2096921,2096921,163529,676626,0
2096921,2096921,163268,676647,0
2096921,2096921,163428,676775,0
2096921,2096921,163477,676455,0
2096921,2096921,163682,676655,0
2096921,2096921,163467,676652,0
2096921,2096921,163404,676752,0
2096921,2096921,163242,676729,0
2096921,2096921,163419,676796,0
2096921,2096921,163226,677026,0
2096921,2096921,163473,677030,0
2096921,2096921,163373,676763,0
2096921,2096921,163601,676824,0
2096921,2096921,163540,676981,0
2096921,2096921,163575,677177,0
2096921,2096921,163307,676830,0
2096921,2096921,163395,676946,0
2096921,2096921,163237,676924,0
2096921,2096921,163576,676904,0
2096921,2096921,163584,676928,0
2096921,2096921,163947,677285,0
2096921,2096921,163614,677109,0
2096921,2096921,163761,677373,0
2096921,2096921,163742,677249,0
2096921,2096921,163460,677187,0
2096921,2096921,163557,677203,0
2096921,2096921,163664,677378,0
2096921,2096921,163452,677398,0
2096921,2096921,163558,677510,0
2096921,2096921,163736,677640,0
2096921,2096921,163671,677838,0
2096921,2096921,163731,677577,0
2096921,2096921,163843,677438,0
2096921,2096921,163810,677462,0
2096921,2096921,163653,677483,0
2096921,2096921,163654,677466,0
2096921,2096921,163448,677406,0
2096921,2096921,163863,677562,0
2096921,2096921,163782,677784,0
2096921,2096921,163824,677503,0
2096921,2096921,163883,677714,0
2096921,2096921,163822,677692,0
2096921,2096921,163780,677953,0
2096921,2096921,163707,677868,0
2096921,2096921,163861,677835,0
2096921,2096921,163680,677814,0
2096921,2096921,163891,677613,0
2096921,2096921,163879,677836,0
2096921,2096921,163612,677733,0
2096921,2096921,163922,677822,0
2096921,2096921,163823,677737,0
2096921,2096921,163849,677592,0
2096921,2096921,163922,677804,0
2096921,2096921,163649,678004,0
2096921,2096921,163829,677793,0
2096921,2096921,163858,677846,0
2096921,2096921,163648,678005,0
2096921,2096921,163571,677970,0
2096921,2096921,164038,678076,0
2096921,2096921,163917,677895,0
2096921,2096921,163972,677615,0
2096921,2096921,164005,677792,0
2096921,2096921,164113,677873,0
2096921,2096921,163976,677859,0
2096921,2096921,163931,677935,0
2096921,2096921,163820,678211,0
2096921,2096921,163984,677808,0
2096921,2096921,163754,677864,0
2096921,2096921,164079,677913,0
2096921,2096921,163838,678201,0
2096921,2096921,164004,678101,0
2096921,2096921,163874,678164,0
2096921,2096921,164085,678180,0
2096921,2096921,164079,678126,0
2096921,2096921,163720,678071,0
2096921,2096921,163939,678039,0
2096921,2096921,163913,678245,0
2096921,2096921,163802,678169,0
2096921,2096921,163796,677953,0
2096921,2096921,163707,678105,0
2096921,2096921,163819,678174,0
2096921,2096921,163930,677951,0
2096921,2096921,163960,678129,0
2096921,2096921,163931,678117,0
2096921,2096921,163669,678151,0
2096921,2096921,163793,677700,0
2096921,2096921,163776,678032,0
2096921,2096921,163908,677983,0
2096921,2096921,163890,677706,0
2096921,2096921,164018,677947,0
2096921,2096921,163953,677838,0
2096921,2096921,164030,677981,0
2096921,2096921,164086,678033,0
2096921,2096921,164062,677736,0
2096921,2096921,163996,678046,0
2096921,2096921,164120,677932,0
2096921,2096921,163827,677942,0
2096921,2096921,164033,677692,0
2096921,2096921,163915,677976,0
2096921,2096921,163831,678101,0
2096921,2096921,164121,678123,0
2096921,2096921,164008,677887,0
2096921,2096921,163576,677844,0
2096921,2096921,163758,677703,0
2096921,2096921,163949,678184,0
2096921,2096921,163719,677800,0
2096921,2096921,163925,677827,0
2096921,2096921,164132,678158,0
2096921,2096921,163903,677894,0
2096921,2096921,163642,677372,0
2096921,2096921,163707,677662,0
2096921,2096921,163726,677115,0
2096921,2096921,163548,677058,0
2096921,2096921,163783,677207,0
2096921,2096921,163428,676977,0
2096921,2096921,163358,676757,0
2096921,2096921,163337,677043,0
2096921,2096921,163409,676841,0
2096921,2096921,163315,677000,0
2096921,2096921,163025,676560,0
2096921,2096921,162931,675903,0
2096921,2096921,162971,675568,0
2096921,2096921,163267,675955,0
2096921,2096921,162800,675665,0
2096921,2096921,162375,674984,0
2096921,2096921,162470,674492,0
2096921,2096921,162373,674413,0
2096921,2096921,162222,674478,0
2096921,2096921,162546,674383,0
2096921,2096921,161884,674005,0
2096921,2096921,161676,673116,0
2096921,2096921,161796,672919,0
2096921,2096921,161852,673399,0
2096921,2096921,161828,673295,0
2096921,2096921,160630,671777,0
2096921,2096921,160807,670598,0
2096921,2096921,160603,670258,0
2096921,2096921,160348,670080,0
2096921,2096921,160541,670141,0
2096921,2096921,159477,668334,0
2096921,2096921,159110,666892,0
2096921,2096921,159065,666422,0
2096921,2096921,158956,666117,0
2096921,2096921,158863,665905,0
2096921,2096921,158232,664686,0
2096921,2096921,158067,663400,0
2096921,2096921,157752,663288,0
2096921,2096921,157817,663451,0
2096921,2096921,157586,663484,0
2096921,2096921,156932,662144,0
2096921,2096921,157064,661314,0
2096921,2096921,156947,661140,0
2096921,2096921,156992,661163,0
2096921,2096921,156845,661282,0
2096921,2096921,156472,660646,0
2096921,2096921,156351,659969,0
2096921,2096921,156075,659220,0
2096921,2096921,155947,659398,0
2096921,2096921,156061,659438,0
2096921,2096921,156080,658929,0
2096921,2096921,156073,658433,0
2096921,2096921,155867,658164,0
2096921,2096921,155668,658162,0
2096921,2096921,155910,658329,0
2096921,2096921,155603,658017,0
2096921,2096921,155288,657500,0
2096921,2096921,155363,657483,0
2096921,2096921,155546,657583,0
2096921,2096921,155492,657579,0
2096921,2096921,155475,657143,0
2096921,2096921,155134,657005,0
2096921,2096921,155076,657201,0
2096921,2096921,155001,656926,0
2096921,2096921,155163,657287,0
2096921,2096921,155292,656731,0
2096921,2096921,155285,657026,0
2096921,2096921,155418,656848,0
2096921,2096921,155137,656580,0
2096921,2096921,155140,656198,0
2096921,2096921,155385,657104,0
2096921,2096921,155347,657026,0
2096921,2096921,154939,656549,0
2096921,2096921,155315,656955,0
2096921,2096921,155229,657067,0
2096921,2096921,155303,657496,0
2096921,2096921,155241,657189,0
2096921,2096921,155192,656981,0
2096921,2096921,155186,657086,0
2096921,2096921,155592,657200,0
2096921,2096921,155447,657351,0
2096921,2096921,155611,657512,0
2096921,2096921,155468,657244,0
2096921,2096921,155596,657494,0
2096921,2096921,155504,657134,0
2096921,2096921,155312,657391,0
2096921,2096921,155471,657473,0
2096921,2096921,155298,657639,0
2096921,2096921,155402,657429,0
2096921,2096921,155495,657654,0
2096921,2096921,155786,657950,0
2096921,2096921,155849,658312,0
2096921,2096921,156100,658223,0
2096921,2096921,155651,657965,0
2096921,2096921,155645,658064,0
2096921,2096921,156046,658397,0
2096921,2096921,156073,658496,0
2096921,2096921,156032,658676,0
2096921,2096921,156212,658813,0
2096921,2096921,156165,658954,0
2096921,2096921,156159,659194,0
2096921,2096921,156412,659245,0
2096921,2096921,156550,659472,0
2096921,2096921,156357,659269,0
2096921,2096921,156271,659356,0
2096921,2096921,156397,660182,0
2096921,2096921,156675,660117,0
2096921,2096921,156836,660191,0
2096921,2096921,156741,660265,0
2096921,2096921,156337,660013,0
2096921,2096921,156622,660428,0
2096921,2096921,156781,660898,0
2096921,2096921,156722,660790,0
2096921,2096921,156847,660671,0
2096921,2096921,156846,660869,0
2096921,2096921,156823,661206,0
2096921,2096921,156959,661402,0
2096921,2096921,157030,661532,0
2096921,2096921,157024,661422,0
2096921,2096921,157129,661522,0
2096921,2096921,157222,661661,0
2096921,2096921,157258,661933,0
2096921,2096921,157420,662218,0
2096921,2096921,157412,662116,0
2096921,2096921,157205,662152,0
2096921,2096921,157495,662168,0
2096921,2096921,157624,662645,0
2096921,2096921,157562,662753,0
2096921,2096921,157509,662834,0
2096921,2096921,157443,662731,0
2096921,2096921,157856,663604,0
2096921,2096921,157904,663241,0
2096921,2096921,158051,663439,0
2096921,2096921,158216,663412,0
2096921,2096921,158038,663429,0
2096921,2096921,158409,663876,0
2096921,2096921,158462,664113,0
2096921,2096921,158099,664057,0
2096921,2096921,158070,664030,0
2096921,2096921,158288,663893,0
2096921,2096921,158090,664756,0
2096921,2096921,158510,664862,0
2096921,2096921,158585,665011,0
2096921,2096921,158578,664730,0
2096921,2096921,158264,665031,0
2096921,2096921,158588,665409,0
2096921,2096921,158511,665540,0
2096921,2096921,158979,665503,0
2096921,2096921,158897,665757,0
2096921,2096921,159259,665674,0
2096921,2096921,158807,665854,0
2096921,2096921,158996,666030,0
2096921,2096921,158812,666117,0
2096921,2096921,158692,666269,0
2096921,2096921,159013,666054,0
2096921,2096921,158864,666502,0
2096921,2096921,158916,666547,0
2096921,2096921,159040,666687,0
2096921,2096921,159003,666727,0
2096921,2096921,159112,666723,0
2096921,2096921,159375,667039,0
2096921,2096921,159422,667232,0
2096921,2096921,159395,666982,0
2096921,2096921,159579,667069,0
2096921,2096921,159216,666877,0
2096921,2096921,159278,667153,0
2096921,2096921,159495,667306,0
2096921,2096921,159437,667252,0
2096921,2096921,159701,667180,0
2096921,2096921,159608,667111,0
2096921,2096921,159730,667119,0
2096921,2096921,159564,667197,0
2096921,2096921,159921,667606,0
2096921,2096921,159869,667515,0
2096921,2096921,159611,667337,0
2096921,2096921,159705,667406,0
2096921,2096921,159462,667419,0
2096921,2096921,159577,667546,0
2096921,2096921,159392,667509,0
2096921,2096921,159478,667563,0
2096921,2096921,159408,667723,0
2096921,2096921,159675,667492,0
2096921,2096921,160098,667542,0
2096921,2096921,159580,667264,0
2096921,2096921,159468,667477,0
2096921,2096921,159526,667385,0
2096921,2096921,159384,667249,0
2096921,2096921,159488,667229,0
2096921,2096921,159478,667386,0
2096921,2096921,159395,667104,0
2096921,2096921,159341,667236,0
2096921,2096921,159329,667000,0
2096921,2096921,159117,667221,0
2096921,2096921,159327,667157,0
2096921,2096921,159532,667324,0
2096921,2096921,159281,666844,0
2096921,2096921,159189,666587,0
2096921,2096921,159440,666526,0
2096921,2096921,159426,666569,0
2096921,2096921,159438,666958,0
2096921,2096921,159306,666729,0
2096921,2096921,159229,666709,0
2096921,2096921,159040,666911,0
2096921,2096921,159554,666659,0
2096921,2096921,159173,666772,0
2096921,2096921,158968,666509,0
2096921,2096921,158985,666354,0
2096921,2096921,159274,666308,0
2096921,2096921,158979,666226,0
2096921,2096921,159205,666174,0
2096921,2096921,159201,666294,0
2096921,2096921,159121,666337,0
2096921,2096921,159332,666441,0
2096921,2096921,159318,666372,0
2096921,2096921,158985,666241,0
2096921,2096921,158960,666205,0
2096921,2096921,158995,666555,0
2096921,2096921,159204,666243,0
2096921,2096921,159111,666288,0
2096921,2096921,159187,666202,0
2096921,2096921,159272,666350,0
2096921,2096921,159131,666228,0
2096921,2096921,159172,666436,0
2096921,2096921,159269,666315,0
2096921,2096921,159193,666246,0
2096921,2096921,158910,666648,0
2096921,2096921,159492,666845,0
2096921,2096921,159177,666718,0
2096921,2096921,159230,666772,0
2096921,2096921,159060,666642,0
2096921,2096921,159042,666885,0
2096921,2096921,159251,666807,0
2096921,2096921,159325,666906,0
2096921,2096921,159289,666936,0
2096921,2096921,159390,666931,0
2096921,2096921,159444,667248,0
2096921,2096921,159469,667268,0
2096921,2096921,159246,667166,0
2096921,2096921,159659,667399,0
2096921,2096921,159283,667235,0
2096921,2096921,159931,667365,0
2096921,2096921,159819,667728,0
2096921,2096921,159765,668067,0
2096921,2096921,159705,668152,0
2096921,2096921,159813,667913,0
2096921,2096921,159849,667903,0
2096921,2096921,159831,668479,0
2096921,2096921,159724,668195,0
2096921,2096921,159828,668397,0
2096921,2096921,159723,668378,0
2096921,2096921,160047,668642,0
2096921,2096921,159851,668606,0
2096921,2096921,159998,668794,0
2096921,2096921,160010,668542,0
2096921,2096921,159769,668554,0
2096921,2096921,160087,668954,0
2096921,2096921,160266,669165,0
2096921,2096921,160414,669183,0
2096921,2096921,160449,668966,0
2096921,2096921,160412,668996,0
2096921,2096921,160397,669476,0
2096921,2096921,160491,669447,0
2096921,2096921,160203,669339,0
2096921,2096921,160227,669484,0
2096921,2096921,160208,669262,0
2096921,2096921,160646,669618,0
2096921,2096921,160511,669882,0
2096921,2096921,160705,669983,0
2096921,2096921,160609,669590,0
2096921,2096921,160641,669591,0
2096921,2096921,160770,669725,0
2096921,2096921,160770,669931,0
2096921,2096921,160725,670219,0
2096921,2096921,160610,670298,0
2096921,2096921,160812,670242,0
2096921,2096921,160910,670627,0
2096921,2096921,160784,670596,0
2096921,2096921,161144,670510,0
2096921,2096921,160736,670709,0
2096921,2096921,160885,670618,0
2096921,2096921,160884,670648,0
2096921,2096921,161024,671066,0
2096921,2096921,160901,671013,0
2096921,2096921,161026,671091,0
2096921,2096921,160820,671121,0
2096921,2096921,161107,671355,0
2096921,2096921,161161,671296,0
2096921,2096921,161315,671574,0
2096921,2096921,161076,671600,0
2096921,2096921,161300,671657,0
2096921,2096921,161600,672009,0
2096921,2096921,161581,671989,0
2096921,2096921,161283,672367,0
2096921,2096921,161571,671973,0
2096921,2096921,161514,671756,0
2096921,2096921,161416,671540,0
2096921,2096921,161583,672054,0
2096921,2096921,161726,672269,0
2096921,2096921,161396,672136,0
2096921,2096921,161484,672166,0
2096921,2096921,161715,672409,0
2096921,2096921,161559,672601,0
2096921,2096921,161742,672590,0
2096921,2096921,161967,672650,0
2096921,2096921,161394,672395,0
2096921,2096921,161658,672707,0
2096921,2096921,161630,672851,0
2096921,2096921,161795,672829,0
2096921,2096921,161736,672958,0
2096921,2096921,161527,672860,0
2096921,2096921,161848,673047,0
2096921,2096921,162073,673091,0
2096921,2096921,161848,673143,0
2096921,2096921,161980,673255,0
2096921,2096921,162054,673193,0
2096921,2096921,162122,673470,0
2096921,2096921,161808,673399,0
2096921,2096921,162139,673452,0
2096921,2096921,162101,673533,0
2096921,2096921,162111,673536,0
2096921,2096921,162219,673623,0
2096921,2096921,162337,673985,0
2096921,2096921,161944,673807,0
2096921,2096921,162082,673884,0
2096921,2096921,161993,673749,0
2096921,2096921,162196,673727,0
2096921,2096921,162290,673872,0
2096921,2096921,162378,673853,0
2096921,2096921,162343,674101,0
2096921,2096921,162103,674050,0
2096921,2096921,162453,674345,0
2096921,2096921,162637,674310,0
2096921,2096921,162504,674191,0
2096921,2096921,162779,674079,0
2096921,2096921,162417,674362,0
2096921,2096921,162125,674067,0
2096921,2096921,162346,674589,0
2096921,2096921,162271,674572,0
2096921,2096921,162252,674557,0
2096921,2096921,162764,674753,0
2096921,2096921,162760,674928,0
2096921,2096921,162384,674978,0
2096921,2096921,162447,675012,0
2096921,2096921,163030,675214,0
2096921,2096921,162852,674956,0
2096921,2096921,162799,675158,0
2096921,2096921,162840,675294,0
2096921,2096921,162900,675255,0
2096921,2096921,162629,674989,0
2096921,2096921,162806,675123,0
2096921,2096921,163016,675496,0
2096921,2096921,162766,675420,0
2096921,2096921,163043,675340,0
2096921,2096921,163186,675546,0
2096921,2096921,162865,674973,0
2096921,2096921,162891,675519,0
2096921,2096921,162614,675640,0
2096921,2096921,162484,675560,0
2096921,2096921,162790,675636,0
2096921,2096921,162791,675688,0
2096921,2096921,162773,675464,0
2096921,2096921,162967,675648,0
2096921,2096921,162820,675623,0
2096921,2096921,162832,675587,0
2096921,2096921,162914,675826,0
2096921,2096921,162905,675924,0
2096921,2096921,163104,675848,0
2096921,2096921,163291,675870,0
2096921,2096921,163111,676036,0
2096921,2096921,162875,676108,0
2096921,2096921,163106,676133,0
2096921,2096921,163380,675922,0
2096921,2096921,163181,676249,0
2096921,2096921,163247,676004,0
2096921,2096921,162818,675907,0
2096921,2096921,163060,676130,0
2096921,2096921,163318,676104,0
2096921,2096921,163086,676462,0
2096921,2096921,163015,676405,0
2096921,2096921,163263,676138,0
2096921,2096921,163151,676517,0
2096921,2096921,163352,676300,0
2096921,2096921,163464,676529,0
2096921,2096921,163353,676434,0
2096921,2096921,163409,676481,0
2096921,2096921,163601,676470,0
2096921,2096921,163465,676524,0
2096921,2096921,163386,676327,0
2096921,2096921,163191,676505,0
2096921,2096921,163460,676808,0
2096921,2096921,163370,676739,0
2096921,2096921,163755,676523,0
2096921,2096921,163592,676665,0
2096921,2096921,163295,676811,0
2096921,2096921,163385,676946,0
2096921,2096921,163402,676906,0
2096921,2096921,163305,676958,0
2096921,2096921,163445,676911,0
2096921,2096921,163215,676771,0
2096921,2096921,163143,676615,0
2096921,2096921,163391,676784,0
2096921,2096921,163413,677157,0
2096921,2096921,163538,676989,0
2096921,2096921,163394,677130,0
2096921,2096921,163502,676943,0
2096921,2096921,163388,677012,0
2096921,2096921,163216,677148,0
2096921,2096921,163616,677290,0
2096921,2096921,163415,677020,0
2096921,2096921,163463,676846,0
2096921,2096921,163610,677478,0
2096921,2096921,163476,677460,0
2096921,2096921,163568,677173,0
2096921,2096921,163278,677316,0
2096921,2096921,163458,677322,0
2096921,2096921,163413,677359,0
2096921,2096921,163987,677221,0
2096921,2096921,163557,677534,0
2096921,2096921,163597,677341,0
2096921,2096921,163711,677058,0
2096921,2096921,163556,677461,0
2096921,2096921,163535,677301,0
2096921,2096921,163950,677322,0
2096921,2096921,163866,677430,0
2096921,2096921,163601,677409,0
2096921,2096921,163817,677503,0
2096921,2096921,164026,677631,0
2096921,2096921,163869,677925,0
2096921,2096921,163698,677796,0
2096921,2096921,163871,677803,0
2096921,2096921,163654,677680,0
2096921,2096921,163890,677637,0
2096921,2096921,163572,677849,0
2096921,2096921,163823,677812,0
2096921,2096921,163564,677849,0
2096921,2096921,163868,677853,0
2096921,2096921,163817,677723,0
2096921,2096921,163893,677700,0
2096921,2096921,163836,677525,0
2096921,2096921,163612,677765,0
2096921,2096921,163734,677750,0
2096921,2096921,163748,678065,0
2096921,2096921,163887,677898,0
2096921,2096921,163770,677925,0
2096921,2096921,163802,678040,0
2096921,2096921,163997,678065,0
2096921,2096921,163985,677780,0
2096921,2096921,163746,678071,0
2096921,2096921,163758,677928,0
2096921,2096921,163837,677882,0
2096921,2096921,163787,678003,0
2096921,2096921,163885,677873,0
2096921,2096921,163804,678029,0
2096921,2096921,164019,677829,0
2096921,2096921,163866,678100,0
2096921,2096921,163812,678108,0
2096921,2096921,163894,677898,0
2096921,2096921,163838,677863,0
2096921,2096921,163655,678097,0
2096921,2096921,163990,678019,0
2096921,2096921,163899,677936,0
2096921,2096921,163794,678221,0
2096921,2096921,163744,677929,0
2096921,2096921,163688,678092,0
2096921,2096921,163904,678060,0
2096921,2096921,163765,678075,0
2096921,2096921,163741,677865,0
2096921,2096921,163985,678068,0
2096921,2096921,163865,678046,0
2096921,2096921,163928,678049,0
2096921,2096921,163737,677880,0
2096921,2096921,164176,678261,0
2096921,2096921,163925,677809,0
2096921,2096921,164085,678129,0
2096921,2096921,163702,678202,0
2096921,2096921,163621,678175,0
2096921,2096921,164082,677876,0
2096921,2096921,164100,678242,0
2096921,2096921,164098,678184,0
2096921,2096921,163970,677965,0
2096921,2096921,163990,677983,0
2096921,2096921,164050,677921,0
2096921,2096921,164035,678207,0
2096921,2096921,163623,678194,0
2096921,2096921,163861,677928,0
2096921,2096921,163682,678008,0
2096921,2096921,163537,677882,0
2096921,2096921,163748,677795,0
2096921,2096921,164051,677740,0
2096921,2096921,164116,677883,0
2096921,2096921,164188,677983,0
2096921,2096921,164129,678008,0
2096921,2096921,163669,677783,0
2096921,2096921,163776,677936,0
2096921,2096921,163940,678100,0
2096921,2096921,163844,678081,0
2096921,2096921,163905,677922,0
2096921,2096921,163785,677899,0
2096921,2096921,163739,677996,0
2096921,2096921,163876,678036,0
2096921,2096921,163680,677632,0
2096921,2096921,163736,677255,0
2096921,2096921,163595,677537,0
2096921,2096921,163555,677325,0
2096921,2096921,163670,677255,0
2096921,2096921,163600,677015,0
2096921,2096921,163441,676593,0
2096921,2096921,163484,676685,0
2096921,2096921,163250,676807,0
2096921,2096921,163523,676591,0
2096921,2096921,163234,676026,0
2096921,2096921,162935,675924,0
2096921,2096921,162985,675372,0
2096921,2096921,163057,675703,0
2096921,2096921,162756,675748,0
2096921,2096921,162645,674985,0
2096921,2096921,162444,674579,0
2096921,2096921,162455,674527,0
2096921,2096921,162426,674288,0
2096921,2096921,162589,674469,0
2096921,2096921,161742,673722,0
2096921,2096921,161696,673220,0
2096921,2096921,161892,673428,0
2096921,2096921,161875,673107,0
2096921,2096921,161938,673257,0
2096921,2096921,160867,671309,0
2096921,2096921,160938,670229,0
2096921,2096921,160638,670082,0
2096921,2096921,160843,670027,0
2096921,2096921,160812,670205,0
2096921,2096921,159301,668120,0
2096921,2096921,159125,666447,0
2096921,2096921,158900,666028,0
2096921,2096921,159061,666005,0
2096921,2096921,159042,665976,0
2096921,2096921,158182,664689,0
2096921,2096921,157993,663519,0
2096921,2096921,157867,663366,0
2096921,2096921,157826,663174,0
2096921,2096921,157745,663301,0
2096921,2096921,157131,661913,0
2096921,2096921,157269,661149,0
2096921,2096921,156986,661361,0
2096921,2096921,156586,661108,0
2096921,2096921,156979,660888,0
2096921,2096921,156301,660082,0
2096921,2096921,156394,659520,0
2096921,2096921,156260,659425,0
2096921,2096921,156149,659273,0
2096921,2096921,156163,659269,0
2096921,2096921,155867,659048,0
2096921,2096921,155964,658671,0
2096921,2096921,155791,658606,0
2096921,2096921,155858,658452,0
2096921,2096921,155742,658346,0
2096921,2096921,155417,657829,0
2096921,2096921,155359,657286,0
2096921,2096921,155407,657313,0
2096921,2096921,155276,657751,0
2096921,2096921,155248,657598,0
2096921,2096921,155130,657548,0
2096921,2096921,155269,657141,0
2096921,2096921,155116,657064,0
2096921,2096921,155293,656857,0
2096921,2096921,155371,657051,0
2096921,2096921,155215,657045,0
2096921,2096921,155364,656795,0
2096921,2096921,155350,656815,0
2096921,2096921,155013,656788,0
2096921,2096921,155269,656582,0
2096921,2096921,155417,657068,0
2096921,2096921,155357,656868,0
2096921,2096921,155039,656858,0
2096921,2096921,155073,656926,0
2096921,2096921,155034,656848,0
2096921,2096921,155081,656932,0
2096921,2096921,155155,656866,0
2096921,2096921,155122,657131,0
2096921,2096921,155005,657054,0
2096921,2096921,155334,656900,0
2096921,2096921,155344,656763,0
2096921,2096921,155466,657257,0
2096921,2096921,155274,657349,0
2096921,2096921,155190,657361,0
2096921,2096921,155322,657543,0
2096921,2096921,155245,657407,0
2096921,2096921,155552,657679,0
2096921,2096921,155509,657703,0
2096921,2096921,155402,657381,0
2096921,2096921,155309,657652,0
2096921,2096921,155705,657908,0
2096921,2096921,155799,658019,0
2096921,2096921,155922,658323,0
2096921,2096921,155449,658166,0
2096921,2096921,155859,658282,0
2096921,2096921,156111,658441,0
2096921,2096921,155924,658750,0
2096921,2096921,155996,658659,0
2096921,2096921,156027,658864,0
2096921,2096921,155964,658819,0
2096921,2096921,156150,659249,0
2096921,2096921,156394,659312,0
2096921,2096921,156433,659272,0
2096921,2096921,156074,659165,0
2096921,2096921,156340,659595,0
2096921,2096921,156507,659938,0
2096921,2096921,156536,659806,0
2096921,2096921,156614,660190,0
2096921,2096921,156395,660402,0
2096921,2096921,156505,660106,0
2096921,2096921,156755,660246,0
2096921,2096921,156850,660679,0
2096921,2096921,156898,660819,0
2096921,2096921,156661,660664,0
2096921,2096921,156764,660902,0
2096921,2096921,156680,661369,0
2096921,2096921,157031,661423,0
2096921,2096921,157112,661574,0
2096921,2096921,157206,661455,0
2096921,2096921,157041,661325,0
2096921,2096921,157619,661985,0
2096921,2096921,157407,662121,0
2096921,2096921,157338,661735,0
2096921,2096921,157254,662062,0
2096921,2096921,157355,662234,0
2096921,2096921,157139,662099,0
2096921,2096921,157767,662952,0
2096921,2096921,157713,662778,0
2096921,2096921,157560,662729,0
2096921,2096921,157884,662882,0
2096921,2096921,157967,663261,0
2096921,2096921,158047,663367,0
2096921,2096921,158004,663684,0
2096921,2096921,158045,663692,0
2096921,2096921,157785,663787,0
2096921,2096921,158293,663727,0
2096921,2096921,158286,664027,0
2096921,2096921,158381,664238,0
2096921,2096921,158738,664026,0
2096921,2096921,158420,663922,0
2096921,2096921,158481,664411,0
2096921,2096921,158444,664825,0
2096921,2096921,158315,664977,0
2096921,2096921,158575,664915,0
2096921,2096921,158311,664781,0
2096921,2096921,158779,665293,0
2096921,2096921,158722,665699,0
2096921,2096921,158996,665410,0
2096921,2096921,158705,665464,0
2096921,2096921,158450,665633,0
2096921,2096921,158892,665851,0
2096921,2096921,159137,666265,0
2096921,2096921,159028,666155,0
2096921,2096921,159005,666459,0
2096921,2096921,159247,666043,0
2096921,2096921,159253,666305,0
2096921,2096921,159181,666263,0
2096921,2096921,159028,666660,0
2096921,2096921,159196,666599,0
2096921,2096921,159275,666589,0
2096921,2096921,159583,666631,0
2096921,2096921,159519,667062,0
2096921,2096921,159506,667117,0
2096921,2096921,159445,667095,0
2096921,2096921,159405,667099,0
2096921,2096921,159233,666732,0
2096921,2096921,159515,666839,0
2096921,2096921,159453,666916,0
2096921,2096921,159325,666996,0
2096921,2096921,159627,667148,0
2096921,2096921,159883,667345,0
2096921,2096921,159419,667522,0
2096921,2096921,159751,667471,0
2096921,2096921,159316,667672,0
2096921,2096921,159478,667582,0
2096921,2096921,159403,667304,0
2096921,2096921,159507,667350,0
2096921,2096921,159416,667386,0
2096921,2096921,159656,667573,0
2096921,2096921,159596,667259,0
2096921,2096921,159406,667648,0
2096921,2096921,159415,667617,0
2096921,2096921,159591,667646,0
2096921,2096921,159502,667417,0
2096921,2096921,159432,667292,0
2096921,2096921,159599,667086,0
2096921,2096921,159421,667306,0
2096921,2096921,159163,667255,0
2096921,2096921,159319,667471,0
2096921,2096921,159657,667696,0
2096921,2096921,159610,667312,0
2096921,2096921,159417,667129,0
2096921,2096921,159394,667079,0
2096921,2096921,159211,667011,0
2096921,2096921,159548,666861,0
2096921,2096921,159460,666902,0
2096921,2096921,159067,666867,0
2096921,2096921,159187,666934,0
2096921,2096921,159464,667052,0
2096921,2096921,159356,666840,0
2096921,2096921,159365,666482,0
2096921,2096921,159537,666810,0
2096921,2096921,159387,666544,0
2096921,2096921,159174,666606,0
2096921,2096921,159331,666808,0
2096921,2096921,158839,666502,0
2096921,2096921,159155,666326,0
2096921,2096921,159232,666564,0
2096921,2096921,159058,666650,0
2096921,2096921,159183,666325,0
2096921,2096921,159070,666628,0
2096921,2096921,159046,666389,0
2096921,2096921,159005,666263,0
2096921,2096921,159111,666705,0
2096921,2096921,158923,666544,0
2096921,2096921,159079,666270,0
2096921,2096921,159235,666601,0
2096921,2096921,158993,666516,0
2096921,2096921,159255,666142,0
2096921,2096921,159290,666069,0
2096921,2096921,159065,666341,0
2096921,2096921,159131,666547,0
2096921,2096921,159091,666643,0
2096921,2096921,159282,666636,0
2096921,2096921,158914,666503,0
2096921,2096921,158941,666649,0
2096921,2096921,159048,667162,0
2096921,2096921,159115,666787,0
2096921,2096921,159130,666569,0
2096921,2096921,159338,666639,0
2096921,2096921,159440,666864,0
2096921,2096921,159245,666755,0
2096921,2096921,159266,666687,0
2096921,2096921,159322,666705,0
2096921,2096921,159451,666831,0
2096921,2096921,159691,667149,0
2096921,2096921,159617,667212,0
2096921,2096921,159402,667101,0
2096921,2096921,159536,667542,0
2096921,2096921,159677,667456,0
2096921,2096921,159699,667895,0
2096921,2096921,159697,668073,0
2096921,2096921,159881,668153,0
2096921,2096921,159688,667839,0
2096921,2096921,159841,667726,0
2096921,2096921,159895,667898,0
2096921,2096921,159809,668256,0
2096921,2096921,159835,668392,0
2096921,2096921,159853,668581,0
2096921,2096921,160053,668286,0
2096921,2096921,160110,668653,0
2096921,2096921,159973,668668,0
2096921,2096921,159945,668782,0
2096921,2096921,160388,669073,0
2096921,2096921,160299,668765,0
2096921,2096921,160148,668664,0
2096921,2096921,160055,669225,0
2096921,2096921,160001,669414,0
2096921,2096921,159837,669274,0
2096921,2096921,160119,669006,0
2096921,2096921,160237,669285,0
2096921,2096921,160178,669305,0
2096921,2096921,160379,669387,0
2096921,2096921,160480,669477,0
2096921,2096921,160436,669581,0
2096921,2096921,160566,669810,0
2096921,2096921,160398,669882,0
2096921,2096921,160392,669744,0
2096921,2096921,160210,669638,0
2096921,2096921,160712,669819,0
2096921,2096921,160688,670061,0
2096921,2096921,160869,670187,0
2096921,2096921,160612,670302,0
2096921,2096921,160649,670150,0
2096921,2096921,160528,670010,0
2096921,2096921,160870,670610,0
2096921,2096921,160714,670396,0
2096921,2096921,160938,670415,0
2096921,2096921,160818,670467,0
2096921,2096921,160878,670790,0
2096921,2096921,161272,670702,0
2096921,2096921,161182,671179,0
2096921,2096921,161175,670999,0
2096921,2096921,161196,671429,0
2096921,2096921,161115,671294,0
2096921,2096921,161138,671174,0
2096921,2096921,161252,671275,0
2096921,2096921,161064,671133,0
2096921,2096921,161147,671479,0
2096921,2096921,161262,671973,0
2096921,2096921,161526,671979,0
2096921,2096921,161187,671872,0
2096921,2096921,161118,671587,0
2096921,2096921,161400,671854,0
2096921,2096921,161338,672012,0
2096921,2096921,161259,672002,0
2096921,2096921,161552,672272,0
2096921,2096921,161358,672104,0
2096921,2096921,161455,671978,0
2096921,2096921,161384,672252,0
2096921,2096921,161672,672242,0
2096921,2096921,161435,672412,0
2096921,2096921,161772,672751,0
2096921,2096921,161572,672232,0
2096921,2096921,161641,672459,0
2096921,2096921,161673,672958,0
2096921,2096921,161396,672658,0
2096921,2096921,161878,672571,0
2096921,2096921,161808,672921,0
2096921,2096921,161724,672900,0
2096921,2096921,161992,673163,0
2096921,2096921,162282,673200,0
2096921,2096921,161942,673112,0
2096921,2096921,162125,673028,0
2096921,2096921,162136,673065,0
2096921,2096921,162111,673344,0
2096921,2096921,161840,673506,0
2096921,2096921,161890,673470,0
2096921,2096921,162122,673779,0
2096921,2096921,161950,673495,0
2096921,2096921,162082,674012,0
2096921,2096921,162358,674099,0
2096921,2096921,161971,673820,0
2096921,2096921,162291,673822,0
2096921,2096921,162401,673809,0
2096921,2096921,162243,673942,0
2096921,2096921,162279,673991,0
2096921,2096921,162385,673971,0
2096921,2096921,162140,674007,0
2096921,2096921,162435,673784,0
2096921,2096921,162352,674195,0
2096921,2096921,162185,674209,0
2096921,2096921,162172,674269,0
2096921,2096921,162400,674248,0
2096921,2096921,162308,674336,0
2096921,2096921,162354,674340,0
2096921,2096921,162543,674356,0
2096921,2096921,162346,674500,0
2096921,2096921,162115,674363,0
2096921,2096921,162417,674420,0
2096921,2096921,162956,674551,0
2096921,2096921,162751,674822,0
2096921,2096921,162760,674917,0
2096921,2096921,162855,675065,0
2096921,2096921,162363,674618,0
2096921,2096921,162529,674992,0
2096921,2096921,162859,675022,0
2096921,2096921,162546,674883,0
2096921,2096921,162802,674636,0
2096921,2096921,162681,674759,0
2096921,2096921,162905,674959,0
2096921,2096921,162768,675169,0
2096921,2096921,162818,675011,0
2096921,2096921,162823,675292,0
2096921,2096921,162817,675174,0
2096921,2096921,163039,675528,0
2096921,2096921,162751,675308,0
2096921,2096921,162759,675671,0
2096921,2096921,162998,675657,0
2096921,2096921,162766,675636,0
2096921,2096921,163142,675635,0
2096921,2096921,163261,675727,0
2096921,2096921,162842,675763,0
2096921,2096921,162722,675832,0
2096921,2096921,162883,675943,0
2096921,2096921,162892,675785,0
2096921,2096921,163188,675820,0
2096921,2096921,163300,675910,0
2096921,2096921,163015,675722,0
2096921,2096921,162717,675920,0
2096921,2096921,162873,676162,0
2096921,2096921,163051,675933,0
2096921,2096921,163135,675806,0
2096921,2096921,163187,675857,0
2096921,2096921,163295,676023,0
2096921,2096921,163254,676274,0
2096921,2096921,163132,676408,0
2096921,2096921,162836,676349,0
2096921,2096921,163044,676229,0
2096921,2096921,163339,676449,0
2096921,2096921,163125,676545,0
2096921,2096921,163181,676233,0
2096921,2096921,163451,676474,0
2096921,2096921,163256,676548,0
2096921,2096921,163035,676269,0
2096921,2096921,163029,676631,0
2096921,2096921,162886,676611,0
2096921,2096921,163232,676484,0
2096921,2096921,163084,676542,0
2096921,2096921,163293,676667,0
2096921,2096921,163527,676709,0
2096921,2096921,163413,676751,0
2096921,2096921,163417,676971,0
2096921,2096921,163620,676978,0
2096921,2096921,163459,676879,0
2096921,2096921,163554,676774,0
2096921,2096921,163421,676780,0
2096921,2096921,163569,676854,0
2096921,2096921,163215,677044,0
2096921,2096921,163294,676620,0
2096921,2096921,163314,676819,0
2096921,2096921,163483,676860,0
2096921,2096921,163581,676978,0
2096921,2096921,163646,676912,0
2096921,2096921,163306,676616,0
2096921,2096921,163402,676946,0
2096921,2096921,163414,677047,0
2096921,2096921,163452,677045,0
2096921,2096921,163551,677084,0
2096921,2096921,163786,677256,0
2096921,2096921,163471,677233,0
2096921,2096921,163332,677274,0
2096921,2096921,163448,677429,0
2096921,2096921,163345,677136,0
2096921,2096921,163748,676845,0
2096921,2096921,163782,677317,0
2096921,2096921,163496,677298,0
2096921,2096921,163410,677398,0
2096921,2096921,163761,677419,0
2096921,2096921,163529,677468,0
2096921,2096921,163885,677361,0
2096921,2096921,163546,677356,0
2096921,2096921,163682,677501,0
2096921,2096921,163733,677289,0
2096921,2096921,163852,677275,0
2096921,2096921,163604,677489,0
2096921,2096921,163519,677582,0
2096921,2096921,163767,677593,0
2096921,2096921,163705,677634,0
2096921,2096921,163670,677453,0
2096921,2096921,163656,677905,0
2096921,2096921,163734,677848,0
2096921,2096921,163875,677900,0
2096921,2096921,163834,677597,0
2096921,2096921,163617,677785,0
2096921,2096921,163579,677526,0
2096921,2096921,163668,677696,0
2096921,2096921,163619,677824,0
2096921,2096921,163865,677860,0
2096921,2096921,163894,677855,0
2096921,2096921,164040,677929,0
2096921,2096921,163878,678018,0
2096921,2096921,163831,678056,0
2096921,2096921,163849,677762,0
2096921,2096921,163732,677799,0
2096921,2096921,163818,677770,0
2096921,2096921,163542,677954,0
2096921,2096921,163622,677723,0
2096921,2096921,163811,678026,0
2096921,2096921,163862,678085,0
2096921,2096921,163853,678080,0
2096921,2096921,163851,678169,0
2096921,2096921,163944,677951,0
2096921,2096921,164125,678178,0
2096921,2096921,163953,678158,0
2096921,2096921,163548,678039,0
2096921,2096921,164073,677850,0
2096921,2096921,163825,678003,0
2096921,2096921,163678,677993,0
2096921,2096921,163920,677877,0
2096921,2096921,163753,678223,0
2096921,2096921,163605,678018,0
2096921,2096921,164074,678013,0
2096921,2096921,163938,678206,0
2096921,2096921,163945,677853,0
2096921,2096921,163992,677944,0
2096921,2096921,163907,677881,0
2096921,2096921,163705,677756,0
2096921,2096921,163684,677918,0
2096921,2096921,163875,677902,0
2096921,2096921,163755,677941,0
2096921,2096921,163707,678224,0
2096921,2096921,163657,678176,0
2096921,2096921,163653,678037,0
2096921,2096921,163744,678099,0
2096921,2096921,163532,678081,0
2096921,2096921,163775,677860,0
2096921,2096921,163985,677931,0
2096921,2096921,163663,678104,0
2096921,2096921,164133,677988,0
2096921,2096921,163903,678221,0
2096921,2096921,163744,678089,0
2096921,2096921,164017,678076,0
2096921,2096921,164137,678237,0
2096921,2096921,163741,678167,0
2096921,2096921,163725,678550,0
2096921,2096921,163837,678517,0
2096921,2096921,163609,677980,0
2096921,2096921,163899,678002,0
2096921,2096921,163983,678078,0
2096921,2096921,163846,677922,0
2096921,2096921,163897,677879,0
2096921,2096921,164034,678143,0
2096921,2096921,163812,678189,0
2096921,2096921,163894,677903,0
2096921,2096921,164092,677910,0
2096921,2096921,163902,677934,0
2096921,2096921,163551,677946,0
2096921,2096921,163845,678088,0
2096921,2096921,163777,677987,0
2096921,2096921,163597,677577,0
2096921,2096921,163682,677399,0
2096921,2096921,163785,677459,0
2096921,2096921,163320,677268,0
2096921,2096921,163371,677290,0
2096921,2096921,163275,677026,0
2096921,2096921,163265,676830,0
2096921,2096921,163072,676610,0
2096921,2096921,163113,676846,0
2096921,2096921,163212,676849,0
2096921,2096921,162984,676307,0
2096921,2096921,162878,676002,0
2096921,2096921,162780,675625,0
2096921,2096921,162983,675945,0
2096921,2096921,162795,675767,0
2096921,2096921,162499,675172,0
2096921,2096921,162415,674609,0
2096921,2096921,162321,674458,0
2096921,2096921,162269,674695,0
2096921,2096921,162299,674818,0
2096921,2096921,162032,673840,0
2096921,2096921,161828,673240,0
2096921,2096921,161655,673087,0
2096921,2096921,161662,672748,0
2096921,2096921,161618,673054,0
2096921,2096921,160780,671386,0
2096921,2096921,160551,670349,0
2096921,2096921,160588,670157,0
2096921,2096921,160650,670032,0
2096921,2096921,160614,670115,0
2096921,2096921,159295,667786,0
2096921,2096921,158907,666407,0
2096921,2096921,159137,666206,0
2096921,2096921,159037,666305,0
2096921,2096921,158974,665860,0
2096921,2096921,158347,664449,0
2096921,2096921,158002,663607,0
2096921,2096921,157881,663315,0
2096921,2096921,158112,663408,0
2096921,2096921,157922,663267,0
2096921,2096921,156834,662091,0
2096921,2096921,156908,660850,0
2096921,2096921,156839,661163,0
2096921,2096921,156652,661014,0
2096921,2096921,156980,660615,0
2096921,2096921,156672,660173,0
2096921,2096921,156220,659660,0
2096921,2096921,156191,659554,0
2096921,2096921,156320,659507,0
2096921,2096921,156273,659318,0
2096921,2096921,155825,659050,0
2096921,2096921,155941,658571,0
2096921,2096921,155974,658307,0
2096921,2096921,155702,658392,0
2096921,2096921,155856,658240,0
2096921,2096921,155549,657765,0
2096921,2096921,155687,657341,0
2096921,2096921,155433,657443,0
2096921,2096921,155648,657627,0
2096921,2096921,155379,657374,0
2096921,2096921,155545,657131,0
2096921,2096921,155363,657158,0
2096921,2096921,155352,657035,0
2096921,2096921,155459,657126,0
2096921,2096921,155380,656963,0
2096921,2096921,155405,656721,0
2096921,2096921,155308,656777,0
2096921,2096921,155238,656910,0
2096921,2096921,155189,656935,0
2096921,2096921,155446,656638,0
2096921,2096921,155197,656853,0
2096921,2096921,155160,657046,0
2096921,2096921,155307,656692,0
2096921,2096921,155203,656983,0
2096921,2096921,155018,656793,0
2096921,2096921,155145,656860,0
2096921,2096921,155056,657197,0
2096921,2096921,155295,657528,0
2096921,2096921,155149,657277,0
2096921,2096921,155548,657292,0
2096921,2096921,155173,657539,0
2096921,2096921,155695,657363,0
2096921,2096921,155719,657491,0
2096921,2096921,155307,657276,0
2096921,2096921,155183,657138,0
2096921,2096921,155590,657518,0
2096921,2096921,155903,657538,0
2096921,2096921,155477,657055,0
2096921,2096921,155278,657362,0
2096921,2096921,155736,657717,0
2096921,2096921,155695,657922,0
2096921,2096921,155806,658155,0
2096921,2096921,156065,658198,0
2096921,2096921,155973,658230,0
2096921,2096921,155780,658042,0
2096921,2096921,155834,658415,0
2096921,2096921,156246,658694,0
2096921,2096921,155703,658872,0
2096921,2096921,155989,658717,0
2096921,2096921,156108,658820,0
2096921,2096921,156075,659011,0
2096921,2096921,156341,659518,0
2096921,2096921,156130,659401,0
2096921,2096921,156232,659385,0
2096921,2096921,156321,659577,0
2096921,2096921,156329,660212,0
2096921,2096921,156606,659878,0
2096921,2096921,156577,659961,0
2096921,2096921,156708,660125,0
2096921,2096921,156608,660067,0
2096921,2096921,156747,660762,0
2096921,2096921,156847,660681,0
2096921,2096921,156608,660889,0
2096921,2096921,156757,660859,0
2096921,2096921,156890,661155,0
2096921,2096921,156959,661238,0
2096921,2096921,157128,661157,0
2096921,2096921,156920,661415,0
2096921,2096921,156999,661463,0
2096921,2096921,157141,661327,0
2096921,2096921,157209,661630,0
2096921,2096921,157305,661922,0
2096921,2096921,157373,662002,0
2096921,2096921,157618,661928,0
2096921,2096921,157338,662165,0
2096921,2096921,157603,662236,0
2096921,2096921,157753,662457,0
2096921,2096921,157543,662940,0
2096921,2096921,157432,662647,0
2096921,2096921,157471,662746,0
2096921,2096921,157812,663399,0
2096921,2096921,157794,663386,0
2096921,2096921,157921,663188,0
2096921,2096921,157648,663659,0
2096921,2096921,157727,663632,0
2096921,2096921,158245,663888,0
2096921,2096921,158178,664146,0
2096921,2096921,158315,664007,0
2096921,2096921,158213,664285,0
2096921,2096921,158243,664093,0
2096921,2096921,158080,664479,0
2096921,2096921,158382,665010,0
2096921,2096921,158656,664996,0
2096921,2096921,158562,665108,0
2096921,2096921,158452,664710,0
2096921,2096921,158708,665260,0
2096921,2096921,158692,665469,0
2096921,2096921,158529,665564,0
2096921,2096921,158684,665428,0
2096921,2096921,158794,665489,0
2096921,2096921,158758,665860,0
2096921,2096921,159188,666135,0
2096921,2096921,159083,666337,0
2096921,2096921,159037,666085,0
2096921,2096921,159051,665997,0
2096921,2096921,159110,666313,0
2096921,2096921,159288,665808,0
2096921,2096921,159315,666495,0
2096921,2096921,159069,666541,0
2096921,2096921,159261,666550,0
2096921,2096921,159487,666618,0
2096921,2096921,159183,667131,0
2096921,2096921,159242,666933,0
2096921,2096921,159172,666933,0
2096921,2096921,159176,666638,0
2096921,2096921,159373,667096,0
2096921,2096921,159657,667276,0
2096921,2096921,159422,667168,0
2096921,2096921,159451,667161,0
2096921,2096921,159326,667274,0
2096921,2096921,159529,667545,0
2096921,2096921,159566,667226,0
2096921,2096921,159480,667275,0
2096921,2096921,159680,667341,0
2096921,2096921,159770,667647,0
2096921,2096921,159710,667880,0
2096921,2096921,159571,667450,0
2096921,2096921,159463,667243,0
2096921,2096921,159780,667374,0
2096921,2096921,159690,667494,0
2096921,2096921,159638,667201,0
2096921,2096921,159604,667056,0
2096921,2096921,159461,667458,0
2096921,2096921,159375,667366,0
2096921,2096921,159462,667390,0
2096921,2096921,159742,667475,0
2096921,2096921,159308,667258,0
2096921,2096921,159692,667012,0
2096921,2096921,159275,666930,0
2096921,2096921,159498,667045,0
2096921,2096921,159582,667143,0
2096921,2096921,159600,667255,0
2096921,2096921,159334,667141,0
2096921,2096921,159543,666971,0
2096921,2096921,159342,667120,0
2096921,2096921,159163,667017,0
2096921,2096921,159355,666673,0
2096921,2096921,159452,666482,0
2096921,2096921,159006,666772,0
2096921,2096921,159189,666807,0
2096921,2096921,159353,666981,0
2096921,2096921,159324,666725,0
2096921,2096921,159152,666624,0
2096921,2096921,159329,666333,0
2096921,2096921,158977,666574,0
2096921,2096921,158994,666214,0
2096921,2096921,159116,666449,0
2096921,2096921,158645,666245,0
2096921,2096921,159043,665963,0
2096921,2096921,158992,666290,0
2096921,2096921,158896,666503,0
2096921,2096921,159227,666550,0
2096921,2096921,159132,666525,0
2096921,2096921,159042,666557,0
2096921,2096921,159036,666229,0
2096921,2096921,159138,666381,0
2096921,2096921,159105,666487,0
2096921,2096921,159132,666455,0
2096921,2096921,159120,666415,0
2096921,2096921,159231,666655,0
2096921,2096921,159057,666491,0
2096921,2096921,159096,666379,0
2096921,2096921,159133,666205,0
2096921,2096921,158963,666327,0
2096921,2096921,159052,666273,0
2096921,2096921,159229,667019,0
2096921,2096921,159009,666655,0
2096921,2096921,159211,666633,0
2096921,2096921,159230,666726,0
2096921,2096921,159376,666812,0
2096921,2096921,159614,666841,0
2096921,2096921,159531,666894,0
2096921,2096921,159389,666694,0
2096921,2096921,159370,666859,0
2096921,2096921,159249,667174,0
2096921,2096921,159367,667397,0
2096921,2096921,159720,667344,0
2096921,2096921,159384,667300,0
2096921,2096921,159306,667306,0
2096921,2096921,159364,667219,0
2096921,2096921,159633,667650,0
2096921,2096921,159593,667970,0
2096921,2096921,159472,667827,0
2096921,2096921,159580,667901,0
2096921,2096921,159958,668007,0
2096921,2096921,159803,667848,0
2096921,2096921,159904,668417,0
2096921,2096921,159798,668265,0
2096921,2096921,159787,668387,0
2096921,2096921,159972,668168,0
2096921,2096921,159825,668494,0
2096921,2096921,159979,668635,0
2096921,2096921,160256,668838,0
2096921,2096921,160053,668721,0
2096921,2096921,159931,668645,0
2096921,2096921,160299,668653,0
2096921,2096921,160031,668998,0
2096921,2096921,160261,669032,0
2096921,2096921,160269,669027,0
2096921,2096921,160129,669147,0
2096921,2096921,160216,669289,0
2096921,2096921,160340,669498,0
2096921,2096921,160333,669658,0
2096921,2096921,160406,669666,0
2096921,2096921,160362,669639,0
2096921,2096921,160483,669657,0
2096921,2096921,160577,669768,0
2096921,2096921,160814,669679,0
2096921,2096921,160561,670049,0
2096921,2096921,160498,669846,0
2096921,2096921,160956,669861,0
2096921,2096921,160689,670210,0
2096921,2096921,160680,670389,0
2096921,2096921,160537,670197,0
2096921,2096921,160562,670371,0
2096921,2096921,160665,670488,0
2096921,2096921,160819,670737,0
2096921,2096921,160883,670635,0
2096921,2096921,160975,670752,0
2096921,2096921,161070,670636,0
2096921,2096921,161001,670941,0
2096921,2096921,161033,671130,0
2096921,2096921,161066,671039,0
2096921,2096921,160972,671141,0
2096921,2096921,160929,671038,0
2096921,2096921,161465,671563,0
2096921,2096921,161168,671523,0
2096921,2096921,161186,671550,0
2096921,2096921,161028,671577,0
2096921,2096921,161277,671741,0
2096921,2096921,161260,671791,0
2096921,2096921,161326,671722,0
2096921,2096921,161428,672000,0
2096921,2096921,161292,671808,0
2096921,2096921,161286,671780,0
2096921,2096921,161458,672358,0
2096921,2096921,161579,672206,0
2096921,2096921,161426,672045,0
2096921,2096921,161414,671986,0
2096921,2096921,161190,672134,0
2096921,2096921,161509,672471,0
2096921,2096921,161566,672475,0
2096921,2096921,161466,672370,0
2096921,2096921,161494,672515,0
2096921,2096921,161361,672447,0
2096921,2096921,161468,672146,0
2096921,2096921,161761,672592,0
2096921,2096921,161963,673086,0
2096921,2096921,161820,672895,0
2096921,2096921,161923,672996,0
2096921,2096921,161833,673255,0
2096921,2096921,161861,673023,0
2096921,2096921,162115,673077,0
2096921,2096921,161996,673222,0
2096921,2096921,161806,673020,0
2096921,2096921,162095,673534,0
2096921,2096921,161876,673420,0
2096921,2096921,162184,673256,0
2096921,2096921,162025,673434,0
2096921,2096921,162219,673520,0
2096921,2096921,162720,673727,0
2096921,2096921,162447,673698,0
2096921,2096921,162362,674130,0
2096921,2096921,162108,674025,0
2096921,2096921,161904,673540,0
2096921,2096921,162198,673942,0
2096921,2096921,162387,674072,0
2096921,2096921,162476,673998,0
2096921,2096921,162296,674233,0
2096921,2096921,162476,674281,0
2096921,2096921,162439,674243,0
2096921,2096921,162350,674661,0
2096921,2096921,162183,674269,0
2096921,2096921,162231,674541,0
2096921,2096921,162228,674354,0
2096921,2096921,162402,674500,0
2096921,2096921,162283,674550,0
2096921,2096921,162145,674656,0
2096921,2096921,162329,674698,0
2096921,2096921,162281,674566,0
2096921,2096921,162780,674614,0
2096921,2096921,162718,674900,0
2096921,2096921,162508,674838,0
2096921,2096921,162562,675002,0
2096921,2096921,162624,674967,0
2096921,2096921,162552,674888,0
2096921,2096921,163090,675159,0
2096921,2096921,162745,675151,0
2096921,2096921,162603,675007,0
2096921,2096921,162773,675442,0
2096921,2096921,162835,675305,0
2096921,2096921,162761,675299,0
2096921,2096921,162782,675354,0
2096921,2096921,162664,675420,0
2096921,2096921,162497,675280,0
2096921,2096921,162640,675811,0
2096921,2096921,162697,675672,0
2096921,2096921,162803,675374,0
2096921,2096921,162822,675270,0
2096921,2096921,162832,675411,0
2096921,2096921,163009,675517,0
2096921,2096921,162995,675761,0
2096921,2096921,163151,675973,0
2096921,2096921,162947,675942,0
2096921,2096921,162865,675925,0
2096921,2096921,162729,675812,0
2096921,2096921,162986,675874,0
2096921,2096921,162872,675774,0
2096921,2096921,163121,675739,0
2096921,2096921,163268,675935,0
2096921,2096921,163152,676208,0
2096921,2096921,163142,676193,0
2096921,2096921,163336,675952,0
2096921,2096921,163179,676010,0
2096921,2096921,163177,676303,0
2096921,2096921,162982,676281,0
2096921,2096921,162733,676328,0
2096921,2096921,163175,676276,0
2096921,2096921,163197,676173,0
2096921,2096921,163113,676433,0
2096921,2096921,163124,676426,0
2096921,2096921,163386,676184,0
2096921,2096921,163443,676546,0
2096921,2096921,163519,676403,0
2096921,2096921,163156,676262,0
2096921,2096921,163242,676598,0
2096921,2096921,163026,676529,0
2096921,2096921,163311,676738,0
2096921,2096921,163384,676623,0
2096921,2096921,163554,676409,0
2096921,2096921,163359,676546,0
2096921,2096921,163194,676456,0
2096921,2096921,163619,676913,0
2096921,2096921,163327,676723,0
2096921,2096921,163291,676863,0
2096921,2096921,163524,676774,0
2096921,2096921,163516,676760,0
2096921,2096921,163401,676836,0
2096921,2096921,163513,677027,0
2096921,2096921,163721,676979,0
2096921,2096921,163387,676656,0
2096921,2096921,163644,676789,0
2096921,2096921,163741,676923,0
2096921,2096921,163451,676685,0
2096921,2096921,163751,676898,0
2096921,2096921,163633,676884,0
2096921,2096921,163640,676973,0
2096921,2096921,163557,677322,0
2096921,2096921,163327,676912,0
2096921,2096921,163310,677142,0
2096921,2096921,163807,677450,0
2096921,2096921,163672,677334,0
2096921,2096921,164001,677146,0
2096921,2096921,163736,677237,0
2096921,2096921,163565,677314,0
2096921,2096921,163710,677187,0
2096921,2096921,163720,677290,0
2096921,2096921,163576,677215,0
2096921,2096921,163621,677318,0
2096921,2096921,163709,677520,0
2096921,2096921,163586,677489,0
2096921,2096921,163672,677278,0
2096921,2096921,163869,677489,0
2096921,2096921,163584,677422,0
2096921,2096921,163584,676991,0
2096921,2096921,163888,677561,0
2096921,2096921,163668,677573,0
2096921,2096921,163615,677719,0
2096921,2096921,163889,677736,0
2096921,2096921,163929,677639,0
2096921,2096921,163954,677732,0
2096921,2096921,163661,677745,0
2096921,2096921,163876,677386,0
2096921,2096921,163538,677707,0
2096921,2096921,163626,677539,0
2096921,2096921,163777,677576,0
2096921,2096921,163732,677678,0
2096921,2096921,163681,678060,0
2096921,2096921,163807,677948,0
2096921,2096921,163682,677825,0
2096921,2096921,163864,678000,0
2096921,2096921,163838,678047,0
2096921,2096921,163868,677885,0
2096921,2096921,164059,677821,0
2096921,2096921,163716,677805,0
2096921,2096921,163843,677849,0
2096921,2096921,163701,678001,0
2096921,2096921,163688,677856,0
2096921,2096921,163765,678194,0
2096921,2096921,164104,678191,0
2096921,2096921,163851,677947,0
2096921,2096921,163961,677889,0
2096921,2096921,163627,678325,0
2096921,2096921,163903,677899,0
2096921,2096921,163899,677693,0
2096921,2096921,163832,677981,0
2096921,2096921,163797,677984,0
2096921,2096921,163979,677561,0
2096921,2096921,163830,678015,0
2096921,2096921,163810,678206,0
2096921,2096921,163681,678133,0
2096921,2096921,163838,677895,0
2096921,2096921,163930,678021,0
2096921,2096921,163615,678296,0
2096921,2096921,163649,678035,0
2096921,2096921,163842,677657,0
2096921,2096921,164000,677880,0
2096921,2096921,163517,677814,0
2096921,2096921,163835,677942,0
2096921,2096921,164060,678066,0
2096921,2096921,164245,678198,0
2096921,2096921,164005,678090,0
2096921,2096921,164021,678237,0
2096921,2096921,164059,678153,0
2096921,2096921,164044,678056,0
2096921,2096921,163705,678295,0
2096921,2096921,163903,677993,0
2096921,2096921,163866,678361,0
2096921,2096921,163691,677983,0
2096921,2096921,163790,677859,0
2096921,2096921,163871,677988,0
2096921,2096921,163667,678158,0
2096921,2096921,163981,677961,0
2096921,2096921,163925,678084,0
2096921,2096921,164224,678205,0
2096921,2096921,163878,678327,0
2096921,2096921,164169,678019,0
2096921,2096921,164080,678057,0
2096921,2096921,163702,678060,0
2096921,2096921,163967,678008,0
2096921,2096921,164081,678078,0
2096921,2096921,163610,678160,0
2096921,2096921,164367,678112,0
2096921,2096921,163745,678049,0
2096921,2096921,163802,677919,0
2096921,2096921,163808,677731,0
2096921,2096921,163720,677572,0
2096921,2096921,163500,677833,0
2096921,2096921,163874,677952,0
2096921,2096921,163793,677959,0
2096921,2096921,163698,677568,0
2096921,2096921,163875,677373,0
2096921,2096921,163731,677444,0
2096921,2096921,163712,677247,0
2096921,2096921,163779,677378,0
2096921,2096921,163668,677154,0
2096921,2096921,163376,676973,0
2096921,2096921,163494,676795,0
2096921,2096921,163413,676904,0
2096921,2096921,163257,676860,0
2096921,2096921,163117,676228,0
2096921,2096921,162891,675921,0
2096921,2096921,162998,675868,0
2096921,2096921,162904,675542,0
2096921,2096921,163040,675592,0
2096921,2096921,162538,675021,0
2096921,2096921,162550,674647,0
2096921,2096921,162867,674412,0
2096921,2096921,162452,673907,0
2096921,2096921,162590,674503,0
2096921,2096921,162281,673979,0
2096921,2096921,162080,673401,0
2096921,2096921,162012,673117,0
2096921,2096921,162214,673257,0
2096921,2096921,161867,673045,0
2096921,2096921,160923,671171,0
2096921,2096921,160677,670314,0
2096921,2096921,160637,670074,0
2096921,2096921,160447,669836,0
2096921,2096921,160611,669944,0
2096921,2096921,159350,667624,0
2096921,2096921,158910,666479,0
2096921,2096921,159112,666133,0
2096921,2096921,159057,666245,0
2096921,2096921,158958,666036,0
2096921,2096921,157952,664244,0
2096921,2096921,158127,663418,0
2096921,2096921,157738,663369,0
2096921,2096921,157927,663411,0
2096921,2096921,157883,663401,0
2096921,2096921,157062,662079,0
2096921,2096921,156972,661359,0
2096921,2096921,156910,661259,0
2096921,2096921,156940,661279,0
2096921,2096921,156947,661049,0
2096921,2096921,156703,660333,0
2096921,2096921,156321,659555,0
2096921,2096921,156176,659453,0
2096921,2096921,156166,659695,0
2096921,2096921,155973,659426,0
2096921,2096921,156008,658561,0
2096921,2096921,156114,658512,0
2096921,2096921,155911,658147,0
2096921,2096921,155674,658053,0
2096921,2096921,156050,658023,0
2096921,2096921,155702,657869,0
2096921,2096921,155321,657733,0
2096921,2096921,155464,657436,0
2096921,2096921,155410,657530,0
2096921,2096921,155471,657479,0
2096921,2096921,155483,657233,0
2096921,2096921,155362,656967,0
2096921,2096921,155320,656955,0
2096921,2096921,155212,656830,0
2096921,2096921,155385,656963,0
2096921,2096921,155142,656746,0
2096921,2096921,155269,656795,0
2096921,2096921,155362,656897,0
2096921,2096921,155013,657281,0
2096921,2096921,154964,656991,0
2096921,2096921,155129,656911,0
2096921,2096921,155296,657074,0
2096921,2096921,155128,656866,0
2096921,2096921,155484,656723,0
2096921,2096921,155400,656807,0
2096921,2096921,155237,656624,0
2096921,2096921,155339,657046,0
2096921,2096921,155277,657084,0
2096921,2096921,155400,656924,0
2096921,2096921,155499,657032,0
2096921,2096921,155444,657308,0
2096921,2096921,155494,657435,0
2096921,2096921,155386,657464,0
2096921,2096921,155501,657657,0
2096921,2096921,155350,657223,0
2096921,2096921,155570,657119,0
2096921,2096921,155285,657522,0
2096921,2096921,155525,657402,0
2096921,2096921,155494,657735,0
2096921,2096921,155836,657518,0
2096921,2096921,155780,657863,0
2096921,2096921,155720,657885,0
2096921,2096921,155817,658241,0
2096921,2096921,155791,658296,0
2096921,2096921,155533,658047,0
2096921,2096921,155738,658354,0
2096921,2096921,156016,658743,0
2096921,2096921,155810,658820,0
2096921,2096921,155697,658632,0
2096921,2096921,156007,658924,0
2096921,2096921,156225,659173,0
2096921,2096921,156057,659353,0
2096921,2096921,155921,659559,0
2096921,2096921,156127,659677,0
2096921,2096921,156244,659653,0
2096921,2096921,156339,660203,0
2096921,2096921,156383,659773,0
2096921,2096921,156365,660022,0
2096921,2096921,156511,660161,0
2096921,2096921,156507,660313,0
2096921,2096921,156853,660725,0
2096921,2096921,156923,660819,0
2096921,2096921,156947,660440,0
2096921,2096921,156940,660810,0
2096921,2096921,157004,660957,0
2096921,2096921,156799,661347,0
2096921,2096921,156775,661289,0
2096921,2096921,156949,661339,0
2096921,2096921,157200,661384,0
2096921,2096921,157026,661345,0
2096921,2096921,157166,661673,0
2096921,2096921,157102,662063,0
2096921,2096921,157343,662021,0
2096921,2096921,157211,661784,0
2096921,2096921,157211,661909,0
2096921,2096921,157595,662384,0
2096921,2096921,157779,662691,0
2096921,2096921,157523,662759,0
2096921,2096921,157730,662516,0
2096921,2096921,157681,662663,0
2096921,2096921,157993,663155,0
2096921,2096921,158041,662965,0
2096921,2096921,157970,663490,0
2096921,2096921,157918,663490,0
2096921,2096921,157848,663290,0
2096921,2096921,158074,663777,0
2096921,2096921,158026,664236,0
2096921,2096921,158121,664209,0
2096921,2096921,158171,664184,0
2096921,2096921,158240,663949,0
2096921,2096921,158376,664441,0
2096921,2096921,158506,664897,0
2096921,2096921,158415,664829,0
2096921,2096921,158354,664800,0
2096921,2096921,158672,664883,0
2096921,2096921,158635,665275,0
2096921,2096921,158718,665483,0
2096921,2096921,158926,665323,0
2096921,2096921,158682,665310,0
2096921,2096921,158768,665185,0
2096921,2096921,158931,665643,0
2096921,2096921,159033,666025,0
2096921,2096921,158705,665711,0
2096921,2096921,159119,666057,0
2096921,2096921,159162,665994,0
2096921,2096921,159405,666348,0
2096921,2096921,159122,666617,0
2096921,2096921,159293,666865,0
2096921,2096921,159163,666794,0
2096921,2096921,159173,666708,0
2096921,2096921,159098,666754,0
2096921,2096921,158927,667060,0
2096921,2096921,159252,666887,0
2096921,2096921,159394,666944,0
2096921,2096921,159297,667043,0
2096921,2096921,159559,667247,0
2096921,2096921,159188,666895,0
2096921,2096921,159338,667133,0
2096921,2096921,159555,666983,0
2096921,2096921,159422,667180,0
2096921,2096921,159624,667182,0
2096921,2096921,159524,667401,0
2096921,2096921,159746,667423,0
2096921,2096921,159592,667250,0
2096921,2096921,159604,667143,0
2096921,2096921,159759,667312,0
2096921,2096921,159514,667350,0
2096921,2096921,159374,667403,0
2096921,2096921,159754,667254,0
2096921,2096921,159689,667317,0
2096921,2096921,159692,667374,0
2096921,2096921,159581,667790,0
2096921,2096921,159196,667332,0
2096921,2096921,159288,667435,0
2096921,2096921,159488,667528,0
2096921,2096921,159592,667201,0
2096921,2096921,159512,667235,0
2096921,2096921,159275,667289,0
2096921,2096921,159282,667476,0
2096921,2096921,159565,667212,0
2096921,2096921,159617,667222,0
2096921,2096921,159337,666954,0
2096921,2096921,159561,667064,0
2096921,2096921,159368,667067,0
2096921,2096921,159329,667138,0
2096921,2096921,158993,666850,0
2096921,2096921,159254,666533,0
2096921,2096921,159369,666644,0
2096921,2096921,159312,666754,0
2096921,2096921,159409,667016,0
2096921,2096921,159425,666922,0
2096921,2096921,159166,666599,0
2096921,2096921,159342,666496,0
2096921,2096921,159047,666451,0
2096921,2096921,158913,666441,0
2096921,2096921,159087,666420,0
2096921,2096921,159116,666378,0
2096921,2096921,159148,666181,0
2096921,2096921,159251,666308,0
2096921,2096921,159115,666433,0
2096921,2096921,159281,666504,0
2096921,2096921,159179,666552,0
2096921,2096921,159031,666684,0
2096921,2096921,159105,666428,0
2096921,2096921,158773,666353,0
2096921,2096921,159148,666324,0
2096921,2096921,159127,666312,0
2096921,2096921,159361,666523,0
2096921,2096921,159427,666560,0
2096921,2096921,159219,666403,0
2096921,2096921,159092,666367,0
2096921,2096921,159131,666169,0
2096921,2096921,158696,666487,0
2096921,2096921,159163,666679,0
2096921,2096921,158988,666559,0
2096921,2096921,158752,666322,0
2096921,2096921,159121,666381,0
2096921,2096921,159161,666691,0
2096921,2096921,159245,666586,0
2096921,2096921,159064,666565,0
2096921,2096921,159515,666927,0
2096921,2096921,159238,667032,0
2096921,2096921,159741,667001,0
2096921,2096921,159312,666959,0
2096921,2096921,159287,666487,0
2096921,2096921,159725,667005,0
2096921,2096921,159986,667230,0
2096921,2096921,159271,667215,0
2096921,2096921,159401,667235,0
2096921,2096921,159536,667153,0
2096921,2096921,159625,667427,0
2096921,2096921,159850,667866,0
2096921,2096921,159930,667779,0
2096921,2096921,159688,667686,0
2096921,2096921,159682,667751,0
2096921,2096921,159662,668148,0
2096921,2096921,159613,668112,0
2096921,2096921,159837,668484,0
2096921,2096921,159734,668356,0
2096921,2096921,159860,668078,0
2096921,2096921,160085,668489,0
2096921,2096921,160109,669035,0
2096921,2096921,160404,668793,0
2096921,2096921,160066,668859,0
2096921,2096921,160220,668913,0
2096921,2096921,160277,668928,0
2096921,2096921,160350,669089,0
2096921,2096921,160300,669058,0
2096921,2096921,160324,669055,0
2096921,2096921,160174,669099,0
2096921,2096921,160588,669431,0
2096921,2096921,160339,669534,0
2096921,2096921,160424,669367,0
2096921,2096921,160359,669688,0
2096921,2096921,160492,669580,0
2096921,2096921,160671,669418,0
2096921,2096921,160566,670146,0
2096921,2096921,160643,670053,0
2096921,2096921,160609,669854,0
2096921,2096921,160358,669795,0
2096921,2096921,160578,670146,0
2096921,2096921,160680,670182,0
2096921,2096921,160619,670174,0
2096921,2096921,160805,670306,0
2096921,2096921,160677,670144,0
2096921,2096921,160651,670564,0
2096921,2096921,160703,670625,0
2096921,2096921,160969,670730,0
2096921,2096921,160866,670689,0
2096921,2096921,160690,670739,0
2096921,2096921,160809,671405,0
2096921,2096921,161251,671105,0
2096921,2096921,160815,671334,0
2096921,2096921,161350,671291,0
2096921,2096921,161373,671238,0
2096921,2096921,161431,671338,0
2096921,2096921,161266,671221,0
2096921,2096921,161382,671646,0
2096921,2096921,161054,671316,0
2096921,2096921,161317,671451,0
2096921,2096921,161325,671892,0
2096921,2096921,161212,671669,0
2096921,2096921,161227,671757,0
2096921,2096921,161451,672032,0
2096921,2096921,161201,671888,0
2096921,2096921,161612,672354,0
2096921,2096921,161470,672375,0
2096921,2096921,161477,671879,0
2096921,2096921,161449,672157,0
2096921,2096921,161383,672402,0
2096921,2096921,161636,672388,0
2096921,2096921,161703,672344,0
2096921,2096921,161828,672235,0
2096921,2096921,161669,672206,0
2096921,2096921,161382,672325,0
2096921,2096921,161677,673073,0
2096921,2096921,161795,672969,0
2096921,2096921,161792,672605,0
2096921,2096921,162045,672982,0
2096921,2096921,161850,673151,0
2096921,2096921,161983,672960,0
2096921,2096921,162133,673067,0
2096921,2096921,161912,673329,0
2096921,2096921,161781,673420,0
2096921,2096921,161854,673435,0
2096921,2096921,161876,673413,0
2096921,2096921,161967,673372,0
2096921,2096921,162022,673516,0
2096921,2096921,162413,673407,0
2096921,2096921,162074,673264,0
2096921,2096921,162363,673758,0
2096921,2096921,162403,673632,0
2096921,2096921,162237,673942,0
2096921,2096921,162078,673709,0
2096921,2096921,162093,673663,0
2096921,2096921,162154,674020,0
2096921,2096921,162327,673926,0
2096921,2096921,162404,674114,0
2096921,2096921,162321,674131,0
2096921,2096921,162043,674011,0
2096921,2096921,162402,674266,0
2096921,2096921,162481,674461,0
2096921,2096921,162315,674217,0
2096921,2096921,162641,674312,0
2096921,2096921,162419,674475,0
2096921,2096921,162438,674583,0
2096921,2096921,162711,674439,0
2096921,2096921,162565,674925,0
2096921,2096921,162456,674839,0
2096921,2096921,162641,674516,0
2096921,2096921,162728,674986,0
2096921,2096921,162644,675176,0
2096921,2096921,162512,674891,0
2096921,2096921,162512,674799,0
2096921,2096921,162179,674968,0
2096921,2096921,162614,675065,0
2096921,2096921,162643,674954,0
2096921,2096921,162864,674911,0
2096921,2096921,162737,675188,0
2096921,2096921,162743,675295,0
2096921,2096921,162797,675438,0
2096921,2096921,163197,675460,0
2096921,2096921,163044,675472,0
2096921,2096921,163071,675573,0
2096921,2096921,162864,675430,0
2096921,2096921,162903,675355,0
2096921,2096921,162607,675727,0
2096921,2096921,162827,675747,0
2096921,2096921,162666,675509,0
2096921,2096921,162868,675592,0
2096921,2096921,163009,675765,0
2096921,2096921,163122,675823,0
2096921,2096921,162839,675660,0
2096921,2096921,163049,675979,0
2096921,2096921,163122,675701,0
2096921,2096921,163234,675771,0
2096921,2096921,162631,675734,0
2096921,2096921,162850,676068,0
2096921,2096921,162933,675989,0
2096921,2096921,163085,675963,0
2096921,2096921,163180,676047,0
2096921,2096921,163433,676382,0
2096921,2096921,163012,676090,0
2096921,2096921,162976,676223,0
2096921,2096921,163181,675963,0
2096921,2096921,162975,676095,0
2096921,2096921,162993,676139,0
2096921,2096921,162903,676154,0
2096921,2096921,163034,676046,0
2096921,2096921,163004,676110,0
2096921,2096921,163534,676587,0
2096921,2096921,163250,676577,0
2096921,2096921,163421,676252,0
2096921,2096921,163465,676434,0
2096921,2096921,163144,676461,0
2096921,2096921,163350,676376,0
2096921,2096921,163515,676420,0
2096921,2096921,163109,676502,0
2096921,2096921,163301,676281,0
2096921,2096921,163397,676778,0
2096921,2096921,163469,676758,0
2096921,2096921,163272,676613,0
2096921,2096921,163656,676480,0
2096921,2096921,163414,676564,0
2096921,2096921,163271,676400,0
2096921,2096921,163545,677005,0
2096921,2096921,163534,676858,0
2096921,2096921,163570,676762,0
2096921,2096921,163815,676930,0
2096921,2096921,163349,676686,0
2096921,2096921,163354,677094,0
2096921,2096921,163259,677114,0
2096921,2096921,163401,677068,0
2096921,2096921,163466,676679,0
2096921,2096921,163352,677000,0
2096921,2096921,163221,677156,0
2096921,2096921,163492,677231,0
2096921,2096921,163477,677249,0
2096921,2096921,163199,677365,0
2096921,2096921,163230,677017,0
2096921,2096921,163324,677181,0
2096921,2096921,163370,677140,0
2096921,2096921,163490,677110,0
2096921,2096921,163319,677357,0
2096921,2096921,163656,677200,0
2096921,2096921,163767,677046,0
2096921,2096921,163555,677214,0
2096921,2096921,163995,677306,0
2096921,2096921,163498,677150,0
2096921,2096921,163891,677371,0
2096921,2096921,163776,677566,0
2096921,2096921,163579,677236,0
2096921,2096921,163360,677232,0
2096921,2096921,163794,677520,0
2096921,2096921,163497,677399,0
2096921,2096921,163957,677598,0
2096921,2096921,163953,677351,0
2096921,2096921,163822,677486,0
2096921,2096921,163620,677690,0
2096921,2096921,163378,677818,0
2096921,2096921,163681,677744,0
2096921,2096921,163992,677649,0
2096921,2096921,163888,677956,0
2096921,2096921,163688,677532,0
2096921,2096921,163922,677714,0
2096921,2096921,163711,678064,0
2096921,2096921,163621,677869,0
2096921,2096921,163920,678059,0
2096921,2096921,163796,678159,0
2096921,2096921,163752,677673,0
2096921,2096921,163497,678127,0
2096921,2096921,163733,678242,0
2096921,2096921,163736,677696,0
2096921,2096921,163835,677849,0
2096921,2096921,163725,677730,0
2096921,2096921,163691,678167,0
2096921,2096921,163942,678067,0
2096921,2096921,163865,677885,0
2096921,2096921,163674,677763,0
2096921,2096921,164051,677714,0
2096921,2096921,163887,677846,0
2096921,2096921,163734,677790,0
2096921,2096921,163869,677992,0
2096921,2096921,163791,678018,0
2096921,2096921,163883,677873,0
2096921,2096921,163801,678004,0
2096921,2096921,163805,678012,0
2096921,2096921,164029,677748,0
2096921,2096921,164245,677833,0
2096921,2096921,164017,678203,0
2096921,2096921,163957,677997,0
2096921,2096921,163996,677745,0
2096921,2096921,163904,677792,0
2096921,2096921,163745,677988,0
2096921,2096921,163725,678003,0
2096921,2096921,163726,677830,0
2096921,2096921,163888,677801,0
2096921,2096921,163870,678081,0
2096921,2096921,164075,678147,0
2096921,2096921,164216,677852,0
2096921,2096921,163734,678295,0
2096921,2096921,163819,678069,0
2096921,2096921,164008,678097,0
2096921,2096921,163974,677939,0
2096921,2096921,163906,678081,0
2096921,2096921,163922,677812,0
2096921,2096921,163872,677906,0
2096921,2096921,163927,677811,0
2096921,2096921,163776,678364,0
2096921,2096921,163518,678175,0
2096921,2096921,163905,677973,0
2096921,2096921,164010,678012,0
2096921,2096921,163898,677983,0
2096921,2096921,163582,678072,0
2096921,2096921,163754,678206,0
2096921,2096921,163637,677775,0
2096921,2096921,163721,677925,0
2096921,2096921,164228,678139,0
2096921,2096921,163806,678117,0
2096921,2096921,164032,678033,0
2096921,2096921,163820,678168,0
2096921,2096921,163885,678164,0
2096921,2096921,163687,678081,0
2096921,2096921,164010,678029,0
2096921,2096921,163784,678085,0
2096921,2096921,163954,678116,0
2096921,2096921,163893,678127,0
2096921,2096921,163797,678141,0
2096921,2096921,163870,677914,0
2096921,2096921,163880,677871,0
2096921,2096921,163689,677377,0
2096921,2096921,163456,677464,0
2096921,2096921,163667,677551,0
2096921,2096921,163309,677597,0
2096921,2096921,163437,677355,0
2096921,2096921,163454,677265,0
2096921,2096921,163334,676943,0
2096921,2096921,163064,676927,0
2096921,2096921,163350,676485,0
2096921,2096921,163559,677083,0
2096921,2096921,162755,676192,0
2096921,2096921,163161,676033,0
2096921,2096921,163002,675987,0
2096921,2096921,162780,676179,0
2096921,2096921,162944,675818,0
2096921,2096921,162465,675020,0
2096921,2096921,162260,674526,0
2096921,2096921,162238,674449,0
2096921,2096921,162492,674766,0
2096921,2096921,162273,674471,0
2096921,2096921,162064,673600,0
2096921,2096921,161950,673169,0
2096921,2096921,162052,673189,0
2096921,2096921,161828,673317,0
2096921,2096921,162182,673072,0
2096921,2096921,160610,671277,0
2096921,2096921,160532,670091,0
2096921,2096921,160511,670033,0
2096921,2096921,160806,670136,0
2096921,2096921,160474,670002,0
2096921,2096921,159319,667707,0
2096921,2096921,158807,666692,0
2096921,2096921,158978,666061,0
2096921,2096921,158771,666131,0
2096921,2096921,159073,666088,0
2096921,2096921,157893,664413,0
2096921,2096921,158024,663523,0
2096921,2096921,157995,663293,0
2096921,2096921,157914,663159,0
2096921,2096921,157923,663111,0
2096921,2096921,157317,662176,0
2096921,2096921,156872,661125,0
2096921,2096921,157095,661276,0
2096921,2096921,156846,661215,0
2096921,2096921,157081,661098,0
2096921,2096921,156721,660073,0
2096921,2096921,156353,659630,0
2096921,2096921,156305,659273,0
2096921,2096921,156281,659182,0
2096921,2096921,156276,659559,0
2096921,2096921,155843,658523,0
2096921,2096921,155970,658055,0
2096921,2096921,156040,658402,0
2096921,2096921,155867,658377,0
2096921,2096921,155600,658258,0
2096921,2096921,155587,658235,0
2096921,2096921,155512,657445,0
2096921,2096921,155502,657609,0
2096921,2096921,155698,657408,0
2096921,2096921,155558,657635,0
2096921,2096921,155410,657078,0
2096921,2096921,155368,657181,0
2096921,2096921,155382,657102,0
2096921,2096921,155469,656870,0
2096921,2096921,155192,656764,0
2096921,2096921,155276,656470,0
2096921,2096921,155016,656650,0
2096921,2096921,155360,656738,0
2096921,2096921,155390,656813,0
2096921,2096921,155368,656862,0
2096921,2096921,155509,656863,0
2096921,2096921,155407,657036,0
2096921,2096921,155280,656670,0
2096921,2096921,155121,656730,0
2096921,2096921,154976,656701,0
2096921,2096921,155309,657277,0
2096921,2096921,155242,657023,0
2096921,2096921,155392,657433,0
2096921,2096921,155555,657150,0
2096921,2096921,155545,657005,0
2096921,2096921,155596,657395,0
2096921,2096921,155326,657620,0
2096921,2096921,155346,657551,0
2096921,2096921,155191,657580,0
2096921,2096921,155364,657352,0
2096921,2096921,155464,657594,0
2096921,2096921,155466,657337,0
2096921,2096921,155361,657414,0
2096921,2096921,155441,657514,0
2096921,2096921,155582,657596,0
2096921,2096921,155807,657988,0
2096921,2096921,155838,658199,0
2096921,2096921,155703,658169,0
2096921,2096921,155875,658199,0
2096921,2096921,155790,658093,0
2096921,2096921,155821,658377,0
2096921,2096921,156210,658933,0
2096921,2096921,156036,658934,0
2096921,2096921,156017,658800,0
2096921,2096921,156075,659012,0
2096921,2096921,156302,659353,0
2096921,2096921,156320,659272,0
2096921,2096921,156272,659673,0
2096921,2096921,156324,659704,0
2096921,2096921,156221,659338,0
2096921,2096921,156500,659892,0
2096921,2096921,156312,660065,0
2096921,2096921,156582,660082,0
2096921,2096921,156524,660138,0
2096921,2096921,156364,660064,0
2096921,2096921,156704,660292,0
2096921,2096921,157035,660871,0
2096921,2096921,156749,660835,0
2096921,2096921,156665,660696,0
2096921,2096921,156638,660833,0
2096921,2096921,156829,661254,0
2096921,2096921,157064,661626,0
2096921,2096921,157014,661381,0
2096921,2096921,157350,661499,0
2096921,2096921,157164,661331,0
2096921,2096921,157104,661826,0
2096921,2096921,157073,662176,0
2096921,2096921,157133,661888,0
2096921,2096921,157328,662065,0
2096921,2096921,157302,661856,0
2096921,2096921,157565,662329,0
2096921,2096921,157761,662637,0
2096921,2096921,157663,662807,0
2096921,2096921,157589,662731,0
2096921,2096921,157739,662585,0
2096921,2096921,158026,663099,0
2096921,2096921,158029,663415,0
2096921,2096921,157920,663563,0
2096921,2096921,157863,663742,0
2096921,2096921,158058,663470,0
2096921,2096921,158045,663958,0
2096921,2096921,158197,664051,0
2096921,2096921,158136,664022,0
2096921,2096921,158379,663906,0
2096921,2096921,158376,664070,0
2096921,2096921,158488,664411,0
2096921,2096921,158548,664866,0
2096921,2096921,158699,664806,0
2096921,2096921,158504,664866,0
2096921,2096921,158411,665043,0
2096921,2096921,158836,665433,0
2096921,2096921,158564,665536,0
2096921,2096921,158658,665586,0
2096921,2096921,158853,665637,0
2096921,2096921,158655,665620,0
2096921,2096921,158820,666223,0
2096921,2096921,158843,666329,0
2096921,2096921,158968,666148,0
2096921,2096921,158861,666152,0
2096921,2096921,158741,666213,0
2096921,2096921,158901,666521,0
2096921,2096921,158954,666467,0
2096921,2096921,158972,666497,0
2096921,2096921,159076,666591,0
2096921,2096921,159321,666390,0
2096921,2096921,159585,666846,0
2096921,2096921,158875,666997,0
2096921,2096921,159070,666945,0
2096921,2096921,159349,667143,0
2096921,2096921,159415,666817,0
2096921,2096921,159407,667311,0
2096921,2096921,159483,667295,0
2096921,2096921,159366,666906,0
2096921,2096921,159126,667032,0
2096921,2096921,159532,667120,0
2096921,2096921,159764,667239,0
2096921,2096921,159438,667618,0
2096921,2096921,159742,667580,0
2096921,2096921,159761,667534,0
2096921,2096921,159443,667396,0
2096921,2096921,159481,667572,0
2096921,2096921,159479,667522,0
2096921,2096921,159636,667521,0
2096921,2096921,159650,667529,0
2096921,2096921,159641,667629,0
2096921,2096921,159412,667562,0
2096921,2096921,159802,667597,0
2096921,2096921,159701,667804,0
2096921,2096921,159398,667197,0
2096921,2096921,159467,667351,0
2096921,2096921,159735,667205,0
2096921,2096921,159394,667059,0
2096921,2096921,159589,667427,0
2096921,2096921,159570,667117,0
2096921,2096921,159451,667305,0
2096921,2096921,159272,666946,0
2096921,2096921,159466,667111,0
2096921,2096921,159124,667138,0
2096921,2096921,159613,666942,0
2096921,2096921,159287,667337,0
2096921,2096921,159308,667052,0
2096921,2096921,159466,667073,0
2096921,2096921,159400,667004,0
2096921,2096921,159458,667000,0
2096921,2096921,159300,667282,0
2096921,2096921,159210,666834,0
2096921,2096921,159170,666679,0
2096921,2096921,159262,666327,0
2096921,2096921,159216,666861,0
2096921,2096921,159189,666429,0
2096921,2096921,158976,666428,0
2096921,2096921,159105,666598,0
2096921,2096921,159070,666516,0
2096921,2096921,159239,666474,0
2096921,2096921,159376,666504,0
2096921,2096921,159047,666259,0
2096921,2096921,159155,666346,0
2096921,2096921,159085,666576,0
2096921,2096921,158945,666312,0
2096921,2096921,159043,666293,0
2096921,2096921,158934,666482,0
2096921,2096921,158869,666435,0
2096921,2096921,159113,666429,0
2096921,2096921,159435,666454,0
2096921,2096921,159025,666350,0
2096921,2096921,159198,666231,0
2096921,2096921,159270,666517,0
2096921,2096921,159237,666603,0
2096921,2096921,159232,666342,0
2096921,2096921,159315,666445,0
2096921,2096921,159185,666534,0
2096921,2096921,159202,666735,0
2096921,2096921,159356,666698,0
2096921,2096921,159316,666595,0
2096921,2096921,159184,666282,0
2096921,2096921,159594,666737,0
2096921,2096921,159338,666639,0
2096921,2096921,159068,666593,0
2096921,2096921,159263,666708,0
2096921,2096921,158935,666893,0
2096921,2096921,159201,667204,0
2096921,2096921,159731,667420,0
2096921,2096921,159568,667239,0
2096921,2096921,159441,667534,0
2096921,2096921,159456,667493,0
2096921,2096921,159918,667924,0
2096921,2096921,159562,668013,0
2096921,2096921,159746,668108,0
2096921,2096921,159417,668063,0
2096921,2096921,159436,667873,0
2096921,2096921,159556,668313,0
2096921,2096921,159398,668445,0
2096921,2096921,160116,668078,0
2096921,2096921,159946,668156,0
2096921,2096921,160050,668587,0
2096921,2096921,160046,668736,0
2096921,2096921,160085,669031,0
2096921,2096921,160140,669159,0
2096921,2096921,159973,668799,0
2096921,2096921,160008,668687,0
2096921,2096921,160190,669048,0
2096921,2096921,160408,669144,0
2096921,2096921,160239,669233,0
2096921,2096921,159936,669109,0
2096921,2096921,160200,669052,0
2096921,2096921,160467,669510,0
2096921,2096921,160424,669448,0
2096921,2096921,160289,669738,0
2096921,2096921,160419,669371,0
2096921,2096921,160483,669489,0
2096921,2096921,160387,669764,0
2096921,2096921,160548,669767,0
2096921,2096921,160542,670061,0
2096921,2096921,160593,669843,0
2096921,2096921,160598,670203,0
2096921,2096921,160604,670417,0
2096921,2096921,160725,670801,0
2096921,2096921,160737,670431,0
2096921,2096921,160895,670534,0
2096921,2096921,160824,670087,0
2096921,2096921,160885,670569,0
2096921,2096921,160817,670758,0
2096921,2096921,160835,670772,0
2096921,2096921,160774,670703,0
2096921,2096921,160783,670931,0
2096921,2096921,161016,670942,0
2096921,2096921,160937,671422,0
2096921,2096921,161169,671481,0
2096921,2096921,161157,671309,0
2096921,2096921,161331,671403,0
2096921,2096921,161327,671509,0
2096921,2096921,161046,671422,0
2096921,2096921,161253,671481,0
2096921,2096921,161285,671634,0
2096921,2096921,161095,671485,0
2096921,2096921,161490,671601,0
2096921,2096921,161771,671939,0
2096921,2096921,161432,671897,0
2096921,2096921,161331,671740,0
2096921,2096921,161491,671738,0
2096921,2096921,161585,672126,0
2096921,2096921,161333,672498,0
2096921,2096921,161678,672435,0
2096921,2096921,161623,672234,0
2096921,2096921,161600,672294,0
2096921,2096921,161611,672448,0
2096921,2096921,161453,672662,0
2096921,2096921,161595,672462,0
2096921,2096921,161492,672950,0
2096921,2096921,161610,672559,0
2096921,2096921,161824,672673,0
2096921,2096921,161804,672971,0
2096921,2096921,161522,672852,0
2096921,2096921,161733,672603,0
2096921,2096921,161743,672728,0
2096921,2096921,162082,673071,0
2096921,2096921,161924,673299,0
2096921,2096921,161884,673428,0
2096921,2096921,161833,673183,0
2096921,2096921,161897,673343,0
2096921,2096921,162136,673478,0
2096921,2096921,162062,673355,0
2096921,2096921,162164,673512,0
2096921,2096921,162150,673530,0
2096921,2096921,162082,673260,0
2096921,2096921,161928,673487,0
2096921,2096921,162211,673670,0
2096921,2096921,161878,673657,0
2096921,2096921,162364,673843,0
2096921,2096921,162338,673913,0
2096921,2096921,162235,674099,0
2096921,2096921,162256,673952,0
2096921,2096921,162271,674174,0
2096921,2096921,161873,674119,0
2096921,2096921,162310,674273,0
2096921,2096921,162380,674303,0
2096921,2096921,162425,674502,0
2096921,2096921,162339,674444,0
2096921,2096921,162656,674612,0
2096921,2096921,162154,674652,0
2096921,2096921,161940,674690,0
2096921,2096921,162444,674619,0
2096921,2096921,162397,674594,0
2096921,2096921,162583,674447,0
2096921,2096921,162298,674613,0
2096921,2096921,162378,675040,0
2096921,2096921,162279,675219,0
2096921,2096921,162561,674850,0
2096921,2096921,162467,674979,0
2096921,2096921,162370,675109,0
2096921,2096921,162931,675049,0
2096921,2096921,163023,674949,0
2096921,2096921,162808,675095,0
2096921,2096921,162790,675038,0
2096921,2096921,162851,674961,0
2096921,2096921,163144,675158,0
2096921,2096921,163029,675171,0
2096921,2096921,163013,675387,0
2096921,2096921,162713,675187,0
2096921,2096921,162925,675208,0
2096921,2096921,162678,675423,0
2096921,2096921,162675,675191,0
2096921,2096921,162824,675376,0
2096921,2096921,162995,675853,0
2096921,2096921,163047,675791,0
2096921,2096921,163053,675832,0
2096921,2096921,163183,675909,0
2096921,2096921,163351,675849,0
2096921,2096921,163089,675760,0
2096921,2096921,163093,676084,0
2096921,2096921,163215,675881,0
2096921,2096921,163182,675658,0
2096921,2096921,163345,676189,0
2096921,2096921,163229,676161,0
2096921,2096921,163197,675841,0
2096921,2096921,163245,676113,0
2096921,2096921,163019,676346,0
2096921,2096921,163465,676135,0
2096921,2096921,163125,676102,0
2096921,2096921,162898,676345,0
2096921,2096921,163143,676157,0
2096921,2096921,163186,676448,0
2096921,2096921,163161,676265,0
2096921,2096921,163079,676194,0
2096921,2096921,163241,676298,0
2096921,2096921,163180,676250,0
2096921,2096921,163247,675935,0
2096921,2096921,163042,676249,0
2096921,2096921,163391,676090,0
2096921,2096921,163161,676442,0
2096921,2096921,163196,676576,0
2096921,2096921,163431,676517,0
2096921,2096921,163397,676712,0
2096921,2096921,163310,676867,0
2096921,2096921,163285,677053,0
2096921,2096921,163449,676927,0
2096921,2096921,163448,677072,0
2096921,2096921,163247,676865,0
2096921,2096921,163367,676745,0
2096921,2096921,163468,676736,0
2096921,2096921,163612,677120,0
2096921,2096921,163699,676672,0
2096921,2096921,163663,676819,0
2096921,2096921,163262,676857,0
2096921,2096921,163376,677093,0
2096921,2096921,163240,676914,0
2096921,2096921,163487,676998,0
2096921,2096921,163515,676787,0
2096921,2096921,163343,677217,0
2096921,2096921,163246,677131,0
2096921,2096921,163385,676889,0
2096921,2096921,163429,676971,0
2096921,2096921,163408,677001,0
2096921,2096921,163334,677051,0
2096921,2096921,163703,677102,0
2096921,2096921,163456,677173,0
2096921,2096921,163678,677504,0
2096921,2096921,163541,676907,0
2096921,2096921,163388,677005,0
2096921,2096921,163681,677040,0
2096921,2096921,163944,677085,0
2096921,2096921,163658,677064,0
2096921,2096921,163535,677044,0
2096921,2096921,163555,677067,0
2096921,2096921,163100,677120,0
2096921,2096921,163464,677541,0
2096921,2096921,163843,677601,0
2096921,2096921,163614,677457,0
2096921,2096921,163530,677410,0
2096921,2096921,163648,677781,0
2096921,2096921,163613,677729,0
2096921,2096921,163518,677616,0
2096921,2096921,163639,677307,0
2096921,2096921,163689,677605,0
2096921,2096921,163825,677648,0
2096921,2096921,163649,677831,0
2096921,2096921,163839,677714,0
2096921,2096921,163812,677588,0
2096921,2096921,163830,677382,0
2096921,2096921,163722,677677,0
2096921,2096921,163656,677635,0
2096921,2096921,164001,677886,0
2096921,2096921,163605,678010,0
2096921,2096921,163520,677855,0
2096921,2096921,163872,678162,0
2096921,2096921,163753,677957,0
2096921,2096921,163835,677705,0
2096921,2096921,163741,677837,0
2096921,2096921,163807,677775,0
2096921,2096921,163945,677630,0
2096921,2096921,163877,677848,0
2096921,2096921,163340,677957,0
2096921,2096921,163737,677742,0
2096921,2096921,163832,678134,0
2096921,2096921,163770,677941,0
2096921,2096921,163912,677898,0
2096921,2096921,163975,677981,0
2096921,2096921,163989,678211,0
2096921,2096921,163745,677966,0
2096921,2096921,163895,678125,0
2096921,2096921,163902,678063,0
2096921,2096921,163606,677688,0
2096921,2096921,163726,678202,0
2096921,2096921,163708,677910,0
2096921,2096921,163811,678012,0
2096921,2096921,163857,677904,0
2096921,2096921,163906,677787,0
2096921,2096921,163860,677807,0
2096921,2096921,163814,677992,0
2096921,2096921,163644,677860,0
2096921,2096921,163835,678035,0
2096921,2096921,163855,678099,0
2096921,2096921,163995,678010,0
2096921,2096921,163847,677929,0
2096921,2096921,164077,678331,0
2096921,2096921,163706,678029,0
2096921,2096921,163800,677837,0
2096921,2096921,163636,677941,0
2096921,2096921,163721,677974,0
2096921,2096921,163854,678076,0
2096921,2096921,163546,678005,0
2096921,2096921,163866,677809,0
2096921,2096921,163878,677867,0
2096921,2096921,163890,678030,0
2096921,2096921,163629,678169,0
2096921,2096921,163718,678159,0
2096921,2096921,164045,677976,0
2096921,2096921,163827,678259,0
2096921,2096921,163844,677971,0
2096921,2096921,163690,678142,0
2096921,2096921,163804,677835,0
2096921,2096921,164002,677824,0
2096921,2096921,163800,677897,0
2096921,2096921,163960,678190,0
2096921,2096921,163993,677837,0
2096921,2096921,163928,677901,0
2096921,2096921,163489,677919,0
2096921,2096921,163634,678087,0
2096921,2096921,164063,677828,0
2096921,2096921,163705,678002,0
2096921,2096921,163936,677844,0
2096921,2096921,163909,677946,0
2096921,2096921,163859,677842,0
2096921,2096921,164043,677833,0
2096921,2096921,164119,677614,0
2096921,2096921,163791,677532,0
2096921,2096921,163726,677665,0
2096921,2096921,163694,677387,0
2096921,2096921,163804,677476,0
2096921,2096921,163342,677284,0
2096921,2096921,163464,676854,0
2096921,2096921,163363,676803,0
2096921,2096921,163455,676599,0
2096921,2096921,163255,676968,0
2096921,2096921,163312,676852,0
2096921,2096921,162831,676319,0
2096921,2096921,163038,675873,0
2096921,2096921,163293,675684,0
2096921,2096921,163064,675811,0
2096921,2096921,162712,675958,0
2096921,2096921,162501,674871,0
2096921,2096921,162505,674652,0
2096921,2096921,162375,674299,0
2096921,2096921,162252,674324,0
2096921,2096921,162445,674678,0
2096921,2096921,161975,673450,0
2096921,2096921,161764,673189,0
2096921,2096921,161952,672992,0
2096921,2096921,161952,673015,0
2096921,2096921,161820,673129,0
2096921,2096921,161156,671324,0
2096921,2096921,160380,670263,0
2096921,2096921,160501,670118,0
2096921,2096921,160390,669998,0
2096921,2096921,160347,670059,0
2096921,2096921,159367,667566,0
2096921,2096921,159088,666480,0
2096921,2096921,158954,666020,0
2096921,2096921,159041,665969,0
2096921,2096921,159023,666216,0
2096921,2096921,157890,664127,0
2096921,2096921,157915,663199,0
2096921,2096921,157841,663107,0
2096921,2096921,157620,663266,0
2096921,2096921,157885,663025,0
2096921,2096921,157086,661628,0
2096921,2096921,157177,661337,0
2096921,2096921,156952,661044,0
2096921,2096921,156842,661241,0
2096921,2096921,156691,661134,0
2096921,2096921,156185,659958,0
2096921,2096921,156498,659472,0
2096921,2096921,156365,659334,0
2096921,2096921,156166,659228,0
2096921,2096921,156408,659251,0
2096921,2096921,155742,658612,0
2096921,2096921,155568,658002,0
2096921,2096921,155755,658257,0
2096921,2096921,155971,658165,0
2096921,2096921,155809,658293,0
2096921,2096921,155611,657955,0
2096921,2096921,155734,657772,0
2096921,2096921,155059,657509,0
2096921,2096921,155132,657414,0
2096921,2096921,155177,657455,0
2096921,2096921,155167,657374,0
2096921,2096921,155515,656907,0
2096921,2096921,155429,657045,0
2096921,2096921,155484,656847,0
2096921,2096921,155283,657200,0
2096921,2096921,155261,656777,0
2096921,2096921,155079,656782,0
2096921,2096921,154991,656624,0
2096921,2096921,154838,656695,0
2096921,2096921,154911,656851,0
2096921,2096921,155111,656763,0
2096921,2096921,155340,657017,0
2096921,2096921,155179,656894,0
2096921,2096921,155351,656977,0
2096921,2096921,155327,656784,0
2096921,2096921,155359,656981,0
2096921,2096921,155128,657183,0
2096921,2096921,155415,657204,0
2096921,2096921,155394,657289,0
2096921,2096921,155375,657272,0
2096921,2096921,155461,657402,0
2096921,2096921,155639,657342,0
2096921,2096921,155396,657030,0
2096921,2096921,155098,657096,0
2096921,2096921,155119,657222,0
2096921,2096921,155570,657639,0
2096921,2096921,155547,657282,0
2096921,2096921,155447,657588,0
2096921,2096921,155285,657624,0
2096921,2096921,155578,657698,0
2096921,2096921,155717,658114,0
2096921,2096921,155592,658193,0
2096921,2096921,155964,657958,0
2096921,2096921,155629,658029,0
2096921,2096921,155383,657951,0
2096921,2096921,155831,658797,0
2096921,2096921,156202,658517,0
2096921,2096921,155703,658669,0
2096921,2096921,155876,658569,0
2096921,2096921,156087,658787,0
2096921,2096921,156407,659179,0
2096921,2096921,156056,659470,0
2096921,2096921,156275,659690,0
2096921,2096921,156227,659724,0
2096921,2096921,156117,659371,0
2096921,2096921,156492,659779,0
2096921,2096921,156194,660152,0
2096921,2096921,156497,660083,0
2096921,2096921,156741,660241,0
2096921,2096921,156681,660272,0
2096921,2096921,156951,660801,0
2096921,2096921,156746,660586,0
2096921,2096921,156682,660973,0
2096921,2096921,156917,660866,0
2096921,2096921,156938,660956,0
2096921,2096921,156730,661260,0
2096921,2096921,156958,661410,0
2096921,2096921,157070,661518,0
2096921,2096921,156900,661697,0
2096921,2096921,157014,661480,0
2096921,2096921,157611,662064,0
2096921,2096921,157402,661976,0
2096921,2096921,157538,662265,0
2096921,2096921,157302,662162,0
2096921,2096921,157475,661862,0
2096921,2096921,157378,662339,0
2096921,2096921,157630,662500,0
2096921,2096921,157618,662823,0
2096921,2096921,157479,662735,0
2096921,2096921,157534,662592,0
2096921,2096921,157736,663515,0
2096921,2096921,157879,663381,0
2096921,2096921,157697,663405,0
2096921,2096921,157991,663433,0
2096921,2096921,157632,663386,0
2096921,2096921,157959,664179,0
2096921,2096921,158171,664097,0
2096921,2096921,158280,664016,0
2096921,2096921,157896,664074,0
2096921,2096921,158127,664111,0
2096921,2096921,158408,664734,0
2096921,2096921,158623,664670,0
2096921,2096921,158499,664850,0
2096921,2096921,158435,664768,0
2096921,2096921,158391,664867,0
2096921,2096921,158626,665426,0
2096921,2096921,159023,665635,0
2096921,2096921,158853,665541,0
2096921,2096921,158893,665895,0
2096921,2096921,159155,665806,0
2096921,2096921,158955,665605,0
2096921,2096921,159130,665603,0
2096921,2096921,158923,666017,0
2096921,2096921,158887,666070,0
2096921,2096921,158963,665987,0
2096921,2096921,159074,666171,0
2096921,2096921,159091,666407,0
2096921,2096921,159346,666353,0
2096921,2096921,159087,666766,0
2096921,2096921,158908,666757,0
2096921,2096921,159299,666936,0
2096921,2096921,159230,667162,0
2096921,2096921,159183,666763,0
2096921,2096921,159257,667036,0
2096921,2096921,159496,667003,0
2096921,2096921,159401,666814,0
2096921,2096921,159568,667002,0
2096921,2096921,159130,667012,0
2096921,2096921,159193,667366,0
2096921,2096921,159193,667238,0
2096921,2096921,159548,667456,0
2096921,2096921,159572,667153,0
2096921,2096921,159337,667213,0
2096921,2096921,159432,667363,0
2096921,2096921,159344,667124,0
2096921,2096921,159262,667267,0
2096921,2096921,159658,667887,0
2096921,2096921,159259,667560,0
2096921,2096921,159564,667664,0
2096921,2096921,159577,667471,0
2096921,2096921,159573,667360,0
2096921,2096921,159663,667544,0
2096921,2096921,159625,667512,0
2096921,2096921,159511,667385,0
2096921,2096921,159443,667331,0
2096921,2096921,159583,667130,0
2096921,2096921,159133,667219,0
2096921,2096921,159603,667171,0
2096921,2096921,159722,667151,0
2096921,2096921,159470,667212,0
2096921,2096921,159334,667265,0
2096921,2096921,159266,667092,0
2096921,2096921,159118,666957,0
2096921,2096921,159180,667032,0
2096921,2096921,159092,667103,0
2096921,2096921,158914,666804,0
2096921,2096921,159018,666587,0
2096921,2096921,159272,666967,0
2096921,2096921,159295,666810,0
2096921,2096921,159249,666762,0
2096921,2096921,159331,666662,0
2096921,2096921,159174,666416,0
2096921,2096921,159408,666663,0
2096921,2096921,159400,666625,0
2096921,2096921,158977,666557,0
2096921,2096921,159026,666271,0
2096921,2096921,159075,666277,0
2096921,2096921,158868,666425,0
2096921,2096921,159020,666452,0
2096921,2096921,159136,666472,0
2096921,2096921,159220,666646,0
2096921,2096921,159321,666473,0
2096921,2096921,159142,666396,0
2096921,2096921,158837,666232,0
2096921,2096921,159207,666169,0
2096921,2096921,159246,665946,0
2096921,2096921,158965,666369,0
2096921,2096921,159236,666209,0
2096921,2096921,159144,666201,0
2096921,2096921,159180,666458,0
2096921,2096921,159216,666283,0
2096921,2096921,159097,666574,0
2096921,2096921,158937,666532,0
2096921,2096921,159010,666462,0
2096921,2096921,159187,666568,0
2096921,2096921,159373,666575,0
2096921,2096921,159059,666531,0
2096921,2096921,159131,666455,0
2096921,2096921,159148,666612,0
2096921,2096921,159153,666923,0
2096921,2096921,159285,666854,0
2096921,2096921,158939,666969,0
2096921,2096921,159028,666941,0
2096921,2096921,159248,666685,0
2096921,2096921,159110,666825,0
2096921,2096921,159147,667053,0
2096921,2096921,159527,667138,0
2096921,2096921,159446,667372,0
2096921,2096921,159476,666984,0
2096921,2096921,159754,667084,0
2096921,2096921,159906,667638,0
2096921,2096921,159560,667853,0
2096921,2096921,159766,668055,0
2096921,2096921,159915,667801,0
2096921,2096921,159640,667768,0
2096921,2096921,159906,667861,0
2096921,2096921,159624,668118,0
2096921,2096921,159674,667906,0
2096921,2096921,160282,668349,0
2096921,2096921,159928,668184,0
2096921,2096921,160121,668561,0
2096921,2096921,160083,668406,0
2096921,2096921,160139,668877,0
2096921,2096921,159986,669020,0
2096921,2096921,160029,668873,0
2096921,2096921,160021,669204,0
2096921,2096921,160406,669049,0
2096921,2096921,160065,669362,0
2096921,2096921,160160,669454,0
2096921,2096921,160374,669011,0
2096921,2096921,160476,669406,0
2096921,2096921,160307,669635,0
2096921,2096921,160157,669545,0
2096921,2096921,160273,669522,0
2096921,2096921,160036,669483,0
2096921,2096921,160408,669605,0
2096921,2096921,160328,669670,0
2096921,2096921,160560,669760,0
2096921,2096921,160456,669908,0
2096921,2096921,160554,669870,0
2096921,2096921,160823,670092,0
2096921,2096921,160594,670206,0
2096921,2096921,160896,670163,0
2096921,2096921,161116,670053,0
2096921,2096921,160709,670235,0
2096921,2096921,160701,670376,0
2096921,2096921,161025,670803,0
2096921,2096921,161035,670780,0
2096921,2096921,160987,670762,0
2096921,2096921,160872,670932,0
2096921,2096921,161089,671045,0
2096921,2096921,161076,671125,0
2096921,2096921,161063,671100,0
2096921,2096921,160967,671165,0
2096921,2096921,161065,670745,0
2096921,2096921,161091,671341,0
2096921,2096921,161091,671366,0
2096921,2096921,161089,671591,0
2096921,2096921,161052,671641,0
2096921,2096921,160985,671712,0
2096921,2096921,161475,671787,0
2096921,2096921,161462,671821,0
2096921,2096921,161274,671970,0
2096921,2096921,161351,671934,0
2096921,2096921,161489,671738,0
2096921,2096921,161093,671955,0
2096921,2096921,161471,671918,0
2096921,2096921,161406,672014,0
2096921,2096921,161501,672133,0
2096921,2096921,161532,672273,0
2096921,2096921,161664,672744,0
2096921,2096921,161691,672464,0
2096921,2096921,161659,672255,0
2096921,2096921,161442,672693,0
2096921,2096921,161471,672420,0
2096921,2096921,161741,672523,0
2096921,2096921,162083,672890,0
2096921,2096921,161688,672645,0
2096921,2096921,161904,672521,0
2096921,2096921,161447,672975,0
2096921,2096921,161755,673225,0
2096921,2096921,161878,673401,0
2096921,2096921,161723,673238,0
2096921,2096921,161816,673164,0
2096921,2096921,161816,673313,0
2096921,2096921,161871,673210,0
2096921,2096921,162008,673345,0
2096921,2096921,161943,673356,0
2096921,2096921,161664,673738,0
2096921,2096921,162271,673520,0
2096921,2096921,162276,673531,0
2096921,2096921,161972,673954,0
2096921,2096921,162026,673811,0
2096921,2096921,162137,673792,0
2096921,2096921,162192,674181,0
2096921,2096921,162252,674264,0
2096921,2096921,162113,674130,0
2096921,2096921,162135,674079,0
2096921,2096921,162189,673941,0
2096921,2096921,162679,673965,0
2096921,2096921,162267,674247,0
2096921,2096921,162338,674448,0
2096921,2096921,162397,674423,0
2096921,2096921,162586,674534,0
2096921,2096921,162464,674353,0
2096921,2096921,162538,674680,0
2096921,2096921,162640,674649,0
2096921,2096921,162670,674964,0
2096921,2096921,162213,674834,0
2096921,2096921,162328,674595,0
2096921,2096921,162428,674657,0
2096921,2096921,162811,674984,0
2096921,2096921,162441,675121,0
2096921,2096921,162543,674982,0
2096921,2096921,162577,674900,0
2096921,2096921,162530,675120,0
2096921,2096921,162746,675227,0
2096921,2096921,162731,675172,0
2096921,2096921,162572,675200,0
2096921,2096921,162469,675278,0
2096921,2096921,162590,675246,0
2096921,2096921,162665,675290,0
2096921,2096921,162885,675636,0
2096921,2096921,162691,675602,0
2096921,2096921,162767,675468,0
2096921,2096921,162702,675617,0
2096921,2096921,162578,675539,0
2096921,2096921,162900,675546,0
2096921,2096921,162912,675676,0
2096921,2096921,162757,675416,0
2096921,2096921,163058,675593,0
2096921,2096921,162983,675807,0
2096921,2096921,163042,675555,0
2096921,2096921,163232,675405,0
2096921,2096921,162830,675753,0
2096921,2096921,163058,675661,0
2096921,2096921,163273,675783,0
2096921,2096921,162879,675979,0
2096921,2096921,163295,675897,0
2096921,2096921,163129,675975,0
2096921,2096921,163206,676216,0
2096921,2096921,163062,675965,0
2096921,2096921,163172,676044,0
2096921,2096921,163098,675935,0
2096921,2096921,162854,675958,0
2096921,2096921,163161,676300,0
2096921,2096921,163030,676355,0
2096921,2096921,162977,676457,0
2096921,2096921,163066,676640,0
2096921,2096921,163263,676295,0
2096921,2096921,163068,676403,0
2096921,2096921,163145,676571,0
2096921,2096921,162846,676471,0
2096921,2096921,163096,676412,0
2096921,2096921,163138,676794,0
2096921,2096921,163163,676655,0
2096921,2096921,163156,676683,0
2096921,2096921,163328,676594,0
2096921,2096921,163135,676361,0
2096921,2096921,163151,676591,0
2096921,2096921,163449,676650,0
2096921,2096921,163565,676857,0
2096921,2096921,163359,676730,0
2096921,2096921,163462,676610,0
2096921,2096921,163122,676887,0
2096921,2096921,163334,676536,0
2096921,2096921,163353,676744,0
2096921,2096921,163531,676819,0
2096921,2096921,163443,676858,0
2096921,2096921,163551,677218,0
2096921,2096921,163738,677151,0
2096921,2096921,163674,676787,0
2096921,2096921,163740,676973,0
2096921,2096921,163499,676884,0
2096921,2096921,163396,676635,0
2096921,2096921,163432,676887,0
2096921,2096921,163550,676947,0
2096921,2096921,163521,676846,0
2096921,2096921,163468,677032,0
2096921,2096921,163530,677257,0
2096921,2096921,163409,677133,0
2096921,2096921,163485,677168,0
2096921,2096921,163429,677266,0
2096921,2096921,163447,677220,0
2096921,2096921,163615,677145,0
2096921,2096921,163567,677306,0
2096921,2096921,163535,677358,0
2096921,2096921,163663,677176,0
2096921,2096921,163669,677308,0
2096921,2096921,163765,677375,0
2096921,2096921,163737,677405,0
2096921,2096921,163653,677466,0
2096921,2096921,163310,677538,0
2096921,2096921,163529,677538,0
2096921,2096921,163905,677515,0
2096921,2096921,163748,677441,0
2096921,2096921,163874,677436,0
2096921,2096921,163450,677648,0
2096921,2096921,163589,677705,0
2096921,2096921,163692,677695,0
2096921,2096921,163785,677889,0
2096921,2096921,163675,677725,0
2096921,2096921,164176,677609,0
2096921,2096921,163555,677695,0
2096921,2096921,163965,677654,0
2096921,2096921,163829,677784,0
2096921,2096921,163533,677475,0
2096921,2096921,163614,677513,0
2096921,2096921,164039,677680,0
2096921,2096921,163542,677701,0
2096921,2096921,163868,677695,0
2096921,2096921,163787,678193,0
2096921,2096921,163906,678058,0
2096921,2096921,164053,677847,0
2096921,2096921,163791,678061,0
2096921,2096921,163744,677935,0
2096921,2096921,164046,677744,0
2096921,2096921,163796,677768,0
2096921,2096921,163725,678065,0
2096921,2096921,163604,678031,0
2096921,2096921,163786,678212,0
2096921,2096921,163806,678021,0
2096921,2096921,164119,678067,0
2096921,2096921,163957,677720,0
2096921,2096921,163674,678139,0
2096921,2096921,163873,678097,0
2096921,2096921,164127,678007,0
2096921,2096921,163672,677946,0
2096921,2096921,164030,677865,0
2096921,2096921,163794,678123,0
2096921,2096921,163933,677850,0
2096921,2096921,163899,678035,0
2096921,2096921,164047,677988,0
2096921,2096921,164159,677616,0
2096921,2096921,163997,677786,0
2096921,2096921,163873,677828,0
2096921,2096921,164019,677831,0
2096921,2096921,164115,678035,0
2096921,2096921,163680,677780,0
2096921,2096921,163651,677920,0
2096921,2096921,163847,678009,0
2096921,2096921,164081,678066,0
2096921,2096921,163877,678007,0
2096921,2096921,164167,678092,0
2096921,2096921,163944,677918,0
2096921,2096921,163856,678063,0
2096921,2096921,163975,677980,0
2096921,2096921,163538,678254,0
2096921,2096921,163530,678239,0
2096921,2096921,163873,678171,0
2096921,2096921,163724,677718,0
2096921,2096921,163697,677829,0
2096921,2096921,163825,678139,0
2096921,2096921,163635,678242,0
2096921,2096921,163940,677849,0
2096921,2096921,164053,678100,0
2096921,2096921,164085,677868,0
2096921,2096921,163732,677610,0
2096921,2096921,163968,677933,0
2096921,2096921,163793,678197,0
2096921,2096921,163927,677912,0
2096921,2096921,163968,677984,0
2096921,2096921,163824,677968,0
2096921,2096921,163977,677714,0
2096921,2096921,163872,678051,0
2096921,2096921,163700,677962,0
2096921,2096921,164063,678041,0
2096921,2096921,164207,678002,0
2096921,2096921,164132,678035,0
2096921,2096921,164090,678205,0
2096921,2096921,163861,677705,0
2096921,2096921,163441,677577,0
2096921,2096921,163590,677439,0
2096921,2096921,163394,677672,0
2096921,2096921,163715,677276,0
2096921,2096921,163639,676884,0
2096921,2096921,163311,676899,0
2096921,2096921,163507,676910,0
2096921,2096921,163312,676840,0
2096921,2096921,163212,676861,0
2096921,2096921,162972,676172,0
2096921,2096921,163107,675807,0
2096921,2096921,163009,675927,0
2096921,2096921,162760,675367,0
2096921,2096921,162812,675641,0
2096921,2096921,162380,675049,0
2096921,2096921,162334,674534,0
2096921,2096921,162320,674659,0
2096921,2096921,162589,674504,0
2096921,2096921,162363,674658,0
2096921,2096921,161779,673690,0
2096921,2096921,162066,673408,0
2096921,2096921,161746,673287,0
2096921,2096921,161816,673158,0
2096921,2096921,161798,673351,0
2096921,2096921,160706,671354,0
2096921,2096921,160587,670217,0
2096921,2096921,160652,670207,0
2096921,2096921,160694,670211,0
2096921,2096921,160704,670112,0
2096921,2096921,159487,667566,0
2096921,2096921,159391,666538,0
2096921,2096921,158829,666269,0
2096921,2096921,158900,666197,0
2096921,2096921,159119,665975,0
2096921,2096921,157938,664170,0
2096921,2096921,158046,663642,0
2096921,2096921,157740,663339,0
2096921,2096921,157856,663353,0
2096921,2096921,157779,663195,0
2096921,2096921,156913,661821,0
2096921,2096921,156988,661526,0
2096921,2096921,156668,661143,0
2096921,2096921,157021,661310,0
2096921,2096921,156738,661218,0
2096921,2096921,156336,659692,0
2096921,2096921,156262,659193,0
2096921,2096921,156382,659411,0
2096921,2096921,156314,659375,0
2096921,2096921,156423,659871,0
2096921,2096921,155974,658878,0
2096921,2096921,155554,658589,0
2096921,2096921,155783,658377,0
2096921,2096921,155737,658490,0
2096921,2096921,155997,658045,0
2096921,2096921,155476,657708,0
2096921,2096921,155380,657285,0
2096921,2096921,155518,657634,0
2096921,2096921,155432,657568,0
2096921,2096921,155573,657615,0
2096921,2096921,155239,657399,0
2096921,2096921,155337,656948,0
2096921,2096921,155322,657136,0
2096921,2096921,155116,657116,0
2096921,2096921,155257,657027,0
2096921,2096921,155239,656898,0
2096921,2096921,155052,656824,0
2096921,2096921,155190,656492,0
2096921,2096921,155260,656999,0
2096921,2096921,155175,657023,0
2096921,2096921,155122,656944,0
2096921,2096921,155126,656931,0
2096921,2096921,155212,656935,0
2096921,2096921,155229,656614,0
2096921,2096921,155290,656987,0
2096921,2096921,155123,656950,0
2096921,2096921,155416,656911,0
2096921,2096921,155157,656816,0
2096921,2096921,154949,657366,0
2096921,2096921,155117,656895,0
2096921,2096921,155347,657344,0
2096921,2096921,155254,657443,0
2096921,2096921,155409,657317,0
2096921,2096921,155441,657507,0
2096921,2096921,155616,657395,0
2096921,2096921,155184,657404,0
2096921,2096921,155187,657211,0
2096921,2096921,155345,657492,0
2096921,2096921,155509,657363,0
2096921,2096921,155681,657607,0
2096921,2096921,155949,658139,0
2096921,2096921,155729,658210,0
2096921,2096921,155579,658092,0
2096921,2096921,155798,658156,0
2096921,2096921,155601,658010,0
2096921,2096921,155866,658784,0
2096921,2096921,156160,658913,0
2096921,2096921,156169,658634,0
2096921,2096921,156207,658738,0
2096921,2096921,156113,659074,0
2096921,2096921,156247,659168,0
2096921,2096921,156328,659547,0
2096921,2096921,156232,659496,0
2096921,2096921,156364,659343,0
2096921,2096921,156489,659323,0
2096921,2096921,156567,659630,0
2096921,2096921,156526,660236,0
2096921,2096921,156749,660114,0
2096921,2096921,156677,660242,0
2096921,2096921,156724,660120,0
2096921,2096921,156885,660558,0
2096921,2096921,156958,660878,0
2096921,2096921,156867,660940,0
2096921,2096921,156765,660789,0
2096921,2096921,156819,660779,0
2096921,2096921,157103,661192,0
2096921,2096921,156672,661152,0
2096921,2096921,156944,661349,0
2096921,2096921,157351,661314,0
2096921,2096921,157024,661349,0
2096921,2096921,157474,662027,0
2096921,2096921,157301,662240,0
2096921,2096921,157253,662338,0
2096921,2096921,157280,662344,0
2096921,2096921,157252,662078,0
2096921,2096921,157471,662462,0
2096921,2096921,157788,662596,0
2096921,2096921,157490,662959,0
2096921,2096921,157665,662831,0
2096921,2096921,157717,662976,0
2096921,2096921,157804,663145,0
2096921,2096921,157773,663631,0
2096921,2096921,158067,663428,0
2096921,2096921,158138,663502,0
2096921,2096921,157919,663445,0
2096921,2096921,158173,663707,0
2096921,2096921,158312,664026,0
2096921,2096921,158124,664125,0
2096921,2096921,158322,664151,0
2096921,2096921,158353,664079,0
2096921,2096921,158691,664665,0
2096921,2096921,158598,664650,0
2096921,2096921,158488,665152,0
2096921,2096921,158343,664676,0
2096921,2096921,158499,665069,0
2096921,2096921,158798,665476,0
2096921,2096921,158681,665463,0
2096921,2096921,158798,665484,0
2096921,2096921,158774,665503,0
2096921,2096921,158897,665399,0
2096921,2096921,158878,666045,0
2096921,2096921,158971,666242,0
2096921,2096921,159060,666354,0
2096921,2096921,159063,666247,0
2096921,2096921,158844,666062,0
2096921,2096921,158989,666601,0
2096921,2096921,159204,666370,0
2096921,2096921,159280,666667,0
2096921,2096921,159186,666591,0
2096921,2096921,159417,666619,0
2096921,2096921,159523,667011,0
2096921,2096921,159442,666914,0
2096921,2096921,159138,667121,0
2096921,2096921,159281,667080,0
2096921,2096921,159134,666828,0
2096921,2096921,159459,666926,0
2096921,2096921,159978,667188,0
2096921,2096921,159835,667305,0
2096921,2096921,159561,667357,0
2096921,2096921,159534,667460,0
2096921,2096921,159809,667337,0
2096921,2096921,159354,667329,0
2096921,2096921,159803,667450,0
2096921,2096921,159880,667266,0
2096921,2096921,159639,667386,0
2096921,2096921,159626,667519,0
2096921,2096921,159411,667512,0
2096921,2096921,159627,667524,0
2096921,2096921,159615,667648,0
2096921,2096921,159659,667779,0
2096921,2096921,159401,667448,0
2096921,2096921,159389,667668,0
2096921,2096921,159606,667828,0
2096921,2096921,159366,667517,0
2096921,2096921,159389,667498,0
2096921,2096921,159398,667386,0
2096921,2096921,159335,667196,0
2096921,2096921,159488,667219,0
2096921,2096921,159590,667369,0
2096921,2096921,159330,667226,0
2096921,2096921,159340,667134,0
2096921,2096921,159411,666980,0
2096921,2096921,159032,667164,0
2096921,2096921,159342,667331,0
2096921,2096921,159079,667131,0
2096921,2096921,158963,666798,0
2096921,2096921,159353,666662,0
2096921,2096921,159234,666881,0
2096921,2096921,159211,666859,0
2096921,2096921,159230,666963,0
2096921,2096921,159075,667144,0
2096921,2096921,159395,666487,0
2096921,2096921,159111,666724,0
2096921,2096921,159020,666132,0
2096921,2096921,159028,666404,0
2096921,2096921,159225,666147,0
2096921,2096921,159251,666367,0
2096921,2096921,159199,666399,0
2096921,2096921,158982,666271,0
2096921,2096921,158946,666661,0
2096921,2096921,158974,666651,0
2096921,2096921,159098,666491,0
2096921,2096921,158939,667076,0
2096921,2096921,159145,666626,0
2096921,2096921,159131,666637,0
2096921,2096921,159256,666522,0
2096921,2096921,159115,666338,0
2096921,2096921,159118,666321,0
2096921,2096921,158920,666440,0
2096921,2096921,159113,666250,0
2096921,2096921,158964,666172,0
2096921,2096921,159435,666324,0
2096921,2096921,158999,666397,0
2096921,2096921,158964,666423,0
2096921,2096921,159022,666593,0
2096921,2096921,159238,666702,0
2096921,2096921,159016,666744,0
2096921,2096921,159255,666923,0
2096921,2096921,159149,666745,0
2096921,2096921,159178,666541,0
2096921,2096921,159234,666786,0
2096921,2096921,159093,666783,0
2096921,2096921,159247,666986,0
2096921,2096921,159283,666919,0
2096921,2096921,159211,666768,0
2096921,2096921,159521,666958,0
2096921,2096921,159247,666895,0
2096921,2096921,159598,667133,0
2096921,2096921,159541,667184,0
2096921,2096921,159623,667243,0
2096921,2096921,159634,667409,0
2096921,2096921,159667,667999,0
2096921,2096921,159717,667930,0
2096921,2096921,159429,667877,0
2096921,2096921,159699,667561,0
2096921,2096921,159856,668202,0
2096921,2096921,159803,668331,0
2096921,2096921,159970,668341,0
2096921,2096921,160033,668493,0
2096921,2096921,159944,668424,0
2096921,2096921,160127,668670,0
2096921,2096921,160085,669074,0
2096921,2096921,160095,668531,0
2096921,2096921,160132,668631,0
2096921,2096921,160120,668750,0
2096921,2096921,159865,668851,0
2096921,2096921,160253,669219,0
2096921,2096921,160289,669081,0
2096921,2096921,160342,669396,0
2096921,2096921,160373,669213,0
2096921,2096921,160225,669524,0
2096921,2096921,160518,669545,0
2096921,2096921,160316,669502,0
2096921,2096921,160378,669432,0
2096921,2096921,160442,669629,0
2096921,2096921,160564,669900,0
2096921,2096921,160518,670036,0
2096921,2096921,160624,669657,0
2096921,2096921,160780,669769,0
2096921,2096921,160682,669860,0
2096921,2096921,160740,670208,0
2096921,2096921,160626,670348,0
2096921,2096921,160663,670353,0
2096921,2096921,160549,670339,0
2096921,2096921,160525,670302,0
2096921,2096921,160867,670410,0
2096921,2096921,160737,670851,0
2096921,2096921,160918,670648,0
2096921,2096921,160696,671009,0
2096921,2096921,160848,670713,0
2096921,2096921,161019,670809,0
2096921,2096921,161271,671094,0
2096921,2096921,161233,670898,0
2096921,2096921,160981,670893,0
2096921,2096921,161008,671035,0
2096921,2096921,161210,671122,0
2096921,2096921,161591,671170,0
2096921,2096921,161459,671410,0
2096921,2096921,161052,671366,0
2096921,2096921,161431,671413,0
2096921,2096921,161406,671922,0
2096921,2096921,161371,672032,0
2096921,2096921,161136,671900,0
2096921,2096921,161370,671819,0
2096921,2096921,161243,671746,0
2096921,2096921,161494,671602,0
2096921,2096921,161586,672096,0
2096921,2096921,161705,672248,0
2096921,2096921,161641,672220,0
2096921,2096921,161613,672351,0
2096921,2096921,161607,672562,0
2096921,2096921,161536,672431,0
2096921,2096921,161643,672667,0
2096921,2096921,161491,672620,0
2096921,2096921,161820,672419,0
2096921,2096921,161812,672945,0
2096921,2096921,161688,673074,0
2096921,2096921,162152,672931,0
2096921,2096921,162045,673040,0
2096921,2096921,161838,672855,0
2096921,2096921,161910,672783,0
2096921,2096921,161695,673078,0
2096921,2096921,161766,673188,0
2096921,2096921,161867,673633,0
2096921,2096921,161960,673354,0
2096921,2096921,162048,673258,0
2096921,2096921,162188,673017,0
2096921,2096921,162081,673560,0
2096921,2096921,162214,673708,0
2096921,2096921,162124,673757,0
2096921,2096921,162299,673813,0
2096921,2096921,162028,673784,0
2096921,2096921,162474,674022,0
2096921,2096921,162323,674044,0
2096921,2096921,162133,673861,0
2096921,2096921,162244,673811,0
2096921,2096921,162174,674090,0
2096921,2096921,162156,674165,0
2096921,2096921,162099,674079,0
2096921,2096921,162435,674149,0
2096921,2096921,162272,674279,0
2096921,2096921,162261,674435,0
2096921,2096921,162154,674414,0
2096921,2096921,161894,674423,0
2096921,2096921,162066,674430,0
2096921,2096921,162555,674645,0
2096921,2096921,162123,675002,0
2096921,2096921,162383,674788,0
2096921,2096921,162537,674727,0
2096921,2096921,162489,674830,0
2096921,2096921,162554,674880,0
2096921,2096921,162757,674618,0
2096921,2096921,162781,674808,0
2096921,2096921,162557,674734,0
2096921,2096921,162439,674950,0
2096921,2096921,162652,675209,0
2096921,2096921,162351,675117,0
2096921,2096921,162904,675371,0
2096921,2096921,162554,675370,0
2096921,2096921,162912,675280,0
2096921,2096921,162660,675085,0
2096921,2096921,162644,675365,0
2096921,2096921,162639,675395,0
2096921,2096921,163052,675625,0
2096921,2096921,162766,675597,0
2096921,2096921,162794,675649,0
2096921,2096921,162886,675689,0
2096921,2096921,162806,675399,0
2096921,2096921,162716,675261,0
2096921,2096921,162880,675596,0
2096921,2096921,163225,675944,0
2096921,2096921,163227,675999,0
2096921,2096921,162960,675888,0
2096921,2096921,162896,676075,0
2096921,2096921,162769,675867,0
2096921,2096921,162903,675817,0
2096921,2096921,163075,675974,0
2096921,2096921,162868,676115,0
2096921,2096921,163148,676074,0
2096921,2096921,163204,676191,0
2096921,2096921,162967,676283,0
2096921,2096921,163111,676181,0
2096921,2096921,163262,676103,0
2096921,2096921,163224,676217,0
2096921,2096921,163294,675919,0
2096921,2096921,163022,676200,0
2096921,2096921,162952,676416,0
2096921,2096921,163085,676414,0
2096921,2096921,163231,676321,0
2096921,2096921,163002,676233,0
2096921,2096921,163341,676378,0
2096921,2096921,163078,676559,0
2096921,2096921,163378,676450,0
2096921,2096921,163436,676270,0
2096921,2096921,163337,676303,0
2096921,2096921,163349,676460,0
2096921,2096921,163492,676428,0
2096921,2096921,163233,676639,0
2096921,2096921,163149,676404,0
2096921,2096921,163050,676282,0
2096921,2096921,163146,676445,0
2096921,2096921,163439,676383,0
2096921,2096921,163548,676776,0
2096921,2096921,163425,676750,0
2096921,2096921,163622,676467,0
2096921,2096921,163535,676954,0
2096921,2096921,163588,676792,0
2096921,2096921,163393,676673,0
2096921,2096921,163470,676914,0
2096921,2096921,163486,676814,0
2096921,2096921,163574,677045,0
2096921,2096921,163300,677296,0
2096921,2096921,163307,677138,0
2096921,2096921,163490,676884,0
2096921,2096921,163383,676965,0
2096921,2096921,163567,676825,0
2096921,2096921,163688,677324,0
2096921,2096921,163718,677061,0
2096921,2096921,163487,677232,0
2096921,2096921,163744,677071,0
2096921,2096921,163413,677372,0
2096921,2096921,163614,677450,0
2096921,2096921,163515,677095,0
2096921,2096921,163722,677345,0
2096921,2096921,163551,677293,0
2096921,2096921,163844,677241,0
2096921,2096921,163857,677388,0
2096921,2096921,163785,677142,0
2096921,2096921,163656,677283,0
2096921,2096921,163769,677357,0
2096921,2096921,163836,677389,0
2096921,2096921,163411,677486,0
2096921,2096921,163852,677629,0
2096921,2096921,163749,677534,0
2096921,2096921,163740,677420,0
2096921,2096921,163572,677787,0
2096921,2096921,163740,677709,0
2096921,2096921,163739,677734,0
2096921,2096921,163632,677667,0
2096921,2096921,163649,677657,0
2096921,2096921,163882,677635,0
2096921,2096921,163734,677958,0
2096921,2096921,163412,677742,0
2096921,2096921,163658,677767,0
2096921,2096921,163537,677446,0
2096921,2096921,163591,677969,0
2096921,2096921,163985,677481,0
2096921,2096921,164204,677863,0
2096921,2096921,163759,677665,0
2096921,2096921,163843,677908,0
2096921,2096921,164066,677911,0
2096921,2096921,163849,678048,0
2096921,2096921,164100,677945,0
2096921,2096921,163838,677980,0
2096921,2096921,163547,677856,0
2096921,2096921,163710,677947,0
2096921,2096921,163788,678174,0
2096921,2096921,163711,677925,0
2096921,2096921,163783,678025,0
2096921,2096921,163715,678127,0
2096921,2096921,163945,678014,0
2096921,2096921,164158,678121,0
2096921,2096921,163949,677961,0
2096921,2096921,164033,677993,0
2096921,2096921,164282,678043,0
2096921,2096921,163768,678003,0
2096921,2096921,163776,678058,0
2096921,2096921,163946,678256,0
2096921,2096921,163906,678152,0
2096921,2096921,163889,677993,0
2096921,2096921,163671,678134,0
2096921,2096921,163765,677967,0
2096921,2096921,163806,678092,0
2096921,2096921,163744,677995,0
2096921,2096921,163697,677933,0
2096921,2096921,163927,677848,0
2096921,2096921,163544,677935,0
2096921,2096921,163750,678191,0
2096921,2096921,163860,678261,0
2096921,2096921,163809,678192,0
2096921,2096921,163920,678132,0
2096921,2096921,164178,678033,0
2096921,2096921,163911,678177,0
2096921,2096921,164049,677867,0
2096921,2096921,163960,678319,0
2096921,2096921,163891,678070,0
2096921,2096921,163790,677848,0
2096921,2096921,164012,678056,0
2096921,2096921,163598,678021,0
2096921,2096921,164091,678210,0
2096921,2096921,164074,678207,0
2096921,2096921,164035,678088,0
2096921,2096921,163777,678120,0
2096921,2096921,163900,678229,0
2096921,2096921,163496,677901,0
2096921,2096921,163998,678004,0
2096921,2096921,164018,678157,0
2096921,2096921,163778,677953,0
2096921,2096921,163878,677588,0
2096921,2096921,163729,678159,0
2096921,2096921,163921,678177,0
2096921,2096921,163954,678046,0
2096921,2096921,164144,677980,0
2096921,2096921,163989,678142,0
2096921,2096921,164038,677991,0
2096921,2096921,163896,677833,0
2096921,2096921,163788,677766,0
2096921,2096921,164167,677894,0
2096921,2096921,163939,678010,0
2096921,2096921,163631,677941,0
2096921,2096921,163883,677507,0
2096921,2096921,163655,677555,0
2096921,2096921,163558,677072,0
2096921,2096921,163563,676881,0
2096921,2096921,163673,677203,0
2096921,2096921,163468,677094,0
2096921,2096921,163442,676687,0
2096921,2096921,163398,676669,0
2096921,2096921,163323,676576,0
2096921,2096921,163477,676426,0
2096921,2096921,162936,676199,0
2096921,2096921,162827,675898,0
2096921,2096921,163086,675687,0
2096921,2096921,162846,675970,0
2096921,2096921,162796,675802,0
2096921,2096921,162688,674858,0
2096921,2096921,162329,674600,0
2096921,2096921,162391,674468,0
2096921,2096921,162671,674634,0
2096921,2096921,162659,674489,0
2096921,2096921,161943,673441,0
2096921,2096921,162051,673433,0
2096921,2096921,162190,673204,0
2096921,2096921,162057,673098,0
2096921,2096921,162056,673255,0
2096921,2096921,161087,670942,0
2096921,2096921,160610,670032,0
2096921,2096921,160581,669896,0
2096921,2096921,160759,670088,0
2096921,2096921,160480,669949,0
