2096921,2096921,171006,670985
2096921,2096921,171110,671028
2096921,2096921,170788,670960
2096921,2096921,170866,670914
2096921,2096921,170981,671341
2096921,2096921,171182,671304
2096921,2096921,171123,671415
2096921,2096921,171056,671014
2096921,2096921,171355,671256
2096921,2096921,171202,671588
2096921,2096921,171453,671614
2096921,2096921,171308,671557
2096921,2096921,171210,671482
2096921,2096921,171111,671192
2096921,2096921,171155,671829
2096921,2096921,170772,671603
2096921,2096921,171171,671504
2096921,2096921,171153,671585
2096921,2096921,171278,671474
2096921,2096921,171211,671568
2096921,2096921,171041,672217
2096921,2096921,171192,672289
2096921,2096921,171244,672033
2096921,2096921,171339,672030
2096921,2096921,171315,671902
2096921,2096921,171515,672349
2096921,2096921,171487,672264
2096921,2096921,171339,672292
2096921,2096921,171025,672138
2096921,2096921,171000,672494
2096921,2096921,171210,672219
2096921,2096921,171483,672276
2096921,2096921,171234,672542
2096921,2096921,171581,672612
2096921,2096921,171445,672638
2096921,2096921,171479,672645
2096921,2096921,171270,672743
2096921,2096921,171628,672654
2096921,2096921,171679,672992
2096921,2096921,171632,673078
2096921,2096921,171446,673044
2096921,2096921,171863,673098
2096921,2096921,171736,672998
2096921,2096921,171601,672728
2096921,2096921,171610,673239
2096921,2096921,171635,673211
2096921,2096921,171714,673118
2096921,2096921,171543,672774
2096921,2096921,171671,673011
2096921,2096921,171776,673325
2096921,2096921,171790,673866
2096921,2096921,171508,673273
2096921,2096921,171832,673604
2096921,2096921,171783,673221
2096921,2096921,171857,673630
2096921,2096921,171819,673361
2096921,2096921,171856,673520
2096921,2096921,171568,673522
2096921,2096921,171806,673656
2096921,2096921,172154,673608
2096921,2096921,172004,673896
2096921,2096921,171980,673666
2096921,2096921,172181,673772
2096921,2096921,172164,673821
2096921,2096921,172123,673819
2096921,2096921,171996,673961
2096921,2096921,171975,673945
2096921,2096921,172167,674141
2096921,2096921,172172,673889
2096921,2096921,172029,674205
2096921,2096921,171783,674180
2096921,2096921,171727,674338
2096921,2096921,171810,674324
2096921,2096921,171772,674316
2096921,2096921,171978,674410
2096921,2096921,172052,674455
2096921,2096921,171785,674241
2096921,2096921,171933,674355
2096921,2096921,171830,674297
2096921,2096921,172105,674092
2096921,2096921,171742,674492
2096921,2096921,172089,674398
2096921,2096921,171878,674234
2096921,2096921,172375,674400
2096921,2096921,172281,674520
2096921,2096921,172271,674603
2096921,2096921,172190,674608
2096921,2096921,171847,674508
2096921,2096921,172046,674537
2096921,2096921,172106,674601
2096921,2096921,171972,674613
2096921,2096921,172073,674515
2096921,2096921,172024,674788
2096921,2096921,172257,674794
2096921,2096921,172224,674652
2096921,2096921,172254,675082
2096921,2096921,172206,674893
2096921,2096921,172407,674640
2096921,2096921,172105,674807
2096921,2096921,172147,674785
2096921,2096921,172307,675060
2096921,2096921,171992,674573
2096921,2096921,172119,674658
2096921,2096921,172197,674793
2096921,2096921,172228,674783
2096921,2096921,171973,674883
2096921,2096921,172219,675049
2096921,2096921,172222,674726
2096921,2096921,172278,674995
2096921,2096921,172167,675124
2096921,2096921,172080,674797
2096921,2096921,172233,675004
2096921,2096921,172479,674918
2096921,2096921,172144,674945
2096921,2096921,172107,674886
2096921,2096921,172183,675159
2096921,2096921,172252,674910
2096921,2096921,172099,674976
2096921,2096921,172135,675054
2096921,2096921,172268,675152
2096921,2096921,172247,674962
2096921,2096921,172029,675107
2096921,2096921,172219,675275
2096921,2096921,171986,675082
2096921,2096921,172320,674200
2096921,2096921,172093,674146
2096921,2096921,172146,674324
2096921,2096921,172085,674340
2096921,2096921,171800,674748
2096921,2096921,171731,674161
2096921,2096921,171936,673569
2096921,2096921,171833,673796
2096921,2096921,171838,673658
2096921,2096921,171870,673713
2096921,2096921,171547,672728
2096921,2096921,171513,672690
2096921,2096921,171300,672389
2096921,2096921,171278,672615
2096921,2096921,171256,672235
2096921,2096921,170940,671218
2096921,2096921,170790,671057
2096921,2096921,170832,671003
2096921,2096921,170637,671014
2096921,2096921,170632,670976
2096921,2096921,170337,669769
2096921,2096921,170225,669332
2096921,2096921,170056,669304
2096921,2096921,170416,669371
2096921,2096921,170300,669306
2096921,2096921,169023,665850
2096921,2096921,168904,664868
2096921,2096921,168743,665276
2096921,2096921,168823,665417
2096921,2096921,169101,665275
2096921,2096921,167566,661510
2096921,2096921,167082,660529
2096921,2096921,166971,660644
2096921,2096921,167029,660553
2096921,2096921,167113,660686
2096921,2096921,166332,657538
2096921,2096921,166386,657028
2096921,2096921,165937,656726
2096921,2096921,165981,656689
2096921,2096921,166056,656635
2096921,2096921,165574,654705
2096921,2096921,165311,654432
2096921,2096921,165222,653944
2096921,2096921,164950,654242
2096921,2096921,165033,654090
2096921,2096921,164520,652570
2096921,2096921,164627,652334
2096921,2096921,164371,651915
2096921,2096921,164305,651993
2096921,2096921,164479,652104
2096921,2096921,164109,650903
2096921,2096921,163924,650754
2096921,2096921,163853,651025
2096921,2096921,164114,650504
2096921,2096921,163746,650725
2096921,2096921,163540,649829
2096921,2096921,163758,649964
2096921,2096921,163485,649818
2096921,2096921,163756,649545
2096921,2096921,163815,649613
2096921,2096921,163502,649476
2096921,2096921,163639,649224
2096921,2096921,163319,649194
2096921,2096921,163273,649114
2096921,2096921,163273,649156
2096921,2096921,163411,649083
2096921,2096921,163342,649155
2096921,2096921,163216,649095
2096921,2096921,163478,649104
2096921,2096921,163129,648923
2096921,2096921,163437,649063
2096921,2096921,163205,649001
2096921,2096921,163397,649191
2096921,2096921,163585,648916
2096921,2096921,163461,649050
2096921,2096921,163592,649263
2096921,2096921,163588,649119
2096921,2096921,163790,649629
2096921,2096921,163334,649519
2096921,2096921,163364,649439
2096921,2096921,163599,649776
2096921,2096921,163681,649821
2096921,2096921,163573,649855
2096921,2096921,163612,650095
2096921,2096921,163810,649864
2096921,2096921,163569,650352
2096921,2096921,163913,650289
2096921,2096921,163699,650366
2096921,2096921,163814,650459
2096921,2096921,164001,650434
2096921,2096921,164131,651132
2096921,2096921,164223,651265
2096921,2096921,164287,651136
2096921,2096921,164302,651281
2096921,2096921,163979,651129
2096921,2096921,164443,651740
2096921,2096921,164099,652153
2096921,2096921,164190,652182
2096921,2096921,164363,651864
2096921,2096921,164707,651860
2096921,2096921,164378,652901
2096921,2096921,164658,652814
2096921,2096921,164824,652798
2096921,2096921,164784,652966
2096921,2096921,164557,653107
2096921,2096921,164946,653961
2096921,2096921,164704,654088
2096921,2096921,164991,654288
2096921,2096921,164880,654046
2096921,2096921,165142,654071
2096921,2096921,165117,654773
2096921,2096921,165079,654872
2096921,2096921,165116,654742
2096921,2096921,165431,654822
2096921,2096921,165280,654822
2096921,2096921,165399,655563
2096921,2096921,165581,655903
2096921,2096921,165599,655800
2096921,2096921,165404,655541
2096921,2096921,165550,655849
2096921,2096921,165755,656516
2096921,2096921,165949,656258
2096921,2096921,166056,656705
2096921,2096921,165735,656567
2096921,2096921,165751,656639
2096921,2096921,166283,657238
2096921,2096921,166157,657492
2096921,2096921,166447,657597
2096921,2096921,166274,657384
2096921,2096921,166582,657423
2096921,2096921,166707,658262
2096921,2096921,166250,658341
2096921,2096921,166360,658259
2096921,2096921,166362,658194
2096921,2096921,166228,658387
2096921,2096921,166812,659118
2096921,2096921,167049,659590
2096921,2096921,166935,659742
2096921,2096921,167119,659691
2096921,2096921,166907,659580
2096921,2096921,166860,660152
2096921,2096921,167227,660259
2096921,2096921,167295,660222
2096921,2096921,167202,660653
2096921,2096921,167191,660516
2096921,2096921,167565,661342
2096921,2096921,167423,661473
2096921,2096921,167295,661315
2096921,2096921,167405,661216
2096921,2096921,167344,661120
2096921,2096921,167536,661734
2096921,2096921,167547,662202
2096921,2096921,167813,661974
2096921,2096921,167737,662323
2096921,2096921,167916,662106
2096921,2096921,167885,662464
2096921,2096921,167988,662773
2096921,2096921,168007,662841
2096921,2096921,167768,663026
2096921,2096921,168062,662806
2096921,2096921,168180,663069
2096921,2096921,167922,662932
2096921,2096921,168247,663546
2096921,2096921,167944,663558
2096921,2096921,168101,663548
2096921,2096921,168198,663675
2096921,2096921,168045,663782
2096921,2096921,168242,663903
2096921,2096921,168220,664043
2096921,2096921,168241,663533
2096921,2096921,168646,663896
2096921,2096921,168363,663958
2096921,2096921,168300,663928
2096921,2096921,168346,664069
2096921,2096921,168411,664255
2096921,2096921,168501,663912
2096921,2096921,168379,663981
2096921,2096921,168062,664205
2096921,2096921,168389,663884
2096921,2096921,168306,664283
2096921,2096921,168136,663909
2096921,2096921,168248,663835
2096921,2096921,168554,664239
2096921,2096921,168421,664275
2096921,2096921,168430,664317
2096921,2096921,168178,664255
2096921,2096921,168425,663891
2096921,2096921,168454,664113
2096921,2096921,168378,664073
2096921,2096921,168179,663993
2096921,2096921,168229,663961
2096921,2096921,168079,663804
2096921,2096921,167861,664116
2096921,2096921,168037,664078
2096921,2096921,168074,663892
2096921,2096921,168003,663676
2096921,2096921,167912,663236
2096921,2096921,168065,663429
2096921,2096921,168011,663394
2096921,2096921,168053,663545
2096921,2096921,168072,663272
2096921,2096921,167957,663333
2096921,2096921,167853,663216
2096921,2096921,168203,663507
2096921,2096921,168117,663323
2096921,2096921,168100,663073
2096921,2096921,168024,663285
2096921,2096921,167993,663111
2096921,2096921,168093,663072
2096921,2096921,167792,662967
2096921,2096921,167867,663029
2096921,2096921,168074,663033
2096921,2096921,168142,663066
2096921,2096921,167977,663005
2096921,2096921,167836,663334
2096921,2096921,167973,663052
2096921,2096921,168086,662965
2096921,2096921,167869,663083
2096921,2096921,168327,663263
2096921,2096921,168034,663145
2096921,2096921,168102,662927
2096921,2096921,167900,663582
2096921,2096921,167939,662977
2096921,2096921,167863,663019
2096921,2096921,167690,663138
2096921,2096921,168142,663044
2096921,2096921,168198,663567
2096921,2096921,168241,663838
2096921,2096921,168102,663485
2096921,2096921,168087,663563
2096921,2096921,168290,663666
2096921,2096921,168074,663820
2096921,2096921,167901,663497
2096921,2096921,168003,663750
2096921,2096921,167933,663537
2096921,2096921,168416,664379
2096921,2096921,168429,664678
2096921,2096921,168667,664502
2096921,2096921,168738,664530
2096921,2096921,168612,664155
2096921,2096921,168468,664000
2096921,2096921,168589,665036
2096921,2096921,168531,664995
2096921,2096921,168797,665182
2096921,2096921,168626,665150
2096921,2096921,169007,665798
2096921,2096921,169052,665724
2096921,2096921,169204,665866
2096921,2096921,168818,665694
2096921,2096921,169070,665562
2096921,2096921,168929,666086
2096921,2096921,169183,666132
2096921,2096921,169055,666354
2096921,2096921,169182,666448
2096921,2096921,168979,666301
2096921,2096921,169196,666866
2096921,2096921,169279,666875
2096921,2096921,169218,666967
2096921,2096921,169032,667070
2096921,2096921,169029,666981
2096921,2096921,169070,667344
2096921,2096921,169112,667348
2096921,2096921,169528,667206
2096921,2096921,169489,667451
2096921,2096921,169328,667405
2096921,2096921,169450,667732
2096921,2096921,169833,667938
2096921,2096921,169557,667638
2096921,2096921,169552,667659
2096921,2096921,169768,667865
2096921,2096921,169713,668505
2096921,2096921,169746,668289
2096921,2096921,169972,668332
2096921,2096921,169626,668414
2096921,2096921,170090,668398
2096921,2096921,169935,668819
2096921,2096921,170136,669048
2096921,2096921,169912,669101
2096921,2096921,169929,669261
2096921,2096921,169766,668886
2096921,2096921,170308,669458
2096921,2096921,170042,669609
2096921,2096921,170139,669428
2096921,2096921,170138,669806
2096921,2096921,170161,669437
2096921,2096921,170484,670120
2096921,2096921,170400,669849
2096921,2096921,170244,670048
2096921,2096921,170626,669829
2096921,2096921,170551,670204
2096921,2096921,170293,670489
2096921,2096921,170400,670569
2096921,2096921,170433,670735
2096921,2096921,170221,670720
2096921,2096921,170274,670574
2096921,2096921,170610,671006
2096921,2096921,170568,671038
2096921,2096921,170659,670764
2096921,2096921,170516,670993
2096921,2096921,170827,671029
2096921,2096921,170810,671347
2096921,2096921,170964,671309
2096921,2096921,170926,671341
2096921,2096921,170535,671356
2096921,2096921,170557,671470
2096921,2096921,170638,671533
2096921,2096921,170871,671505
2096921,2096921,170832,671890
2096921,2096921,171104,671922
2096921,2096921,170962,671897
2096921,2096921,171109,672089
2096921,2096921,171076,672349
2096921,2096921,171229,672455
2096921,2096921,170958,672067
2096921,2096921,170837,672269
2096921,2096921,170856,672535
2096921,2096921,171270,672581
2096921,2096921,170944,672632
2096921,2096921,171531,672717
2096921,2096921,171396,672436
2096921,2096921,171632,673035
2096921,2096921,171654,672989
2096921,2096921,171397,672864
2096921,2096921,171065,672950
2096921,2096921,171085,672895
2096921,2096921,171097,673142
2096921,2096921,171165,673321
2096921,2096921,171283,673321
2096921,2096921,171480,673470
2096921,2096921,171298,673202
2096921,2096921,171350,673501
2096921,2096921,171330,673707
2096921,2096921,171410,673379
2096921,2096921,171414,673625
2096921,2096921,171571,673790
2096921,2096921,171625,674051
2096921,2096921,171684,674116
2096921,2096921,171842,674150
2096921,2096921,171723,674085
2096921,2096921,171720,673974
2096921,2096921,171831,674190
2096921,2096921,171752,674488
2096921,2096921,171594,674383
2096921,2096921,171859,674250
2096921,2096921,171952,674396
2096921,2096921,171896,674787
2096921,2096921,171777,674480
2096921,2096921,171718,674597
2096921,2096921,171797,674441
2096921,2096921,171660,674709
2096921,2096921,172013,674935
2096921,2096921,172026,674860
2096921,2096921,171811,674861
2096921,2096921,171905,674804
2096921,2096921,171889,674925
2096921,2096921,171978,674996
2096921,2096921,172452,675420
2096921,2096921,172009,675124
2096921,2096921,172026,675472
2096921,2096921,172030,675280
2096921,2096921,172271,675668
2096921,2096921,172213,675355
2096921,2096921,172038,675576
2096921,2096921,172004,675467
2096921,2096921,172090,675544
2096921,2096921,171864,675669
2096921,2096921,172203,675651
2096921,2096921,171839,675584
2096921,2096921,172160,675914
2096921,2096921,172053,675665
2096921,2096921,171876,675957
2096921,2096921,172232,676021
2096921,2096921,172333,675935
2096921,2096921,172256,676029
2096921,2096921,172486,675787
2096921,2096921,172371,676014
2096921,2096921,172389,676035
2096921,2096921,172336,676112
2096921,2096921,172281,676009
2096921,2096921,172235,676218
2096921,2096921,172245,676018
2096921,2096921,172277,676298
2096921,2096921,172290,676391
2096921,2096921,172309,676299
2096921,2096921,172549,676086
2096921,2096921,172685,676454
2096921,2096921,172525,676615
2096921,2096921,172585,676525
2096921,2096921,172427,676506
2096921,2096921,172732,676261
2096921,2096921,172745,676484
2096921,2096921,172436,676579
2096921,2096921,172924,676410
2096921,2096921,172713,676779
2096921,2096921,172499,676556
2096921,2096921,172605,676688
2096921,2096921,172670,676855
2096921,2096921,172571,676681
2096921,2096921,172487,676703
2096921,2096921,172660,676412
2096921,2096921,172197,676764
2096921,2096921,172574,676870
2096921,2096921,172707,676964
2096921,2096921,172600,676825
2096921,2096921,172711,677086
2096921,2096921,172527,677230
2096921,2096921,172501,677118
2096921,2096921,172608,676955
2096921,2096921,172848,677255
2096921,2096921,172712,677270
2096921,2096921,172854,677564
2096921,2096921,172562,677327
2096921,2096921,172804,677227
2096921,2096921,172630,677227
2096921,2096921,172945,677139
2096921,2096921,172997,677163
2096921,2096921,172967,677415
2096921,2096921,172915,677572
2096921,2096921,172929,677467
2096921,2096921,173038,677388
2096921,2096921,172956,677680
2096921,2096921,172917,678196
2096921,2096921,172769,677986
2096921,2096921,172780,678075
2096921,2096921,172704,677651
2096921,2096921,172849,677958
2096921,2096921,172902,677668
2096921,2096921,172969,678358
2096921,2096921,172928,678078
2096921,2096921,173090,678055
2096921,2096921,173112,678014
2096921,2096921,172966,678119
2096921,2096921,173180,678068
2096921,2096921,172946,678121
2096921,2096921,172926,677794
2096921,2096921,173273,678149
2096921,2096921,173360,678177
2096921,2096921,173222,677966
2096921,2096921,172926,678163
2096921,2096921,173118,678206
2096921,2096921,173028,678397
2096921,2096921,173042,678264
2096921,2096921,172974,678091
2096921,2096921,172845,678125
2096921,2096921,172887,678173
2096921,2096921,173053,678175
2096921,2096921,172953,678027
2096921,2096921,173155,678172
2096921,2096921,173011,678435
2096921,2096921,173071,678283
2096921,2096921,172846,678434
2096921,2096921,173042,678430
2096921,2096921,173184,678666
2096921,2096921,172946,678340
2096921,2096921,173033,678181
2096921,2096921,173109,678502
2096921,2096921,173223,678286
2096921,2096921,173028,678389
2096921,2096921,173023,678375
2096921,2096921,173426,678342
2096921,2096921,173389,678507
2096921,2096921,173226,678326
2096921,2096921,173135,678344
2096921,2096921,173031,678546
2096921,2096921,173241,678477
2096921,2096921,173258,678294
2096921,2096921,173337,678046
2096921,2096921,173235,678312
2096921,2096921,173167,678478
2096921,2096921,172941,678258
2096921,2096921,173159,678213
2096921,2096921,173194,678181
2096921,2096921,173172,678032
2096921,2096921,173377,678297
2096921,2096921,173079,678382
2096921,2096921,173211,678449
2096921,2096921,173327,678077
2096921,2096921,173110,678154
2096921,2096921,172921,678272
2096921,2096921,173076,678529
2096921,2096921,173398,678313
2096921,2096921,173283,678207
2096921,2096921,173064,678382
2096921,2096921,172987,678491
2096921,2096921,173281,678283
2096921,2096921,173158,678117
2096921,2096921,173206,678125
2096921,2096921,173173,678317
2096921,2096921,173099,678122
2096921,2096921,173394,678008
2096921,2096921,173202,678155
2096921,2096921,173208,678322
2096921,2096921,173001,678296
2096921,2096921,173452,678208
2096921,2096921,173087,678325
2096921,2096921,172811,678357
2096921,2096921,172789,678383
2096921,2096921,172839,678074
2096921,2096921,173266,678138
2096921,2096921,173114,678125
2096921,2096921,172920,677413
2096921,2096921,172865,677123
2096921,2096921,172764,677071
2096921,2096921,172839,677105
2096921,2096921,172695,677471
2096921,2096921,172574,676434
2096921,2096921,172344,676546
2096921,2096921,172148,676687
2096921,2096921,172658,676558
2096921,2096921,172537,676409
2096921,2096921,172359,675506
2096921,2096921,172101,675085
2096921,2096921,171855,675158
2096921,2096921,172013,674920
2096921,2096921,172307,675170
2096921,2096921,171522,673811
2096921,2096921,171356,673589
2096921,2096921,171589,673674
2096921,2096921,171655,673628
2096921,2096921,171654,673496
2096921,2096921,171103,672364
2096921,2096921,170970,671775
2096921,2096921,171156,671704
2096921,2096921,170987,671706
2096921,2096921,170987,671857
2096921,2096921,169961,668681
2096921,2096921,169767,667836
2096921,2096921,169734,668031
2096921,2096921,169375,667666
2096921,2096921,169331,667721
2096921,2096921,167995,663651
2096921,2096921,167738,662701
2096921,2096921,167671,662647
2096921,2096921,167754,662340
2096921,2096921,167841,662588
2096921,2096921,166771,659763
2096921,2096921,166561,659148
2096921,2096921,166496,659051
2096921,2096921,166453,658808
2096921,2096921,166704,658720
2096921,2096921,165927,656869
2096921,2096921,165831,656298
2096921,2096921,165415,656165
2096921,2096921,165518,656296
2096921,2096921,165767,656332
2096921,2096921,165209,654537
2096921,2096921,164806,654321
2096921,2096921,164885,653574
2096921,2096921,164879,653913
2096921,2096921,164849,653897
2096921,2096921,164543,652989
2096921,2096921,164316,652540
2096921,2096921,164571,652753
2096921,2096921,164297,652595
2096921,2096921,164773,652447
2096921,2096921,163922,651311
2096921,2096921,164082,651167
2096921,2096921,163987,651451
2096921,2096921,164019,651542
2096921,2096921,163840,651341
2096921,2096921,163998,651097
2096921,2096921,163905,650605
2096921,2096921,163758,650485
2096921,2096921,163824,650533
2096921,2096921,163974,650651
2096921,2096921,163755,650263
2096921,2096921,163851,650307
2096921,2096921,163948,650239
2096921,2096921,163804,650720
2096921,2096921,163868,650683
2096921,2096921,163512,650321
2096921,2096921,163804,650344
2096921,2096921,163704,650463
2096921,2096921,163797,650802
2096921,2096921,163840,650683
2096921,2096921,163914,650704
2096921,2096921,163912,650562
2096921,2096921,163931,650552
2096921,2096921,163804,650550
2096921,2096921,163671,650965
2096921,2096921,163737,650913
2096921,2096921,164103,650720
2096921,2096921,164169,651011
2096921,2096921,164007,650913
2096921,2096921,163824,650908
2096921,2096921,164101,651015
2096921,2096921,163926,651194
2096921,2096921,164317,651134
2096921,2096921,164173,650986
2096921,2096921,164085,651234
2096921,2096921,164030,651975
2096921,2096921,164326,652062
2096921,2096921,164309,652002
2096921,2096921,164381,651882
2096921,2096921,164217,651880
2096921,2096921,164466,652392
2096921,2096921,164416,652499
2096921,2096921,164289,652733
2096921,2096921,164510,652836
2096921,2096921,164718,652465
2096921,2096921,164731,653204
2096921,2096921,164885,653583
2096921,2096921,164672,653300
2096921,2096921,164992,653477
2096921,2096921,164691,653580
2096921,2096921,164792,654002
2096921,2096921,165127,654009
2096921,2096921,165235,654078
2096921,2096921,165039,654150
2096921,2096921,164800,654206
2096921,2096921,165330,654846
2096921,2096921,165100,655040
2096921,2096921,165157,655075
2096921,2096921,165500,655046
2096921,2096921,165479,655115
2096921,2096921,165577,655549
2096921,2096921,165790,655758
2096921,2096921,165666,655836
2096921,2096921,165937,655735
2096921,2096921,165742,655717
2096921,2096921,165608,655985
2096921,2096921,165589,656399
2096921,2096921,165634,656307
2096921,2096921,165595,656500
2096921,2096921,165949,656423
2096921,2096921,165912,657407
2096921,2096921,166147,657328
2096921,2096921,166596,657465
2096921,2096921,166276,657431
2096921,2096921,166241,657170
2096921,2096921,166295,657578
2096921,2096921,166251,658186
2096921,2096921,166276,658117
2096921,2096921,166429,658179
2096921,2096921,166196,658198
2096921,2096921,166488,658627
2096921,2096921,166903,658934
2096921,2096921,166710,658792
2096921,2096921,166814,658855
2096921,2096921,166671,658720
2096921,2096921,166882,659656
2096921,2096921,166763,659753
2096921,2096921,166944,659883
2096921,2096921,166931,659770
2096921,2096921,167151,659770
2096921,2096921,167265,660271
2096921,2096921,167345,660366
2096921,2096921,167338,660519
2096921,2096921,167114,660628
2096921,2096921,167252,660446
2096921,2096921,167510,660933
2096921,2096921,167394,661175
2096921,2096921,167561,661173
2096921,2096921,167432,661067
2096921,2096921,167093,661110
2096921,2096921,167573,661692
2096921,2096921,167952,661745
2096921,2096921,167839,661413
2096921,2096921,167632,661414
2096921,2096921,167605,661633
2096921,2096921,168014,662063
2096921,2096921,168000,662048
2096921,2096921,167913,661991
2096921,2096921,167673,661939
2096921,2096921,167643,662106
2096921,2096921,167728,662419
2096921,2096921,167943,662593
2096921,2096921,167633,662748
2096921,2096921,167758,662401
2096921,2096921,167910,662376
2096921,2096921,167805,662548
2096921,2096921,167754,662676
2096921,2096921,167530,662713
2096921,2096921,167985,662417
2096921,2096921,168094,662463
2096921,2096921,168022,662521
2096921,2096921,168024,662471
2096921,2096921,167920,662337
2096921,2096921,167908,662492
2096921,2096921,168225,662487
2096921,2096921,168000,662595
2096921,2096921,167813,662720
2096921,2096921,167822,662641
2096921,2096921,168176,662334
2096921,2096921,167797,662341
2096921,2096921,167877,661990
2096921,2096921,167904,661856
2096921,2096921,167869,662100
2096921,2096921,167940,662046
2096921,2096921,167961,662403
2096921,2096921,167679,661771
2096921,2096921,167635,661868
2096921,2096921,167593,661941
2096921,2096921,167804,662011
2096921,2096921,167822,661950
2096921,2096921,167512,661471
2096921,2096921,167402,661207
2096921,2096921,167565,661139
2096921,2096921,167379,661636
2096921,2096921,167453,661398
2096921,2096921,167425,661209
2096921,2096921,167500,661219
2096921,2096921,167504,661088
2096921,2096921,167427,661104
2096921,2096921,167267,661009
2096921,2096921,167216,660843
2096921,2096921,167314,660756
2096921,2096921,167509,660664
2096921,2096921,167413,660512
2096921,2096921,166922,660763
2096921,2096921,167252,660426
2096921,2096921,167452,660407
2096921,2096921,167249,660826
2096921,2096921,167266,660481
2096921,2096921,167278,660697
2096921,2096921,167354,660781
2096921,2096921,167368,660578
2096921,2096921,167465,660568
2096921,2096921,167318,660656
2096921,2096921,167091,660424
2096921,2096921,167213,660649
2096921,2096921,167286,660939
2096921,2096921,167381,660580
2096921,2096921,167534,660467
2096921,2096921,167493,660305
2096921,2096921,167351,660299
2096921,2096921,167145,660553
2096921,2096921,167184,660577
2096921,2096921,167323,660449
2096921,2096921,167378,660601
2096921,2096921,167207,660633
2096921,2096921,167612,660814
2096921,2096921,167455,661262
2096921,2096921,167469,660930
2096921,2096921,167411,660769
2096921,2096921,167755,661198
2096921,2096921,167599,661195
2096921,2096921,167438,661400
2096921,2096921,167524,661209
2096921,2096921,167497,661595
2096921,2096921,167771,661922
2096921,2096921,167614,661803
2096921,2096921,167807,661820
2096921,2096921,167708,661947
2096921,2096921,167720,661914
2096921,2096921,167830,661956
2096921,2096921,168183,662256
2096921,2096921,167980,662540
2096921,2096921,168050,662729
2096921,2096921,167675,662765
2096921,2096921,168043,663068
2096921,2096921,167938,663181
2096921,2096921,168262,663091
2096921,2096921,168135,662863
2096921,2096921,168073,662744
2096921,2096921,168125,663407
2096921,2096921,168174,663353
2096921,2096921,168205,663513
2096921,2096921,168101,663289
2096921,2096921,168345,663410
2096921,2096921,168443,663677
2096921,2096921,168528,663929
2096921,2096921,168649,663936
2096921,2096921,168476,663771
2096921,2096921,168300,663659
2096921,2096921,168524,663908
2096921,2096921,168794,664202
2096921,2096921,168739,664231
2096921,2096921,168676,664282
2096921,2096921,168718,664350
2096921,2096921,168767,664432
2096921,2096921,168716,664773
2096921,2096921,168833,664923
2096921,2096921,168645,664640
2096921,2096921,168670,664459
2096921,2096921,169093,664846
2096921,2096921,168962,665021
2096921,2096921,168823,664891
2096921,2096921,168716,665216
2096921,2096921,169100,665165
2096921,2096921,169031,665396
2096921,2096921,169028,665448
2096921,2096921,169011,665625
2096921,2096921,169399,665769
2096921,2096921,169085,665426
2096921,2096921,169295,665548
2096921,2096921,168794,665858
2096921,2096921,169298,665950
2096921,2096921,169255,665813
2096921,2096921,169448,665842
2096921,2096921,169143,666341
2096921,2096921,169350,666583
2096921,2096921,169302,666505
2096921,2096921,169721,666317
2096921,2096921,169206,666056
2096921,2096921,169449,666380
2096921,2096921,169675,666404
2096921,2096921,169431,666555
2096921,2096921,169060,666688
2096921,2096921,169066,666729
2096921,2096921,169410,667066
2096921,2096921,169351,667021
2096921,2096921,169515,666817
2096921,2096921,169461,666810
2096921,2096921,169504,666821
2096921,2096921,169734,667512
2096921,2096921,169835,667321
2096921,2096921,169713,667382
2096921,2096921,169628,667491
2096921,2096921,169775,667231
2096921,2096921,169759,667551
2096921,2096921,169734,667738
2096921,2096921,169809,667781
2096921,2096921,169811,667775
2096921,2096921,169772,667498
2096921,2096921,170131,667975
2096921,2096921,169888,668101
2096921,2096921,170071,668229
2096921,2096921,169999,668088
2096921,2096921,169779,668290
2096921,2096921,170044,668452
2096921,2096921,169909,668414
2096921,2096921,169927,668598
2096921,2096921,169970,668377
2096921,2096921,170184,668534
2096921,2096921,170130,668573
2096921,2096921,170096,668696
2096921,2096921,170335,668800
2096921,2096921,170243,668825
2096921,2096921,169978,668739
2096921,2096921,170191,668950
2096921,2096921,170471,669063
2096921,2096921,170155,668884
2096921,2096921,170183,669172
2096921,2096921,170017,669238
2096921,2096921,170105,669048
2096921,2096921,170327,669057
2096921,2096921,170353,668894
2096921,2096921,170425,669157
2096921,2096921,170340,669328
2096921,2096921,170369,669151
2096921,2096921,170388,669110
2096921,2096921,170239,669371
2096921,2096921,170198,669141
2096921,2096921,170535,669455
2096921,2096921,170406,669762
2096921,2096921,170551,669445
2096921,2096921,170587,669681
2096921,2096921,170618,669686
2096921,2096921,170495,669536
2096921,2096921,170732,670032
2096921,2096921,170476,669785
2096921,2096921,170611,669854
2096921,2096921,170804,670233
2096921,2096921,170696,670106
2096921,2096921,170418,669890
2096921,2096921,170728,670460
2096921,2096921,170917,670317
2096921,2096921,170710,670370
2096921,2096921,170790,669985
2096921,2096921,170829,670015
2096921,2096921,170643,670298
2096921,2096921,170567,669985
2096921,2096921,170786,670185
2096921,2096921,170563,670283
2096921,2096921,170788,670176
2096921,2096921,170917,670544
2096921,2096921,170856,670738
2096921,2096921,170870,670289
2096921,2096921,170688,670307
2096921,2096921,170769,670601
2096921,2096921,170575,670407
2096921,2096921,170807,670689
2096921,2096921,170687,670433
2096921,2096921,170532,670419
2096921,2096921,170959,670694
2096921,2096921,170585,671209
2096921,2096921,171045,670853
2096921,2096921,170884,670752
2096921,2096921,170753,670951
2096921,2096921,170590,670937
2096921,2096921,170869,670791
2096921,2096921,170729,670590
2096921,2096921,170725,670904
2096921,2096921,170871,670885
2096921,2096921,171074,670955
2096921,2096921,171014,670806
2096921,2096921,171086,670753
2096921,2096921,170958,670718
2096921,2096921,170915,670621
2096921,2096921,171196,670763
2096921,2096921,171088,670988
2096921,2096921,171105,671196
2096921,2096921,171097,671086
2096921,2096921,171267,670911
2096921,2096921,170935,670958
2096921,2096921,171116,671205
2096921,2096921,170787,670878
2096921,2096921,171182,671159
2096921,2096921,171231,670915
2096921,2096921,171066,671148
2096921,2096921,170847,671126
2096921,2096921,170972,671072
2096921,2096921,170942,671246
2096921,2096921,171214,671452
2096921,2096921,171231,671594
2096921,2096921,171131,671672
2096921,2096921,171047,671504
2096921,2096921,171243,671431
2096921,2096921,171213,671504
2096921,2096921,170946,671386
2096921,2096921,171167,671571
2096921,2096921,171191,671309
2096921,2096921,171176,671294
2096921,2096921,171069,671120
2096921,2096921,171001,671632
2096921,2096921,171004,671279
2096921,2096921,171070,671616
2096921,2096921,171210,671671
2096921,2096921,171202,671488
2096921,2096921,171279,671616
2096921,2096921,171491,671690
2096921,2096921,171111,671480
2096921,2096921,171453,671518
2096921,2096921,171164,671358
2096921,2096921,171227,671863
2096921,2096921,171249,671952
2096921,2096921,171608,671910
2096921,2096921,171366,671868
2096921,2096921,171349,671750
2096921,2096921,171290,671746
2096921,2096921,171550,671811
2096921,2096921,171452,671919
2096921,2096921,171230,671847
2096921,2096921,171253,671899
2096921,2096921,171212,671829
2096921,2096921,171457,671724
2096921,2096921,171649,671996
2096921,2096921,171241,671829
2096921,2096921,171387,671861
2096921,2096921,171249,671924
2096921,2096921,171320,671839
2096921,2096921,171328,671811
2096921,2096921,171354,671447
2096921,2096921,171203,672100
2096921,2096921,171501,671931
2096921,2096921,171381,672029
2096921,2096921,171428,672091
2096921,2096921,171512,672150
2096921,2096921,171241,672129
2096921,2096921,171552,671853
2096921,2096921,171344,671894
2096921,2096921,171287,672027
2096921,2096921,171355,672048
2096921,2096921,171491,671757
2096921,2096921,171413,671838
2096921,2096921,171563,671673
2096921,2096921,171426,672381
2096921,2096921,171310,672032
2096921,2096921,171723,672128
2096921,2096921,171890,671845
2096921,2096921,171823,671921
2096921,2096921,171532,672048
2096921,2096921,171414,671892
2096921,2096921,171361,671938
2096921,2096921,171566,671885
2096921,2096921,171387,672146
2096921,2096921,171518,671845
2096921,2096921,171360,671991
2096921,2096921,171385,672099
2096921,2096921,171202,671977
2096921,2096921,171490,671943
2096921,2096921,171240,671985
2096921,2096921,171206,671717
2096921,2096921,171397,671918
2096921,2096921,171141,671881
2096921,2096921,171574,671861
2096921,2096921,171531,671769
2096921,2096921,171802,671861
2096921,2096921,171621,671704
2096921,2096921,171499,671935
2096921,2096921,171396,671623
2096921,2096921,171634,671797
2096921,2096921,171452,671485
2096921,2096921,171412,671718
2096921,2096921,171310,671833
2096921,2096921,171358,671840
2096921,2096921,171262,671995
2096921,2096921,171406,671859
2096921,2096921,171236,671874
2096921,2096921,171523,672048
2096921,2096921,171353,672036
2096921,2096921,171436,671938
2096921,2096921,171461,671645
2096921,2096921,171250,671829
2096921,2096921,171305,671856
2096921,2096921,171559,671748
2096921,2096921,171537,671803
2096921,2096921,171365,671878
2096921,2096921,171464,671654
2096921,2096921,170919,671189
2096921,2096921,170809,670471
2096921,2096921,170842,670722
2096921,2096921,171216,670846
2096921,2096921,171285,670790
2096921,2096921,171015,670311
2096921,2096921,170693,670356
2096921,2096921,170697,670008
2096921,2096921,170904,670045
2096921,2096921,170728,670114
2096921,2096921,170207,668798
2096921,2096921,170225,668635
2096921,2096921,170403,668449
2096921,2096921,170297,668796
2096921,2096921,170439,668649
2096921,2096921,169829,667304
2096921,2096921,170122,667172
2096921,2096921,170035,666981
2096921,2096921,169684,666788
2096921,2096921,169874,666933
2096921,2096921,169500,665847
2096921,2096921,169443,665367
2096921,2096921,169127,665410
2096921,2096921,169430,665431
2096921,2096921,169007,665474
2096921,2096921,168051,662306
2096921,2096921,167913,661707
2096921,2096921,167759,661493
2096921,2096921,167772,661384
2096921,2096921,167834,661212
2096921,2096921,166493,657538
2096921,2096921,166609,656629
2096921,2096921,166388,656579
2096921,2096921,166492,656843
2096921,2096921,166306,656368
2096921,2096921,165346,653693
2096921,2096921,165256,652904
2096921,2096921,165151,652803
2096921,2096921,164947,652484
2096921,2096921,165130,652731
2096921,2096921,164265,650627
2096921,2096921,164288,649894
2096921,2096921,163921,649934
2096921,2096921,164104,649964
2096921,2096921,164489,649975
2096921,2096921,163429,648416
2096921,2096921,163533,648242
2096921,2096921,163395,647842
2096921,2096921,163533,647975
2096921,2096921,163286,647904
2096921,2096921,163314,646997
2096921,2096921,162989,646550
2096921,2096921,163162,646683
2096921,2096921,162958,646687
2096921,2096921,162714,646651
2096921,2096921,162480,645973
2096921,2096921,162555,645600
2096921,2096921,162277,645459
2096921,2096921,162666,645486
2096921,2096921,162517,645635
2096921,2096921,162132,645011
2096921,2096921,162030,644885
2096921,2096921,161945,644798
2096921,2096921,162226,644769
2096921,2096921,162032,644519
2096921,2096921,162355,644736
2096921,2096921,162378,644775
2096921,2096921,162196,644540
2096921,2096921,162272,644635
2096921,2096921,162392,644521
2096921,2096921,162428,644806
2096921,2096921,162329,644657
2096921,2096921,162068,644622
2096921,2096921,162312,644581
2096921,2096921,162249,644399
2096921,2096921,162307,644632
2096921,2096921,162594,645202
2096921,2096921,162372,645069
2096921,2096921,162606,645073
2096921,2096921,162355,645039
2096921,2096921,162258,645344
2096921,2096921,162564,645252
2096921,2096921,162491,645280
2096921,2096921,162492,645347
2096921,2096921,162491,645310
2096921,2096921,162547,645616
2096921,2096921,162209,645561
2096921,2096921,162681,645401
2096921,2096921,162890,645564
2096921,2096921,162614,645406
2096921,2096921,162780,645943
2096921,2096921,162923,646097
2096921,2096921,162723,646226
2096921,2096921,162710,646551
2096921,2096921,162886,646147
2096921,2096921,162986,646630
2096921,2096921,162929,646929
2096921,2096921,162880,646992
2096921,2096921,163119,647097
2096921,2096921,163043,647258
2096921,2096921,163317,647888
2096921,2096921,163035,647983
2096921,2096921,163363,647684
2096921,2096921,163155,648138
2096921,2096921,163207,648241
2096921,2096921,163388,648350
2096921,2096921,163625,648582
2096921,2096921,163708,648662
2096921,2096921,163545,648740
2096921,2096921,163892,648816
2096921,2096921,163825,649507
2096921,2096921,163912,649624
2096921,2096921,163687,649649
2096921,2096921,163732,649502
2096921,2096921,163712,649627
2096921,2096921,164161,650167
2096921,2096921,164116,650584
2096921,2096921,164055,650352
2096921,2096921,164252,650352
2096921,2096921,164428,650308
2096921,2096921,164390,651050
2096921,2096921,164451,651139
2096921,2096921,164127,650999
2096921,2096921,164381,651361
2096921,2096921,164552,651180
2096921,2096921,164735,651700
2096921,2096921,164734,652198
2096921,2096921,164784,652257
2096921,2096921,164900,652179
2096921,2096921,164916,652198
2096921,2096921,165022,652846
2096921,2096921,165034,652720
2096921,2096921,165144,652967
2096921,2096921,165182,652918
2096921,2096921,165111,653047
2096921,2096921,165545,653943
2096921,2096921,165663,654201
2096921,2096921,165472,654133
2096921,2096921,165389,653905
2096921,2096921,165073,653927
2096921,2096921,165406,654813
2096921,2096921,165251,654750
2096921,2096921,165537,654665
2096921,2096921,165605,654804
2096921,2096921,165604,654820
2096921,2096921,165878,655568
2096921,2096921,165979,656008
2096921,2096921,166089,656006
2096921,2096921,165927,655512
2096921,2096921,165971,655582
2096921,2096921,166082,656242
2096921,2096921,166261,656297
2096921,2096921,166113,656362
2096921,2096921,166166,656424
2096921,2096921,165866,656329
2096921,2096921,166322,657070
2096921,2096921,166523,656799
2096921,2096921,166352,657173
2096921,2096921,166082,656778
2096921,2096921,166418,657074
2096921,2096921,166407,657268
2096921,2096921,166272,657515
2096921,2096921,166574,657415
2096921,2096921,166550,657663
2096921,2096921,166418,657821
2096921,2096921,166775,657747
2096921,2096921,166502,657679
2096921,2096921,166796,657698
2096921,2096921,166687,657753
2096921,2096921,166844,658096
2096921,2096921,166433,658109
2096921,2096921,166822,658225
2096921,2096921,166878,658245
2096921,2096921,166616,658180
2096921,2096921,166713,658021
2096921,2096921,166962,657977
2096921,2096921,166498,658180
2096921,2096921,166632,658294
2096921,2096921,166799,658241
2096921,2096921,167013,658078
2096921,2096921,166681,658139
2096921,2096921,166755,658139
2096921,2096921,166844,658229
2096921,2096921,166696,657991
2096921,2096921,166842,658234
2096921,2096921,166575,658296
2096921,2096921,166437,658009
2096921,2096921,166396,657880
2096921,2096921,166605,657912
2096921,2096921,166326,657896
2096921,2096921,166685,657548
2096921,2096921,166578,657725
2096921,2096921,166759,657729
2096921,2096921,166404,657733
2096921,2096921,166496,657714
2096921,2096921,166348,657509
2096921,2096921,166632,657247
2096921,2096921,166536,657353
2096921,2096921,166335,657152
2096921,2096921,166720,657429
2096921,2096921,166162,656937
2096921,2096921,166454,657010
2096921,2096921,166428,656962
2096921,2096921,166739,656955
2096921,2096921,166502,656702
2096921,2096921,166459,656774
2096921,2096921,166280,656850
2096921,2096921,166312,656924
2096921,2096921,166378,656940
2096921,2096921,166472,656782
2096921,2096921,166276,656657
2096921,2096921,166390,656844
2096921,2096921,166077,656857
2096921,2096921,166097,656773
2096921,2096921,166328,656754
2096921,2096921,166340,656533
2096921,2096921,166424,656757
2096921,2096921,166300,656838
2096921,2096921,166345,657190
2096921,2096921,166448,657171
2096921,2096921,166452,657077
2096921,2096921,166313,656685
2096921,2096921,166432,657015
2096921,2096921,166391,656863
2096921,2096921,166254,656931
2096921,2096921,166308,657151
2096921,2096921,166541,657001
2096921,2096921,166488,657156
2096921,2096921,166670,657261
2096921,2096921,166462,656958
2096921,2096921,166523,657344
2096921,2096921,166492,657317
2096921,2096921,166581,657150
2096921,2096921,166348,657274
2096921,2096921,166298,657424
2096921,2096921,166825,657926
2096921,2096921,166852,657886
2096921,2096921,166637,658212
2096921,2096921,166771,658247
2096921,2096921,166742,658114
2096921,2096921,166875,658612
2096921,2096921,167055,658780
2096921,2096921,166828,658425
2096921,2096921,166966,658529
2096921,2096921,166799,658873
2096921,2096921,166926,659580
2096921,2096921,167118,659474
2096921,2096921,167260,659263
2096921,2096921,167251,659530
2096921,2096921,167221,659649
2096921,2096921,167536,659368
2096921,2096921,167529,659958
2096921,2096921,167373,659881
2096921,2096921,167557,659995
2096921,2096921,167284,660163
2096921,2096921,167534,660618
2096921,2096921,167447,660797
2096921,2096921,167717,660524
2096921,2096921,167469,660363
2096921,2096921,167817,660470
2096921,2096921,167629,660811
2096921,2096921,167751,661079
2096921,2096921,167724,661363
2096921,2096921,167658,661271
2096921,2096921,167645,661106
2096921,2096921,167826,661486
2096921,2096921,167824,661523
2096921,2096921,167599,661812
2096921,2096921,167777,661484
2096921,2096921,167766,661284
2096921,2096921,167885,662087
2096921,2096921,168059,662265
2096921,2096921,167982,661986
2096921,2096921,167847,661875
2096921,2096921,168041,662025
2096921,2096921,168265,662362
2096921,2096921,168063,662282
2096921,2096921,168230,662358
2096921,2096921,168109,662609
2096921,2096921,168359,662489
2096921,2096921,168365,662992
2096921,2096921,168598,663434
2096921,2096921,168735,663154
2096921,2096921,168253,663220
2096921,2096921,168255,662938
2096921,2096921,168232,663475
2096921,2096921,168650,663629
2096921,2096921,168487,663623
2096921,2096921,168522,663290
2096921,2096921,168673,663711
2096921,2096921,168720,664247
2096921,2096921,168666,664115
2096921,2096921,168759,663848
2096921,2096921,168867,663975
2096921,2096921,168984,664448
2096921,2096921,168804,664742
2096921,2096921,168904,664790
2096921,2096921,168824,664609
2096921,2096921,169017,664623
2096921,2096921,169066,664573
2096921,2096921,169014,665035
2096921,2096921,168707,665242
2096921,2096921,168996,665013
2096921,2096921,169192,664808
2096921,2096921,169260,664860
2096921,2096921,169202,665569
2096921,2096921,168974,665588
2096921,2096921,168906,665754
2096921,2096921,169100,665730
2096921,2096921,169339,665862
2096921,2096921,169458,666254
2096921,2096921,169595,666052
2096921,2096921,169595,666404
2096921,2096921,169394,666166
2096921,2096921,169439,665850
2096921,2096921,169590,666390
2096921,2096921,169551,666533
2096921,2096921,169496,666692
2096921,2096921,169468,666745
2096921,2096921,169467,666719
2096921,2096921,169783,667115
2096921,2096921,169857,666965
2096921,2096921,169943,666953
2096921,2096921,169902,666914
2096921,2096921,169533,666820
2096921,2096921,169479,667049
2096921,2096921,169708,667246
2096921,2096921,169735,667317
2096921,2096921,169944,667550
2096921,2096921,169469,667406
2096921,2096921,169910,667670
2096921,2096921,169863,667792
2096921,2096921,169786,667599
2096921,2096921,169731,667589
2096921,2096921,169877,667616
2096921,2096921,169863,668227
2096921,2096921,170015,668087
2096921,2096921,170006,668043
2096921,2096921,169935,668489
2096921,2096921,170106,668312
2096921,2096921,170247,668403
2096921,2096921,170274,668686
2096921,2096921,169959,668335
2096921,2096921,170225,668479
2096921,2096921,170328,668522
2096921,2096921,170149,668791
2096921,2096921,170107,668629
2096921,2096921,170252,669219
2096921,2096921,170252,669094
2096921,2096921,170301,668753
2096921,2096921,170311,669206
2096921,2096921,170278,669198
2096921,2096921,170655,669319
2096921,2096921,170753,669419
2096921,2096921,170308,669227
2096921,2096921,170718,669456
2096921,2096921,170580,669660
2096921,2096921,170648,669860
2096921,2096921,170542,669584
2096921,2096921,170584,669706
2096921,2096921,170647,669712
2096921,2096921,170671,669799
2096921,2096921,170618,669934
2096921,2096921,170530,669931
2096921,2096921,170585,670133
2096921,2096921,170898,670219
2096921,2096921,170970,670281
2096921,2096921,170790,670091
2096921,2096921,170858,670153
2096921,2096921,170883,670450
2096921,2096921,170633,670483
2096921,2096921,170829,670549
2096921,2096921,170979,670502
2096921,2096921,170966,670396
2096921,2096921,170749,670518
2096921,2096921,170955,670860
2096921,2096921,170901,671086
2096921,2096921,170830,671051
2096921,2096921,170732,670660
2096921,2096921,171219,670990
2096921,2096921,170876,671018
2096921,2096921,171119,671106
2096921,2096921,171157,670960
2096921,2096921,171027,670830
2096921,2096921,171303,670904
2096921,2096921,171180,671514
2096921,2096921,171070,671244
2096921,2096921,171120,671344
2096921,2096921,171056,671464
2096921,2096921,171274,671594
2096921,2096921,171108,671290
2096921,2096921,171056,671663
2096921,2096921,171030,671827
2096921,2096921,171096,671619
2096921,2096921,171317,671482
2096921,2096921,171189,672153
2096921,2096921,171253,672004
2096921,2096921,171740,671825
2096921,2096921,171250,671624
2096921,2096921,171392,671658
2096921,2096921,171251,671820
2096921,2096921,171189,671856
2096921,2096921,171320,672112
2096921,2096921,171267,672001
2096921,2096921,171432,671821
2096921,2096921,171577,672252
2096921,2096921,171426,672480
2096921,2096921,171406,672323
2096921,2096921,171182,672440
2096921,2096921,171605,672576
2096921,2096921,171524,672144
2096921,2096921,171571,672657
2096921,2096921,171468,672452
2096921,2096921,171524,672723
2096921,2096921,171305,672667
2096921,2096921,171486,672783
2096921,2096921,171701,672819
2096921,2096921,171518,672772
2096921,2096921,171685,672555
2096921,2096921,171650,672675
2096921,2096921,171646,673088
2096921,2096921,171878,672977
2096921,2096921,171489,673304
2096921,2096921,171722,673045
2096921,2096921,171557,672879
2096921,2096921,171549,673219
2096921,2096921,171995,673129
2096921,2096921,172001,673277
2096921,2096921,171612,673226
2096921,2096921,171711,673323
2096921,2096921,171870,673465
2096921,2096921,171754,673436
2096921,2096921,171861,673137
2096921,2096921,171783,673276
2096921,2096921,172051,673523
2096921,2096921,171838,673152
2096921,2096921,172028,673334
2096921,2096921,171719,673478
2096921,2096921,171717,673339
2096921,2096921,171982,673600
2096921,2096921,171674,673748
2096921,2096921,171821,673870
2096921,2096921,171697,673914
2096921,2096921,171880,673924
2096921,2096921,171912,673802
2096921,2096921,171881,673934
2096921,2096921,172054,673782
2096921,2096921,172004,673944
2096921,2096921,171892,674154
2096921,2096921,172099,673940
2096921,2096921,172058,673975
2096921,2096921,172064,674017
2096921,2096921,171918,674215
2096921,2096921,171918,674113
2096921,2096921,172011,674158
2096921,2096921,172093,674187
2096921,2096921,172076,674047
2096921,2096921,172016,674111
2096921,2096921,171779,673993
2096921,2096921,172046,674235
2096921,2096921,171798,674251
2096921,2096921,171821,674332
2096921,2096921,172003,674426
2096921,2096921,172052,674220
2096921,2096921,172203,674386
2096921,2096921,172056,674486
2096921,2096921,172085,674412
2096921,2096921,172297,674454
2096921,2096921,172096,674638
2096921,2096921,172128,674447
2096921,2096921,172052,674579
2096921,2096921,171932,674537
2096921,2096921,171923,674314
2096921,2096921,172051,674606
2096921,2096921,172067,674679
2096921,2096921,172165,674670
2096921,2096921,172165,674549
2096921,2096921,171858,674816
2096921,2096921,172300,674817
2096921,2096921,171919,674648
2096921,2096921,172072,674810
2096921,2096921,172131,674442
2096921,2096921,172070,674619
2096921,2096921,171915,674519
2096921,2096921,171939,674653
2096921,2096921,172018,674884
2096921,2096921,171961,674713
2096921,2096921,172154,675026
2096921,2096921,172075,674676
2096921,2096921,172080,674909
2096921,2096921,172288,674860
2096921,2096921,172286,674986
2096921,2096921,172156,674672
2096921,2096921,172166,674861
2096921,2096921,172270,674555
2096921,2096921,172181,674805
2096921,2096921,172051,675062
2096921,2096921,172213,675154
2096921,2096921,172356,674988
2096921,2096921,172312,674794
2096921,2096921,171791,674430
2096921,2096921,171952,674042
2096921,2096921,171796,673900
2096921,2096921,171778,673842
2096921,2096921,171867,673646
2096921,2096921,171546,673394
2096921,2096921,171366,673201
2096921,2096921,171659,673714
2096921,2096921,171782,673692
2096921,2096921,171607,673597
2096921,2096921,171480,672825
2096921,2096921,171178,672421
2096921,2096921,171237,672264
2096921,2096921,171139,671922
2096921,2096921,171057,672213
2096921,2096921,170742,671144
2096921,2096921,170796,670875
2096921,2096921,170877,670847
2096921,2096921,170906,670843
2096921,2096921,170898,670903
2096921,2096921,170266,669476
2096921,2096921,169951,669238
2096921,2096921,170285,669131
2096921,2096921,170354,668970
2096921,2096921,170312,669117
2096921,2096921,168938,666299
2096921,2096921,168789,665252
2096921,2096921,168896,665630
2096921,2096921,168944,665205
2096921,2096921,168752,665046
2096921,2096921,167653,661151
2096921,2096921,167121,660370
2096921,2096921,167367,660168
2096921,2096921,167331,660156
2096921,2096921,167292,660331
2096921,2096921,166315,657413
2096921,2096921,166188,656936
2096921,2096921,166171,656697
2096921,2096921,166229,656903
2096921,2096921,166117,656923
2096921,2096921,165527,654661
2096921,2096921,165349,654322
2096921,2096921,164947,653985
2096921,2096921,164776,654010
2096921,2096921,164996,653954
2096921,2096921,164479,652481
2096921,2096921,164283,651867
2096921,2096921,164599,652145
2096921,2096921,164432,651903
2096921,2096921,164469,651988
2096921,2096921,164069,650879
2096921,2096921,163874,650515
2096921,2096921,163999,650487
2096921,2096921,163726,650778
2096921,2096921,163768,650886
2096921,2096921,163748,650025
2096921,2096921,163512,650109
2096921,2096921,163399,649532
2096921,2096921,163429,649757
2096921,2096921,163705,649287
2096921,2096921,163566,649275
2096921,2096921,163419,648911
2096921,2096921,163535,649122
2096921,2096921,163528,648946
2096921,2096921,163641,649157
2096921,2096921,163317,648944
2096921,2096921,163548,649101
2096921,2096921,163631,649114
2096921,2096921,163513,649054
2096921,2096921,163221,649011
2096921,2096921,163098,648994
2096921,2096921,163228,648820
2096921,2096921,163438,648870
2096921,2096921,163271,649111
2096921,2096921,163272,648650
2096921,2096921,163434,649055
2096921,2096921,163139,649219
2096921,2096921,163386,649317
2096921,2096921,163619,649252
2096921,2096921,163485,649302
2096921,2096921,163630,650003
2096921,2096921,163426,649731
2096921,2096921,163752,649901
2096921,2096921,163710,649944
2096921,2096921,163524,650006
2096921,2096921,163881,650033
2096921,2096921,163977,650040
2096921,2096921,163811,650240
2096921,2096921,163887,650084
2096921,2096921,163851,650208
2096921,2096921,163914,650774
2096921,2096921,163920,651102
2096921,2096921,164011,650803
2096921,2096921,163834,651006
2096921,2096921,163783,651009
2096921,2096921,164137,651594
2096921,2096921,164353,651842
2096921,2096921,164251,651846
2096921,2096921,164357,651796
2096921,2096921,164356,651901
2096921,2096921,164559,652706
2096921,2096921,164619,652800
2096921,2096921,164352,652930
2096921,2096921,164501,652663
2096921,2096921,164776,652729
2096921,2096921,164914,653495
2096921,2096921,165069,653805
2096921,2096921,165057,654166
2096921,2096921,164931,653882
2096921,2096921,164821,653654
2096921,2096921,165022,654391
2096921,2096921,165433,654609
2096921,2096921,165290,654720
2096921,2096921,165169,654617
2096921,2096921,165121,654612
2096921,2096921,165598,655340
2096921,2096921,165810,655647
2096921,2096921,165548,655798
2096921,2096921,165567,655622
2096921,2096921,165993,655498
2096921,2096921,165834,656014
2096921,2096921,165549,656260
2096921,2096921,165867,656253
2096921,2096921,165752,656311
2096921,2096921,165754,656406
2096921,2096921,165944,657202
2096921,2096921,166377,657431
2096921,2096921,166230,657387
2096921,2096921,166340,657614
2096921,2096921,166401,657362
2096921,2096921,166328,658071
2096921,2096921,166280,658160
2096921,2096921,166366,657927
2096921,2096921,166250,658122
2096921,2096921,166326,657973
2096921,2096921,166717,659016
2096921,2096921,167172,658967
2096921,2096921,166816,659199
2096921,2096921,166793,659146
2096921,2096921,166883,659228
2096921,2096921,167065,659878
2096921,2096921,167123,660326
2096921,2096921,167017,660496
2096921,2096921,167424,660506
2096921,2096921,167130,660326
2096921,2096921,167134,661174
2096921,2096921,167224,661349
2096921,2096921,167605,661228
2096921,2096921,167386,661151
2096921,2096921,167328,661468
2096921,2096921,167461,661877
2096921,2096921,167470,661970
2096921,2096921,167691,662021
2096921,2096921,167915,661917
2096921,2096921,167675,662183
2096921,2096921,167956,662576
2096921,2096921,167783,662572
2096921,2096921,167741,662801
2096921,2096921,167810,662713
2096921,2096921,168151,662761
2096921,2096921,168046,663025
2096921,2096921,167990,662939
2096921,2096921,167975,663147
2096921,2096921,168196,663446
2096921,2096921,168185,663402
2096921,2096921,168178,663632
2096921,2096921,168119,663591
2096921,2096921,168173,663742
2096921,2096921,168259,663543
2096921,2096921,168144,663848
2096921,2096921,168323,663863
2096921,2096921,168097,664047
2096921,2096921,168317,664042
2096921,2096921,168310,664106
2096921,2096921,168412,663792
2096921,2096921,168386,663777
2096921,2096921,168279,663736
2096921,2096921,168481,664017
2096921,2096921,168144,663843
2096921,2096921,168291,664236
2096921,2096921,168290,664142
2096921,2096921,168618,664143
2096921,2096921,168473,664030
2096921,2096921,168581,664137
2096921,2096921,168492,664051
2096921,2096921,168290,663879
2096921,2096921,168237,663950
2096921,2096921,168556,663912
2096921,2096921,168549,663760
2096921,2096921,168200,663728
2096921,2096921,168157,663910
2096921,2096921,168127,663768
2096921,2096921,168283,663863
2096921,2096921,168424,663804
2096921,2096921,168222,663601
2096921,2096921,168087,663437
2096921,2096921,168077,663387
2096921,2096921,168063,663572
2096921,2096921,168208,663124
2096921,2096921,168220,663463
2096921,2096921,168083,663312
2096921,2096921,168102,662957
2096921,2096921,168099,663342
2096921,2096921,167935,662817
2096921,2096921,167885,663000
2096921,2096921,167811,663087
2096921,2096921,167943,663041
2096921,2096921,167777,663053
2096921,2096921,167767,663059
2096921,2096921,167922,662686
2096921,2096921,167999,662954
2096921,2096921,168205,662920
2096921,2096921,168077,662917
2096921,2096921,167814,663270
2096921,2096921,167850,662943
2096921,2096921,168006,662831
2096921,2096921,168025,663084
2096921,2096921,167704,663293
2096921,2096921,168215,663074
2096921,2096921,167922,662883
2096921,2096921,168213,663203
2096921,2096921,168130,663163
2096921,2096921,168059,662997
2096921,2096921,168142,663139
2096921,2096921,168107,663319
2096921,2096921,168106,663482
2096921,2096921,167946,663435
2096921,2096921,167765,663693
2096921,2096921,167938,663373
2096921,2096921,168206,663244
2096921,2096921,168142,663554
2096921,2096921,168108,663299
2096921,2096921,168196,663141
2096921,2096921,168237,663418
2096921,2096921,168171,663630
2096921,2096921,168500,664143
2096921,2096921,168624,664200
2096921,2096921,168464,664430
2096921,2096921,168416,664506
2096921,2096921,168401,664426
2096921,2096921,168555,664938
2096921,2096921,168616,665015
2096921,2096921,168386,665236
2096921,2096921,168604,664986
2096921,2096921,168323,665139
2096921,2096921,168480,665435
2096921,2096921,168636,665731
2096921,2096921,169009,665529
2096921,2096921,168759,665484
2096921,2096921,168896,665365
2096921,2096921,169136,666180
2096921,2096921,169124,666293
2096921,2096921,168901,666330
2096921,2096921,169029,666417
2096921,2096921,168878,666373
2096921,2096921,169220,666398
2096921,2096921,169182,666870
2096921,2096921,169426,666503
2096921,2096921,169216,666868
2096921,2096921,169375,666675
2096921,2096921,169328,667392
2096921,2096921,169492,667490
2096921,2096921,169368,667401
2096921,2096921,169540,667387
2096921,2096921,169632,667453
2096921,2096921,169718,667940
2096921,2096921,169604,667614
2096921,2096921,169434,667840
2096921,2096921,169539,667836
2096921,2096921,169587,668043
2096921,2096921,169813,668498
2096921,2096921,169912,668329
2096921,2096921,169972,668420
2096921,2096921,169733,668199
2096921,2096921,169994,668139
2096921,2096921,169882,668711
2096921,2096921,169687,668783
2096921,2096921,170051,668863
2096921,2096921,170027,668870
2096921,2096921,170032,668813
2096921,2096921,170304,669557
2096921,2096921,170291,669516
2096921,2096921,170169,669357
2096921,2096921,170329,669340
2096921,2096921,169957,669681
2096921,2096921,170383,669887
2096921,2096921,170169,670082
2096921,2096921,170315,670146
2096921,2096921,170264,669895
2096921,2096921,170498,669815
2096921,2096921,170508,670097
2096921,2096921,170304,670430
2096921,2096921,170271,670473
2096921,2096921,170442,670530
2096921,2096921,170560,670264
2096921,2096921,170370,670641
2096921,2096921,170503,670729
2096921,2096921,170583,670909
2096921,2096921,170440,671048
2096921,2096921,170502,670831
2096921,2096921,170813,671610
2096921,2096921,170659,671355
2096921,2096921,170731,671365
2096921,2096921,170657,671221
2096921,2096921,170451,671249
2096921,2096921,170945,671555
2096921,2096921,170886,671683
2096921,2096921,170981,671585
2096921,2096921,170993,671829
2096921,2096921,170951,671672
2096921,2096921,171324,672232
2096921,2096921,171269,672158
2096921,2096921,171166,672374
2096921,2096921,170962,672072
2096921,2096921,171184,672431
2096921,2096921,171136,672564
2096921,2096921,171038,672738
2096921,2096921,171265,672556
2096921,2096921,171102,672359
2096921,2096921,171001,672712
2096921,2096921,171151,672982
2096921,2096921,170898,672921
2096921,2096921,171262,672901
2096921,2096921,171293,672827
2096921,2096921,171506,672669
2096921,2096921,171522,673120
2096921,2096921,171543,673245
2096921,2096921,171484,673073
2096921,2096921,171412,673167
2096921,2096921,171218,673294
2096921,2096921,171609,673187
2096921,2096921,171722,673601
2096921,2096921,171426,673611
2096921,2096921,171504,673533
2096921,2096921,171719,673359
2096921,2096921,171720,673820
2096921,2096921,171660,673886
2096921,2096921,171463,673885
2096921,2096921,171602,674079
2096921,2096921,171729,674325
2096921,2096921,171776,674413
2096921,2096921,171810,674215
2096921,2096921,171631,674228
2096921,2096921,171790,674114
2096921,2096921,171771,674433
2096921,2096921,171958,674396
2096921,2096921,171595,674549
2096921,2096921,171870,674466
2096921,2096921,171902,674604
2096921,2096921,171949,674482
2096921,2096921,172127,674595
2096921,2096921,172234,675022
2096921,2096921,171985,675064
2096921,2096921,172005,674885
2096921,2096921,172182,675046
2096921,2096921,172024,675134
2096921,2096921,172329,675157
2096921,2096921,172052,675139
2096921,2096921,172238,675265
2096921,2096921,172162,675148
2096921,2096921,172225,675566
2096921,2096921,172003,675299
2096921,2096921,172182,675468
2096921,2096921,172107,675443
2096921,2096921,172154,675282
2096921,2096921,172287,675727
2096921,2096921,172256,675748
2096921,2096921,172095,675801
2096921,2096921,172387,675741
2096921,2096921,172499,676003
2096921,2096921,172478,675952
2096921,2096921,172198,675867
2096921,2096921,172045,675795
2096921,2096921,172138,675815
2096921,2096921,172281,675986
2096921,2096921,172323,676156
2096921,2096921,172360,676000
2096921,2096921,172288,676073
2096921,2096921,172355,676170
2096921,2096921,172372,676193
2096921,2096921,172236,676123
2096921,2096921,172402,676389
2096921,2096921,172343,676345
2096921,2096921,172343,676316
2096921,2096921,172426,676414
2096921,2096921,172684,676525
2096921,2096921,172556,676532
2096921,2096921,172672,676509
2096921,2096921,172399,676557
2096921,2096921,172897,676579
2096921,2096921,172526,676626
2096921,2096921,172685,676782
2096921,2096921,172351,676632
2096921,2096921,172738,676469
2096921,2096921,172652,676683
2096921,2096921,172407,676679
2096921,2096921,172879,676780
2096921,2096921,172681,676929
2096921,2096921,172711,676926
2096921,2096921,172759,676763
2096921,2096921,172841,677094
2096921,2096921,172509,676927
2096921,2096921,172860,676676
2096921,2096921,172684,676672
2096921,2096921,172714,676861
2096921,2096921,172561,677219
2096921,2096921,172645,676985
2096921,2096921,172578,677150
2096921,2096921,172887,677139
2096921,2096921,172698,677041
2096921,2096921,172974,677583
2096921,2096921,172841,677660
2096921,2096921,172934,677522
2096921,2096921,172764,677599
2096921,2096921,172575,677348
2096921,2096921,172887,677506
2096921,2096921,172796,677451
2096921,2096921,172896,677699
2096921,2096921,172895,677385
2096921,2096921,172541,677527
2096921,2096921,172879,677273
2096921,2096921,172998,677982
2096921,2096921,172878,677580
2096921,2096921,173125,677633
2096921,2096921,172924,677631
2096921,2096921,172970,677752
2096921,2096921,172968,677471
2096921,2096921,172820,677815
2096921,2096921,173015,677646
2096921,2096921,173318,677696
2096921,2096921,173190,677923
2096921,2096921,173226,677920
2096921,2096921,173290,677918
2096921,2096921,173203,677848
2096921,2096921,173102,677838
2096921,2096921,173061,678228
2096921,2096921,172868,678157
2096921,2096921,173225,678002
2096921,2096921,172677,678247
2096921,2096921,172960,678101
2096921,2096921,172865,678125
2096921,2096921,173069,677901
2096921,2096921,173061,678157
2096921,2096921,172849,678208
2096921,2096921,172860,678299
2096921,2096921,173023,678432
2096921,2096921,173163,678164
2096921,2096921,173066,677876
2096921,2096921,172882,677952
2096921,2096921,173102,677886
2096921,2096921,173362,678207
2096921,2096921,173101,678206
2096921,2096921,173156,678400
2096921,2096921,173192,678452
2096921,2096921,172916,678362
2096921,2096921,173221,678260
2096921,2096921,173150,678277
2096921,2096921,172922,678530
2096921,2096921,173041,678274
2096921,2096921,173120,678463
2096921,2096921,173142,678112
2096921,2096921,173214,678476
2096921,2096921,173201,678158
2096921,2096921,172957,678321
2096921,2096921,173129,678195
2096921,2096921,173313,678370
2096921,2096921,173068,678222
2096921,2096921,173168,678615
2096921,2096921,173097,678355
2096921,2096921,173162,678358
2096921,2096921,173038,678392
2096921,2096921,173091,678215
2096921,2096921,172847,678278
2096921,2096921,172914,678456
2096921,2096921,173228,678428
2096921,2096921,173256,678138
2096921,2096921,173255,678058
2096921,2096921,172982,678230
2096921,2096921,173212,678170
2096921,2096921,173154,678406
2096921,2096921,173083,678651
2096921,2096921,173062,678085
2096921,2096921,172973,677972
2096921,2096921,173147,678058
2096921,2096921,172865,678331
2096921,2096921,173194,678340
2096921,2096921,173085,678350
2096921,2096921,173464,678415
2096921,2096921,173023,678106
2096921,2096921,172968,678234
2096921,2096921,173052,678322
2096921,2096921,173041,678308
2096921,2096921,173038,678161
2096921,2096921,172734,678097
2096921,2096921,172904,678287
2096921,2096921,173005,678039
2096921,2096921,173167,678175
2096921,2096921,173057,678086
2096921,2096921,173259,678200
2096921,2096921,173038,678201
2096921,2096921,172532,677218
2096921,2096921,172453,677560
2096921,2096921,172609,677177
2096921,2096921,172617,677196
2096921,2096921,172850,677105
2096921,2096921,172465,676615
2096921,2096921,172410,676401
2096921,2096921,172334,676513
2096921,2096921,172460,676665
2096921,2096921,172536,676645
2096921,2096921,172204,675619
2096921,2096921,172148,675132
2096921,2096921,172132,675147
2096921,2096921,172234,675174
2096921,2096921,172004,675395
2096921,2096921,171806,673914
2096921,2096921,171640,673750
2096921,2096921,171498,673771
2096921,2096921,171544,673457
2096921,2096921,171524,673815
2096921,2096921,170767,671924
2096921,2096921,170748,671983
2096921,2096921,170842,671540
2096921,2096921,170990,671695
2096921,2096921,171089,671659
2096921,2096921,169731,668736
2096921,2096921,169694,668139
2096921,2096921,169598,667870
2096921,2096921,169511,667319
2096921,2096921,169722,667697
2096921,2096921,168381,663719
2096921,2096921,168043,662835
2096921,2096921,167675,662487
2096921,2096921,167873,662458
2096921,2096921,167704,662863
2096921,2096921,166953,659760
2096921,2096921,166485,659218
2096921,2096921,166608,659207
2096921,2096921,166447,659014
2096921,2096921,166732,658960
2096921,2096921,165878,657177
2096921,2096921,165691,656402
2096921,2096921,165751,656329
2096921,2096921,165507,655884
2096921,2096921,165789,656194
2096921,2096921,165008,654126
2096921,2096921,165050,653790
2096921,2096921,164866,653867
2096921,2096921,164825,654237
2096921,2096921,164817,654060
2096921,2096921,164577,652959
2096921,2096921,164446,652425
2096921,2096921,164656,652476
2096921,2096921,164356,652200
2096921,2096921,164316,652267
2096921,2096921,164219,651319
2096921,2096921,164309,651311
2096921,2096921,164080,651585
2096921,2096921,164246,651753
2096921,2096921,164181,651271
2096921,2096921,163899,650840
2096921,2096921,163721,650761
2096921,2096921,163721,650535
2096921,2096921,163735,650759
2096921,2096921,163760,650549
2096921,2096921,163912,650435
2096921,2096921,164048,650372
2096921,2096921,164057,650710
2096921,2096921,163904,650889
2096921,2096921,163796,650663
2096921,2096921,163774,650468
2096921,2096921,163480,650545
2096921,2096921,163631,650526
2096921,2096921,163609,650107
2096921,2096921,163411,650251
2096921,2096921,164002,650827
2096921,2096921,163845,650910
2096921,2096921,164170,650929
2096921,2096921,163729,650810
2096921,2096921,164018,650811
2096921,2096921,163746,651128
2096921,2096921,163933,651056
2096921,2096921,164043,651133
2096921,2096921,164300,650941
2096921,2096921,163909,651025
2096921,2096921,164138,650926
2096921,2096921,164279,650903
2096921,2096921,164121,650924
2096921,2096921,163880,651099
2096921,2096921,164059,651242
2096921,2096921,164452,651550
2096921,2096921,164220,651730
2096921,2096921,164352,651921
2096921,2096921,164136,651835
2096921,2096921,164323,652314
2096921,2096921,164364,652784
2096921,2096921,164546,652850
2096921,2096921,164991,652919
2096921,2096921,164901,652925
2096921,2096921,164716,652627
2096921,2096921,164827,653459
2096921,2096921,164597,653303
2096921,2096921,164840,653514
2096921,2096921,165076,653364
2096921,2096921,164693,653594
2096921,2096921,165239,654112
2096921,2096921,165245,654186
2096921,2096921,165143,654416
2096921,2096921,165294,654340
2096921,2096921,165333,654309
2096921,2096921,165361,655222
2096921,2096921,165338,655313
2096921,2096921,165295,654923
2096921,2096921,165280,655372
2096921,2096921,165599,655236
2096921,2096921,165813,655674
2096921,2096921,165749,655812
2096921,2096921,165881,655842
2096921,2096921,165536,655605
2096921,2096921,165543,655593
2096921,2096921,165906,656473
2096921,2096921,165980,656506
2096921,2096921,165929,656468
2096921,2096921,165980,656618
2096921,2096921,165792,656596
2096921,2096921,165991,656959
2096921,2096921,166069,657484
2096921,2096921,166059,657289
2096921,2096921,165940,657312
2096921,2096921,166134,657616
2096921,2096921,166389,658182
2096921,2096921,166203,658047
2096921,2096921,166097,658408
2096921,2096921,166297,658317
2096921,2096921,166616,658334
2096921,2096921,166536,658566
2096921,2096921,166523,659109
2096921,2096921,166417,658922
2096921,2096921,166505,659100
2096921,2096921,166828,658931
2096921,2096921,167114,659933
2096921,2096921,167300,659963
2096921,2096921,167235,659809
2096921,2096921,167062,659924
2096921,2096921,166879,659856
2096921,2096921,167108,660450
2096921,2096921,167235,660391
2096921,2096921,167247,660533
2096921,2096921,167441,660491
2096921,2096921,167186,660639
2096921,2096921,167332,661215
2096921,2096921,167449,661456
2096921,2096921,167468,661518
2096921,2096921,167400,661385
2096921,2096921,167653,661175
2096921,2096921,167405,661653
2096921,2096921,167767,661658
2096921,2096921,167790,661885
2096921,2096921,167926,661757
2096921,2096921,167418,661986
2096921,2096921,167703,662421
2096921,2096921,168084,662167
2096921,2096921,167851,662277
2096921,2096921,167830,662229
2096921,2096921,167862,662311
2096921,2096921,167735,662293
2096921,2096921,167999,662266
2096921,2096921,167817,662665
2096921,2096921,167784,662605
2096921,2096921,167687,662632
2096921,2096921,167912,662532
2096921,2096921,167976,662818
2096921,2096921,167846,662830
2096921,2096921,167986,662727
2096921,2096921,167957,662756
2096921,2096921,167848,662575
2096921,2096921,167829,662497
2096921,2096921,167874,662581
2096921,2096921,167874,662731
2096921,2096921,168268,662583
2096921,2096921,168091,662710
2096921,2096921,167942,662585
2096921,2096921,167873,662609
2096921,2096921,168058,662796
2096921,2096921,167752,662606
2096921,2096921,167764,662191
2096921,2096921,167910,662456
2096921,2096921,168025,662154
2096921,2096921,167920,662252
2096921,2096921,167806,662465
2096921,2096921,167571,661880
2096921,2096921,167595,661660
2096921,2096921,167632,661782
2096921,2096921,167850,661755
2096921,2096921,167796,661770
2096921,2096921,167571,661705
2096921,2096921,167579,661629
2096921,2096921,167432,661667
2096921,2096921,167617,661406
2096921,2096921,167587,661351
2096921,2096921,167872,661266
2096921,2096921,167643,660956
2096921,2096921,167448,661236
2096921,2096921,167379,661015
2096921,2096921,167594,661219
2096921,2096921,167411,660979
2096921,2096921,167398,660553
2096921,2096921,167277,660911
2096921,2096921,167526,660934
2096921,2096921,167531,660985
2096921,2096921,167293,660890
2096921,2096921,167528,660815
2096921,2096921,167514,660649
2096921,2096921,167378,660595
2096921,2096921,167459,660788
2096921,2096921,167492,660286
2096921,2096921,167474,660330
2096921,2096921,167288,660691
2096921,2096921,167415,660739
2096921,2096921,167366,660453
2096921,2096921,167202,660611
2096921,2096921,167480,660587
2096921,2096921,167134,660616
2096921,2096921,167162,660518
2096921,2096921,167170,660481
2096921,2096921,167271,660804
2096921,2096921,167340,660672
2096921,2096921,167517,660973
2096921,2096921,167312,660696
2096921,2096921,167511,660785
2096921,2096921,167698,661163
2096921,2096921,167476,660775
2096921,2096921,167192,661016
2096921,2096921,167233,660804
2096921,2096921,167248,660787
2096921,2096921,167608,661322
2096921,2096921,167476,661586
2096921,2096921,167833,661427
2096921,2096921,167582,661497
2096921,2096921,167628,661266
2096921,2096921,167836,662272
2096921,2096921,168102,662347
2096921,2096921,167917,662255
2096921,2096921,168023,662238
2096921,2096921,167940,662437
2096921,2096921,167692,662468
2096921,2096921,168174,662573
2096921,2096921,167961,662574
2096921,2096921,168104,662662
2096921,2096921,168007,662781
2096921,2096921,168245,663187
2096921,2096921,168171,663204
2096921,2096921,168330,663080
2096921,2096921,168301,663017
2096921,2096921,168206,663127
2096921,2096921,167974,663248
2096921,2096921,168275,663490
2096921,2096921,168099,663667
2096921,2096921,168265,663686
2096921,2096921,168233,663555
2096921,2096921,168608,663877
2096921,2096921,168514,664381
2096921,2096921,168322,663818
2096921,2096921,168527,663940
2096921,2096921,168298,663928
2096921,2096921,168615,664065
2096921,2096921,168483,664280
2096921,2096921,168528,664224
2096921,2096921,168466,664409
2096921,2096921,168828,664143
2096921,2096921,168894,664563
2096921,2096921,168928,664699
2096921,2096921,168657,664872
2096921,2096921,169007,664979
2096921,2096921,168596,664406
2096921,2096921,168932,665140
2096921,2096921,168748,665320
2096921,2096921,168783,664978
2096921,2096921,169070,665241
2096921,2096921,168686,665264
2096921,2096921,168839,665530
2096921,2096921,168829,666144
2096921,2096921,168980,665815
2096921,2096921,169254,665577
2096921,2096921,169097,665699
2096921,2096921,169292,666130
2096921,2096921,169365,666308
2096921,2096921,169517,666156
2096921,2096921,169314,666002
2096921,2096921,169149,665849
2096921,2096921,169182,666087
2096921,2096921,169145,666369
2096921,2096921,169324,666565
2096921,2096921,169231,666298
2096921,2096921,169261,666182
2096921,2096921,169277,666712
2096921,2096921,169533,666961
2096921,2096921,169352,666960
2096921,2096921,169373,666799
2096921,2096921,169323,666896
2096921,2096921,169714,667148
2096921,2096921,169473,667086
2096921,2096921,169528,667025
2096921,2096921,169627,667242
2096921,2096921,169750,667112
2096921,2096921,169697,667275
2096921,2096921,169731,667410
2096921,2096921,169632,667380
2096921,2096921,169724,667668
2096921,2096921,169721,667369
2096921,2096921,169996,667754
2096921,2096921,169812,668048
2096921,2096921,169872,667998
2096921,2096921,169686,667868
2096921,2096921,169979,667573
2096921,2096921,170006,668055
2096921,2096921,170111,668367
2096921,2096921,170171,668604
2096921,2096921,170101,668319
2096921,2096921,170027,668141
2096921,2096921,170028,668588
2096921,2096921,170200,668694
2096921,2096921,170006,668128
2096921,2096921,169896,668504
2096921,2096921,170208,668447
2096921,2096921,170212,668749
2096921,2096921,170356,668696
2096921,2096921,170472,668965
2096921,2096921,170219,668881
2096921,2096921,170194,668902
2096921,2096921,170217,669161
2096921,2096921,170554,668994
2096921,2096921,170646,669249
2096921,2096921,170420,668832
2096921,2096921,170279,669041
2096921,2096921,170154,669192
2096921,2096921,170289,669358
2096921,2096921,170527,669267
2096921,2096921,170518,669430
2096921,2096921,170205,669256
2096921,2096921,170768,669706
2096921,2096921,170458,669708
2096921,2096921,170463,669570
2096921,2096921,170263,669615
2096921,2096921,170523,669628
2096921,2096921,170478,670047
2096921,2096921,170586,669621
2096921,2096921,170567,669545
2096921,2096921,170439,669873
2096921,2096921,170611,670090
2096921,2096921,170440,669883
2096921,2096921,170471,670086
2096921,2096921,170446,669798
2096921,2096921,170405,670032
2096921,2096921,170644,669598
2096921,2096921,170695,670036
2096921,2096921,170697,670157
2096921,2096921,170720,670013
2096921,2096921,170499,670263
2096921,2096921,170763,670483
2096921,2096921,171047,670302
2096921,2096921,171195,670478
2096921,2096921,171111,670353
2096921,2096921,170922,670211
2096921,2096921,171059,670206
2096921,2096921,170975,670102
2096921,2096921,170817,670507
2096921,2096921,170951,670181
2096921,2096921,171094,670702
2096921,2096921,170679,670912
2096921,2096921,170813,670772
2096921,2096921,171071,670917
2096921,2096921,170701,670807
2096921,2096921,170687,670677
2096921,2096921,170840,670707
2096921,2096921,170800,670833
2096921,2096921,170944,670870
2096921,2096921,171186,670795
2096921,2096921,171001,670836
2096921,2096921,170938,670883
2096921,2096921,171216,671060
2096921,2096921,171168,670933
2096921,2096921,170701,670884
2096921,2096921,170870,671063
2096921,2096921,170787,670946
2096921,2096921,171041,671064
2096921,2096921,171071,671010
2096921,2096921,170699,670963
2096921,2096921,171008,670962
2096921,2096921,171134,671090
2096921,2096921,171087,671472
2096921,2096921,171113,671500
2096921,2096921,170883,671517
2096921,2096921,171139,671062
2096921,2096921,171186,671377
2096921,2096921,170951,671116
2096921,2096921,171102,671163
2096921,2096921,170869,671450
2096921,2096921,171149,671275
2096921,2096921,170966,671589
2096921,2096921,171366,671348
2096921,2096921,171192,671587
2096921,2096921,171252,671393
2096921,2096921,171054,671377
2096921,2096921,170870,671292
2096921,2096921,171241,671352
2096921,2096921,171208,671394
2096921,2096921,171266,671407
2096921,2096921,171480,671393
2096921,2096921,171240,671359
2096921,2096921,171403,671489
2096921,2096921,171465,671658
2096921,2096921,171044,671359
2096921,2096921,171047,671331
2096921,2096921,171123,671421
2096921,2096921,171236,671321
2096921,2096921,171205,671507
2096921,2096921,171429,671782
2096921,2096921,171130,671669
2096921,2096921,171096,671654
2096921,2096921,171282,671674
2096921,2096921,171333,671524
2096921,2096921,171114,671394
2096921,2096921,171000,671373
2096921,2096921,171244,671658
2096921,2096921,171202,671872
2096921,2096921,171417,671979
2096921,2096921,171403,671821
2096921,2096921,171167,671943
2096921,2096921,171347,671881
2096921,2096921,171137,671959
2096921,2096921,171643,671967
2096921,2096921,171489,671990
2096921,2096921,171232,671899
2096921,2096921,171350,671705
2096921,2096921,171230,671871
2096921,2096921,171328,672085
2096921,2096921,171552,672047
2096921,2096921,171587,671896
2096921,2096921,171004,672083
2096921,2096921,171301,671814
2096921,2096921,171480,672145
2096921,2096921,171537,672134
2096921,2096921,171220,672135
2096921,2096921,171577,671830
2096921,2096921,171377,671747
2096921,2096921,171302,672086
2096921,2096921,171467,671951
2096921,2096921,171361,672253
2096921,2096921,171419,672402
2096921,2096921,171544,672293
2096921,2096921,171377,672108
2096921,2096921,171510,671973
2096921,2096921,171361,672157
2096921,2096921,171359,672180
2096921,2096921,171560,672061
2096921,2096921,171313,672344
2096921,2096921,171451,671942
2096921,2096921,171655,672054
2096921,2096921,171569,672030
2096921,2096921,171717,671970
2096921,2096921,171666,672070
2096921,2096921,171356,671983
2096921,2096921,171500,671958
2096921,2096921,171044,671957
2096921,2096921,171413,671741
2096921,2096921,171465,671615
2096921,2096921,171429,671907
2096921,2096921,171352,671847
2096921,2096921,171434,672075
2096921,2096921,171388,672091
2096921,2096921,171413,672040
2096921,2096921,171352,671978
2096921,2096921,171556,671972
2096921,2096921,171354,671948
2096921,2096921,171373,671651
2096921,2096921,171296,671569
2096921,2096921,171218,671889
2096921,2096921,171519,671928
2096921,2096921,171464,671752
2096921,2096921,171491,671631
2096921,2096921,171399,671712
2096921,2096921,171453,672189
2096921,2096921,171224,671554
2096921,2096921,171491,671679
2096921,2096921,171518,671764
2096921,2096921,171431,671499
2096921,2096921,171261,671868
2096921,2096921,171173,671901
2096921,2096921,171413,671917
2096921,2096921,171274,672049
2096921,2096921,171142,671955
2096921,2096921,171308,671722
2096921,2096921,171310,671619
2096921,2096921,171146,671795
2096921,2096921,171273,671641
2096921,2096921,171122,671994
2096921,2096921,171399,671745
2096921,2096921,171456,672064
2096921,2096921,171656,671724
2096921,2096921,171096,670935
2096921,2096921,171402,670775
2096921,2096921,170955,670677
2096921,2096921,170856,670906
2096921,2096921,171010,670719
2096921,2096921,170489,670268
2096921,2096921,170876,669936
2096921,2096921,170903,670112
2096921,2096921,170690,670148
2096921,2096921,170840,669892
2096921,2096921,170103,668735
2096921,2096921,170020,668825
2096921,2096921,170172,668734
2096921,2096921,170348,668682
2096921,2096921,170283,668585
2096921,2096921,169845,667374
2096921,2096921,169513,666994
2096921,2096921,169947,667256
2096921,2096921,169707,666941
2096921,2096921,169504,667163
2096921,2096921,169197,665783
2096921,2096921,168965,665152
2096921,2096921,169056,665510
2096921,2096921,169128,665489
2096921,2096921,169219,665432
2096921,2096921,167927,662453
2096921,2096921,167865,661675
2096921,2096921,167798,661622
2096921,2096921,167717,661543
2096921,2096921,167920,661622
2096921,2096921,166456,657711
2096921,2096921,166440,656674
2096921,2096921,166310,656680
2096921,2096921,166207,656540
2096921,2096921,166242,656226
2096921,2096921,165151,653395
2096921,2096921,165349,652988
2096921,2096921,164871,652775
2096921,2096921,164855,652802
2096921,2096921,164777,652514
2096921,2096921,164437,650706
2096921,2096921,164143,650193
2096921,2096921,164097,650101
2096921,2096921,163966,649920
2096921,2096921,164115,649872
2096921,2096921,163415,648238
2096921,2096921,163351,647894
2096921,2096921,163386,648162
2096921,2096921,163243,648017
2096921,2096921,163458,648109
2096921,2096921,163145,646994
2096921,2096921,162889,646624
2096921,2096921,162862,646530
2096921,2096921,163221,646577
2096921,2096921,162868,646422
2096921,2096921,162509,645577
2096921,2096921,162292,645545
2096921,2096921,162544,645620
2096921,2096921,162733,645551
2096921,2096921,162567,645381
2096921,2096921,162321,645025
2096921,2096921,162372,644782
2096921,2096921,162368,645028
2096921,2096921,162401,644769
2096921,2096921,162489,644782
2096921,2096921,162211,644356
2096921,2096921,162372,644749
2096921,2096921,162128,644727
2096921,2096921,162573,644421
2096921,2096921,162354,644413
2096921,2096921,162404,644307
2096921,2096921,162217,644356
2096921,2096921,162168,644474
2096921,2096921,162104,644444
2096921,2096921,162209,644590
2096921,2096921,162437,644777
2096921,2096921,162069,644843
2096921,2096921,162132,644960
2096921,2096921,162379,644870
2096921,2096921,162269,645126
2096921,2096921,162286,645246
2096921,2096921,162103,645192
2096921,2096921,162213,645248
2096921,2096921,162470,645316
2096921,2096921,162449,645349
2096921,2096921,162624,645566
2096921,2096921,162779,645418
2096921,2096921,162685,645550
2096921,2096921,162453,645478
2096921,2096921,162290,645430
2096921,2096921,162684,646221
2096921,2096921,162718,646215
2096921,2096921,162870,646271
2096921,2096921,162781,646351
2096921,2096921,162782,646350
2096921,2096921,162865,646932
2096921,2096921,162816,647122
2096921,2096921,162720,647156
2096921,2096921,162813,646980
2096921,2096921,162806,647222
2096921,2096921,163354,647688
2096921,2096921,163589,647929
2096921,2096921,163462,647939
2096921,2096921,163574,647762
2096921,2096921,163470,648073
2096921,2096921,163641,648466
2096921,2096921,163620,648861
2096921,2096921,163772,648871
2096921,2096921,163503,648931
2096921,2096921,163641,648789
2096921,2096921,163865,649345
2096921,2096921,164008,649680
2096921,2096921,163750,649587
2096921,2096921,163754,649398
2096921,2096921,163706,649475
2096921,2096921,163955,650125
2096921,2096921,164007,650378
2096921,2096921,164160,650422
2096921,2096921,164266,650524
2096921,2096921,164375,650391
2096921,2096921,164383,651297
2096921,2096921,164262,651237
2096921,2096921,164473,651346
2096921,2096921,164587,651141
2096921,2096921,164402,651163
2096921,2096921,164819,651866
2096921,2096921,164702,652024
2096921,2096921,164861,651950
2096921,2096921,165022,652021
2096921,2096921,164984,652036
2096921,2096921,165477,652613
2096921,2096921,165153,652723
2096921,2096921,164946,653055
2096921,2096921,164961,652974
2096921,2096921,164918,652731
2096921,2096921,165518,653294
2096921,2096921,165434,653821
2096921,2096921,165197,653888
2096921,2096921,165314,653839
2096921,2096921,165462,653832
2096921,2096921,165737,654585
2096921,2096921,165828,654748
2096921,2096921,165512,654467
2096921,2096921,165494,654791
2096921,2096921,165682,654525
2096921,2096921,165831,655372
2096921,2096921,165580,655307
2096921,2096921,166045,655718
2096921,2096921,165901,655991
2096921,2096921,165928,655885
2096921,2096921,165890,656162
2096921,2096921,166018,656032
2096921,2096921,166024,656350
2096921,2096921,166243,656260
2096921,2096921,166177,656189
2096921,2096921,166371,656552
2096921,2096921,166210,656918
2096921,2096921,166531,656866
2096921,2096921,166586,656938
2096921,2096921,166707,657290
2096921,2096921,166453,657170
2096921,2096921,166370,657472
2096921,2096921,166293,657390
2096921,2096921,166472,657567
2096921,2096921,166432,657311
2096921,2096921,166636,657531
2096921,2096921,166846,657821
2096921,2096921,166512,657541
2096921,2096921,166564,657737
2096921,2096921,166757,657613
2096921,2096921,166799,658006
2096921,2096921,166866,658012
2096921,2096921,166855,658038
2096921,2096921,166988,658049
2096921,2096921,166990,658182
2096921,2096921,166825,657953
2096921,2096921,167051,657970
2096921,2096921,166693,658061
2096921,2096921,166899,657959
2096921,2096921,166776,658090
2096921,2096921,166806,657779
2096921,2096921,166541,658149
2096921,2096921,166855,657871
2096921,2096921,166990,657996
2096921,2096921,167037,658084
2096921,2096921,166663,657908
2096921,2096921,166859,657871
2096921,2096921,166707,657594
2096921,2096921,166598,657563
2096921,2096921,166590,657784
2096921,2096921,166683,657838
2096921,2096921,166498,657561
2096921,2096921,166424,657433
2096921,2096921,166520,657956
2096921,2096921,166476,657648
2096921,2096921,166499,657379
2096921,2096921,166320,657177
2096921,2096921,166496,657133
2096921,2096921,166390,657154
2096921,2096921,166465,657220
2096921,2096921,166330,656493
2096921,2096921,166556,656885
2096921,2096921,166637,657124
2096921,2096921,166512,657150
2096921,2096921,166520,657100
2096921,2096921,166553,656972
2096921,2096921,166266,656870
2096921,2096921,166393,656519
2096921,2096921,166075,656779
2096921,2096921,166364,656723
2096921,2096921,166446,656669
2096921,2096921,166285,656756
2096921,2096921,166023,656824
2096921,2096921,166317,656908
2096921,2096921,166461,656703
2096921,2096921,166521,656510
2096921,2096921,166449,656653
2096921,2096921,166260,656690
2096921,2096921,166262,656878
2096921,2096921,166193,656876
2096921,2096921,166432,656814
2096921,2096921,166220,656650
2096921,2096921,166483,656797
2096921,2096921,166400,656954
2096921,2096921,166294,656860
2096921,2096921,165981,656770
2096921,2096921,166606,656938
2096921,2096921,166319,657182
2096921,2096921,166549,656992
2096921,2096921,166566,657266
2096921,2096921,166673,657376
2096921,2096921,166858,657242
2096921,2096921,166746,657329
2096921,2096921,166478,657254
2096921,2096921,166318,657235
2096921,2096921,166589,657891
2096921,2096921,166581,657982
2096921,2096921,166735,657823
2096921,2096921,166561,657863
2096921,2096921,166875,658084
2096921,2096921,167084,658478
2096921,2096921,167017,658746
2096921,2096921,167039,658749
2096921,2096921,167231,658812
2096921,2096921,167017,658648
2096921,2096921,167189,659387
2096921,2096921,167098,659209
2096921,2096921,167215,659190
2096921,2096921,167182,659297
2096921,2096921,167183,659223
2096921,2096921,167380,659833
2096921,2096921,167387,660003
2096921,2096921,167260,659991
2096921,2096921,167216,659887
2096921,2096921,167342,659796
2096921,2096921,167544,660401
2096921,2096921,167585,660408
2096921,2096921,167703,660637
2096921,2096921,167428,660489
2096921,2096921,167506,660550
2096921,2096921,167753,660770
2096921,2096921,167698,660901
2096921,2096921,167735,660856
2096921,2096921,167540,660885
2096921,2096921,167827,660918
2096921,2096921,167974,661165
2096921,2096921,167823,661527
2096921,2096921,167952,661322
2096921,2096921,168085,661589
2096921,2096921,167918,661577
2096921,2096921,168189,661677
2096921,2096921,168036,661739
2096921,2096921,167776,661685
2096921,2096921,168051,661565
2096921,2096921,167958,662028
2096921,2096921,168255,662575
2096921,2096921,168209,662608
2096921,2096921,168463,662580
2096921,2096921,168224,662635
2096921,2096921,168039,662674
2096921,2096921,168488,663333
2096921,2096921,168101,663120
2096921,2096921,168220,662980
2096921,2096921,168068,662937
2096921,2096921,168368,663217
2096921,2096921,168499,663677
2096921,2096921,168616,663640
2096921,2096921,168595,663765
2096921,2096921,168679,663773
2096921,2096921,168760,663835
2096921,2096921,168737,663873
2096921,2096921,168737,664467
2096921,2096921,168881,664019
2096921,2096921,168739,663974
2096921,2096921,169167,664021
2096921,2096921,169116,664404
2096921,2096921,169017,664342
2096921,2096921,168757,664606
2096921,2096921,168981,664721
2096921,2096921,168895,664631
2096921,2096921,169023,665128
2096921,2096921,168919,664993
2096921,2096921,168998,664508
2096921,2096921,169038,664785
2096921,2096921,169144,665033
2096921,2096921,169318,665551
2096921,2096921,169522,665635
2096921,2096921,169220,665563
2096921,2096921,169153,665515
2096921,2096921,169335,665765
2096921,2096921,169374,665868
2096921,2096921,169351,665947
2096921,2096921,169213,665788
2096921,2096921,169234,665705
2096921,2096921,169381,666151
2096921,2096921,169630,666509
2096921,2096921,169353,666631
2096921,2096921,169457,666642
2096921,2096921,169312,666531
2096921,2096921,169613,666555
2096921,2096921,170016,667185
2096921,2096921,169816,667076
2096921,2096921,169718,666956
2096921,2096921,169703,666780
2096921,2096921,169911,666949
2096921,2096921,169464,667342
2096921,2096921,169807,667409
2096921,2096921,169984,667161
2096921,2096921,169986,667138
2096921,2096921,169712,667441
2096921,2096921,170072,667451
2096921,2096921,170050,667417
2096921,2096921,170066,667965
2096921,2096921,170161,667631
2096921,2096921,169880,667881
2096921,2096921,169749,668034
2096921,2096921,169893,667802
2096921,2096921,169879,668065
2096921,2096921,170010,668084
2096921,2096921,170181,668051
2096921,2096921,170386,668243
2096921,2096921,170313,668453
2096921,2096921,170063,668332
2096921,2096921,170140,668508
2096921,2096921,169905,668589
2096921,2096921,170200,668821
2096921,2096921,170414,668895
2096921,2096921,170303,669065
2096921,2096921,170224,668789
2096921,2096921,170534,668943
2096921,2096921,170739,669250
2096921,2096921,170655,669067
2096921,2096921,170315,669284
2096921,2096921,170267,669321
2096921,2096921,170468,669150
2096921,2096921,170764,669380
2096921,2096921,170474,669681
2096921,2096921,170689,669470
2096921,2096921,170473,669482
2096921,2096921,170776,669959
2096921,2096921,170838,670083
2096921,2096921,170600,669809
2096921,2096921,170698,669639
2096921,2096921,170429,669865
2096921,2096921,170513,670000
2096921,2096921,170664,670194
2096921,2096921,170832,670174
2096921,2096921,170820,670151
2096921,2096921,170655,670245
2096921,2096921,170863,670025
2096921,2096921,170806,670381
2096921,2096921,170807,670364
2096921,2096921,170910,670289
2096921,2096921,171164,670348
2096921,2096921,170920,670099
2096921,2096921,171136,670660
2096921,2096921,170961,670702
2096921,2096921,170870,670832
2096921,2096921,171010,670825
2096921,2096921,170851,670747
2096921,2096921,170871,670758
2096921,2096921,170785,670846
2096921,2096921,170995,670838
2096921,2096921,171020,670961
2096921,2096921,170831,671132
2096921,2096921,171068,671241
2096921,2096921,170869,670912
2096921,2096921,171008,671280
2096921,2096921,171012,671129
2096921,2096921,170936,671268
2096921,2096921,171361,671589
2096921,2096921,171209,671468
2096921,2096921,171390,671592
2096921,2096921,171087,671594
2096921,2096921,171011,671585
2096921,2096921,171080,671707
2096921,2096921,171049,671672
2096921,2096921,171423,671773
2096921,2096921,171387,671631
2096921,2096921,171399,671686
2096921,2096921,171315,672009
2096921,2096921,171554,672171
2096921,2096921,171174,672197
2096921,2096921,171286,672040
2096921,2096921,171333,671827
2096921,2096921,171468,672011
2096921,2096921,171585,671959
2096921,2096921,171348,672371
2096921,2096921,171398,671900
2096921,2096921,171378,671993
2096921,2096921,171569,672489
2096921,2096921,171706,672492
2096921,2096921,171351,672745
2096921,2096921,171378,672569
2096921,2096921,171525,672390
2096921,2096921,171473,672266
2096921,2096921,171414,672529
2096921,2096921,171482,672365
2096921,2096921,171465,672620
2096921,2096921,171620,672541
2096921,2096921,171514,672903
2096921,2096921,171550,672990
2096921,2096921,171432,672970
2096921,2096921,171547,672779
2096921,2096921,171641,672806
2096921,2096921,171429,673198
2096921,2096921,171104,673209
2096921,2096921,171597,673121
2096921,2096921,171622,673460
2096921,2096921,171912,672958
2096921,2096921,171817,673156
2096921,2096921,171746,673346
2096921,2096921,171690,673424
2096921,2096921,171796,673177
2096921,2096921,171713,673142
2096921,2096921,171735,673427
2096921,2096921,171519,673213
2096921,2096921,171833,673516
2096921,2096921,171749,673715
2096921,2096921,171906,673653
2096921,2096921,171859,673496
2096921,2096921,171914,673747
2096921,2096921,171961,673682
2096921,2096921,171964,673744
2096921,2096921,171964,673602
2096921,2096921,172126,673866
2096921,2096921,172034,673746
2096921,2096921,172237,673756
2096921,2096921,171894,673911
2096921,2096921,171848,673618
2096921,2096921,171907,674166
2096921,2096921,172084,673969
2096921,2096921,172213,674178
2096921,2096921,171993,674169
2096921,2096921,171893,673896
2096921,2096921,172126,673951
2096921,2096921,172022,673827
2096921,2096921,172102,673842
2096921,2096921,171897,674145
2096921,2096921,171912,674005
2096921,2096921,171970,674295
2096921,2096921,172354,674406
2096921,2096921,172328,674386
2096921,2096921,172068,674169
2096921,2096921,172008,674376
2096921,2096921,171774,674387
2096921,2096921,172126,674483
2096921,2096921,171949,674363
2096921,2096921,172010,674277
2096921,2096921,171849,674239
2096921,2096921,171984,674423
2096921,2096921,171895,674220
2096921,2096921,172293,674350
2096921,2096921,172010,674364
2096921,2096921,172414,674367
2096921,2096921,171876,674253
2096921,2096921,171866,674446
2096921,2096921,171732,674347
2096921,2096921,172037,674294
2096921,2096921,171883,674347
2096921,2096921,171931,674553
2096921,2096921,172094,674510
2096921,2096921,171751,674608
2096921,2096921,172118,674188
2096921,2096921,172037,674126
2096921,2096921,171923,674628
2096921,2096921,172011,674810
2096921,2096921,172051,674549
2096921,2096921,172050,674430
2096921,2096921,171943,674493
2096921,2096921,172250,674559
2096921,2096921,172394,674875
2096921,2096921,172232,674562
2096921,2096921,171933,674602
2096921,2096921,172002,674788
2096921,2096921,172102,674649
2096921,2096921,172152,674553
2096921,2096921,172382,674578
2096921,2096921,172138,674588
2096921,2096921,172164,674666
2096921,2096921,172139,673740
2096921,2096921,171950,673886
2096921,2096921,172069,673956
2096921,2096921,171759,673874
2096921,2096921,171907,674145
2096921,2096921,171866,673465
2096921,2096921,171619,673350
2096921,2096921,171437,673375
2096921,2096921,171679,673390
2096921,2096921,171711,673179
2096921,2096921,171524,672417
2096921,2096921,171090,672153
2096921,2096921,171210,672309
2096921,2096921,171293,671995
2096921,2096921,171264,672013
2096921,2096921,170563,670959
2096921,2096921,170560,670832
2096921,2096921,170695,670738
2096921,2096921,170821,670748
2096921,2096921,170638,670441
2096921,2096921,170421,669197
2096921,2096921,170394,668796
2096921,2096921,170119,668778
2096921,2096921,169886,668693
2096921,2096921,169995,668681
2096921,2096921,168881,665739
2096921,2096921,168750,665148
2096921,2096921,168925,664947
2096921,2096921,168953,664729
2096921,2096921,168724,664768
2096921,2096921,167771,660865
2096921,2096921,167205,660549
2096921,2096921,167235,660286
2096921,2096921,166986,659895
2096921,2096921,166930,660034
2096921,2096921,166099,657447
2096921,2096921,166121,656729
2096921,2096921,165962,656691
2096921,2096921,165915,656373
2096921,2096921,165940,656524
2096921,2096921,165358,654538
2096921,2096921,165296,653934
2096921,2096921,165002,653626
2096921,2096921,165211,654059
2096921,2096921,165052,653807
2096921,2096921,164814,652259
2096921,2096921,164410,651988
2096921,2096921,164409,652015
2096921,2096921,164329,651872
2096921,2096921,164504,652051
2096921,2096921,163832,650983
2096921,2096921,163930,650598
2096921,2096921,163634,650512
2096921,2096921,163705,650479
2096921,2096921,163777,650467
2096921,2096921,163789,649598
2096921,2096921,163651,649563
2096921,2096921,163626,649032
2096921,2096921,163675,649975
2096921,2096921,163766,649641
2096921,2096921,163484,649147
2096921,2096921,163366,648862
2096921,2096921,163562,648898
2096921,2096921,163484,648871
2096921,2096921,163192,649178
2096921,2096921,163561,648841
2096921,2096921,163480,648818
2096921,2096921,163505,648725
2096921,2096921,163834,648918
2096921,2096921,163490,648678
2096921,2096921,163472,648651
2096921,2096921,163367,648820
2096921,2096921,163210,648735
2096921,2096921,163228,649020
2096921,2096921,163535,649136
2096921,2096921,163362,649051
2096921,2096921,163640,649245
2096921,2096921,163676,649488
2096921,2096921,163175,649403
2096921,2096921,163393,649146
2096921,2096921,163570,649649
2096921,2096921,163639,649542
2096921,2096921,163634,649579
2096921,2096921,163631,649743
2096921,2096921,163555,649482
2096921,2096921,163783,649828
2096921,2096921,163596,649768
2096921,2096921,164124,649974
2096921,2096921,163600,649705
2096921,2096921,163538,650082
2096921,2096921,163887,650542
2096921,2096921,163820,650890
2096921,2096921,163733,650667
2096921,2096921,163777,650735
2096921,2096921,163664,650724
2096921,2096921,164047,651264
2096921,2096921,163972,651781
2096921,2096921,164193,651630
2096921,2096921,164029,651388
2096921,2096921,164303,651638
2096921,2096921,164474,652291
2096921,2096921,164589,652414
2096921,2096921,164449,652599
2096921,2096921,164507,652547
2096921,2096921,164637,652692
2096921,2096921,164893,653298
2096921,2096921,165028,653938
2096921,2096921,164718,653823
2096921,2096921,164813,653835
2096921,2096921,164992,653672
2096921,2096921,165072,654536
2096921,2096921,165032,654624
2096921,2096921,165090,654485
2096921,2096921,165161,654556
2096921,2096921,165073,654477
2096921,2096921,165660,654999
2096921,2096921,165564,655448
2096921,2096921,165803,655273
2096921,2096921,165595,655378
2096921,2096921,165348,655490
2096921,2096921,166106,656110
2096921,2096921,165774,656328
2096921,2096921,166001,656574
2096921,2096921,165963,656099
2096921,2096921,165816,656447
2096921,2096921,165859,657209
2096921,2096921,165768,657295
2096921,2096921,166059,657298
2096921,2096921,166032,657173
2096921,2096921,166224,657361
2096921,2096921,166732,658260
2096921,2096921,166672,658490
2096921,2096921,166320,658345
2096921,2096921,166416,658248
2096921,2096921,166504,658315
2096921,2096921,166821,658790
2096921,2096921,166815,659105
2096921,2096921,166831,659183
2096921,2096921,166762,658773
2096921,2096921,166510,659080
2096921,2096921,166644,659769
2096921,2096921,166890,659919
2096921,2096921,166957,660287
2096921,2096921,167261,660326
2096921,2096921,166969,660170
2096921,2096921,167236,660563
2096921,2096921,167372,660602
2096921,2096921,167204,661164
2096921,2096921,167292,660930
2096921,2096921,167379,661137
2096921,2096921,167585,661630
2096921,2096921,167884,661632
2096921,2096921,167524,661787
2096921,2096921,167846,662086
2096921,2096921,167779,661833
2096921,2096921,167858,662283
2096921,2096921,167848,662544
2096921,2096921,167838,662449
2096921,2096921,167898,662630
2096921,2096921,167650,662562
2096921,2096921,167971,662896
2096921,2096921,168066,663250
2096921,2096921,167920,662980
2096921,2096921,167879,663005
2096921,2096921,167759,663101
2096921,2096921,167977,663345
2096921,2096921,168130,663461
2096921,2096921,168048,663391
2096921,2096921,168251,663443
2096921,2096921,168254,663476
2096921,2096921,168126,663700
2096921,2096921,168423,663670
2096921,2096921,168285,663480
2096921,2096921,168312,663755
2096921,2096921,168122,663742
2096921,2096921,168164,663879
2096921,2096921,168275,663925
2096921,2096921,168240,663803
2096921,2096921,168548,663880
2096921,2096921,168510,663896
2096921,2096921,168279,663816
2096921,2096921,168197,664038
2096921,2096921,168331,664084
2096921,2096921,168343,664370
2096921,2096921,168232,663985
2096921,2096921,168281,663859
2096921,2096921,168022,663562
2096921,2096921,168194,663876
2096921,2096921,168400,663785
2096921,2096921,168249,664015
2096921,2096921,167906,663569
2096921,2096921,168037,663467
2096921,2096921,168138,663499
2096921,2096921,168034,663420
2096921,2096921,168073,663382
2096921,2096921,167900,663219
2096921,2096921,167886,663108
2096921,2096921,167888,663492
2096921,2096921,167881,663463
2096921,2096921,168319,663338
2096921,2096921,168122,663211
2096921,2096921,168144,663019
2096921,2096921,168066,663315
2096921,2096921,168029,663039
2096921,2096921,168022,662975
2096921,2096921,167792,663053
2096921,2096921,167550,662929
2096921,2096921,167785,662666
2096921,2096921,168037,662851
2096921,2096921,167917,662696
2096921,2096921,167956,662923
2096921,2096921,167896,662840
2096921,2096921,167938,662818
2096921,2096921,167858,662563
2096921,2096921,168168,662804
2096921,2096921,167874,663174
2096921,2096921,168268,662866
2096921,2096921,167905,663124
2096921,2096921,167704,662863
2096921,2096921,167856,662857
2096921,2096921,168177,663042
2096921,2096921,168003,663110
2096921,2096921,167899,663171
2096921,2096921,168141,663153
2096921,2096921,168091,662966
2096921,2096921,167989,663082
2096921,2096921,168077,663193
2096921,2096921,168032,663305
2096921,2096921,168118,663260
2096921,2096921,167981,663152
2096921,2096921,167841,663468
2096921,2096921,168070,663549
2096921,2096921,168109,663308
2096921,2096921,168082,663613
2096921,2096921,168186,663557
2096921,2096921,168466,664033
2096921,2096921,168625,664160
2096921,2096921,168200,664187
2096921,2096921,168374,664377
2096921,2096921,168483,664502
2096921,2096921,168689,664846
2096921,2096921,168819,664802
2096921,2096921,168827,665236
2096921,2096921,168949,665313
2096921,2096921,168676,664991
2096921,2096921,168735,665414
2096921,2096921,168766,665434
2096921,2096921,168942,665653
2096921,2096921,168927,665612
2096921,2096921,169075,665605
2096921,2096921,168797,665898
2096921,2096921,169015,666294
2096921,2096921,168886,666180
2096921,2096921,169002,666463
2096921,2096921,168939,666542
2096921,2096921,169101,666870
2096921,2096921,169133,666826
2096921,2096921,169019,666956
2096921,2096921,169005,666670
2096921,2096921,169341,666872
2096921,2096921,169356,667274
2096921,2096921,169366,667243
2096921,2096921,169283,667387
2096921,2096921,169356,667191
2096921,2096921,169342,667445
2096921,2096921,169618,667907
2096921,2096921,169649,667973
2096921,2096921,169979,668006
2096921,2096921,169927,668069
2096921,2096921,169773,667900
2096921,2096921,169720,668348
2096921,2096921,169631,667939
2096921,2096921,169821,668162
2096921,2096921,169664,668372
2096921,2096921,169861,668111
2096921,2096921,169623,668317
2096921,2096921,169927,668779
2096921,2096921,169863,669218
2096921,2096921,169976,669094
2096921,2096921,170301,668909
2096921,2096921,170138,669267
2096921,2096921,170079,669499
2096921,2096921,170057,669361
2096921,2096921,170018,669367
2096921,2096921,169821,669101
2096921,2096921,170340,669861
2096921,2096921,170314,669513
2096921,2096921,169962,669919
2096921,2096921,170240,669836
2096921,2096921,170481,669800
2096921,2096921,170270,670580
2096921,2096921,170263,670567
2096921,2096921,170341,670672
2096921,2096921,170510,670634
2096921,2096921,170241,670591
2096921,2096921,170585,670661
2096921,2096921,170742,670711
2096921,2096921,170489,670705
2096921,2096921,170693,670699
2096921,2096921,170565,670899
2096921,2096921,170410,671216
2096921,2096921,170717,671223
2096921,2096921,170647,671198
2096921,2096921,170860,671178
2096921,2096921,170629,671490
2096921,2096921,170792,671502
2096921,2096921,171018,671795
2096921,2096921,170898,671632
2096921,2096921,171256,672060
2096921,2096921,170813,671773
2096921,2096921,170843,671813
2096921,2096921,170907,672207
2096921,2096921,171298,671989
2096921,2096921,170997,672266
2096921,2096921,171026,671861
2096921,2096921,171075,672328
2096921,2096921,171195,672191
2096921,2096921,171138,672681
2096921,2096921,171097,672711
2096921,2096921,171116,672787
2096921,2096921,171264,673011
2096921,2096921,171293,673039
2096921,2096921,171162,673106
2096921,2096921,171175,672973
2096921,2096921,171211,672703
2096921,2096921,171290,673260
2096921,2096921,171390,673431
2096921,2096921,171349,673299
2096921,2096921,171400,673271
2096921,2096921,171478,673235
2096921,2096921,171645,673520
2096921,2096921,171542,673758
2096921,2096921,171363,673917
2096921,2096921,171243,673922
2096921,2096921,171322,673648
2096921,2096921,171523,673722
2096921,2096921,171587,674146
2096921,2096921,171769,673892
2096921,2096921,171499,673989
2096921,2096921,171775,674007
2096921,2096921,171761,674408
2096921,2096921,171900,674505
2096921,2096921,171912,674253
2096921,2096921,171668,673979
2096921,2096921,171702,674020
2096921,2096921,171948,674348
2096921,2096921,171857,674611
2096921,2096921,172148,674406
2096921,2096921,171964,674464
2096921,2096921,172141,674745
2096921,2096921,171944,674933
2096921,2096921,171970,674839
2096921,2096921,171841,674672
2096921,2096921,172011,674702
2096921,2096921,171742,675026
2096921,2096921,171764,674938
2096921,2096921,171693,674722
2096921,2096921,172048,675502
2096921,2096921,172374,675246
2096921,2096921,171934,675156
2096921,2096921,172346,675205
2096921,2096921,172292,675214
2096921,2096921,172198,675420
2096921,2096921,171933,675389
2096921,2096921,172153,675473
2096921,2096921,172084,675631
2096921,2096921,172410,675746
2096921,2096921,172102,675911
2096921,2096921,172213,676012
2096921,2096921,172223,676029
2096921,2096921,172342,676055
2096921,2096921,172078,675990
2096921,2096921,172362,676029
2096921,2096921,172156,675826
2096921,2096921,171981,675688
2096921,2096921,172394,675952
2096921,2096921,172409,676146
2096921,2096921,172418,676364
2096921,2096921,172520,675925
2096921,2096921,172472,676307
2096921,2096921,172524,676109
2096921,2096921,172462,676361
2096921,2096921,172589,676211
2096921,2096921,172401,676495
2096921,2096921,172209,676537
2096921,2096921,172232,676494
2096921,2096921,172136,676314
2096921,2096921,172429,676286
2096921,2096921,172584,676230
2096921,2096921,172532,676334
2096921,2096921,172585,676608
2096921,2096921,172359,676871
2096921,2096921,172492,676596
2096921,2096921,172318,676654
2096921,2096921,172221,676667
2096921,2096921,172332,676562
2096921,2096921,172391,676894
2096921,2096921,172728,676685
2096921,2096921,172561,676880
2096921,2096921,172536,676959
2096921,2096921,172762,677067
2096921,2096921,172638,677253
2096921,2096921,172514,676965
2096921,2096921,172864,676964
2096921,2096921,172800,676925
2096921,2096921,172822,676943
2096921,2096921,172533,676926
2096921,2096921,172754,677091
2096921,2096921,172619,677156
2096921,2096921,172617,677393
2096921,2096921,172851,677392
2096921,2096921,172782,677457
2096921,2096921,172898,677451
2096921,2096921,172696,677358
2096921,2096921,172740,677361
2096921,2096921,172514,677471
2096921,2096921,172666,677286
2096921,2096921,172473,677161
2096921,2096921,172766,677436
2096921,2096921,172495,677560
2096921,2096921,172871,677559
2096921,2096921,172985,677935
2096921,2096921,172901,677705
2096921,2096921,172746,677791
2096921,2096921,172780,677508
2096921,2096921,173145,677615
2096921,2096921,172898,677996
2096921,2096921,172872,677848
2096921,2096921,172832,677888
2096921,2096921,172903,677984
2096921,2096921,173157,677950
2096921,2096921,173167,677856
2096921,2096921,173041,677860
2096921,2096921,173197,678068
2096921,2096921,173075,678109
2096921,2096921,173039,677984
2096921,2096921,173216,678061
2096921,2096921,173411,678355
2096921,2096921,173111,678185
2096921,2096921,172990,678037
2096921,2096921,173044,678445
2096921,2096921,172956,678428
2096921,2096921,172933,678026
2096921,2096921,173208,678040
2096921,2096921,173070,678072
2096921,2096921,173220,678180
2096921,2096921,172954,678041
2096921,2096921,173011,678317
2096921,2096921,173199,678094
2096921,2096921,173106,678192
2096921,2096921,173110,678029
2096921,2096921,173039,678251
2096921,2096921,172994,678613
2096921,2096921,173150,678102
2096921,2096921,173531,678331
2096921,2096921,173051,678260
2096921,2096921,173223,678307
2096921,2096921,173060,678187
2096921,2096921,173224,678568
2096921,2096921,173213,678492
2096921,2096921,172989,678620
2096921,2096921,172885,678222
2096921,2096921,173072,678151
2096921,2096921,173136,677995
2096921,2096921,173146,678162
2096921,2096921,172924,678175
2096921,2096921,173089,678616
2096921,2096921,173032,678359
2096921,2096921,172890,678327
2096921,2096921,172991,678576
2096921,2096921,173002,678332
2096921,2096921,172979,678537
2096921,2096921,172970,678162
2096921,2096921,172866,678168
2096921,2096921,172749,678015
2096921,2096921,172823,678311
2096921,2096921,173066,678342
2096921,2096921,172989,678510
2096921,2096921,173101,678251
2096921,2096921,173059,678447
2096921,2096921,173232,678650
2096921,2096921,173129,678226
2096921,2096921,173095,678101
2096921,2096921,173032,678280
2096921,2096921,173092,678411
2096921,2096921,172891,678288
2096921,2096921,172802,678298
2096921,2096921,172989,678597
2096921,2096921,173093,678558
2096921,2096921,173176,678364
2096921,2096921,173072,678464
2096921,2096921,173265,678570
2096921,2096921,172998,678371
2096921,2096921,173223,678294
2096921,2096921,173288,678246
2096921,2096921,172862,678344
2096921,2096921,172877,678370
2096921,2096921,172907,678300
2096921,2096921,173099,678411
2096921,2096921,173134,678173
2096921,2096921,172754,677452
2096921,2096921,172694,677178
2096921,2096921,172866,677436
2096921,2096921,172768,677251
2096921,2096921,172518,677237
2096921,2096921,172442,676757
2096921,2096921,172295,676614
2096921,2096921,172401,676596
2096921,2096921,172490,676738
2096921,2096921,172652,676803
2096921,2096921,172151,675342
2096921,2096921,172043,675463
2096921,2096921,172212,675305
2096921,2096921,172077,675242
2096921,2096921,172182,675249
2096921,2096921,171588,674152
2096921,2096921,171777,673837
2096921,2096921,171577,673705
2096921,2096921,171406,673494
2096921,2096921,171508,673721
2096921,2096921,171069,672395
2096921,2096921,170785,671955
2096921,2096921,170919,671642
2096921,2096921,171304,671637
2096921,2096921,171134,671594
2096921,2096921,169847,668638
2096921,2096921,169794,667782
2096921,2096921,169581,667779
2096921,2096921,169518,667679
2096921,2096921,169521,667816
2096921,2096921,168215,663697
2096921,2096921,167839,663164
2096921,2096921,167801,662691
2096921,2096921,168141,662632
2096921,2096921,167801,662830
2096921,2096921,166898,659649
2096921,2096921,166670,659070
2096921,2096921,166763,658848
2096921,2096921,166553,659067
2096921,2096921,166817,659105
2096921,2096921,165661,657042
2096921,2096921,165747,656587
2096921,2096921,165637,656537
2096921,2096921,165613,656233
2096921,2096921,165698,656309
2096921,2096921,165199,654756
2096921,2096921,165046,654437
2096921,2096921,165206,654308
2096921,2096921,165170,654187
2096921,2096921,164901,653898
2096921,2096921,164533,653023
2096921,2096921,164586,652717
2096921,2096921,164368,652549
2096921,2096921,164298,652289
2096921,2096921,164256,652637
2096921,2096921,164393,651657
2096921,2096921,164403,651480
2096921,2096921,164151,651408
2096921,2096921,164126,651395
2096921,2096921,164133,651510
2096921,2096921,164038,651162
2096921,2096921,164010,650901
2096921,2096921,163881,650854
2096921,2096921,163786,650985
2096921,2096921,163758,650939
2096921,2096921,163687,650531
2096921,2096921,163809,650373
2096921,2096921,163676,650473
2096921,2096921,163807,650426
2096921,2096921,163802,650601
2096921,2096921,163625,650652
2096921,2096921,163590,650613
2096921,2096921,163928,650365
2096921,2096921,163759,650484
2096921,2096921,163675,650533
2096921,2096921,164082,650744
2096921,2096921,163950,650777
2096921,2096921,163665,651033
2096921,2096921,163722,650988
2096921,2096921,163704,650869
2096921,2096921,164058,650969
2096921,2096921,163800,651000
2096921,2096921,163760,651135
2096921,2096921,164175,651351
2096921,2096921,163694,650883
2096921,2096921,163851,651027
2096921,2096921,163857,651387
2096921,2096921,163893,651536
2096921,2096921,163910,651182
2096921,2096921,164026,651328
2096921,2096921,164120,651961
2096921,2096921,164064,652099
2096921,2096921,164479,652079
2096921,2096921,164300,652245
2096921,2096921,164286,652117
2096921,2096921,164478,652422
2096921,2096921,164502,652611
2096921,2096921,164639,652455
2096921,2096921,164701,653037
2096921,2096921,164501,652572
2096921,2096921,164564,653248
2096921,2096921,164901,653463
2096921,2096921,164827,653577
2096921,2096921,164517,653567
2096921,2096921,164674,653511
2096921,2096921,165025,654118
2096921,2096921,165182,654132
2096921,2096921,165227,654321
2096921,2096921,165200,654297
2096921,2096921,164664,654248
2096921,2096921,165254,655089
2096921,2096921,165378,654951
2096921,2096921,165399,654990
2096921,2096921,164978,654887
2096921,2096921,165139,655067
2096921,2096921,165451,655544
2096921,2096921,165541,655549
2096921,2096921,165528,655550
2096921,2096921,165611,655763
2096921,2096921,165749,655694
2096921,2096921,166322,656221
2096921,2096921,166083,656401
2096921,2096921,165657,656614
2096921,2096921,165875,656431
2096921,2096921,165857,656356
2096921,2096921,165959,657171
2096921,2096921,165895,657377
2096921,2096921,165972,656913
2096921,2096921,165856,657183
2096921,2096921,166145,657223
2096921,2096921,166508,658035
2096921,2096921,166279,658109
2096921,2096921,166320,658217
2096921,2096921,166377,658251
2096921,2096921,166403,658061
2096921,2096921,166629,658807
2096921,2096921,166351,659250
2096921,2096921,166747,659352
2096921,2096921,166628,659321
2096921,2096921,166861,658976
2096921,2096921,167259,659527
2096921,2096921,167025,659880
2096921,2096921,167093,660083
2096921,2096921,167013,659896
2096921,2096921,166728,659953
2096921,2096921,167317,660291
2096921,2096921,167073,660715
2096921,2096921,167097,660717
2096921,2096921,167536,660596
2096921,2096921,167315,660759
2096921,2096921,167442,661298
2096921,2096921,167452,661297
2096921,2096921,167771,661316
2096921,2096921,167203,661451
2096921,2096921,167546,661329
2096921,2096921,167267,661707
2096921,2096921,167588,661991
2096921,2096921,167377,661851
2096921,2096921,167609,661883
2096921,2096921,167555,661915
2096921,2096921,167771,662500
2096921,2096921,167991,662320
2096921,2096921,167909,662509
2096921,2096921,167860,662499
2096921,2096921,167819,662178
2096921,2096921,167708,662585
2096921,2096921,167892,662584
2096921,2096921,167809,662546
2096921,2096921,167864,662700
2096921,2096921,167776,662648
2096921,2096921,167811,662572
2096921,2096921,167823,662754
2096921,2096921,167851,662750
2096921,2096921,167855,662562
2096921,2096921,167821,662505
2096921,2096921,168052,662639
2096921,2096921,167913,662618
2096921,2096921,167732,662796
2096921,2096921,167828,662665
2096921,2096921,168144,662913
2096921,2096921,167639,662738
2096921,2096921,167852,662607
2096921,2096921,167673,662659
2096921,2096921,168093,662502
2096921,2096921,168033,662485
2096921,2096921,167923,662146
2096921,2096921,167682,662253
2096921,2096921,167930,662268
2096921,2096921,167633,662336
2096921,2096921,168049,662610
2096921,2096921,167582,662065
2096921,2096921,167921,661974
2096921,2096921,167649,662323
2096921,2096921,167793,661974
2096921,2096921,167713,662050
2096921,2096921,167732,661646
2096921,2096921,167668,661493
2096921,2096921,167745,661507
2096921,2096921,167427,661578
2096921,2096921,167608,661447
2096921,2096921,167413,661225
2096921,2096921,167422,661372
2096921,2096921,167346,661334
2096921,2096921,167273,661218
2096921,2096921,167434,660980
2096921,2096921,167155,660794
2096921,2096921,167305,660741
2096921,2096921,167209,660714
2096921,2096921,167275,660665
2096921,2096921,167377,660972
2096921,2096921,167318,660743
2096921,2096921,167354,660626
2096921,2096921,167293,660634
2096921,2096921,167435,660538
2096921,2096921,167329,660632
2096921,2096921,167117,660821
2096921,2096921,167255,660400
2096921,2096921,167500,660701
2096921,2096921,167520,660838
2096921,2096921,167580,660653
2096921,2096921,167503,660945
2096921,2096921,167452,660642
2096921,2096921,167368,660709
2096921,2096921,167401,660683
2096921,2096921,167331,660718
2096921,2096921,167526,660789
2096921,2096921,167324,660630
2096921,2096921,167247,660753
2096921,2096921,167403,660912
2096921,2096921,167573,660857
2096921,2096921,167752,660955
2096921,2096921,167591,661195
2096921,2096921,167304,660944
2096921,2096921,167327,660920
2096921,2096921,167346,661047
2096921,2096921,167595,661342
2096921,2096921,167992,661415
2096921,2096921,167869,661587
2096921,2096921,167654,661448
2096921,2096921,167487,661532
2096921,2096921,168145,662008
2096921,2096921,167960,662458
2096921,2096921,167915,662475
2096921,2096921,167803,662222
2096921,2096921,167875,662414
2096921,2096921,168237,662735
2096921,2096921,168023,662836
2096921,2096921,167917,662750
2096921,2096921,168075,662732
2096921,2096921,168074,662821
2096921,2096921,168347,663104
2096921,2096921,168214,663199
2096921,2096921,168265,662976
2096921,2096921,168231,663219
2096921,2096921,168139,662937
2096921,2096921,168028,663294
2096921,2096921,168380,663179
2096921,2096921,168384,663690
2096921,2096921,168493,663634
2096921,2096921,168451,663769
2096921,2096921,168701,664031
2096921,2096921,168458,664028
2096921,2096921,168283,664095
2096921,2096921,168520,664228
2096921,2096921,168699,664087
2096921,2096921,168443,664525
2096921,2096921,168655,664432
2096921,2096921,168562,664456
2096921,2096921,168534,664603
2096921,2096921,168840,664501
2096921,2096921,169079,664767
2096921,2096921,169146,664845
2096921,2096921,168971,664929
2096921,2096921,168703,664827
2096921,2096921,168679,664809
2096921,2096921,169050,665460
2096921,2096921,169204,665608
2096921,2096921,169252,665549
2096921,2096921,169199,665365
2096921,2096921,169213,665397
2096921,2096921,169118,665829
2096921,2096921,169295,666085
2096921,2096921,169235,665793
2096921,2096921,169205,665606
2096921,2096921,169135,666000
2096921,2096921,169036,665833
2096921,2096921,169222,666184
2096921,2096921,169618,666145
2096921,2096921,169645,666291
2096921,2096921,169252,666326
2096921,2096921,169604,666639
2096921,2096921,169285,666737
2096921,2096921,169629,666538
2096921,2096921,169581,666583
2096921,2096921,169301,666582
2096921,2096921,169421,666762
2096921,2096921,169306,667240
2096921,2096921,169636,667171
2096921,2096921,169686,667145
2096921,2096921,169594,667025
2096921,2096921,169467,667045
2096921,2096921,169574,667410
2096921,2096921,169715,667465
2096921,2096921,169725,667338
2096921,2096921,169853,667486
2096921,2096921,169744,667366
2096921,2096921,169962,667421
2096921,2096921,169832,667807
2096921,2096921,170160,667822
2096921,2096921,170268,667827
2096921,2096921,170194,667868
2096921,2096921,170052,668096
2096921,2096921,169818,668052
2096921,2096921,169754,668015
2096921,2096921,169695,667858
2096921,2096921,169927,668219
2096921,2096921,170049,668248
2096921,2096921,170227,668489
2096921,2096921,170175,668329
2096921,2096921,170177,668584
2096921,2096921,170387,668549
2096921,2096921,170217,668680
2096921,2096921,169956,668789
2096921,2096921,169935,668786
2096921,2096921,170228,668772
2096921,2096921,170076,668736
2096921,2096921,170395,668903
2096921,2096921,170288,668724
2096921,2096921,170373,668648
2096921,2096921,170442,669060
2096921,2096921,170125,668989
2096921,2096921,170188,669030
2096921,2096921,170271,669099
2096921,2096921,170429,669113
2096921,2096921,170309,669018
2096921,2096921,170343,669170
2096921,2096921,170433,669392
2096921,2096921,170418,669305
2096921,2096921,170727,669591
2096921,2096921,170650,669263
2096921,2096921,170441,669678
2096921,2096921,170592,669689
2096921,2096921,170421,669506
2096921,2096921,170090,669374
2096921,2096921,170369,669778
2096921,2096921,170418,669774
2096921,2096921,170535,669998
2096921,2096921,170620,669612
2096921,2096921,170795,669684
2096921,2096921,170915,669925
2096921,2096921,170653,670253
2096921,2096921,170648,670269
2096921,2096921,170797,670236
2096921,2096921,170541,670227
2096921,2096921,170695,669895
2096921,2096921,170489,670525
2096921,2096921,171023,670433
2096921,2096921,170913,670456
2096921,2096921,170736,670386
2096921,2096921,170929,670459
2096921,2096921,170711,670456
2096921,2096921,170653,670392
2096921,2096921,170499,670233
2096921,2096921,170898,670603
2096921,2096921,170992,670515
2096921,2096921,170987,670733
2096921,2096921,171166,670581
2096921,2096921,170846,670668
2096921,2096921,170893,670426
2096921,2096921,170827,670714
2096921,2096921,170909,670838
2096921,2096921,171000,670963
2096921,2096921,170990,670882
2096921,2096921,170894,670645
2096921,2096921,170895,670872
2096921,2096921,171017,671028
