2096921,2096921,159695,668919,0
2096921,2096921,159868,668915,0
2096921,2096921,159699,668784,0
2096921,2096921,159420,668760,0
2096921,2096921,159553,668683,0
2096921,2096921,159902,668738,0
2096921,2096921,159667,668292,0
2096921,2096921,159846,668470,0
2096921,2096921,159636,668548,0
2096921,2096921,159689,668810,0
2096921,2096921,159713,668561,0
2096921,2096921,159661,668498,0
2096921,2096921,159929,668440,0
2096921,2096921,160102,668861,0
2096921,2096921,159995,668792,0
2096921,2096921,159565,668861,0
2096921,2096921,159587,668761,0
2096921,2096921,159901,668887,0
2096921,2096921,160035,668827,0
2096921,2096921,160108,668665,0
2096921,2096921,159967,668901,0
2096921,2096921,159688,669088,0
2096921,2096921,159685,668994,0
2096921,2096921,159865,668859,0
2096921,2096921,159826,669003,0
2096921,2096921,159801,668843,0
2096921,2096921,159735,668635,0
2096921,2096921,159918,668767,0
2096921,2096921,160092,668840,0
2096921,2096921,159625,668569,0
2096921,2096921,159987,668827,0
2096921,2096921,160138,668929,0
2096921,2096921,159951,668776,0
2096921,2096921,160155,668845,0
2096921,2096921,159958,668500,0
2096921,2096921,159893,668779,0
2096921,2096921,159935,668796,0
2096921,2096921,160118,668816,0
2096921,2096921,159991,668888,0
2096921,2096921,159913,669011,0
2096921,2096921,160082,669068,0
2096921,2096921,160134,669032,0
2096921,2096921,159794,668962,0
2096921,2096921,159674,669077,0
2096921,2096921,159790,668874,0
2096921,2096921,159882,668878,0
2096921,2096921,159881,668721,0
2096921,2096921,160019,668846,0
2096921,2096921,160046,669138,0
2096921,2096921,160202,668884,0
2096921,2096921,159720,669071,0
2096921,2096921,159990,669352,0
2096921,2096921,160071,669150,0
2096921,2096921,160002,669083,0
2096921,2096921,159889,668965,0
2096921,2096921,159876,669079,0
2096921,2096921,160247,668685,0
2096921,2096921,160025,668769,0
2096921,2096921,160074,669023,0
2096921,2096921,160365,668802,0
2096921,2096921,160151,669071,0
2096921,2096921,160111,669235,0
2096921,2096921,159999,669317,0
2096921,2096921,160077,668953,0
2096921,2096921,160039,668905,0
2096921,2096921,159850,668914,0
2096921,2096921,159643,669136,0
2096921,2096921,160031,669136,0
2096921,2096921,160172,668945,0
2096921,2096921,159909,669243,0
2096921,2096921,160148,668995,0
2096921,2096921,160118,669022,0
2096921,2096921,160219,668996,0
2096921,2096921,160204,669228,0
2096921,2096921,159968,669058,0
2096921,2096921,160242,669055,0
2096921,2096921,160282,669209,0
2096921,2096921,160042,669010,0
2096921,2096921,160094,668868,0
2096921,2096921,160191,669065,0
2096921,2096921,160134,669005,0
2096921,2096921,160027,669251,0
2096921,2096921,159931,668824,0
2096921,2096921,160081,668844,0
2096921,2096921,160077,668820,0
2096921,2096921,160115,668570,0
2096921,2096921,160136,668807,0
2096921,2096921,160196,668859,0
2096921,2096921,160175,668959,0
2096921,2096921,160089,668842,0
2096921,2096921,160129,668732,0
2096921,2096921,160191,668711,0
2096921,2096921,160111,668791,0
2096921,2096921,160155,668520,0
2096921,2096921,159685,668638,0
2096921,2096921,159975,668680,0
2096921,2096921,159580,668520,0
2096921,2096921,159896,668786,0
2096921,2096921,160210,668323,0
2096921,2096921,160109,668230,0
2096921,2096921,160281,668590,0
2096921,2096921,159950,669059,0
2096921,2096921,160012,668771,0
2096921,2096921,159701,668753,0
2096921,2096921,159934,668501,0
2096921,2096921,159743,668620,0
2096921,2096921,159979,668399,0
2096921,2096921,160206,668748,0
2096921,2096921,159804,668676,0
2096921,2096921,160190,668736,0
2096921,2096921,160073,668837,0
2096921,2096921,159883,668638,0
2096921,2096921,159766,668815,0
2096921,2096921,159802,668428,0
2096921,2096921,159870,668402,0
2096921,2096921,159963,668324,0
2096921,2096921,159883,668568,0
2096921,2096921,160186,668333,0
2096921,2096921,159991,668393,0
2096921,2096921,159886,668403,0
2096921,2096921,159896,668518,0
2096921,2096921,159991,668221,0
2096921,2096921,159671,668377,0
2096921,2096921,159486,667998,0
2096921,2096921,159596,667809,0
2096921,2096921,159636,667795,0
2096921,2096921,159681,667686,0
2096921,2096921,159611,667549,0
2096921,2096921,159600,667041,0
2096921,2096921,159248,666966,0
2096921,2096921,159620,667165,0
2096921,2096921,159671,666807,0
2096921,2096921,159032,667034,0
2096921,2096921,158689,665783,0
2096921,2096921,158767,665724,0
2096921,2096921,158941,665603,0
2096921,2096921,158750,665852,0
2096921,2096921,158603,665960,0
2096921,2096921,158412,664629,0
2096921,2096921,158496,664686,0
2096921,2096921,158688,664616,0
2096921,2096921,158507,664552,0
2096921,2096921,158003,664520,0
2096921,2096921,157978,663129,0
2096921,2096921,158170,662790,0
2096921,2096921,157891,662876,0
2096921,2096921,158113,662809,0
2096921,2096921,156715,662630,0
2096921,2096921,156729,660141,0
2096921,2096921,156611,659727,0
2096921,2096921,156576,659559,0
2096921,2096921,156310,659509,0
2096921,2096921,155495,659316,0
2096921,2096921,155288,656297,0
2096921,2096921,155092,655476,0
2096921,2096921,155042,655358,0
2096921,2096921,155112,654999,0
2096921,2096921,154115,655215,0
2096921,2096921,154003,652753,0
2096921,2096921,153937,652637,0
2096921,2096921,154264,652130,0
2096921,2096921,154224,652416,0
2096921,2096921,153135,652222,0
2096921,2096921,153030,650363,0
2096921,2096921,152955,649982,0
2096921,2096921,153236,649897,0
2096921,2096921,153321,649741,0
2096921,2096921,152574,649594,0
2096921,2096921,152442,648432,0
2096921,2096921,152510,648148,0
2096921,2096921,152411,648221,0
2096921,2096921,152329,648372,0
2096921,2096921,152310,648167,0
2096921,2096921,152105,646862,0
2096921,2096921,152073,646864,0
2096921,2096921,152192,646874,0
2096921,2096921,152270,646767,0
2096921,2096921,151714,646689,0
2096921,2096921,151809,645986,0
2096921,2096921,151443,645896,0
2096921,2096921,151484,646017,0
2096921,2096921,151519,646191,0
2096921,2096921,151280,646173,0
2096921,2096921,151247,645466,0
2096921,2096921,151454,645267,0
2096921,2096921,151429,645139,0
2096921,2096921,151293,645131,0
2096921,2096921,150971,645331,0
2096921,2096921,151308,645178,0
2096921,2096921,151317,645310,0
2096921,2096921,151163,645186,0
2096921,2096921,151658,645326,0
2096921,2096921,151286,645215,0
2096921,2096921,151263,645137,0
2096921,2096921,151228,645093,0
2096921,2096921,151296,645243,0
2096921,2096921,151316,645059,0
2096921,2096921,151362,645199,0
2096921,2096921,151567,645289,0
2096921,2096921,151498,645445,0
2096921,2096921,151540,645571,0
2096921,2096921,151545,645467,0
2096921,2096921,151534,645553,0
2096921,2096921,151583,645521,0
2096921,2096921,151560,645775,0
2096921,2096921,151356,645573,0
2096921,2096921,151350,645415,0
2096921,2096921,151387,645878,0
2096921,2096921,151532,646102,0
2096921,2096921,151575,645874,0
2096921,2096921,151629,646033,0
2096921,2096921,151662,645891,0
2096921,2096921,151918,645886,0
2096921,2096921,151963,646476,0
2096921,2096921,151841,646794,0
2096921,2096921,151738,646674,0
2096921,2096921,151938,646717,0
2096921,2096921,152149,646510,0
2096921,2096921,152047,647139,0
2096921,2096921,152097,647257,0
2096921,2096921,152212,647504,0
2096921,2096921,152169,647451,0
2096921,2096921,152459,647369,0
2096921,2096921,152124,647788,0
2096921,2096921,152530,648086,0
2096921,2096921,152410,648072,0
2096921,2096921,152497,647990,0
2096921,2096921,152448,647887,0
2096921,2096921,152409,648547,0
2096921,2096921,152373,648859,0
2096921,2096921,152603,648721,0
2096921,2096921,152516,648903,0
2096921,2096921,153016,648839,0
2096921,2096921,152729,649336,0
2096921,2096921,152881,649644,0
2096921,2096921,152985,649838,0
2096921,2096921,153010,649648,0
2096921,2096921,153133,649375,0
2096921,2096921,153048,650155,0
2096921,2096921,153270,649871,0
2096921,2096921,152826,650297,0
2096921,2096921,153219,650122,0
2096921,2096921,153352,650390,0
2096921,2096921,153597,650585,0
2096921,2096921,153614,650840,0
2096921,2096921,153546,650886,0
2096921,2096921,153571,650922,0
2096921,2096921,153542,650876,0
2096921,2096921,153763,651398,0
2096921,2096921,153822,651740,0
2096921,2096921,153654,651404,0
2096921,2096921,153751,651540,0
2096921,2096921,153752,651443,0
2096921,2096921,153765,652190,0
2096921,2096921,153822,652382,0
2096921,2096921,154015,651794,0
2096921,2096921,154251,651945,0
2096921,2096921,154276,651822,0
2096921,2096921,154290,652637,0
2096921,2096921,154178,653293,0
2096921,2096921,154169,652933,0
2096921,2096921,154068,653172,0
2096921,2096921,154504,653225,0
2096921,2096921,154617,653536,0
2096921,2096921,154581,653634,0
2096921,2096921,154494,653785,0
2096921,2096921,154495,654051,0
2096921,2096921,154445,654016,0
2096921,2096921,155048,654326,0
2096921,2096921,154890,654475,0
2096921,2096921,154859,654343,0
2096921,2096921,154808,654356,0
2096921,2096921,155060,654480,0
2096921,2096921,155195,654973,0
2096921,2096921,154788,655197,0
2096921,2096921,154868,654892,0
2096921,2096921,155111,654737,0
2096921,2096921,155374,654502,0
2096921,2096921,155254,655405,0
2096921,2096921,155141,655657,0
2096921,2096921,155180,655833,0
2096921,2096921,155333,655957,0
2096921,2096921,155171,655997,0
2096921,2096921,155319,655816,0
2096921,2096921,155178,655934,0
2096921,2096921,155488,656010,0
2096921,2096921,155313,656174,0
2096921,2096921,155496,656147,0
2096921,2096921,155529,656558,0
2096921,2096921,155590,656377,0
2096921,2096921,155368,656567,0
2096921,2096921,155340,656350,0
2096921,2096921,155422,656209,0
2096921,2096921,155383,656631,0
2096921,2096921,155564,656637,0
2096921,2096921,155418,656251,0
2096921,2096921,155524,656431,0
2096921,2096921,155644,656729,0
2096921,2096921,155532,656647,0
2096921,2096921,155733,656732,0
2096921,2096921,155934,656866,0
2096921,2096921,155588,656635,0
2096921,2096921,155986,656823,0
2096921,2096921,155782,656636,0
2096921,2096921,155656,656628,0
2096921,2096921,155716,656675,0
2096921,2096921,155208,656643,0
2096921,2096921,155436,656555,0
2096921,2096921,155201,656352,0
2096921,2096921,155607,656389,0
2096921,2096921,155575,656481,0
2096921,2096921,155509,656351,0
2096921,2096921,155196,656450,0
2096921,2096921,155769,656269,0
2096921,2096921,155383,655954,0
2096921,2096921,155369,656283,0
2096921,2096921,155595,656234,0
2096921,2096921,155365,656320,0
2096921,2096921,155412,656031,0
2096921,2096921,155329,655947,0
2096921,2096921,155410,656028,0
2096921,2096921,155708,656349,0
2096921,2096921,155107,656311,0
2096921,2096921,155171,656229,0
2096921,2096921,155220,655612,0
2096921,2096921,155214,655513,0
2096921,2096921,155150,655467,0
2096921,2096921,154975,655530,0
2096921,2096921,155043,655319,0
2096921,2096921,154959,655686,0
2096921,2096921,155084,655242,0
2096921,2096921,155361,655604,0
2096921,2096921,155211,655730,0
2096921,2096921,155334,655692,0
2096921,2096921,155018,655743,0
2096921,2096921,155220,655570,0
2096921,2096921,155258,655443,0
2096921,2096921,155277,655633,0
2096921,2096921,155411,655462,0
2096921,2096921,155204,655242,0
2096921,2096921,155010,655343,0
2096921,2096921,154916,655755,0
2096921,2096921,154958,655883,0
2096921,2096921,155107,655690,0
2096921,2096921,155223,655643,0
2096921,2096921,155107,655567,0
2096921,2096921,155144,655480,0
2096921,2096921,155127,655759,0
2096921,2096921,155298,656013,0
2096921,2096921,155327,656123,0
2096921,2096921,155440,656106,0
2096921,2096921,155411,656106,0
2096921,2096921,155719,655842,0
2096921,2096921,155661,656072,0
2096921,2096921,155247,656174,0
2096921,2096921,155480,656059,0
2096921,2096921,155440,655936,0
2096921,2096921,155732,656201,0
2096921,2096921,155681,656776,0
2096921,2096921,155857,656951,0
2096921,2096921,155801,656788,0
2096921,2096921,155641,657045,0
2096921,2096921,155547,656940,0
2096921,2096921,155630,657218,0
2096921,2096921,155983,657328,0
2096921,2096921,155806,657214,0
2096921,2096921,156023,657537,0
2096921,2096921,155723,657379,0
2096921,2096921,156333,657732,0
2096921,2096921,156017,658046,0
2096921,2096921,156278,658029,0
2096921,2096921,156349,658079,0
2096921,2096921,156021,658283,0
2096921,2096921,156212,658173,0
2096921,2096921,156284,658663,0
2096921,2096921,155857,658126,0
2096921,2096921,155878,658480,0
2096921,2096921,156344,658262,0
2096921,2096921,156626,658916,0
2096921,2096921,156382,658958,0
2096921,2096921,156442,659147,0
2096921,2096921,156182,659050,0
2096921,2096921,156595,659197,0
2096921,2096921,156340,659281,0
2096921,2096921,156838,659371,0
2096921,2096921,156788,659535,0
2096921,2096921,156350,659238,0
2096921,2096921,156768,659448,0
2096921,2096921,156600,660046,0
2096921,2096921,156737,659880,0
2096921,2096921,156565,659945,0
2096921,2096921,156521,660342,0
2096921,2096921,156876,659943,0
2096921,2096921,157017,660226,0
2096921,2096921,157108,660308,0
2096921,2096921,156887,660481,0
2096921,2096921,156877,660382,0
2096921,2096921,157198,660271,0
2096921,2096921,157044,660935,0
2096921,2096921,157070,661108,0
2096921,2096921,157152,661013,0
2096921,2096921,157230,660954,0
2096921,2096921,157111,660989,0
2096921,2096921,157225,661461,0
2096921,2096921,157572,661600,0
2096921,2096921,157354,661605,0
2096921,2096921,157405,661292,0
2096921,2096921,157461,661077,0
2096921,2096921,157570,661930,0
2096921,2096921,157561,661849,0
2096921,2096921,157282,662088,0
2096921,2096921,157231,661946,0
2096921,2096921,157440,661869,0
2096921,2096921,157501,662446,0
2096921,2096921,157802,662513,0
2096921,2096921,157713,662616,0
2096921,2096921,157619,662292,0
2096921,2096921,157723,662360,0
2096921,2096921,157778,663028,0
2096921,2096921,157812,662572,0
2096921,2096921,157798,662929,0
2096921,2096921,157982,662608,0
2096921,2096921,157850,662678,0
2096921,2096921,158010,663288,0
2096921,2096921,157848,663134,0
2096921,2096921,157811,663311,0
2096921,2096921,157745,662992,0
2096921,2096921,157730,663416,0
2096921,2096921,158178,663862,0
2096921,2096921,157926,663839,0
2096921,2096921,158013,663803,0
2096921,2096921,157922,664238,0
2096921,2096921,158392,664015,0
2096921,2096921,158538,664245,0
2096921,2096921,158272,664411,0
2096921,2096921,158133,664388,0
2096921,2096921,158013,664214,0
2096921,2096921,158265,664432,0
2096921,2096921,158369,664835,0
2096921,2096921,158667,664686,0
2096921,2096921,158514,664507,0
2096921,2096921,158254,664835,0
2096921,2096921,158659,664707,0
2096921,2096921,158266,665077,0
2096921,2096921,158453,665318,0
2096921,2096921,158261,665344,0
2096921,2096921,158460,665108,0
2096921,2096921,158571,664940,0
2096921,2096921,158693,665342,0
2096921,2096921,158721,665329,0
2096921,2096921,158854,665615,0
2096921,2096921,158911,665549,0
2096921,2096921,158939,665769,0
2096921,2096921,158817,665988,0
2096921,2096921,158991,666035,0
2096921,2096921,158749,666008,0
2096921,2096921,158865,665875,0
2096921,2096921,159130,666079,0
2096921,2096921,159355,666158,0
2096921,2096921,159014,666030,0
2096921,2096921,158946,666236,0
2096921,2096921,158916,666352,0
2096921,2096921,159025,666277,0
2096921,2096921,159026,666921,0
2096921,2096921,159052,666829,0
2096921,2096921,159291,666492,0
2096921,2096921,159282,666503,0
2096921,2096921,159220,666949,0
2096921,2096921,159597,666918,0
2096921,2096921,159133,667236,0
2096921,2096921,159224,667401,0
2096921,2096921,159314,667175,0
2096921,2096921,159405,667288,0
2096921,2096921,159535,667425,0
2096921,2096921,159180,667498,0
2096921,2096921,159425,667365,0
2096921,2096921,159351,667639,0
2096921,2096921,159472,667911,0
2096921,2096921,159289,668046,0
2096921,2096921,159671,668054,0
2096921,2096921,159473,667896,0
2096921,2096921,159340,667838,0
2096921,2096921,159539,667928,0
2096921,2096921,159527,668092,0
2096921,2096921,159579,668255,0
2096921,2096921,159718,668073,0
2096921,2096921,159505,668380,0
2096921,2096921,159921,668162,0
2096921,2096921,159893,668517,0
2096921,2096921,159414,668632,0
2096921,2096921,159745,668578,0
2096921,2096921,159529,668694,0
2096921,2096921,159907,668701,0
2096921,2096921,159804,668940,0
2096921,2096921,159717,668835,0
2096921,2096921,159741,668940,0
2096921,2096921,159831,668531,0
2096921,2096921,159629,668901,0
2096921,2096921,159923,669180,0
2096921,2096921,159716,669090,0
2096921,2096921,159656,669703,0
2096921,2096921,160044,669428,0
2096921,2096921,159796,669094,0
2096921,2096921,160114,669246,0
2096921,2096921,159970,669552,0
2096921,2096921,159917,669622,0
2096921,2096921,160023,669473,0
2096921,2096921,159962,669544,0
2096921,2096921,160254,669857,0
2096921,2096921,160194,669985,0
2096921,2096921,160110,669769,0
2096921,2096921,160289,670024,0
2096921,2096921,160039,669866,0
2096921,2096921,160210,670394,0
2096921,2096921,160231,670121,0
2096921,2096921,160254,669994,0
2096921,2096921,160023,670001,0
2096921,2096921,160231,670480,0
2096921,2096921,160083,670432,0
2096921,2096921,160176,670574,0
2096921,2096921,160394,670617,0
2096921,2096921,160244,670605,0
2096921,2096921,160264,670508,0
2096921,2096921,160445,670426,0
2096921,2096921,160060,670780,0
2096921,2096921,160212,670756,0
2096921,2096921,160309,670830,0
2096921,2096921,160167,670910,0
2096921,2096921,160739,670974,0
2096921,2096921,160624,670995,0
2096921,2096921,160424,671045,0
2096921,2096921,160600,670979,0
2096921,2096921,160542,670771,0
2096921,2096921,160580,671531,0
2096921,2096921,160753,671545,0
2096921,2096921,160542,671060,0
2096921,2096921,160613,671348,0
2096921,2096921,160834,671314,0
2096921,2096921,160635,671488,0
2096921,2096921,160561,671925,0
2096921,2096921,160631,671794,0
2096921,2096921,160749,671898,0
2096921,2096921,160942,671862,0
2096921,2096921,160620,671727,0
2096921,2096921,160869,671918,0
2096921,2096921,160449,671655,0
2096921,2096921,160480,671775,0
2096921,2096921,160850,671970,0
2096921,2096921,160771,672338,0
2096921,2096921,160953,672136,0
2096921,2096921,160649,672554,0
2096921,2096921,160901,672330,0
2096921,2096921,160929,672330,0
2096921,2096921,160891,672493,0
2096921,2096921,160551,672611,0
2096921,2096921,160808,672577,0
2096921,2096921,161025,672387,0
2096921,2096921,161037,672183,0
2096921,2096921,160844,672780,0
2096921,2096921,160891,672884,0
2096921,2096921,161117,672864,0
2096921,2096921,160891,672907,0
2096921,2096921,160827,672820,0
2096921,2096921,161056,672939,0
2096921,2096921,161420,672857,0
2096921,2096921,161391,673039,0
2096921,2096921,161073,673308,0
2096921,2096921,161024,672872,0
2096921,2096921,161038,672931,0
2096921,2096921,161169,673464,0
2096921,2096921,161150,673346,0
2096921,2096921,161135,673187,0
2096921,2096921,161398,673235,0
2096921,2096921,161297,673465,0
2096921,2096921,161196,673549,0
2096921,2096921,161230,673535,0
2096921,2096921,161247,673857,0
2096921,2096921,161270,673611,0
2096921,2096921,161298,673466,0
2096921,2096921,161579,673561,0
2096921,2096921,161317,673502,0
2096921,2096921,161343,673777,0
2096921,2096921,161132,673947,0
2096921,2096921,161380,674356,0
2096921,2096921,161228,674051,0
2096921,2096921,161115,674069,0
2096921,2096921,161244,673954,0
2096921,2096921,161082,673855,0
2096921,2096921,160963,674139,0
2096921,2096921,161259,674222,0
2096921,2096921,161369,674278,0
2096921,2096921,161610,674178,0
2096921,2096921,161530,674025,0
2096921,2096921,161366,674283,0
2096921,2096921,161151,674475,0
2096921,2096921,161229,674367,0
2096921,2096921,161236,674487,0
2096921,2096921,161432,674047,0
2096921,2096921,161526,674324,0
2096921,2096921,161677,674204,0
2096921,2096921,161594,674379,0
2096921,2096921,161534,674108,0
2096921,2096921,161169,674551,0
2096921,2096921,161556,674627,0
2096921,2096921,161435,674384,0
2096921,2096921,161335,674460,0
2096921,2096921,161513,674413,0
2096921,2096921,161600,674328,0
2096921,2096921,161675,674918,0
2096921,2096921,161608,675153,0
2096921,2096921,161821,674965,0
2096921,2096921,161636,674832,0
2096921,2096921,161691,675055,0
2096921,2096921,161521,675166,0
2096921,2096921,161761,675056,0
2096921,2096921,161693,674876,0
2096921,2096921,161453,674980,0
2096921,2096921,161577,675215,0
2096921,2096921,161554,674965,0
2096921,2096921,161724,675106,0
2096921,2096921,161674,674938,0
2096921,2096921,161578,675181,0
2096921,2096921,161317,674794,0
2096921,2096921,161241,674779,0
2096921,2096921,161251,674614,0
2096921,2096921,161035,674318,0
2096921,2096921,161211,674468,0
2096921,2096921,161207,674474,0
2096921,2096921,161016,674171,0
2096921,2096921,161257,674094,0
2096921,2096921,161230,674276,0
2096921,2096921,161179,674109,0
2096921,2096921,160719,674205,0
2096921,2096921,160716,673360,0
2096921,2096921,160740,673473,0
2096921,2096921,160750,672967,0
2096921,2096921,160649,673191,0
2096921,2096921,160398,673058,0
2096921,2096921,160131,671792,0
2096921,2096921,160239,671709,0
2096921,2096921,160047,671635,0
2096921,2096921,160381,671744,0
2096921,2096921,159720,671780,0
2096921,2096921,159758,670700,0
2096921,2096921,159816,670698,0
2096921,2096921,159628,670462,0
2096921,2096921,159690,670559,0
2096921,2096921,158844,670424,0
2096921,2096921,158490,667872,0
2096921,2096921,158520,667308,0
2096921,2096921,158699,667440,0
2096921,2096921,158193,667194,0
2096921,2096921,157532,667506,0
2096921,2096921,157201,664453,0
2096921,2096921,157022,663277,0
2096921,2096921,157049,663126,0
2096921,2096921,157030,663128,0
2096921,2096921,156306,663137,0
2096921,2096921,155792,660968,0
2096921,2096921,155827,660586,0
2096921,2096921,156003,660277,0
2096921,2096921,155986,660286,0
2096921,2096921,155451,660254,0
2096921,2096921,155030,658547,0
2096921,2096921,155190,658024,0
2096921,2096921,154987,658009,0
2096921,2096921,154927,657940,0
2096921,2096921,154657,657991,0
2096921,2096921,154460,656553,0
2096921,2096921,154406,656395,0
2096921,2096921,154542,656313,0
2096921,2096921,154500,656767,0
2096921,2096921,154114,656506,0
2096921,2096921,154134,655321,0
2096921,2096921,153976,655057,0
2096921,2096921,153907,654904,0
2096921,2096921,154075,655180,0
2096921,2096921,153672,655299,0
2096921,2096921,153842,654564,0
2096921,2096921,153745,654181,0
2096921,2096921,153900,654556,0
2096921,2096921,153867,654591,0
2096921,2096921,153550,654730,0
2096921,2096921,153297,654095,0
2096921,2096921,153487,654172,0
2096921,2096921,153558,654161,0
2096921,2096921,153555,653853,0
2096921,2096921,153429,654041,0
2096921,2096921,153454,654062,0
2096921,2096921,153414,654505,0
2096921,2096921,153708,654034,0
2096921,2096921,153389,654179,0
2096921,2096921,153582,654274,0
2096921,2096921,153495,654273,0
2096921,2096921,153496,654241,0
2096921,2096921,153573,654283,0
2096921,2096921,153518,654223,0
2096921,2096921,153708,654152,0
2096921,2096921,153466,654897,0
2096921,2096921,153830,654962,0
2096921,2096921,153814,654469,0
2096921,2096921,154064,654643,0
2096921,2096921,154113,654642,0
2096921,2096921,153736,655053,0
2096921,2096921,153951,655185,0
2096921,2096921,154010,654955,0
2096921,2096921,153782,654938,0
2096921,2096921,154102,655024,0
2096921,2096921,153955,655326,0
2096921,2096921,154246,655342,0
2096921,2096921,154024,655456,0
2096921,2096921,154021,655716,0
2096921,2096921,154182,655565,0
2096921,2096921,154179,655872,0
2096921,2096921,154406,656422,0
2096921,2096921,154181,656334,0
2096921,2096921,154276,656459,0
2096921,2096921,154406,656226,0
2096921,2096921,154540,657094,0
2096921,2096921,154641,657050,0
2096921,2096921,154446,657114,0
2096921,2096921,154415,656993,0
2096921,2096921,154783,657182,0
2096921,2096921,154467,657991,0
2096921,2096921,155019,657799,0
2096921,2096921,155078,657931,0
2096921,2096921,155243,657945,0
2096921,2096921,155261,657972,0
2096921,2096921,155256,658724,0
2096921,2096921,155100,659112,0
2096921,2096921,154972,658767,0
2096921,2096921,155371,659296,0
2096921,2096921,155681,658939,0
2096921,2096921,155725,659724,0
2096921,2096921,155857,659728,0
2096921,2096921,155454,659991,0
2096921,2096921,155399,659770,0
2096921,2096921,155538,659789,0
2096921,2096921,155590,660245,0
2096921,2096921,155679,660493,0
2096921,2096921,156005,660653,0
2096921,2096921,155874,660509,0
2096921,2096921,155980,660756,0
2096921,2096921,155944,661262,0
2096921,2096921,155906,661373,0
2096921,2096921,155978,661442,0
2096921,2096921,156008,661472,0
2096921,2096921,156264,661428,0
2096921,2096921,156333,661987,0
2096921,2096921,156317,662151,0
2096921,2096921,156470,662304,0
2096921,2096921,156505,662400,0
2096921,2096921,156621,662192,0
2096921,2096921,156555,662778,0
2096921,2096921,156723,663017,0
2096921,2096921,156879,662985,0
2096921,2096921,156968,663386,0
2096921,2096921,156907,663335,0
2096921,2096921,156863,664103,0
2096921,2096921,157227,664036,0
2096921,2096921,157052,663767,0
2096921,2096921,156838,663981,0
2096921,2096921,157208,664196,0
2096921,2096921,157295,664803,0
2096921,2096921,157242,665175,0
2096921,2096921,157027,665040,0
2096921,2096921,157203,664913,0
2096921,2096921,157394,664721,0
2096921,2096921,157730,665604,0
2096921,2096921,157734,666116,0
2096921,2096921,157757,666089,0
2096921,2096921,157802,666068,0
2096921,2096921,157903,665972,0
2096921,2096921,157828,666639,0
2096921,2096921,157807,666454,0
2096921,2096921,157828,666599,0
2096921,2096921,157602,666646,0
2096921,2096921,157676,666564,0
2096921,2096921,157866,667231,0
2096921,2096921,157817,667376,0
2096921,2096921,158150,667361,0
2096921,2096921,158336,667124,0
2096921,2096921,158164,667239,0
2096921,2096921,158452,667634,0
2096921,2096921,158108,667800,0
2096921,2096921,158610,667899,0
2096921,2096921,158426,667975,0
2096921,2096921,158675,668134,0
2096921,2096921,158740,668462,0
2096921,2096921,158454,668128,0
2096921,2096921,158546,668039,0
2096921,2096921,158484,668153,0
2096921,2096921,158449,668363,0
2096921,2096921,158653,668772,0
2096921,2096921,158694,668669,0
2096921,2096921,158602,668615,0
2096921,2096921,158694,668788,0
2096921,2096921,158736,668526,0
2096921,2096921,158605,668542,0
2096921,2096921,158536,668623,0
2096921,2096921,158576,668682,0
2096921,2096921,158496,668669,0
2096921,2096921,158759,668630,0
2096921,2096921,158271,668448,0
2096921,2096921,158839,669090,0
2096921,2096921,158785,669013,0
2096921,2096921,158666,669268,0
2096921,2096921,158250,668771,0
2096921,2096921,158510,668939,0
2096921,2096921,158544,668960,0
2096921,2096921,158815,668518,0
2096921,2096921,158598,668597,0
2096921,2096921,158188,668747,0
2096921,2096921,158301,668634,0
2096921,2096921,158443,668377,0
2096921,2096921,158342,668496,0
2096921,2096921,158723,668502,0
2096921,2096921,158355,668135,0
2096921,2096921,158554,668424,0
2096921,2096921,158494,668643,0
2096921,2096921,158514,668628,0
2096921,2096921,158246,668421,0
2096921,2096921,158524,668464,0
2096921,2096921,158696,667903,0
2096921,2096921,158512,668328,0
2096921,2096921,158506,668066,0
2096921,2096921,158029,668273,0
2096921,2096921,158334,667996,0
2096921,2096921,158137,668189,0
2096921,2096921,158312,668222,0
2096921,2096921,158223,668215,0
2096921,2096921,158299,667912,0
2096921,2096921,158227,668079,0
2096921,2096921,158138,668310,0
2096921,2096921,158351,668447,0
2096921,2096921,158362,668238,0
2096921,2096921,158216,668409,0
2096921,2096921,158156,667946,0
2096921,2096921,158372,667954,0
2096921,2096921,158259,668121,0
2096921,2096921,158456,668471,0
2096921,2096921,158123,668452,0
2096921,2096921,158251,668028,0
2096921,2096921,158406,668090,0
2096921,2096921,158602,668079,0
2096921,2096921,158379,668201,0
2096921,2096921,158652,668282,0
2096921,2096921,158710,668443,0
2096921,2096921,158503,668759,0
2096921,2096921,158503,668667,0
2096921,2096921,158446,668634,0
2096921,2096921,158290,668479,0
2096921,2096921,158644,668459,0
2096921,2096921,158426,668696,0
2096921,2096921,158374,668682,0
2096921,2096921,158285,669126,0
2096921,2096921,158366,669093,0
2096921,2096921,159020,668860,0
2096921,2096921,159049,669154,0
2096921,2096921,158811,669529,0
2096921,2096921,158834,669400,0
2096921,2096921,158645,669537,0
2096921,2096921,158600,669356,0
2096921,2096921,159098,670153,0
2096921,2096921,159061,670411,0
2096921,2096921,159015,670275,0
2096921,2096921,159139,670298,0
2096921,2096921,159377,670102,0
2096921,2096921,159198,670775,0
2096921,2096921,159385,670735,0
2096921,2096921,159237,671038,0
2096921,2096921,159351,671025,0
2096921,2096921,159489,670940,0
2096921,2096921,159444,671158,0
2096921,2096921,159351,671412,0
2096921,2096921,159594,671076,0
2096921,2096921,159187,671494,0
2096921,2096921,159381,671764,0
2096921,2096921,159723,671576,0
2096921,2096921,159501,671922,0
2096921,2096921,159677,671849,0
2096921,2096921,159637,671814,0
2096921,2096921,159692,671889,0
2096921,2096921,159560,672095,0
2096921,2096921,159861,672102,0
2096921,2096921,159590,671931,0
2096921,2096921,159839,671733,0
2096921,2096921,159922,672096,0
2096921,2096921,160008,672572,0
2096921,2096921,159949,672620,0
2096921,2096921,159815,672623,0
2096921,2096921,160174,672720,0
2096921,2096921,160533,672672,0
2096921,2096921,160374,673134,0
2096921,2096921,160170,673238,0
2096921,2096921,160258,673181,0
2096921,2096921,160038,673122,0
2096921,2096921,160313,673356,0
2096921,2096921,160054,673749,0
2096921,2096921,160197,673991,0
2096921,2096921,160268,673603,0
2096921,2096921,160026,673783,0
2096921,2096921,160268,673529,0
2096921,2096921,160253,673871,0
2096921,2096921,160320,674178,0
2096921,2096921,160293,673962,0
2096921,2096921,160331,674191,0
2096921,2096921,160749,673956,0
2096921,2096921,160578,674510,0
2096921,2096921,160683,674505,0
2096921,2096921,160480,674426,0
2096921,2096921,160513,674738,0
2096921,2096921,160695,674542,0
2096921,2096921,160849,674727,0
2096921,2096921,161119,674712,0
2096921,2096921,160784,674748,0
2096921,2096921,160899,674926,0
2096921,2096921,160833,674801,0
2096921,2096921,161039,675117,0
2096921,2096921,160714,675490,0
2096921,2096921,160754,675338,0
2096921,2096921,160704,675430,0
2096921,2096921,160857,675419,0
2096921,2096921,161119,675609,0
2096921,2096921,161026,675916,0
2096921,2096921,160823,675666,0
2096921,2096921,160708,675602,0
2096921,2096921,161128,675693,0
2096921,2096921,161111,675937,0
2096921,2096921,161303,676398,0
2096921,2096921,161048,676292,0
2096921,2096921,161122,676460,0
2096921,2096921,161161,676218,0
2096921,2096921,161026,676613,0
2096921,2096921,161039,676471,0
2096921,2096921,161220,676397,0
2096921,2096921,161310,676472,0
2096921,2096921,161412,676642,0
2096921,2096921,161449,676904,0
2096921,2096921,161711,677022,0
2096921,2096921,161352,677398,0
2096921,2096921,161553,677298,0
2096921,2096921,161504,677048,0
2096921,2096921,161446,677360,0
2096921,2096921,161407,677309,0
2096921,2096921,161584,677081,0
2096921,2096921,161504,676958,0
2096921,2096921,161787,677129,0
2096921,2096921,161606,677445,0
2096921,2096921,161657,677416,0
2096921,2096921,161837,677239,0
2096921,2096921,161578,677520,0
2096921,2096921,161806,677726,0
2096921,2096921,161408,677615,0
2096921,2096921,161620,677673,0
2096921,2096921,162016,677709,0
2096921,2096921,161707,677868,0
2096921,2096921,161480,677702,0
2096921,2096921,161692,678094,0
2096921,2096921,161553,678221,0
2096921,2096921,161812,678379,0
2096921,2096921,161866,678024,0
2096921,2096921,161872,678025,0
2096921,2096921,162037,678470,0
2096921,2096921,161842,678446,0
2096921,2096921,161971,678481,0
2096921,2096921,161815,678260,0
2096921,2096921,162169,678416,0
2096921,2096921,162137,678374,0
2096921,2096921,162254,678769,0
2096921,2096921,162010,678604,0
2096921,2096921,162157,678628,0
2096921,2096921,162174,678584,0
2096921,2096921,162138,678944,0
2096921,2096921,162230,679004,0
2096921,2096921,162210,678756,0
2096921,2096921,162357,679073,0
2096921,2096921,162235,678757,0
2096921,2096921,162318,679122,0
2096921,2096921,162289,679075,0
2096921,2096921,162407,679196,0
2096921,2096921,162442,679225,0
2096921,2096921,162350,679273,0
2096921,2096921,162634,678955,0
2096921,2096921,162596,679131,0
2096921,2096921,162342,679115,0
2096921,2096921,162272,679256,0
2096921,2096921,162643,679173,0
2096921,2096921,162614,679362,0
2096921,2096921,162614,679363,0
2096921,2096921,162473,679386,0
2096921,2096921,162337,679375,0
2096921,2096921,162231,679559,0
2096921,2096921,162445,679492,0
2096921,2096921,162541,679721,0
2096921,2096921,162486,679814,0
2096921,2096921,162559,679498,0
2096921,2096921,162558,679712,0
2096921,2096921,162333,680040,0
2096921,2096921,162401,680025,0
2096921,2096921,162442,680277,0
2096921,2096921,162605,680058,0
2096921,2096921,162841,679891,0
2096921,2096921,162549,680210,0
2096921,2096921,162511,679997,0
2096921,2096921,162385,679979,0
2096921,2096921,162169,679844,0
2096921,2096921,162678,679832,0
2096921,2096921,162723,679727,0
2096921,2096921,162752,680022,0
2096921,2096921,162801,680256,0
2096921,2096921,162820,680380,0
2096921,2096921,162716,680278,0
2096921,2096921,162924,680487,0
2096921,2096921,162838,680454,0
2096921,2096921,162721,680208,0
2096921,2096921,162704,680054,0
2096921,2096921,162810,680168,0
2096921,2096921,162768,680402,0
2096921,2096921,162766,680592,0
2096921,2096921,162511,680200,0
2096921,2096921,162690,680296,0
2096921,2096921,162795,680538,0
2096921,2096921,162921,680577,0
2096921,2096921,162813,680589,0
2096921,2096921,162828,680378,0
2096921,2096921,162660,680402,0
2096921,2096921,162466,680667,0
2096921,2096921,162795,680848,0
2096921,2096921,162790,680752,0
2096921,2096921,162917,680951,0
2096921,2096921,162846,680573,0
2096921,2096921,162874,680646,0
2096921,2096921,162993,680627,0
2096921,2096921,162996,680974,0
2096921,2096921,162989,681140,0
2096921,2096921,163076,680937,0
2096921,2096921,163095,680749,0
2096921,2096921,162892,681221,0
2096921,2096921,163131,680923,0
2096921,2096921,163026,680731,0
2096921,2096921,162819,681000,0
2096921,2096921,162804,681245,0
2096921,2096921,162942,681296,0
2096921,2096921,162991,681057,0
2096921,2096921,163105,681223,0
2096921,2096921,162949,681024,0
2096921,2096921,163095,681297,0
2096921,2096921,163134,681108,0
2096921,2096921,163391,681497,0
2096921,2096921,163284,681329,0
2096921,2096921,163196,681173,0
2096921,2096921,163174,681196,0
2096921,2096921,163138,681620,0
2096921,2096921,163024,681394,0
2096921,2096921,163313,681421,0
2096921,2096921,163100,681452,0
2096921,2096921,163265,681606,0
2096921,2096921,163265,681646,0
2096921,2096921,163322,681387,0
2096921,2096921,163230,681632,0
2096921,2096921,163115,681427,0
2096921,2096921,163375,681665,0
2096921,2096921,163085,681496,0
2096921,2096921,163074,681818,0
2096921,2096921,163391,681746,0
2096921,2096921,163225,681729,0
2096921,2096921,163102,681613,0
2096921,2096921,162982,681483,0
2096921,2096921,163112,681580,0
2096921,2096921,163050,681885,0
2096921,2096921,162898,681752,0
2096921,2096921,163275,681743,0
2096921,2096921,163340,681773,0
2096921,2096921,163149,681791,0
2096921,2096921,163088,681648,0
2096921,2096921,163426,681675,0
2096921,2096921,163042,681604,0
2096921,2096921,162967,681808,0
2096921,2096921,163202,681423,0
2096921,2096921,163216,681449,0
2096921,2096921,163259,681837,0
2096921,2096921,163217,681561,0
2096921,2096921,163411,681510,0
2096921,2096921,163393,681474,0
2096921,2096921,163377,681954,0
2096921,2096921,163332,681895,0
2096921,2096921,163255,681864,0
2096921,2096921,162974,681741,0
2096921,2096921,163004,681826,0
2096921,2096921,163045,681644,0
2096921,2096921,163261,681826,0
2096921,2096921,163036,681605,0
2096921,2096921,163071,681633,0
2096921,2096921,163295,681502,0
2096921,2096921,163152,681880,0
2096921,2096921,163265,681567,0
2096921,2096921,163323,681608,0
2096921,2096921,163202,681579,0
2096921,2096921,163221,681673,0
2096921,2096921,163229,681830,0
2096921,2096921,163306,681661,0
2096921,2096921,163192,681585,0
2096921,2096921,163165,681746,0
2096921,2096921,163504,681675,0
2096921,2096921,163349,681639,0
2096921,2096921,163087,681747,0
2096921,2096921,163072,681808,0
2096921,2096921,163279,681399,0
2096921,2096921,163299,681476,0
2096921,2096921,163140,681650,0
2096921,2096921,163169,681636,0
2096921,2096921,163236,681575,0
2096921,2096921,162910,681255,0
2096921,2096921,163240,681216,0
2096921,2096921,163089,681357,0
2096921,2096921,163008,681434,0
2096921,2096921,163140,681728,0
2096921,2096921,163264,681774,0
2096921,2096921,163024,681402,0
2096921,2096921,163413,681539,0
2096921,2096921,163272,681510,0
2096921,2096921,162765,681433,0
2096921,2096921,162756,680939,0
2096921,2096921,162740,680750,0
2096921,2096921,162936,680716,0
2096921,2096921,162901,680488,0
2096921,2096921,162630,680636,0
2096921,2096921,162562,680092,0
2096921,2096921,162414,679947,0
2096921,2096921,162632,679963,0
2096921,2096921,162796,680199,0
2096921,2096921,162411,679970,0
2096921,2096921,162271,678876,0
2096921,2096921,162227,678767,0
2096921,2096921,162196,679026,0
2096921,2096921,161947,678765,0
2096921,2096921,161883,678671,0
2096921,2096921,161705,677611,0
2096921,2096921,161630,677105,0
2096921,2096921,161767,677350,0
2096921,2096921,161745,677349,0
2096921,2096921,161426,677337,0
2096921,2096921,160997,676086,0
2096921,2096921,160919,675642,0
2096921,2096921,161191,675396,0
2096921,2096921,161111,675427,0
2096921,2096921,159706,675773,0
2096921,2096921,159862,672599,0
2096921,2096921,160099,672263,0
2096921,2096921,159760,672128,0
2096921,2096921,159599,671936,0
2096921,2096921,158504,671863,0
2096921,2096921,158301,668530,0
2096921,2096921,158251,667942,0
2096921,2096921,158176,667939,0
2096921,2096921,158463,667937,0
2096921,2096921,157329,667908,0
2096921,2096921,157014,665442,0
2096921,2096921,156966,664806,0
2096921,2096921,156791,664507,0
2096921,2096921,156962,664588,0
2096921,2096921,156219,664237,0
2096921,2096921,156115,662566,0
2096921,2096921,156225,661925,0
2096921,2096921,156398,661958,0
2096921,2096921,156241,662021,0
2096921,2096921,155772,661981,0
2096921,2096921,155347,660398,0
2096921,2096921,155330,660364,0
2096921,2096921,155347,660276,0
2096921,2096921,155573,660259,0
2096921,2096921,154769,660276,0
2096921,2096921,154880,659119,0
2096921,2096921,154985,658805,0
2096921,2096921,154718,659092,0
2096921,2096921,154811,658982,0
2096921,2096921,154596,658775,0
2096921,2096921,154797,658162,0
2096921,2096921,154883,658098,0
2096921,2096921,154719,657958,0
2096921,2096921,154695,657546,0
2096921,2096921,154274,657641,0
2096921,2096921,154231,656962,0
2096921,2096921,154493,657166,0
2096921,2096921,154423,656978,0
2096921,2096921,154582,656927,0
2096921,2096921,154362,657013,0
2096921,2096921,154401,656954,0
2096921,2096921,154125,656976,0
2096921,2096921,154464,657045,0
2096921,2096921,154272,656844,0
2096921,2096921,154240,656722,0
2096921,2096921,154051,656804,0
2096921,2096921,154267,657019,0
2096921,2096921,154208,656838,0
2096921,2096921,154240,656612,0
2096921,2096921,154420,656868,0
2096921,2096921,154440,656969,0
2096921,2096921,154405,657125,0
2096921,2096921,154430,657139,0
2096921,2096921,154368,657193,0
2096921,2096921,154436,657100,0
2096921,2096921,154286,657333,0
2096921,2096921,154245,657113,0
2096921,2096921,154393,657130,0
2096921,2096921,154537,656974,0
2096921,2096921,154374,657340,0
2096921,2096921,154459,657679,0
2096921,2096921,154683,657642,0
2096921,2096921,154365,657755,0
2096921,2096921,154688,657527,0
2096921,2096921,154746,657497,0
2096921,2096921,154745,657716,0
2096921,2096921,154527,658084,0
2096921,2096921,154615,658221,0
2096921,2096921,154582,657754,0
2096921,2096921,154832,657892,0
2096921,2096921,154951,658374,0
2096921,2096921,155049,658513,0
2096921,2096921,155154,658477,0
2096921,2096921,154905,658390,0
2096921,2096921,155128,658715,0
2096921,2096921,155209,659215,0
2096921,2096921,155172,658971,0
2096921,2096921,155298,658915,0
2096921,2096921,155183,659266,0
2096921,2096921,155116,658832,0
2096921,2096921,155149,659624,0
2096921,2096921,155034,660018,0
2096921,2096921,155130,660024,0
2096921,2096921,155262,659560,0
2096921,2096921,155467,659740,0
2096921,2096921,155683,660087,0
2096921,2096921,155431,660376,0
2096921,2096921,155437,660289,0
2096921,2096921,155354,660510,0
2096921,2096921,155846,660408,0
2096921,2096921,156007,660591,0
2096921,2096921,156071,660618,0
2096921,2096921,155610,660762,0
2096921,2096921,156087,661229,0
2096921,2096921,155751,661099,0
2096921,2096921,155979,661413,0
2096921,2096921,156075,661437,0
2096921,2096921,156153,661494,0
2096921,2096921,156202,661186,0
2096921,2096921,156339,661395,0
2096921,2096921,156751,662048,0
2096921,2096921,156708,662171,0
2096921,2096921,156315,662104,0
2096921,2096921,156272,662106,0
2096921,2096921,156430,662067,0
2096921,2096921,156436,662301,0
2096921,2096921,156475,662601,0
2096921,2096921,156522,663123,0
2096921,2096921,156681,662830,0
2096921,2096921,156646,662656,0
2096921,2096921,156827,663077,0
2096921,2096921,157065,663060,0
2096921,2096921,156916,663362,0
2096921,2096921,156933,663153,0
2096921,2096921,156689,663398,0
2096921,2096921,156692,663670,0
2096921,2096921,157163,663748,0
2096921,2096921,157058,663976,0
2096921,2096921,156823,663839,0
2096921,2096921,157186,663942,0
2096921,2096921,157241,664402,0
2096921,2096921,157174,664763,0
2096921,2096921,157231,664499,0
2096921,2096921,157270,664464,0
2096921,2096921,157612,664511,0
2096921,2096921,157464,664845,0
2096921,2096921,157697,664928,0
2096921,2096921,157532,665064,0
2096921,2096921,157346,665094,0
2096921,2096921,157481,664961,0
2096921,2096921,157457,665309,0
2096921,2096921,157572,665246,0
2096921,2096921,157522,665257,0
2096921,2096921,157678,665480,0
2096921,2096921,157736,665596,0
2096921,2096921,157732,665415,0
2096921,2096921,157677,665545,0
2096921,2096921,157874,665640,0
2096921,2096921,157789,665603,0
2096921,2096921,158002,665663,0
2096921,2096921,157832,665869,0
2096921,2096921,157944,666202,0
2096921,2096921,157868,665975,0
2096921,2096921,157855,665929,0
2096921,2096921,158063,665814,0
2096921,2096921,158139,666015,0
2096921,2096921,158152,666076,0
2096921,2096921,157917,666086,0
2096921,2096921,158087,665796,0
2096921,2096921,158007,665998,0
2096921,2096921,157838,665906,0
2096921,2096921,157897,665932,0
2096921,2096921,158165,665954,0
2096921,2096921,157938,665632,0
2096921,2096921,157950,665759,0
2096921,2096921,157851,665824,0
2096921,2096921,157836,665542,0
2096921,2096921,157987,665586,0
2096921,2096921,157998,665763,0
2096921,2096921,157765,665398,0
2096921,2096921,157803,665000,0
2096921,2096921,157464,665190,0
2096921,2096921,157860,665387,0
2096921,2096921,157909,665390,0
2096921,2096921,157585,665586,0
2096921,2096921,157736,665077,0
2096921,2096921,157701,664900,0
2096921,2096921,157572,664592,0
2096921,2096921,157568,664846,0
2096921,2096921,157466,664786,0
2096921,2096921,157461,664596,0
2096921,2096921,157545,664608,0
2096921,2096921,157427,664516,0
2096921,2096921,157488,664359,0
2096921,2096921,157165,664528,0
2096921,2096921,157181,664236,0
2096921,2096921,157380,664044,0
2096921,2096921,157347,664182,0
2096921,2096921,157239,663944,0
2096921,2096921,157422,664033,0
2096921,2096921,157019,663830,0
2096921,2096921,157317,663891,0
2096921,2096921,157261,663699,0
2096921,2096921,157439,663635,0
2096921,2096921,157275,663669,0
2096921,2096921,157050,663809,0
2096921,2096921,157189,663676,0
2096921,2096921,157116,663189,0
2096921,2096921,157157,663140,0
2096921,2096921,157185,663176,0
2096921,2096921,156994,663386,0
2096921,2096921,157069,663227,0
2096921,2096921,156870,663090,0
2096921,2096921,157137,663127,0
2096921,2096921,156926,663298,0
2096921,2096921,156896,663169,0
2096921,2096921,156989,663000,0
2096921,2096921,156897,663118,0
2096921,2096921,156737,663238,0
2096921,2096921,156977,663193,0
2096921,2096921,157196,662994,0
2096921,2096921,156994,663289,0
2096921,2096921,157151,663214,0
2096921,2096921,156930,662905,0
2096921,2096921,157043,663002,0
2096921,2096921,157158,663130,0
2096921,2096921,156951,662944,0
2096921,2096921,156928,663111,0
2096921,2096921,156742,663168,0
2096921,2096921,156946,663036,0
2096921,2096921,157556,663524,0
2096921,2096921,157372,663806,0
2096921,2096921,157245,663765,0
2096921,2096921,157415,663617,0
2096921,2096921,157506,663516,0
2096921,2096921,157471,664043,0
2096921,2096921,157592,664128,0
2096921,2096921,157757,663958,0
2096921,2096921,157660,664187,0
2096921,2096921,157959,664363,0
2096921,2096921,157894,664422,0
2096921,2096921,157991,664367,0
2096921,2096921,157565,664072,0
2096921,2096921,157722,664224,0
2096921,2096921,157745,664431,0
2096921,2096921,157798,664933,0
2096921,2096921,157682,665168,0
2096921,2096921,157822,664792,0
2096921,2096921,158035,664791,0
2096921,2096921,157960,664392,0
2096921,2096921,157870,664792,0
2096921,2096921,157766,665035,0
2096921,2096921,157443,665097,0
2096921,2096921,157688,664888,0
2096921,2096921,157996,664834,0
2096921,2096921,157818,665145,0
2096921,2096921,157979,665186,0
2096921,2096921,157945,665125,0
2096921,2096921,158041,665043,0
2096921,2096921,157850,665069,0
2096921,2096921,158027,665415,0
2096921,2096921,158032,665518,0
2096921,2096921,158160,665234,0
2096921,2096921,158132,665333,0
2096921,2096921,158190,665649,0
2096921,2096921,158216,665684,0
2096921,2096921,158281,665800,0
2096921,2096921,158005,665654,0
2096921,2096921,158332,665438,0
2096921,2096921,158494,665533,0
2096921,2096921,158324,665725,0
2096921,2096921,158233,666041,0
2096921,2096921,158148,666074,0
2096921,2096921,158418,666013,0
2096921,2096921,158436,665992,0
2096921,2096921,158417,666396,0
2096921,2096921,158487,666445,0
2096921,2096921,158516,666381,0
2096921,2096921,158385,666399,0
2096921,2096921,158687,666533,0
2096921,2096921,158725,666547,0
2096921,2096921,158992,666437,0
2096921,2096921,158805,666523,0
2096921,2096921,158389,666631,0
2096921,2096921,158744,666957,0
2096921,2096921,158693,666752,0
2096921,2096921,158698,666894,0
2096921,2096921,158607,666949,0
2096921,2096921,158638,666859,0
2096921,2096921,158662,666660,0
2096921,2096921,158502,667016,0
2096921,2096921,158735,666793,0
2096921,2096921,158944,667110,0
2096921,2096921,158797,667092,0
2096921,2096921,159001,666904,0
2096921,2096921,158968,667335,0
2096921,2096921,158974,667116,0
2096921,2096921,158806,666961,0
2096921,2096921,158760,667003,0
2096921,2096921,158844,667220,0
2096921,2096921,159385,667310,0
2096921,2096921,159077,667527,0
2096921,2096921,158991,667412,0
2096921,2096921,158959,667553,0
2096921,2096921,159162,667414,0
2096921,2096921,159058,667714,0
2096921,2096921,159087,667573,0
2096921,2096921,158945,667718,0
2096921,2096921,159264,667578,0
2096921,2096921,158954,667529,0
2096921,2096921,159245,667804,0
2096921,2096921,159264,667891,0
2096921,2096921,159076,667967,0
2096921,2096921,159206,667801,0
2096921,2096921,159363,667997,0
2096921,2096921,159330,668035,0
2096921,2096921,159372,667726,0
2096921,2096921,159335,667536,0
2096921,2096921,159415,667890,0
2096921,2096921,159281,667699,0
2096921,2096921,159351,667967,0
2096921,2096921,159350,667943,0
2096921,2096921,159733,667992,0
2096921,2096921,159403,668106,0
2096921,2096921,159455,668002,0
2096921,2096921,159262,668333,0
2096921,2096921,159135,668066,0
2096921,2096921,159373,668129,0
2096921,2096921,159187,667884,0
2096921,2096921,159467,667990,0
2096921,2096921,159439,668429,0
2096921,2096921,159341,668492,0
2096921,2096921,159467,668222,0
2096921,2096921,159559,668069,0
2096921,2096921,159472,668316,0
2096921,2096921,159710,668481,0
2096921,2096921,159478,668488,0
2096921,2096921,159245,668718,0
2096921,2096921,159692,668626,0
2096921,2096921,159231,668705,0
2096921,2096921,159646,668516,0
2096921,2096921,159546,668295,0
2096921,2096921,159683,668503,0
2096921,2096921,159578,668930,0
2096921,2096921,159611,668682,0
2096921,2096921,159587,668713,0
2096921,2096921,159355,668851,0
2096921,2096921,159414,668874,0
2096921,2096921,159630,668781,0
2096921,2096921,159726,668591,0
2096921,2096921,159842,668823,0
2096921,2096921,159675,668981,0
2096921,2096921,159735,669137,0
2096921,2096921,159530,669167,0
2096921,2096921,159684,669191,0
2096921,2096921,159831,668605,0
2096921,2096921,159796,668557,0
2096921,2096921,159749,668795,0
2096921,2096921,159753,669101,0
2096921,2096921,159875,668922,0
2096921,2096921,159609,669111,0
2096921,2096921,159839,668758,0
2096921,2096921,160058,668850,0
2096921,2096921,159979,668688,0
2096921,2096921,159897,668708,0
2096921,2096921,159608,668902,0
2096921,2096921,159916,669004,0
2096921,2096921,159829,668592,0
2096921,2096921,159890,668850,0
2096921,2096921,160099,668935,0
2096921,2096921,160091,669038,0
2096921,2096921,159892,669307,0
2096921,2096921,159990,669084,0
2096921,2096921,160053,669105,0
2096921,2096921,160216,668756,0
2096921,2096921,160040,669027,0
2096921,2096921,159943,668930,0
2096921,2096921,159877,668774,0
2096921,2096921,160049,668940,0
2096921,2096921,160330,668898,0
2096921,2096921,159991,668860,0
2096921,2096921,159970,669042,0
2096921,2096921,159790,669007,0
2096921,2096921,159597,669014,0
2096921,2096921,159938,668939,0
2096921,2096921,159711,669033,0
2096921,2096921,159595,668862,0
2096921,2096921,159850,668891,0
2096921,2096921,159588,668982,0
2096921,2096921,159957,668918,0
2096921,2096921,159711,669168,0
2096921,2096921,159999,669180,0
2096921,2096921,159525,669214,0
2096921,2096921,159931,668995,0
2096921,2096921,159952,669108,0
2096921,2096921,160189,668772,0
2096921,2096921,159932,669229,0
2096921,2096921,160021,669078,0
2096921,2096921,159936,668876,0
2096921,2096921,160038,668945,0
2096921,2096921,159999,668990,0
2096921,2096921,159803,668933,0
2096921,2096921,159943,668921,0
2096921,2096921,160223,668717,0
2096921,2096921,160255,668970,0
2096921,2096921,160004,668945,0
2096921,2096921,159718,669009,0
2096921,2096921,159654,668970,0
2096921,2096921,159871,669154,0
2096921,2096921,159984,668986,0
2096921,2096921,160273,669191,0
2096921,2096921,160190,668867,0
2096921,2096921,160453,669195,0
2096921,2096921,160081,669217,0
2096921,2096921,160132,669037,0
2096921,2096921,159960,669046,0
2096921,2096921,160213,669108,0
2096921,2096921,159719,668953,0
2096921,2096921,160065,669333,0
2096921,2096921,160131,669419,0
2096921,2096921,159876,669064,0
2096921,2096921,160101,669138,0
2096921,2096921,160132,669380,0
2096921,2096921,160093,669178,0
2096921,2096921,160248,668942,0
2096921,2096921,160083,669215,0
2096921,2096921,160039,669131,0
2096921,2096921,160256,669031,0
2096921,2096921,160016,669157,0
2096921,2096921,160391,669025,0
2096921,2096921,160390,669189,0
2096921,2096921,160397,669171,0
2096921,2096921,160358,669240,0
2096921,2096921,160144,669189,0
2096921,2096921,159954,669439,0
2096921,2096921,159938,669422,0
2096921,2096921,159966,669389,0
2096921,2096921,159950,669301,0
2096921,2096921,160376,669253,0
2096921,2096921,160061,669201,0
2096921,2096921,160211,669440,0
2096921,2096921,160394,669199,0
2096921,2096921,160224,669172,0
2096921,2096921,160260,669132,0
2096921,2096921,160160,668999,0
2096921,2096921,160110,668944,0
2096921,2096921,160145,669288,0
2096921,2096921,160186,669146,0
2096921,2096921,160192,669126,0
2096921,2096921,159839,668992,0
2096921,2096921,160077,668953,0
2096921,2096921,159962,668641,0
2096921,2096921,160108,668800,0
2096921,2096921,159837,668722,0
2096921,2096921,160050,668912,0
2096921,2096921,159798,668711,0
2096921,2096921,159968,668707,0
2096921,2096921,160155,668787,0
2096921,2096921,160089,669276,0
2096921,2096921,160077,669178,0
2096921,2096921,160132,669025,0
2096921,2096921,160050,669064,0
2096921,2096921,160108,669007,0
2096921,2096921,160174,668499,0
2096921,2096921,160213,668933,0
2096921,2096921,159937,668809,0
2096921,2096921,160109,668740,0
2096921,2096921,160133,668702,0
2096921,2096921,159987,668790,0
2096921,2096921,160009,668728,0
2096921,2096921,159870,668754,0
2096921,2096921,159915,668534,0
2096921,2096921,159757,668760,0
2096921,2096921,159870,668869,0
2096921,2096921,159993,668813,0
2096921,2096921,159911,668710,0
2096921,2096921,160094,668600,0
2096921,2096921,160005,668517,0
2096921,2096921,159759,668534,0
2096921,2096921,159729,668727,0
2096921,2096921,160019,668863,0
2096921,2096921,160023,668625,0
2096921,2096921,160291,668634,0
2096921,2096921,159936,668460,0
2096921,2096921,159888,668551,0
2096921,2096921,159801,668394,0
2096921,2096921,159846,668620,0
2096921,2096921,159831,668691,0
2096921,2096921,159899,668423,0
2096921,2096921,160081,668262,0
2096921,2096921,159869,668357,0
2096921,2096921,159922,668547,0
2096921,2096921,159985,668635,0
2096921,2096921,159720,668443,0
2096921,2096921,159677,668464,0
2096921,2096921,159593,667631,0
2096921,2096921,159404,667697,0
2096921,2096921,159701,667606,0
2096921,2096921,159777,667680,0
2096921,2096921,159556,667782,0
2096921,2096921,159326,667102,0
2096921,2096921,159537,667086,0
2096921,2096921,159691,666834,0
2096921,2096921,159751,666719,0
2096921,2096921,159240,666691,0
2096921,2096921,158895,665874,0
2096921,2096921,158928,666028,0
2096921,2096921,159110,666025,0
2096921,2096921,159065,665857,0
2096921,2096921,158700,665757,0
2096921,2096921,158429,664955,0
2096921,2096921,158533,664546,0
2096921,2096921,158572,664413,0
2096921,2096921,158672,664646,0
2096921,2096921,157855,664339,0
2096921,2096921,158074,663292,0
2096921,2096921,157680,662915,0
2096921,2096921,157780,662754,0
2096921,2096921,157735,662917,0
2096921,2096921,157130,662934,0
2096921,2096921,156639,660291,0
2096921,2096921,156602,659389,0
2096921,2096921,156966,659570,0
2096921,2096921,156751,659335,0
2096921,2096921,155340,659436,0
2096921,2096921,155071,656085,0
2096921,2096921,155340,655581,0
2096921,2096921,155160,655357,0
2096921,2096921,155240,655140,0
2096921,2096921,154376,655338,0
2096921,2096921,154102,653111,0
2096921,2096921,153890,652505,0
2096921,2096921,154216,652517,0
2096921,2096921,153787,652286,0
2096921,2096921,153058,652487,0
2096921,2096921,153038,650280,0
2096921,2096921,153176,649762,0
2096921,2096921,152832,649803,0
2096921,2096921,153207,649553,0
2096921,2096921,152498,649730,0
2096921,2096921,152432,648547,0
2096921,2096921,152270,648001,0
2096921,2096921,152191,647652,0
2096921,2096921,152419,647875,0
2096921,2096921,151913,648207,0
2096921,2096921,152012,647485,0
2096921,2096921,152082,646943,0
2096921,2096921,151712,646737,0
2096921,2096921,152107,646597,0
2096921,2096921,151778,646666,0
2096921,2096921,151447,646075,0
2096921,2096921,151652,645841,0
2096921,2096921,151523,646143,0
2096921,2096921,151656,645907,0
2096921,2096921,151358,645764,0
2096921,2096921,151586,645066,0
2096921,2096921,151245,645264,0
2096921,2096921,150983,645384,0
2096921,2096921,151546,645267,0
2096921,2096921,151238,645179,0
2096921,2096921,151255,644827,0
2096921,2096921,151433,644803,0
2096921,2096921,151291,644983,0
2096921,2096921,151295,645062,0
2096921,2096921,151308,644981,0
2096921,2096921,151199,645082,0
2096921,2096921,151321,645075,0
2096921,2096921,151301,645164,0
2096921,2096921,151576,644895,0
2096921,2096921,151488,645035,0
2096921,2096921,151330,645531,0
2096921,2096921,151396,645503,0
2096921,2096921,151594,645450,0
2096921,2096921,151534,645327,0
2096921,2096921,151685,645537,0
2096921,2096921,151515,645341,0
2096921,2096921,151495,645427,0
2096921,2096921,151220,645583,0
2096921,2096921,151676,645542,0
2096921,2096921,151737,645675,0
2096921,2096921,151785,645813,0
2096921,2096921,151271,645971,0
2096921,2096921,151483,646105,0
2096921,2096921,151663,646103,0
2096921,2096921,151551,646332,0
2096921,2096921,151832,646257,0
2096921,2096921,151442,646575,0
2096921,2096921,151764,646673,0
2096921,2096921,151602,646566,0
2096921,2096921,151824,646621,0
2096921,2096921,151910,647219,0
2096921,2096921,152097,647407,0
2096921,2096921,151976,647300,0
2096921,2096921,151969,647068,0
2096921,2096921,151985,647321,0
2096921,2096921,152365,648003,0
2096921,2096921,152492,648053,0
2096921,2096921,152376,647842,0
2096921,2096921,152220,647911,0
2096921,2096921,152573,647893,0
2096921,2096921,152958,648411,0
2096921,2096921,152777,648742,0
2096921,2096921,152888,649015,0
2096921,2096921,152577,648693,0
2096921,2096921,152983,648598,0
2096921,2096921,152831,649169,0
2096921,2096921,153138,649451,0
2096921,2096921,152986,649355,0
2096921,2096921,152763,649366,0
2096921,2096921,152829,649498,0
2096921,2096921,153219,649928,0
2096921,2096921,153411,650108,0
2096921,2096921,153308,650240,0
2096921,2096921,153185,650316,0
2096921,2096921,153284,650467,0
2096921,2096921,153316,650906,0
2096921,2096921,153228,650815,0
2096921,2096921,153375,650977,0
2096921,2096921,153861,650639,0
2096921,2096921,153588,650648,0
2096921,2096921,153873,651310,0
2096921,2096921,153770,651541,0
2096921,2096921,153896,651198,0
2096921,2096921,153777,651517,0
2096921,2096921,153942,651366,0
2096921,2096921,154095,651941,0
2096921,2096921,153930,652436,0
2096921,2096921,153939,652412,0
2096921,2096921,153910,652314,0
2096921,2096921,154221,652205,0
2096921,2096921,154145,652805,0
2096921,2096921,154527,653250,0
2096921,2096921,154188,652965,0
2096921,2096921,154184,652886,0
2096921,2096921,154390,653181,0
2096921,2096921,154425,653716,0
2096921,2096921,154627,653688,0
2096921,2096921,154489,653378,0
2096921,2096921,154503,653725,0
2096921,2096921,154865,653800,0
2096921,2096921,154769,654315,0
2096921,2096921,154992,654498,0
2096921,2096921,154864,654651,0
2096921,2096921,154932,654620,0
2096921,2096921,154975,654723,0
2096921,2096921,155320,655137,0
2096921,2096921,155171,655065,0
2096921,2096921,155076,655152,0
2096921,2096921,154825,655226,0
2096921,2096921,155388,655080,0
2096921,2096921,155289,655649,0
2096921,2096921,155187,655584,0
2096921,2096921,155420,655589,0
2096921,2096921,155367,655845,0
2096921,2096921,155445,655652,0
2096921,2096921,155389,655874,0
2096921,2096921,155446,655934,0
2096921,2096921,155628,655950,0
2096921,2096921,155446,655728,0
2096921,2096921,155587,656144,0
2096921,2096921,155555,656321,0
2096921,2096921,155458,656500,0
2096921,2096921,155394,656638,0
2096921,2096921,155585,656577,0
2096921,2096921,155841,656099,0
2096921,2096921,155642,656750,0
2096921,2096921,155589,656796,0
2096921,2096921,155758,656663,0
2096921,2096921,155485,656667,0
2096921,2096921,155567,656555,0
2096921,2096921,155588,656414,0
2096921,2096921,155563,656502,0
2096921,2096921,155595,657033,0
2096921,2096921,155496,656543,0
2096921,2096921,155554,656773,0
2096921,2096921,155750,656886,0
2096921,2096921,155494,656675,0
2096921,2096921,155495,656409,0
2096921,2096921,155463,656488,0
2096921,2096921,155348,656574,0
2096921,2096921,155290,656385,0
2096921,2096921,155324,656136,0
2096921,2096921,155490,656684,0
2096921,2096921,155529,656149,0
2096921,2096921,155598,656386,0
2096921,2096921,155457,656062,0
2096921,2096921,155578,656060,0
2096921,2096921,155539,656110,0
2096921,2096921,155697,656309,0
2096921,2096921,155555,656211,0
2096921,2096921,155529,656128,0
2096921,2096921,155194,656104,0
2096921,2096921,155235,656204,0
2096921,2096921,155211,656136,0
2096921,2096921,155495,656071,0
2096921,2096921,155274,656138,0
2096921,2096921,155243,655974,0
2096921,2096921,155531,655628,0
2096921,2096921,155226,655666,0
2096921,2096921,155176,655783,0
2096921,2096921,155179,655589,0
2096921,2096921,155234,655668,0
2096921,2096921,155383,655514,0
2096921,2096921,155459,655569,0
2096921,2096921,155144,655549,0
2096921,2096921,155255,655418,0
2096921,2096921,154920,655487,0
2096921,2096921,154993,655526,0
2096921,2096921,154971,655114,0
2096921,2096921,155286,655491,0
2096921,2096921,155022,655576,0
2096921,2096921,155265,655364,0
2096921,2096921,155329,655341,0
2096921,2096921,155315,655582,0
2096921,2096921,155282,655892,0
2096921,2096921,155348,655600,0
2096921,2096921,155548,655600,0
2096921,2096921,155394,655522,0
2096921,2096921,155430,655531,0
2096921,2096921,155289,655746,0
2096921,2096921,155424,656058,0
2096921,2096921,155139,655857,0
2096921,2096921,155189,655704,0
2096921,2096921,155194,655790,0
2096921,2096921,155302,655792,0
2096921,2096921,155160,656262,0
2096921,2096921,155234,655938,0
2096921,2096921,155149,655965,0
2096921,2096921,155403,656231,0
2096921,2096921,155607,655990,0
2096921,2096921,155665,656365,0
2096921,2096921,155621,656570,0
2096921,2096921,155559,656695,0
2096921,2096921,155545,656663,0
2096921,2096921,155639,656795,0
2096921,2096921,155748,657232,0
2096921,2096921,155667,657054,0
2096921,2096921,155744,657099,0
2096921,2096921,155537,657147,0
2096921,2096921,155786,657368,0
2096921,2096921,155886,657950,0
2096921,2096921,156090,657790,0
2096921,2096921,156070,658033,0
2096921,2096921,156281,657896,0
2096921,2096921,156293,657890,0
2096921,2096921,156216,658276,0
2096921,2096921,156079,658537,0
2096921,2096921,156065,658350,0
2096921,2096921,155998,658187,0
2096921,2096921,156236,658333,0
2096921,2096921,156188,658854,0
2096921,2096921,156392,658853,0
2096921,2096921,156447,659146,0
2096921,2096921,156250,659093,0
2096921,2096921,156532,659036,0
2096921,2096921,156527,659282,0
2096921,2096921,156439,659371,0
2096921,2096921,156560,659105,0
2096921,2096921,156583,659411,0
2096921,2096921,156703,659303,0
2096921,2096921,156659,659889,0
2096921,2096921,156466,659664,0
2096921,2096921,156717,659872,0
2096921,2096921,156493,659802,0
2096921,2096921,156937,659875,0
2096921,2096921,156895,659983,0
2096921,2096921,156824,660184,0
2096921,2096921,156948,660101,0
2096921,2096921,156980,660392,0
2096921,2096921,157121,660466,0
2096921,2096921,157056,660905,0
2096921,2096921,156990,660928,0
2096921,2096921,156947,661127,0
2096921,2096921,156907,661131,0
2096921,2096921,157035,660945,0
2096921,2096921,157158,661759,0
2096921,2096921,157280,661570,0
2096921,2096921,157304,661464,0
2096921,2096921,157075,661480,0
2096921,2096921,157697,661476,0
2096921,2096921,157217,661822,0
2096921,2096921,157512,662001,0
2096921,2096921,157313,661821,0
2096921,2096921,157431,661820,0
2096921,2096921,157461,661973,0
2096921,2096921,157576,662132,0
2096921,2096921,157452,662353,0
2096921,2096921,157486,662288,0
2096921,2096921,157357,662716,0
2096921,2096921,157612,662449,0
2096921,2096921,157877,662903,0
2096921,2096921,158003,662422,0
2096921,2096921,157882,662822,0
2096921,2096921,157565,662696,0
2096921,2096921,157575,663023,0
2096921,2096921,157846,663263,0
2096921,2096921,157723,663130,0
2096921,2096921,157565,662972,0
2096921,2096921,157812,663175,0
2096921,2096921,158232,663296,0
2096921,2096921,158284,663824,0
2096921,2096921,157944,663989,0
2096921,2096921,158246,663683,0
2096921,2096921,158063,663864,0
2096921,2096921,158500,663556,0
2096921,2096921,158449,663919,0
2096921,2096921,158434,664256,0
2096921,2096921,158242,664183,0
2096921,2096921,158072,664403,0
2096921,2096921,158435,664261,0
2096921,2096921,158699,664457,0
2096921,2096921,158506,664558,0
2096921,2096921,158250,664512,0
2096921,2096921,158485,664534,0
2096921,2096921,158435,664749,0
2096921,2096921,158479,665001,0
2096921,2096921,158713,664864,0
2096921,2096921,158703,664733,0
2096921,2096921,158431,664727,0
2096921,2096921,158907,664675,0
2096921,2096921,158616,665212,0
2096921,2096921,158533,665336,0
2096921,2096921,158616,665570,0
2096921,2096921,158644,665468,0
2096921,2096921,158679,665216,0
2096921,2096921,158676,665901,0
2096921,2096921,158874,665913,0
2096921,2096921,158599,665955,0
2096921,2096921,158527,666077,0
2096921,2096921,158957,665740,0
2096921,2096921,158975,666216,0
2096921,2096921,158956,666449,0
2096921,2096921,158878,666543,0
2096921,2096921,158527,666339,0
2096921,2096921,158871,666163,0
2096921,2096921,159029,666175,0
2096921,2096921,158910,666459,0
2096921,2096921,159145,666782,0
2096921,2096921,159057,666666,0
2096921,2096921,159241,666656,0
2096921,2096921,159190,667226,0
2096921,2096921,159111,667079,0
2096921,2096921,159182,667177,0
2096921,2096921,159446,667341,0
2096921,2096921,159414,667260,0
2096921,2096921,159407,667293,0
2096921,2096921,159298,667304,0
2096921,2096921,159051,667529,0
2096921,2096921,159357,667482,0
2096921,2096921,159418,667547,0
2096921,2096921,159387,667594,0
2096921,2096921,159537,667930,0
2096921,2096921,159366,667829,0
2096921,2096921,159580,667925,0
2096921,2096921,159315,667668,0
2096921,2096921,159569,668138,0
2096921,2096921,159816,668043,0
2096921,2096921,159701,668361,0
2096921,2096921,159436,668277,0
2096921,2096921,159763,667938,0
2096921,2096921,159679,668213,0
2096921,2096921,159597,668295,0
2096921,2096921,159885,668585,0
2096921,2096921,159741,668026,0
2096921,2096921,159489,668477,0
2096921,2096921,159779,668756,0
2096921,2096921,159821,668752,0
2096921,2096921,159752,668892,0
2096921,2096921,159684,668842,0
2096921,2096921,159885,668708,0
2096921,2096921,160010,669175,0
2096921,2096921,160105,669044,0
2096921,2096921,159818,669294,0
2096921,2096921,160031,669259,0
2096921,2096921,159775,669303,0
2096921,2096921,160150,668995,0
2096921,2096921,159870,669277,0
2096921,2096921,159911,669479,0
2096921,2096921,160288,669108,0
2096921,2096921,160375,669105,0
2096921,2096921,160308,669545,0
2096921,2096921,160030,669721,0
2096921,2096921,160074,669611,0
2096921,2096921,159750,669878,0
2096921,2096921,160105,669669,0
2096921,2096921,160070,669881,0
2096921,2096921,160173,670237,0
2096921,2096921,160221,670373,0
2096921,2096921,160061,669739,0
2096921,2096921,160435,669970,0
2096921,2096921,160221,670004,0
2096921,2096921,160209,670652,0
2096921,2096921,160390,670429,0
2096921,2096921,160461,670330,0
2096921,2096921,160247,670380,0
2096921,2096921,160359,670455,0
2096921,2096921,160496,670493,0
2096921,2096921,160504,670489,0
2096921,2096921,160424,670499,0
2096921,2096921,160669,670428,0
2096921,2096921,160543,670914,0
2096921,2096921,160535,670960,0
2096921,2096921,160354,670915,0
2096921,2096921,160271,671081,0
2096921,2096921,160444,671108,0
2096921,2096921,160242,670978,0
2096921,2096921,160426,671175,0
2096921,2096921,160484,671308,0
2096921,2096921,160314,671227,0
2096921,2096921,160601,671122,0
2096921,2096921,160600,671430,0
2096921,2096921,160496,671242,0
2096921,2096921,160593,671284,0
2096921,2096921,160547,670928,0
2096921,2096921,160861,671437,0
2096921,2096921,160675,671738,0
2096921,2096921,160755,671735,0
2096921,2096921,160552,671703,0
2096921,2096921,160542,671344,0
2096921,2096921,160635,671738,0
2096921,2096921,160848,672016,0
2096921,2096921,160614,672088,0
2096921,2096921,160993,672184,0
2096921,2096921,160683,672097,0
2096921,2096921,160619,672097,0
2096921,2096921,160529,672385,0
2096921,2096921,160777,672036,0
2096921,2096921,160777,672059,0
2096921,2096921,160839,671822,0
2096921,2096921,160757,672376,0
2096921,2096921,160610,672314,0
2096921,2096921,160855,672365,0
2096921,2096921,161119,672325,0
2096921,2096921,160860,672354,0
2096921,2096921,160925,672271,0
2096921,2096921,160995,672777,0
2096921,2096921,160656,672478,0
2096921,2096921,160877,672489,0
2096921,2096921,160777,672391,0
2096921,2096921,161230,672621,0
2096921,2096921,161012,672882,0
2096921,2096921,161116,672769,0
2096921,2096921,160951,672998,0
2096921,2096921,161040,673155,0
2096921,2096921,161020,673174,0
2096921,2096921,161153,673195,0
2096921,2096921,161425,673466,0
2096921,2096921,161335,673084,0
2096921,2096921,161208,672959,0
2096921,2096921,161196,673070,0
2096921,2096921,160896,673167,0
2096921,2096921,161386,673270,0
2096921,2096921,161027,673209,0
2096921,2096921,161079,673329,0
2096921,2096921,161179,673224,0
2096921,2096921,161156,673313,0
2096921,2096921,161167,673073,0
2096921,2096921,161170,673631,0
2096921,2096921,161043,673562,0
2096921,2096921,161178,673589,0
2096921,2096921,161403,673810,0
2096921,2096921,161316,673746,0
2096921,2096921,161440,673596,0
2096921,2096921,161714,673589,0
2096921,2096921,161321,673708,0
2096921,2096921,161300,673930,0
2096921,2096921,161209,673845,0
2096921,2096921,161260,673858,0
2096921,2096921,161027,673811,0
2096921,2096921,161119,673956,0
2096921,2096921,161517,674048,0
2096921,2096921,161411,674025,0
2096921,2096921,161371,674090,0
2096921,2096921,161452,674064,0
2096921,2096921,161279,673667,0
2096921,2096921,161656,674154,0
2096921,2096921,161514,673990,0
2096921,2096921,161737,674113,0
2096921,2096921,161621,674032,0
2096921,2096921,161625,674098,0
2096921,2096921,161109,674610,0
2096921,2096921,161544,674719,0
2096921,2096921,161612,674495,0
2096921,2096921,161582,674392,0
2096921,2096921,161487,674236,0
2096921,2096921,161375,674627,0
2096921,2096921,161430,674747,0
2096921,2096921,161201,674534,0
2096921,2096921,161242,674655,0
2096921,2096921,161480,674627,0
2096921,2096921,161248,674656,0
2096921,2096921,161631,674592,0
2096921,2096921,161650,674436,0
2096921,2096921,161375,674619,0
2096921,2096921,161156,674886,0
2096921,2096921,161060,674091,0
2096921,2096921,161196,674063,0
2096921,2096921,161251,674184,0
2096921,2096921,161335,674084,0
2096921,2096921,161104,673918,0
2096921,2096921,161253,673567,0
2096921,2096921,161178,673589,0
2096921,2096921,161209,673789,0
2096921,2096921,160987,673506,0
2096921,2096921,161054,673480,0
2096921,2096921,160850,672809,0
2096921,2096921,160626,672513,0
2096921,2096921,160583,672584,0
2096921,2096921,160562,672505,0
2096921,2096921,160377,672470,0
2096921,2096921,160265,671598,0
2096921,2096921,160440,671320,0
2096921,2096921,160415,671412,0
2096921,2096921,160205,671239,0
2096921,2096921,159869,671598,0
2096921,2096921,159720,670485,0
2096921,2096921,159648,670323,0
2096921,2096921,159526,669939,0
2096921,2096921,159778,670157,0
2096921,2096921,158818,670070,0
2096921,2096921,158580,667351,0
2096921,2096921,158416,667014,0
2096921,2096921,158470,667029,0
2096921,2096921,158514,666572,0
2096921,2096921,157084,666754,0
2096921,2096921,157218,663553,0
2096921,2096921,156827,662926,0
2096921,2096921,156781,662795,0
2096921,2096921,156894,662691,0
2096921,2096921,156131,662721,0
2096921,2096921,155979,660465,0
2096921,2096921,156191,660123,0
2096921,2096921,155720,660065,0
2096921,2096921,155821,660016,0
2096921,2096921,154964,660075,0
2096921,2096921,154775,657948,0
2096921,2096921,155012,657654,0
2096921,2096921,154863,657564,0
2096921,2096921,155084,657598,0
2096921,2096921,154509,657817,0
2096921,2096921,154223,656366,0
2096921,2096921,154421,656170,0
2096921,2096921,154415,656135,0
2096921,2096921,154382,656144,0
2096921,2096921,154214,655984,0
2096921,2096921,154017,655377,0
2096921,2096921,153876,655067,0
2096921,2096921,153709,655272,0
2096921,2096921,153914,655235,0
2096921,2096921,153838,654970,0
2096921,2096921,153568,654176,0
2096921,2096921,153542,654257,0
2096921,2096921,153830,654153,0
2096921,2096921,153850,654523,0
2096921,2096921,153397,654395,0
2096921,2096921,153519,654023,0
2096921,2096921,153543,653574,0
2096921,2096921,153319,653647,0
2096921,2096921,153562,653538,0
2096921,2096921,153594,653907,0
2096921,2096921,153338,653528,0
2096921,2096921,153574,653718,0
2096921,2096921,153775,654037,0
2096921,2096921,153734,653562,0
2096921,2096921,153513,653913,0
2096921,2096921,153603,654207,0
2096921,2096921,153696,654147,0
2096921,2096921,153321,653789,0
2096921,2096921,153343,654056,0
2096921,2096921,153924,653758,0
2096921,2096921,153788,654096,0
2096921,2096921,153930,654383,0
2096921,2096921,153324,654417,0
2096921,2096921,153725,654570,0
2096921,2096921,153712,654261,0
2096921,2096921,153507,654351,0
2096921,2096921,153792,654690,0
2096921,2096921,153610,654660,0
2096921,2096921,153775,654529,0
2096921,2096921,153810,654518,0
2096921,2096921,154024,655350,0
2096921,2096921,154274,655332,0
2096921,2096921,153724,655343,0
2096921,2096921,153880,655387,0
2096921,2096921,154133,655110,0
2096921,2096921,154199,656024,0
2096921,2096921,153876,655943,0
2096921,2096921,154259,656225,0
2096921,2096921,154423,656127,0
2096921,2096921,154490,655938,0
2096921,2096921,154391,656584,0
2096921,2096921,154350,656658,0
2096921,2096921,154404,656827,0
2096921,2096921,154450,656736,0
2096921,2096921,154559,656857,0
2096921,2096921,154727,657714,0
2096921,2096921,154713,657574,0
2096921,2096921,154811,657737,0
2096921,2096921,154615,657591,0
2096921,2096921,155174,657764,0
2096921,2096921,155082,658521,0
2096921,2096921,154965,658597,0
2096921,2096921,155040,658724,0
2096921,2096921,155432,658643,0
2096921,2096921,155507,658565,0
2096921,2096921,155423,659134,0
2096921,2096921,155623,659467,0
2096921,2096921,155509,659320,0
2096921,2096921,155832,659232,0
2096921,2096921,155825,659207,0
2096921,2096921,155487,659969,0
2096921,2096921,155763,660359,0
2096921,2096921,155902,660487,0
2096921,2096921,155698,660417,0
2096921,2096921,156023,660293,0
2096921,2096921,155861,661097,0
2096921,2096921,155817,661052,0
2096921,2096921,155996,661006,0
2096921,2096921,155872,661150,0
2096921,2096921,156250,661488,0
2096921,2096921,156748,662088,0
2096921,2096921,156391,662282,0
2096921,2096921,156148,661810,0
2096921,2096921,156531,661976,0
2096921,2096921,156447,661937,0
2096921,2096921,156674,662747,0
2096921,2096921,156614,662915,0
2096921,2096921,156442,663194,0
2096921,2096921,156667,663203,0
2096921,2096921,157058,662835,0
2096921,2096921,156788,663677,0
2096921,2096921,157031,664086,0
2096921,2096921,157149,663818,0
2096921,2096921,156995,663766,0
2096921,2096921,156998,663750,0
2096921,2096921,157374,664427,0
2096921,2096921,157166,664570,0
2096921,2096921,157181,664932,0
2096921,2096921,157395,664843,0
2096921,2096921,157670,664565,0
2096921,2096921,157442,665579,0
2096921,2096921,157720,665665,0
2096921,2096921,157458,665640,0
2096921,2096921,157722,665476,0
2096921,2096921,157853,665388,0
2096921,2096921,157658,666189,0
2096921,2096921,157738,666315,0
2096921,2096921,157973,666214,0
2096921,2096921,158071,666152,0
2096921,2096921,158198,666399,0
2096921,2096921,158271,666819,0
2096921,2096921,158127,667035,0
2096921,2096921,158147,667273,0
2096921,2096921,157843,667173,0
2096921,2096921,157941,667226,0
2096921,2096921,158240,667708,0
2096921,2096921,158352,667248,0
2096921,2096921,158070,667592,0
2096921,2096921,158194,667396,0
2096921,2096921,158125,667715,0
2096921,2096921,158349,667896,0
2096921,2096921,158271,667817,0
2096921,2096921,158685,667946,0
2096921,2096921,158406,667925,0
2096921,2096921,158422,667764,0
2096921,2096921,158533,668257,0
2096921,2096921,158361,668651,0
2096921,2096921,158600,668208,0
2096921,2096921,158434,668260,0
2096921,2096921,158587,668307,0
2096921,2096921,158882,668350,0
2096921,2096921,158620,668321,0
2096921,2096921,158453,668421,0
2096921,2096921,158616,668511,0
2096921,2096921,158484,668420,0
2096921,2096921,158791,668612,0
2096921,2096921,158482,668477,0
2096921,2096921,158486,668728,0
2096921,2096921,158340,668400,0
2096921,2096921,158206,668453,0
2096921,2096921,158323,668496,0
2096921,2096921,158300,668447,0
2096921,2096921,158250,668542,0
2096921,2096921,158440,668607,0
2096921,2096921,158285,668484,0
2096921,2096921,158198,668191,0
2096921,2096921,158174,668294,0
2096921,2096921,158310,668441,0
2096921,2096921,158564,668374,0
2096921,2096921,158439,668213,0
2096921,2096921,158326,668015,0
2096921,2096921,158274,668173,0
2096921,2096921,158380,668379,0
2096921,2096921,158349,668121,0
2096921,2096921,158439,668435,0
2096921,2096921,158504,667958,0
2096921,2096921,158372,667617,0
2096921,2096921,158416,667950,0
2096921,2096921,158423,667839,0
2096921,2096921,158343,668117,0
2096921,2096921,158212,667925,0
2096921,2096921,158203,668197,0
2096921,2096921,158505,667960,0
2096921,2096921,158444,667717,0
2096921,2096921,158393,667816,0
2096921,2096921,157853,667925,0
2096921,2096921,158111,668135,0
2096921,2096921,157910,667985,0
2096921,2096921,158238,667758,0
2096921,2096921,158233,667878,0
2096921,2096921,158389,668176,0
2096921,2096921,158388,668005,0
2096921,2096921,158051,667999,0
2096921,2096921,158341,668169,0
2096921,2096921,158179,668019,0
2096921,2096921,158703,668353,0
2096921,2096921,158085,668199,0
2096921,2096921,158323,668136,0
2096921,2096921,158286,667940,0
2096921,2096921,158416,667833,0
2096921,2096921,158571,668662,0
2096921,2096921,158476,668680,0
2096921,2096921,158377,668276,0
2096921,2096921,158529,668294,0
2096921,2096921,158411,668619,0
2096921,2096921,158658,668652,0
2096921,2096921,158491,668743,0
2096921,2096921,158389,668776,0
2096921,2096921,158483,668813,0
2096921,2096921,158760,668761,0
2096921,2096921,158649,669498,0
2096921,2096921,158766,669437,0
2096921,2096921,158835,669444,0
2096921,2096921,158721,669569,0
2096921,2096921,158900,669401,0
2096921,2096921,159044,669943,0
2096921,2096921,159043,670279,0
2096921,2096921,158892,670323,0
2096921,2096921,158642,670025,0
2096921,2096921,158800,670012,0
2096921,2096921,159049,670414,0
2096921,2096921,158935,670763,0
2096921,2096921,159111,670380,0
2096921,2096921,159164,670387,0
2096921,2096921,159139,670507,0
2096921,2096921,159296,671121,0
2096921,2096921,159357,671006,0
2096921,2096921,159261,671058,0
2096921,2096921,159275,670798,0
2096921,2096921,159535,671041,0
2096921,2096921,159754,671604,0
2096921,2096921,159828,671748,0
2096921,2096921,159599,671882,0
2096921,2096921,159671,671867,0
2096921,2096921,159543,671519,0
2096921,2096921,159558,671962,0
2096921,2096921,159910,671943,0
2096921,2096921,159811,672218,0
2096921,2096921,159592,671916,0
2096921,2096921,160033,672053,0
2096921,2096921,159973,672761,0
2096921,2096921,159833,672801,0
2096921,2096921,159693,672721,0
2096921,2096921,159633,672691,0
2096921,2096921,159798,672488,0
2096921,2096921,159838,672590,0
2096921,2096921,159779,673057,0
2096921,2096921,159867,673188,0
2096921,2096921,159952,672796,0
2096921,2096921,160246,672920,0
2096921,2096921,160493,673358,0
2096921,2096921,160342,673816,0
2096921,2096921,160364,673723,0
2096921,2096921,160439,673813,0
2096921,2096921,160499,673749,0
2096921,2096921,160517,673969,0
2096921,2096921,160402,673829,0
2096921,2096921,160260,674064,0
2096921,2096921,160571,673886,0
2096921,2096921,160310,674096,0
2096921,2096921,160363,674410,0
2096921,2096921,160192,674185,0
2096921,2096921,160480,674334,0
2096921,2096921,160695,674458,0
2096921,2096921,160858,674347,0
2096921,2096921,161006,674546,0
2096921,2096921,160448,674789,0
2096921,2096921,160578,674640,0
2096921,2096921,160660,675035,0
2096921,2096921,160921,674773,0
2096921,2096921,160913,675295,0
2096921,2096921,160806,675434,0
2096921,2096921,160987,675289,0
2096921,2096921,160946,675124,0
2096921,2096921,160852,675406,0
2096921,2096921,161185,675502,0
2096921,2096921,161048,675599,0
2096921,2096921,160823,675539,0
2096921,2096921,161006,675904,0
2096921,2096921,161230,675962,0
2096921,2096921,161077,676395,0
2096921,2096921,161326,676090,0
2096921,2096921,161428,675978,0
2096921,2096921,161720,675913,0
2096921,2096921,161534,675757,0
2096921,2096921,161472,676223,0
2096921,2096921,161346,676345,0
2096921,2096921,161498,676323,0
2096921,2096921,161212,676664,0
2096921,2096921,161432,676773,0
2096921,2096921,161405,676997,0
2096921,2096921,161433,676763,0
2096921,2096921,161383,676983,0
2096921,2096921,161119,676787,0
2096921,2096921,161548,676888,0
2096921,2096921,161383,676843,0
2096921,2096921,161677,676920,0
2096921,2096921,161591,677048,0
2096921,2096921,161556,677179,0
2096921,2096921,161698,677138,0
2096921,2096921,161628,677464,0
2096921,2096921,161625,677525,0
2096921,2096921,162090,677319,0
2096921,2096921,161707,677358,0
2096921,2096921,161519,677219,0
2096921,2096921,161651,677589,0
2096921,2096921,161613,677793,0
2096921,2096921,161276,677473,0
2096921,2096921,161840,677837,0
2096921,2096921,161818,677521,0
2096921,2096921,162081,677962,0
2096921,2096921,162173,678159,0
2096921,2096921,161910,677969,0
2096921,2096921,162112,678191,0
2096921,2096921,161843,677899,0
2096921,2096921,161603,677980,0
2096921,2096921,161767,678038,0
2096921,2096921,161777,678203,0
2096921,2096921,161988,678066,0
2096921,2096921,161951,678013,0
2096921,2096921,162005,678534,0
2096921,2096921,162063,678606,0
2096921,2096921,161970,678869,0
2096921,2096921,162146,678768,0
2096921,2096921,162114,678449,0
2096921,2096921,161864,678810,0
2096921,2096921,162322,679023,0
2096921,2096921,162409,678920,0
2096921,2096921,162329,678876,0
2096921,2096921,162321,678970,0
2096921,2096921,162259,678638,0
2096921,2096921,162189,678884,0
2096921,2096921,162312,678861,0
2096921,2096921,161969,679207,0
2096921,2096921,162303,678861,0
2096921,2096921,162309,679511,0
2096921,2096921,162318,679452,0
2096921,2096921,162108,679256,0
2096921,2096921,162317,679346,0
2096921,2096921,162299,679286,0
2096921,2096921,162394,679641,0
2096921,2096921,162603,679721,0
2096921,2096921,162324,679519,0
2096921,2096921,162189,679485,0
2096921,2096921,162360,679278,0
2096921,2096921,162594,679619,0
2096921,2096921,162632,679979,0
2096921,2096921,162563,679656,0
2096921,2096921,162565,679578,0
2096921,2096921,162515,679584,0
2096921,2096921,162494,679912,0
2096921,2096921,162623,679970,0
2096921,2096921,162522,680125,0
2096921,2096921,162495,679829,0
2096921,2096921,162463,680032,0
2096921,2096921,162568,680107,0
2096921,2096921,162700,680087,0
2096921,2096921,162793,680085,0
2096921,2096921,162670,679920,0
2096921,2096921,162608,680005,0
2096921,2096921,162410,680313,0
2096921,2096921,162548,679999,0
2096921,2096921,162443,680003,0
2096921,2096921,162443,680140,0
2096921,2096921,162567,680106,0
2096921,2096921,162577,680103,0
2096921,2096921,162629,679952,0
2096921,2096921,162490,680048,0
2096921,2096921,162561,680296,0
2096921,2096921,162887,680464,0
2096921,2096921,162958,680498,0
2096921,2096921,162990,680426,0
2096921,2096921,162811,680214,0
2096921,2096921,162890,680406,0
2096921,2096921,162862,680101,0
2096921,2096921,163056,680527,0
2096921,2096921,162781,680601,0
2096921,2096921,162814,680688,0
2096921,2096921,162685,680424,0
2096921,2096921,162526,680736,0
2096921,2096921,162936,680483,0
2096921,2096921,162602,680667,0
2096921,2096921,162577,680947,0
2096921,2096921,162777,680795,0
2096921,2096921,162869,680644,0
2096921,2096921,163061,680820,0
2096921,2096921,162883,680827,0
2096921,2096921,163183,680906,0
2096921,2096921,163296,680657,0
2096921,2096921,163198,680873,0
2096921,2096921,163008,681021,0
2096921,2096921,162988,681021,0
2096921,2096921,162983,681068,0
2096921,2096921,163174,680996,0
2096921,2096921,163202,681245,0
2096921,2096921,163056,681017,0
2096921,2096921,162947,680953,0
2096921,2096921,162922,681029,0
2096921,2096921,162737,681010,0
2096921,2096921,162972,681268,0
2096921,2096921,163095,681293,0
2096921,2096921,163173,681548,0
2096921,2096921,163251,681273,0
2096921,2096921,163190,681371,0
2096921,2096921,163159,681156,0
2096921,2096921,163117,680918,0
2096921,2096921,163054,681528,0
2096921,2096921,163199,681539,0
2096921,2096921,163400,681751,0
2096921,2096921,163123,681303,0
2096921,2096921,163162,681608,0
2096921,2096921,163131,681604,0
2096921,2096921,163303,681659,0
2096921,2096921,163407,681583,0
2096921,2096921,163153,681489,0
2096921,2096921,163230,681919,0
2096921,2096921,163298,681660,0
2096921,2096921,163063,681428,0
2096921,2096921,163106,681437,0
2096921,2096921,163226,681602,0
2096921,2096921,163249,681498,0
2096921,2096921,163232,681655,0
2096921,2096921,163271,681980,0
2096921,2096921,163320,681798,0
2096921,2096921,163183,681641,0
2096921,2096921,163337,681630,0
2096921,2096921,163303,681956,0
2096921,2096921,162993,681716,0
2096921,2096921,163205,681657,0
2096921,2096921,163194,682238,0
2096921,2096921,163538,681982,0
2096921,2096921,163417,681763,0
2096921,2096921,163333,681934,0
2096921,2096921,163377,681852,0
2096921,2096921,163306,681864,0
2096921,2096921,163070,682003,0
2096921,2096921,163250,681902,0
2096921,2096921,163124,682130,0
2096921,2096921,163364,681663,0
2096921,2096921,163157,681653,0
2096921,2096921,162996,681548,0
2096921,2096921,163272,681608,0
2096921,2096921,163084,681810,0
2096921,2096921,163303,681858,0
2096921,2096921,163263,681745,0
2096921,2096921,163169,681657,0
2096921,2096921,163251,681383,0
2096921,2096921,163373,681536,0
2096921,2096921,163168,681675,0
2096921,2096921,163161,681986,0
2096921,2096921,163094,681899,0
2096921,2096921,163411,681943,0
2096921,2096921,163531,682186,0
2096921,2096921,163483,681907,0
2096921,2096921,163301,681906,0
2096921,2096921,163277,681690,0
2096921,2096921,163357,681610,0
2096921,2096921,163274,681696,0
2096921,2096921,163430,681804,0
2096921,2096921,163369,681437,0
2096921,2096921,163257,681487,0
2096921,2096921,163283,681876,0
2096921,2096921,163432,681889,0
2096921,2096921,163266,681707,0
2096921,2096921,163136,681699,0
2096921,2096921,163113,681537,0
2096921,2096921,162909,681582,0
2096921,2096921,163277,681578,0
2096921,2096921,163104,681636,0
2096921,2096921,162965,681461,0
2096921,2096921,163092,681553,0
2096921,2096921,163123,681454,0
2096921,2096921,163207,681740,0
2096921,2096921,163320,681471,0
2096921,2096921,163180,681555,0
2096921,2096921,163008,681026,0
2096921,2096921,162736,681106,0
2096921,2096921,162730,680592,0
2096921,2096921,162701,680561,0
2096921,2096921,162733,680593,0
2096921,2096921,162837,680243,0
2096921,2096921,162708,680119,0
2096921,2096921,162848,680112,0
2096921,2096921,162525,680105,0
2096921,2096921,162148,679900,0
2096921,2096921,161951,679112,0
2096921,2096921,162291,678919,0
2096921,2096921,162216,678933,0
2096921,2096921,162116,678604,0
2096921,2096921,162030,678657,0
2096921,2096921,161662,677637,0
2096921,2096921,161752,677675,0
2096921,2096921,161685,677476,0
2096921,2096921,161626,677613,0
2096921,2096921,161383,677415,0
2096921,2096921,160993,675960,0
2096921,2096921,161061,675620,0
2096921,2096921,161123,675838,0
2096921,2096921,161055,675745,0
2096921,2096921,160270,675991,0
2096921,2096921,160135,673340,0
2096921,2096921,159968,672515,0
2096921,2096921,159878,672376,0
2096921,2096921,159737,672245,0
2096921,2096921,158486,672404,0
2096921,2096921,158416,669074,0
2096921,2096921,158406,668062,0
2096921,2096921,158234,668199,0
2096921,2096921,158269,668233,0
2096921,2096921,157445,667853,0
2096921,2096921,156981,665737,0
2096921,2096921,157218,664970,0
2096921,2096921,156969,664927,0
2096921,2096921,156994,664704,0
2096921,2096921,156535,664607,0
2096921,2096921,156092,662741,0
2096921,2096921,155902,662480,0
2096921,2096921,155958,662286,0
2096921,2096921,156290,662159,0
2096921,2096921,155887,662291,0
2096921,2096921,155587,660742,0
2096921,2096921,155331,660417,0
2096921,2096921,155726,660402,0
2096921,2096921,155621,660313,0
2096921,2096921,154724,660405,0
2096921,2096921,154843,659368,0
2096921,2096921,154873,659244,0
2096921,2096921,155076,659058,0
2096921,2096921,154968,659155,0
2096921,2096921,154641,659179,0
2096921,2096921,154488,658415,0
2096921,2096921,154308,658453,0
2096921,2096921,154426,658218,0
2096921,2096921,154566,657858,0
2096921,2096921,154230,657810,0
2096921,2096921,154172,657537,0
2096921,2096921,154364,657572,0
2096921,2096921,154491,657512,0
2096921,2096921,154212,657527,0
2096921,2096921,154354,657548,0
2096921,2096921,154276,657162,0
2096921,2096921,154446,657214,0
2096921,2096921,154234,657373,0
2096921,2096921,154113,657363,0
2096921,2096921,154132,657228,0
2096921,2096921,154290,657071,0
2096921,2096921,154302,657016,0
2096921,2096921,154553,656744,0
2096921,2096921,154456,656797,0
2096921,2096921,154485,656808,0
2096921,2096921,154560,657210,0
2096921,2096921,154383,657438,0
2096921,2096921,154134,657142,0
2096921,2096921,154395,657104,0
2096921,2096921,154214,657371,0
2096921,2096921,154497,657361,0
2096921,2096921,154128,657106,0
2096921,2096921,154394,657199,0
2096921,2096921,154591,657291,0
2096921,2096921,154780,657174,0
2096921,2096921,154574,657518,0
2096921,2096921,154565,657743,0
2096921,2096921,154368,657804,0
2096921,2096921,154650,657760,0
2096921,2096921,154757,657525,0
2096921,2096921,154900,658157,0
2096921,2096921,154873,658290,0
2096921,2096921,154533,658021,0
2096921,2096921,154735,658132,0
2096921,2096921,155070,658151,0
2096921,2096921,154823,658751,0
2096921,2096921,154999,658919,0
2096921,2096921,155037,658495,0
2096921,2096921,154917,658840,0
2096921,2096921,155141,658511,0
2096921,2096921,155039,659044,0
2096921,2096921,155025,659204,0
2096921,2096921,155149,659046,0
2096921,2096921,155171,658911,0
2096921,2096921,155507,659218,0
2096921,2096921,155441,659870,0
2096921,2096921,155565,659948,0
2096921,2096921,155553,660093,0
2096921,2096921,155416,660203,0
2096921,2096921,155782,659970,0
2096921,2096921,155682,660206,0
2096921,2096921,155378,660449,0
2096921,2096921,155712,660395,0
2096921,2096921,155629,660533,0
2096921,2096921,155726,660270,0
2096921,2096921,156036,660913,0
2096921,2096921,156074,660998,0
2096921,2096921,155928,661087,0
2096921,2096921,155926,660945,0
2096921,2096921,155615,660929,0
2096921,2096921,156169,661445,0
2096921,2096921,156306,661685,0
2096921,2096921,156122,661724,0
2096921,2096921,156213,661815,0
2096921,2096921,156350,661632,0
2096921,2096921,156275,662249,0
2096921,2096921,156380,662431,0
2096921,2096921,156589,662277,0
2096921,2096921,156517,662302,0
2096921,2096921,156819,662222,0
2096921,2096921,156685,662547,0
2096921,2096921,156417,662671,0
2096921,2096921,156519,662804,0
2096921,2096921,156497,662855,0
2096921,2096921,156908,663282,0
2096921,2096921,156838,663478,0
2096921,2096921,156616,663633,0
2096921,2096921,156877,663497,0
2096921,2096921,156842,663502,0
2096921,2096921,156924,663646,0
2096921,2096921,156864,663954,0
2096921,2096921,157230,664057,0
2096921,2096921,156995,664121,0
2096921,2096921,157231,664093,0
2096921,2096921,157421,664168,0
2096921,2096921,157152,664659,0
2096921,2096921,157472,664779,0
2096921,2096921,157429,664787,0
2096921,2096921,157392,664892,0
2096921,2096921,157382,664960,0
2096921,2096921,157470,665169,0
2096921,2096921,157469,665191,0
2096921,2096921,157507,665162,0
2096921,2096921,157375,665030,0
2096921,2096921,157813,665074,0
2096921,2096921,157760,665529,0
2096921,2096921,157774,665689,0
2096921,2096921,158132,665579,0
2096921,2096921,157668,665839,0
2096921,2096921,157850,665635,0
2096921,2096921,157783,665985,0
2096921,2096921,157855,665742,0
2096921,2096921,157641,665713,0
2096921,2096921,157916,665947,0
2096921,2096921,158032,666178,0
2096921,2096921,158030,665883,0
2096921,2096921,157936,666186,0
2096921,2096921,157740,666224,0
2096921,2096921,157811,665926,0
2096921,2096921,157978,665997,0
2096921,2096921,157901,666135,0
2096921,2096921,157889,666003,0
2096921,2096921,157972,666230,0
2096921,2096921,158041,666116,0
2096921,2096921,157937,666043,0
2096921,2096921,158262,665899,0
2096921,2096921,157919,666168,0
2096921,2096921,157892,666102,0
2096921,2096921,157881,666026,0
2096921,2096921,157694,666087,0
2096921,2096921,157756,666037,0
2096921,2096921,157875,665843,0
2096921,2096921,158024,665620,0
2096921,2096921,158027,666085,0
2096921,2096921,157987,665667,0
2096921,2096921,157889,665694,0
2096921,2096921,157671,665485,0
2096921,2096921,157678,665574,0
2096921,2096921,158073,665458,0
2096921,2096921,157956,665621,0
2096921,2096921,157790,665287,0
2096921,2096921,157677,664863,0
2096921,2096921,157726,665202,0
2096921,2096921,157595,665255,0
2096921,2096921,157716,665139,0
2096921,2096921,157847,664699,0
2096921,2096921,157559,664798,0
2096921,2096921,157749,664706,0
2096921,2096921,157634,664607,0
2096921,2096921,157664,664755,0
2096921,2096921,157176,664375,0
2096921,2096921,157414,664459,0
2096921,2096921,157203,664268,0
2096921,2096921,157460,664022,0
2096921,2096921,157424,664014,0
2096921,2096921,157404,663756,0
2096921,2096921,157341,663760,0
2096921,2096921,157228,663620,0
2096921,2096921,157254,664031,0
2096921,2096921,157151,663774,0
2096921,2096921,157204,663599,0
2096921,2096921,157274,663606,0
2096921,2096921,157078,663624,0
2096921,2096921,157098,663556,0
2096921,2096921,157310,663897,0
2096921,2096921,157151,663641,0
2096921,2096921,157456,663398,0
2096921,2096921,157129,663614,0
2096921,2096921,157260,663519,0
2096921,2096921,157286,663451,0
2096921,2096921,157218,663437,0
2096921,2096921,157341,663082,0
2096921,2096921,157501,663355,0
2096921,2096921,157291,663112,0
2096921,2096921,157442,663276,0
2096921,2096921,157196,663579,0
2096921,2096921,157227,663520,0
2096921,2096921,157084,663561,0
2096921,2096921,157164,663407,0
2096921,2096921,157337,663573,0
2096921,2096921,157474,663640,0
2096921,2096921,157522,663306,0
2096921,2096921,157250,663321,0
2096921,2096921,157278,663387,0
2096921,2096921,157280,663579,0
2096921,2096921,157545,663721,0
2096921,2096921,157546,663606,0
2096921,2096921,157609,663743,0
2096921,2096921,157435,663558,0
2096921,2096921,157562,663861,0
2096921,2096921,157325,664346,0
2096921,2096921,157149,664035,0
2096921,2096921,157397,664288,0
2096921,2096921,157573,664449,0
2096921,2096921,157742,664544,0
2096921,2096921,157848,664676,0
2096921,2096921,157766,665120,0
2096921,2096921,157770,665173,0
2096921,2096921,157606,665208,0
2096921,2096921,157802,664781,0
2096921,2096921,157608,664908,0
2096921,2096921,157779,665105,0
2096921,2096921,157860,665131,0
2096921,2096921,157646,664837,0
2096921,2096921,157822,664898,0
2096921,2096921,158059,665254,0
2096921,2096921,158299,665224,0
2096921,2096921,157902,665267,0
2096921,2096921,158152,665485,0
2096921,2096921,158041,665281,0
2096921,2096921,157891,665463,0
2096921,2096921,157747,665576,0
2096921,2096921,157779,665749,0
2096921,2096921,158028,665381,0
2096921,2096921,158049,665610,0
2096921,2096921,158292,665783,0
2096921,2096921,158203,665687,0
2096921,2096921,158171,665854,0
2096921,2096921,158159,665962,0
2096921,2096921,158260,665853,0
2096921,2096921,158323,665830,0
2096921,2096921,158387,666085,0
2096921,2096921,158337,665895,0
2096921,2096921,158480,665866,0
2096921,2096921,158704,666190,0
2096921,2096921,158535,666190,0
2096921,2096921,158652,666492,0
2096921,2096921,158708,666317,0
2096921,2096921,158402,666589,0
2096921,2096921,158530,666797,0
2096921,2096921,158638,666442,0
2096921,2096921,158561,666781,0
2096921,2096921,158495,666592,0
2096921,2096921,158769,666653,0
2096921,2096921,158787,666707,0
2096921,2096921,158941,666976,0
2096921,2096921,158854,666866,0
2096921,2096921,158798,667171,0
2096921,2096921,158555,667049,0
2096921,2096921,158708,666531,0
2096921,2096921,158551,666947,0
2096921,2096921,158755,666770,0
2096921,2096921,158824,666693,0
2096921,2096921,158652,666913,0
2096921,2096921,158727,667155,0
2096921,2096921,158675,667355,0
2096921,2096921,158880,667195,0
2096921,2096921,158892,667293,0
2096921,2096921,159127,667331,0
2096921,2096921,158824,667187,0
2096921,2096921,159287,667749,0
2096921,2096921,158791,667558,0
2096921,2096921,158955,667768,0
2096921,2096921,158971,667778,0
2096921,2096921,159075,667650,0
2096921,2096921,159043,668011,0
2096921,2096921,158905,667689,0
2096921,2096921,159076,667678,0
2096921,2096921,158968,667831,0
2096921,2096921,159230,667645,0
2096921,2096921,159286,667919,0
2096921,2096921,159100,667712,0
2096921,2096921,158924,667799,0
2096921,2096921,158871,667957,0
2096921,2096921,159188,668278,0
2096921,2096921,159227,668103,0
2096921,2096921,159386,668250,0
2096921,2096921,159142,668173,0
2096921,2096921,159325,668156,0
2096921,2096921,159519,668227,0
2096921,2096921,159532,668215,0
2096921,2096921,159490,668097,0
2096921,2096921,159350,668498,0
2096921,2096921,159284,668167,0
2096921,2096921,159184,667939,0
2096921,2096921,159133,668425,0
2096921,2096921,159312,668730,0
2096921,2096921,159481,668192,0
2096921,2096921,159319,668555,0
2096921,2096921,159375,668230,0
2096921,2096921,159666,668413,0
2096921,2096921,159675,668323,0
2096921,2096921,159504,668925,0
2096921,2096921,159609,668651,0
2096921,2096921,159743,668613,0
2096921,2096921,159898,668552,0
2096921,2096921,159666,668312,0
2096921,2096921,159380,668812,0
2096921,2096921,159397,668960,0
2096921,2096921,159196,668966,0
2096921,2096921,159447,668957,0
2096921,2096921,159554,668815,0
2096921,2096921,159608,668429,0
2096921,2096921,159593,668716,0
2096921,2096921,159340,668751,0
2096921,2096921,159915,669047,0
2096921,2096921,159726,669221,0
2096921,2096921,159598,668960,0
2096921,2096921,159713,668856,0
2096921,2096921,159762,668839,0
2096921,2096921,159624,668911,0
2096921,2096921,159869,669049,0
2096921,2096921,159851,668991,0
2096921,2096921,159922,668873,0
2096921,2096921,159673,669208,0
2096921,2096921,159542,668902,0
2096921,2096921,159679,668982,0
2096921,2096921,159673,669128,0
2096921,2096921,159845,669068,0
2096921,2096921,159807,669153,0
2096921,2096921,159838,669110,0
2096921,2096921,159885,668839,0
2096921,2096921,159962,669203,0
2096921,2096921,159859,669091,0
2096921,2096921,159733,668955,0
2096921,2096921,159844,669245,0
2096921,2096921,160142,669442,0
2096921,2096921,159919,669116,0
2096921,2096921,159988,669307,0
2096921,2096921,160312,669079,0
2096921,2096921,160050,668999,0
2096921,2096921,159784,669203,0
2096921,2096921,159816,668969,0
2096921,2096921,159577,669591,0
2096921,2096921,159872,669182,0
2096921,2096921,159901,669317,0
2096921,2096921,160052,669263,0
2096921,2096921,159883,669401,0
2096921,2096921,160112,669445,0
2096921,2096921,159837,669588,0
2096921,2096921,159802,669295,0
2096921,2096921,159783,669060,0
2096921,2096921,159934,669012,0
2096921,2096921,159861,669052,0
2096921,2096921,160078,669157,0
2096921,2096921,159782,669378,0
2096921,2096921,159918,669521,0
2096921,2096921,159957,669345,0
2096921,2096921,160151,669362,0
2096921,2096921,159521,669197,0
2096921,2096921,159844,669069,0
2096921,2096921,159834,668961,0
2096921,2096921,160083,669183,0
2096921,2096921,159898,669195,0
2096921,2096921,159991,669447,0
2096921,2096921,160131,669568,0
2096921,2096921,160091,669489,0
2096921,2096921,159941,669356,0
2096921,2096921,160086,669474,0
2096921,2096921,159790,669383,0
2096921,2096921,159833,669388,0
2096921,2096921,159888,669482,0
2096921,2096921,160094,669637,0
2096921,2096921,160305,669273,0
2096921,2096921,160044,669251,0
2096921,2096921,160160,669105,0
2096921,2096921,160274,669336,0
2096921,2096921,159948,669243,0
2096921,2096921,159882,669392,0
2096921,2096921,159861,669288,0
2096921,2096921,160063,669345,0
2096921,2096921,160019,669329,0
2096921,2096921,160024,669392,0
2096921,2096921,160013,669143,0
2096921,2096921,160151,669519,0
2096921,2096921,159987,669634,0
2096921,2096921,160149,669385,0
2096921,2096921,160154,669303,0
2096921,2096921,160115,669355,0
2096921,2096921,160160,669243,0
2096921,2096921,159776,669441,0
2096921,2096921,159957,669404,0
2096921,2096921,159966,669467,0
2096921,2096921,159997,669358,0
2096921,2096921,160144,669079,0
2096921,2096921,159818,669485,0
2096921,2096921,159930,669551,0
2096921,2096921,160228,669436,0
2096921,2096921,159953,669502,0
2096921,2096921,160421,669434,0
2096921,2096921,160358,669501,0
2096921,2096921,160328,669449,0
2096921,2096921,159890,669486,0
2096921,2096921,160151,669315,0
2096921,2096921,160056,669380,0
2096921,2096921,160222,669332,0
2096921,2096921,160205,669566,0
2096921,2096921,160157,669603,0
2096921,2096921,160197,669210,0
2096921,2096921,160037,669333,0
2096921,2096921,159941,669571,0
2096921,2096921,159910,669261,0
2096921,2096921,160053,669527,0
2096921,2096921,159981,669457,0
2096921,2096921,160157,669467,0
2096921,2096921,160149,669321,0
2096921,2096921,160547,669626,0
2096921,2096921,160176,669575,0
2096921,2096921,160253,669524,0
2096921,2096921,160229,669312,0
2096921,2096921,159928,669473,0
2096921,2096921,160114,669177,0
2096921,2096921,160230,669201,0
2096921,2096921,159956,669184,0
2096921,2096921,160252,669268,0
2096921,2096921,160128,669200,0
2096921,2096921,160205,669197,0
2096921,2096921,160102,669306,0
2096921,2096921,160126,669328,0
2096921,2096921,160260,669134,0
2096921,2096921,160037,669146,0
2096921,2096921,159995,669204,0
2096921,2096921,159929,669277,0
2096921,2096921,159955,669072,0
2096921,2096921,159981,669318,0
2096921,2096921,160000,669026,0
2096921,2096921,160277,669115,0
2096921,2096921,159747,669031,0
2096921,2096921,160125,669359,0
2096921,2096921,160051,669157,0
2096921,2096921,159802,669057,0
2096921,2096921,159863,668991,0
2096921,2096921,160097,669032,0
2096921,2096921,160132,668793,0
2096921,2096921,159919,668850,0
2096921,2096921,160120,669083,0
2096921,2096921,159784,669232,0
2096921,2096921,160046,669236,0
2096921,2096921,159952,668980,0
2096921,2096921,159965,668837,0
2096921,2096921,160125,669058,0
2096921,2096921,160077,668331,0
2096921,2096921,159800,668731,0
2096921,2096921,159937,668789,0
2096921,2096921,159889,668741,0
2096921,2096921,159915,668897,0
2096921,2096921,160353,668685,0
2096921,2096921,159943,668611,0
2096921,2096921,160450,668754,0
2096921,2096921,160109,668682,0
2096921,2096921,159687,668847,0
2096921,2096921,159831,668569,0
2096921,2096921,159788,668777,0
2096921,2096921,159786,668909,0
2096921,2096921,159819,668494,0
2096921,2096921,159807,668317,0
2096921,2096921,159794,668517,0
2096921,2096921,159701,668980,0
2096921,2096921,159812,668611,0
2096921,2096921,159679,668475,0
2096921,2096921,159660,668021,0
2096921,2096921,159753,667843,0
2096921,2096921,159737,667929,0
2096921,2096921,159783,667820,0
2096921,2096921,159453,667984,0
2096921,2096921,159558,667538,0
2096921,2096921,159256,667241,0
2096921,2096921,159239,667168,0
2096921,2096921,159485,667173,0
2096921,2096921,159118,666980,0
2096921,2096921,158863,666291,0
2096921,2096921,158855,666057,0
2096921,2096921,158817,666083,0
2096921,2096921,158951,666062,0
2096921,2096921,158715,666014,0
2096921,2096921,158452,664676,0
2096921,2096921,158463,664303,0
2096921,2096921,158446,664418,0
2096921,2096921,158280,664666,0
2096921,2096921,157829,664518,0
2096921,2096921,157693,663230,0
2096921,2096921,157923,662939,0
2096921,2096921,157890,663009,0
2096921,2096921,157800,662985,0
2096921,2096921,156929,662895,0
2096921,2096921,156608,660081,0
2096921,2096921,156868,660021,0
2096921,2096921,157084,659711,0
2096921,2096921,156849,659629,0
2096921,2096921,155303,659325,0
2096921,2096921,155046,655936,0
2096921,2096921,155050,655083,0
2096921,2096921,155160,655548,0
2096921,2096921,155111,655223,0
2096921,2096921,154487,655137,0
2096921,2096921,154153,652989,0
2096921,2096921,154079,652426,0
2096921,2096921,153960,652290,0
2096921,2096921,153812,652151,0
2096921,2096921,153309,652121,0
2096921,2096921,153303,650107,0
2096921,2096921,153109,650064,0
2096921,2096921,153150,650032,0
2096921,2096921,153194,649688,0
2096921,2096921,152777,649757,0
2096921,2096921,152375,648722,0
2096921,2096921,152393,648296,0
2096921,2096921,152576,648215,0
2096921,2096921,152194,648221,0
2096921,2096921,151724,648156,0
2096921,2096921,151883,647046,0
2096921,2096921,152082,646760,0
2096921,2096921,151972,646626,0
2096921,2096921,151916,646559,0
2096921,2096921,151475,646779,0
2096921,2096921,151983,646340,0
2096921,2096921,151764,646022,0
2096921,2096921,151641,646131,0
2096921,2096921,151545,645884,0
2096921,2096921,151564,645937,0
2096921,2096921,151261,645699,0
2096921,2096921,151198,645266,0
2096921,2096921,151408,645339,0
2096921,2096921,151605,645300,0
2096921,2096921,151286,645449,0
2096921,2096921,151303,645320,0
2096921,2096921,151216,645347,0
2096921,2096921,151264,645418,0
2096921,2096921,151614,645339,0
2096921,2096921,151672,645071,0
2096921,2096921,151401,644879,0
2096921,2096921,151247,644974,0
2096921,2096921,151270,645236,0
2096921,2096921,151259,644987,0
2096921,2096921,151697,645194,0
2096921,2096921,151463,645495,0
2096921,2096921,151519,645623,0
2096921,2096921,151640,645810,0
2096921,2096921,151669,645913,0
2096921,2096921,151592,645650,0
2096921,2096921,151467,645677,0
2096921,2096921,151617,645574,0
2096921,2096921,151592,645743,0
2096921,2096921,151648,645681,0
2096921,2096921,151696,645638,0
2096921,2096921,151812,646243,0
2096921,2096921,151755,645895,0
2096921,2096921,151711,645915,0
2096921,2096921,151622,646276,0
2096921,2096921,151886,646228,0
2096921,2096921,151908,646775,0
2096921,2096921,151977,646875,0
2096921,2096921,151885,646864,0
2096921,2096921,151932,646803,0
2096921,2096921,152261,646784,0
2096921,2096921,152141,647206,0
2096921,2096921,151876,647019,0
2096921,2096921,151738,647010,0
2096921,2096921,151962,647300,0
2096921,2096921,152086,647328,0
2096921,2096921,152506,647867,0
2096921,2096921,152516,647739,0
2096921,2096921,152282,647765,0
2096921,2096921,152373,647669,0
2096921,2096921,152642,647863,0
2096921,2096921,152420,648465,0
2096921,2096921,152639,648692,0
2096921,2096921,152716,648991,0
2096921,2096921,152864,648722,0
2096921,2096921,152821,648761,0
2096921,2096921,152973,649685,0
2096921,2096921,152899,649404,0
2096921,2096921,152816,649318,0
2096921,2096921,153060,649451,0
2096921,2096921,153077,649387,0
2096921,2096921,153081,650111,0
2096921,2096921,153182,650186,0
2096921,2096921,153192,650462,0
2096921,2096921,153205,650343,0
2096921,2096921,153306,650603,0
2096921,2096921,153378,650720,0
2096921,2096921,153292,651006,0
2096921,2096921,153350,650888,0
2096921,2096921,153418,650763,0
2096921,2096921,153498,650804,0
2096921,2096921,153514,651482,0
2096921,2096921,153819,651490,0
2096921,2096921,153664,651580,0
2096921,2096921,153819,651531,0
2096921,2096921,153723,651640,0
2096921,2096921,154086,652186,0
2096921,2096921,154027,652159,0
2096921,2096921,153952,652440,0
2096921,2096921,153803,652182,0
2096921,2096921,154230,652245,0
2096921,2096921,154406,652941,0
2096921,2096921,154132,653213,0
2096921,2096921,154054,653094,0
2096921,2096921,154220,652927,0
2096921,2096921,154544,653138,0
2096921,2096921,154495,653443,0
2096921,2096921,154458,653786,0
2096921,2096921,154588,653847,0
2096921,2096921,154453,653858,0
2096921,2096921,154964,654078,0
2096921,2096921,155060,654237,0
2096921,2096921,154752,654614,0
2096921,2096921,154750,654435,0
2096921,2096921,155057,654611,0
2096921,2096921,155040,654590,0
2096921,2096921,154973,654990,0
2096921,2096921,154838,655308,0
2096921,2096921,155112,654955,0
2096921,2096921,155025,655269,0
2096921,2096921,155213,654969,0
2096921,2096921,155378,655633,0
2096921,2096921,155181,655450,0
2096921,2096921,155366,655802,0
2096921,2096921,155253,655850,0
2096921,2096921,155344,655668,0
2096921,2096921,155641,655824,0
2096921,2096921,155619,656036,0
2096921,2096921,155520,656370,0
2096921,2096921,155458,656030,0
2096921,2096921,155585,656421,0
2096921,2096921,155588,656503,0
2096921,2096921,155467,656119,0
2096921,2096921,155667,656217,0
2096921,2096921,155337,656718,0
2096921,2096921,155388,656621,0
2096921,2096921,155564,656709,0
2096921,2096921,155894,656530,0
2096921,2096921,155791,656428,0
2096921,2096921,155962,656771,0
2096921,2096921,155679,656694,0
2096921,2096921,155545,656771,0
2096921,2096921,155551,656586,0
2096921,2096921,155615,656498,0
2096921,2096921,155873,656570,0
2096921,2096921,155684,656504,0
2096921,2096921,155443,656506,0
2096921,2096921,155559,656614,0
2096921,2096921,155474,656715,0
2096921,2096921,155414,656804,0
2096921,2096921,155619,656760,0
2096921,2096921,155634,656538,0
2096921,2096921,155885,656475,0
2096921,2096921,155734,656339,0
2096921,2096921,155759,656464,0
2096921,2096921,155633,656616,0
2096921,2096921,155422,656396,0
2096921,2096921,155664,656201,0
2096921,2096921,155385,655851,0
2096921,2096921,155536,656421,0
2096921,2096921,155589,656346,0
2096921,2096921,155499,656014,0
2096921,2096921,155600,656063,0
2096921,2096921,155397,656399,0
2096921,2096921,155392,656138,0
2096921,2096921,155482,655926,0
2096921,2096921,155498,655675,0
2096921,2096921,155322,655621,0
2096921,2096921,155287,655480,0
2096921,2096921,155295,655494,0
2096921,2096921,155111,655823,0
2096921,2096921,155235,655385,0
2096921,2096921,155219,655368,0
2096921,2096921,155390,655426,0
2096921,2096921,154922,655419,0
2096921,2096921,155133,655576,0
2096921,2096921,154984,655602,0
2096921,2096921,155328,655528,0
2096921,2096921,155467,655463,0
2096921,2096921,155516,655468,0
2096921,2096921,155315,655607,0
2096921,2096921,155275,655539,0
2096921,2096921,155422,655554,0
2096921,2096921,155378,655411,0
2096921,2096921,155330,655621,0
2096921,2096921,155324,655238,0
2096921,2096921,155170,655480,0
2096921,2096921,155055,655590,0
2096921,2096921,155147,655663,0
2096921,2096921,155091,655637,0
2096921,2096921,155192,655586,0
2096921,2096921,155293,655637,0
2096921,2096921,155459,655900,0
2096921,2096921,155481,656007,0
2096921,2096921,155502,655976,0
2096921,2096921,155253,656077,0
2096921,2096921,155326,656258,0
2096921,2096921,155350,656162,0
2096921,2096921,155513,656109,0
2096921,2096921,155726,655909,0
2096921,2096921,155482,655867,0
2096921,2096921,155537,656473,0
2096921,2096921,155391,656465,0
2096921,2096921,155479,656628,0
2096921,2096921,155490,656555,0
2096921,2096921,155765,656644,0
2096921,2096921,156014,657150,0
2096921,2096921,155856,657287,0
2096921,2096921,155863,657646,0
2096921,2096921,155774,657254,0
2096921,2096921,155908,657738,0
2096921,2096921,156049,657824,0
2096921,2096921,156068,657786,0
2096921,2096921,156166,657905,0
2096921,2096921,156026,657915,0
2096921,2096921,156217,657782,0
2096921,2096921,156281,658306,0
2096921,2096921,156229,658345,0
2096921,2096921,156416,658322,0
2096921,2096921,156236,658015,0
2096921,2096921,156369,658570,0
2096921,2096921,156389,658801,0
2096921,2096921,156280,658876,0
2096921,2096921,156253,658864,0
2096921,2096921,156213,659039,0
2096921,2096921,156314,659061,0
2096921,2096921,156569,659015,0
2096921,2096921,156440,659399,0
2096921,2096921,156627,659198,0
2096921,2096921,156333,659463,0
2096921,2096921,156646,659442,0
2096921,2096921,156554,659712,0
2096921,2096921,156766,659757,0
2096921,2096921,156792,659813,0
2096921,2096921,156642,660148,0
2096921,2096921,156869,659968,0
2096921,2096921,156979,659911,0
2096921,2096921,156936,660042,0
2096921,2096921,156839,659914,0
2096921,2096921,157070,659900,0
2096921,2096921,157159,660120,0
2096921,2096921,157023,660888,0
2096921,2096921,156938,660831,0
2096921,2096921,157337,660799,0
2096921,2096921,157312,660669,0
2096921,2096921,157233,660728,0
2096921,2096921,157075,660874,0
2096921,2096921,157129,661112,0
2096921,2096921,157215,661232,0
2096921,2096921,157489,661400,0
2096921,2096921,157593,661325,0
2096921,2096921,157548,661740,0
2096921,2096921,157436,662088,0
2096921,2096921,157355,661617,0
2096921,2096921,157467,661767,0
2096921,2096921,157369,661552,0
2096921,2096921,157276,662303,0
2096921,2096921,157425,662150,0
2096921,2096921,157699,662536,0
2096921,2096921,157578,662173,0
2096921,2096921,157610,661902,0
2096921,2096921,158040,662605,0
2096921,2096921,157782,662755,0
2096921,2096921,157781,662900,0
2096921,2096921,157922,662680,0
2096921,2096921,157994,662849,0
2096921,2096921,157796,662882,0
2096921,2096921,157740,662915,0
2096921,2096921,158007,663232,0
2096921,2096921,157645,663249,0
2096921,2096921,158112,663424,0
2096921,2096921,157995,663568,0
2096921,2096921,158079,663421,0
2096921,2096921,157781,663634,0
2096921,2096921,157939,663720,0
2096921,2096921,157986,663769,0
2096921,2096921,158032,663949,0
2096921,2096921,158211,664233,0
2096921,2096921,158551,664238,0
2096921,2096921,158716,664056,0
2096921,2096921,158379,663810,0
2096921,2096921,158286,664568,0
2096921,2096921,158583,664646,0
2096921,2096921,158320,664596,0
2096921,2096921,158409,664456,0
2096921,2096921,158550,664492,0
2096921,2096921,158551,664854,0
2096921,2096921,158672,664799,0
2096921,2096921,158428,664926,0
2096921,2096921,158291,664687,0
2096921,2096921,158513,664887,0
2096921,2096921,158938,665478,0
2096921,2096921,158625,665393,0
2096921,2096921,158605,665457,0
2096921,2096921,158588,665426,0
2096921,2096921,158521,665159,0
2096921,2096921,159000,665508,0
2096921,2096921,158694,665397,0
2096921,2096921,158722,665656,0
2096921,2096921,158878,665694,0
2096921,2096921,159015,665920,0
2096921,2096921,158963,666045,0
2096921,2096921,158825,666373,0
2096921,2096921,158940,665872,0
2096921,2096921,158886,666060,0
2096921,2096921,158822,665963,0
2096921,2096921,158956,666319,0
2096921,2096921,158895,666310,0
2096921,2096921,158998,666674,0
2096921,2096921,158927,666138,0
2096921,2096921,158992,666367,0
2096921,2096921,159240,666611,0
2096921,2096921,159154,666689,0
2096921,2096921,159109,666908,0
2096921,2096921,159144,666878,0
2096921,2096921,159274,666823,0
2096921,2096921,159302,667121,0
2096921,2096921,159523,667093,0
2096921,2096921,159551,667346,0
2096921,2096921,159403,667298,0
2096921,2096921,159416,667424,0
2096921,2096921,159171,667614,0
2096921,2096921,159126,667644,0
2096921,2096921,159309,667701,0
2096921,2096921,159439,667728,0
2096921,2096921,159519,667307,0
2096921,2096921,159388,667773,0
2096921,2096921,159727,667715,0
2096921,2096921,159351,667731,0
2096921,2096921,159440,667957,0
2096921,2096921,159711,668196,0
2096921,2096921,159771,668298,0
2096921,2096921,159843,668167,0
2096921,2096921,159543,668435,0
2096921,2096921,159434,668260,0
2096921,2096921,159680,668201,0
2096921,2096921,159855,668436,0
2096921,2096921,159979,668570,0
2096921,2096921,159557,668623,0
2096921,2096921,159261,668724,0
2096921,2096921,159578,668765,0
2096921,2096921,159818,668940,0
2096921,2096921,159984,668945,0
2096921,2096921,159881,668804,0
2096921,2096921,159815,668767,0
2096921,2096921,159551,668815,0
2096921,2096921,159623,668981,0
2096921,2096921,159921,668803,0
2096921,2096921,160122,669076,0
2096921,2096921,159852,669075,0
2096921,2096921,160182,668915,0
2096921,2096921,160124,669254,0
2096921,2096921,160183,669077,0
2096921,2096921,159760,669566,0
2096921,2096921,159943,669568,0
2096921,2096921,160213,669734,0
2096921,2096921,159962,670059,0
2096921,2096921,160258,669796,0
2096921,2096921,160042,669882,0
2096921,2096921,160245,669845,0
2096921,2096921,160127,669720,0
2096921,2096921,160126,669797,0
2096921,2096921,160158,669802,0
2096921,2096921,160349,669981,0
2096921,2096921,160090,669927,0
2096921,2096921,160341,670042,0
2096921,2096921,160498,669988,0
2096921,2096921,160497,669865,0
2096921,2096921,160269,670194,0
2096921,2096921,160360,670294,0
2096921,2096921,160577,670363,0
2096921,2096921,160567,670567,0
2096921,2096921,160787,670645,0
2096921,2096921,160296,670740,0
2096921,2096921,160564,670680,0
2096921,2096921,160274,670518,0
2096921,2096921,160143,670921,0
2096921,2096921,160191,670833,0
2096921,2096921,160457,671012,0
2096921,2096921,160475,670853,0
2096921,2096921,160502,670873,0
2096921,2096921,160686,671386,0
2096921,2096921,160614,671055,0
2096921,2096921,160634,671223,0
2096921,2096921,160619,671055,0
2096921,2096921,160714,670812,0
2096921,2096921,160772,671380,0
2096921,2096921,160460,671517,0
2096921,2096921,160531,671792,0
2096921,2096921,160703,671174,0
2096921,2096921,160718,671281,0
2096921,2096921,160662,671789,0
2096921,2096921,160845,671836,0
2096921,2096921,160895,671829,0
2096921,2096921,160536,671913,0
2096921,2096921,160845,671736,0
2096921,2096921,160701,672016,0
2096921,2096921,160916,671997,0
2096921,2096921,160940,671977,0
2096921,2096921,160922,672198,0
2096921,2096921,160706,671777,0
2096921,2096921,160769,672299,0
2096921,2096921,160807,672172,0
2096921,2096921,160707,672358,0
2096921,2096921,160692,672421,0
2096921,2096921,161109,672423,0
2096921,2096921,160472,672524,0
2096921,2096921,160596,672462,0
2096921,2096921,160729,672423,0
2096921,2096921,160719,672364,0
2096921,2096921,160842,672515,0
2096921,2096921,161098,672757,0
2096921,2096921,160906,672917,0
2096921,2096921,160919,673072,0
2096921,2096921,161031,672828,0
2096921,2096921,160993,672571,0
2096921,2096921,160929,673136,0
2096921,2096921,160875,673278,0
2096921,2096921,160942,673258,0
2096921,2096921,161182,673040,0
2096921,2096921,160960,672836,0
2096921,2096921,161466,672657,0
2096921,2096921,161223,673101,0
2096921,2096921,161105,673378,0
2096921,2096921,161172,673172,0
2096921,2096921,160935,673352,0
2096921,2096921,161134,673400,0
2096921,2096921,161261,673260,0
2096921,2096921,161300,673293,0
2096921,2096921,161466,673149,0
2096921,2096921,161129,673362,0
2096921,2096921,161212,673793,0
2096921,2096921,161119,673790,0
2096921,2096921,161043,673188,0
2096921,2096921,161276,673563,0
2096921,2096921,161565,673475,0
2096921,2096921,161212,673161,0
2096921,2096921,161226,673664,0
2096921,2096921,161148,673704,0
2096921,2096921,161202,673723,0
2096921,2096921,161446,673877,0
2096921,2096921,161505,673650,0
2096921,2096921,161573,673855,0
2096921,2096921,161431,674059,0
2096921,2096921,161024,673784,0
2096921,2096921,161325,673892,0
2096921,2096921,161436,673874,0
2096921,2096921,161265,674089,0
2096921,2096921,161255,673789,0
2096921,2096921,161523,673818,0
2096921,2096921,161623,673853,0
2096921,2096921,161760,674239,0
2096921,2096921,161465,674230,0
2096921,2096921,161132,674420,0
2096921,2096921,161245,674540,0
2096921,2096921,161449,674062,0
2096921,2096921,161600,674422,0
2096921,2096921,161526,674218,0
2096921,2096921,161372,674287,0
2096921,2096921,161479,674383,0
2096921,2096921,161543,674362,0
2096921,2096921,161500,674439,0
2096921,2096921,161691,674788,0
2096921,2096921,161631,674668,0
2096921,2096921,161421,674459,0
2096921,2096921,161109,674549,0
2096921,2096921,161124,673980,0
2096921,2096921,160934,673857,0
2096921,2096921,160904,674060,0
2096921,2096921,161166,673919,0
2096921,2096921,161022,674122,0
2096921,2096921,160858,673597,0
2096921,2096921,160965,673537,0
2096921,2096921,160951,673604,0
2096921,2096921,160988,673709,0
2096921,2096921,161079,673448,0
2096921,2096921,160856,672635,0
2096921,2096921,160768,672441,0
2096921,2096921,160674,672656,0
2096921,2096921,160802,672561,0
2096921,2096921,160310,672505,0
2096921,2096921,160347,671560,0
2096921,2096921,160367,671458,0
2096921,2096921,160508,671250,0
2096921,2096921,159975,671512,0
2096921,2096921,159692,671252,0
2096921,2096921,159475,670582,0
2096921,2096921,159629,670321,0
2096921,2096921,159881,670161,0
2096921,2096921,159784,669897,0
2096921,2096921,158797,669655,0
2096921,2096921,158463,667445,0
2096921,2096921,158503,666863,0
2096921,2096921,158466,666696,0
2096921,2096921,158358,666791,0
2096921,2096921,157228,666347,0
2096921,2096921,156800,663695,0
2096921,2096921,156876,662694,0
2096921,2096921,156921,662577,0
2096921,2096921,157010,662540,0
2096921,2096921,156098,662238,0
2096921,2096921,155982,660267,0
2096921,2096921,155794,659838,0
2096921,2096921,155742,659747,0
2096921,2096921,155869,659758,0
2096921,2096921,155132,659416,0
2096921,2096921,155057,657848,0
2096921,2096921,154891,657569,0
2096921,2096921,154712,657676,0
2096921,2096921,154936,657663,0
2096921,2096921,154601,657117,0
2096921,2096921,154358,656307,0
2096921,2096921,154128,655873,0
2096921,2096921,154325,655782,0
2096921,2096921,154187,655677,0
2096921,2096921,153959,655474,0
2096921,2096921,153692,654854,0
2096921,2096921,153901,654714,0
2096921,2096921,153729,654429,0
2096921,2096921,153770,654675,0
2096921,2096921,153752,654469,0
2096921,2096921,153592,653894,0
2096921,2096921,153770,653901,0
2096921,2096921,153512,654037,0
2096921,2096921,153604,654034,0
2096921,2096921,153570,654039,0
2096921,2096921,153188,653881,0
2096921,2096921,153449,653682,0
2096921,2096921,153542,653770,0
2096921,2096921,153304,653685,0
2096921,2096921,153383,653377,0
2096921,2096921,153354,653545,0
2096921,2096921,153363,653570,0
2096921,2096921,153298,653719,0
2096921,2096921,153320,653599,0
2096921,2096921,153547,653444,0
2096921,2096921,153343,653389,0
2096921,2096921,153530,653594,0
2096921,2096921,153320,653869,0
2096921,2096921,153416,653677,0
2096921,2096921,153765,653675,0
2096921,2096921,153735,654127,0
2096921,2096921,153748,654030,0
2096921,2096921,153675,654258,0
2096921,2096921,153827,654562,0
2096921,2096921,153600,654632,0
2096921,2096921,153784,654551,0
2096921,2096921,153758,654614,0
2096921,2096921,153713,654822,0
2096921,2096921,153569,654508,0
2096921,2096921,153831,654574,0
2096921,2096921,153821,654848,0
2096921,2096921,153767,654935,0
2096921,2096921,153821,654900,0
2096921,2096921,153995,654877,0
2096921,2096921,154105,654983,0
2096921,2096921,153957,655394,0
2096921,2096921,153993,655478,0
2096921,2096921,154167,655687,0
2096921,2096921,154254,655735,0
2096921,2096921,154370,656110,0
2096921,2096921,154467,656616,0
2096921,2096921,154314,656368,0
2096921,2096921,154436,656611,0
2096921,2096921,154416,656827,0
2096921,2096921,154746,656740,0
2096921,2096921,154872,657218,0
2096921,2096921,154703,657137,0
2096921,2096921,154978,657438,0
2096921,2096921,155034,657461,0
2096921,2096921,155144,657511,0
2096921,2096921,155135,657937,0
2096921,2096921,155373,658185,0
2096921,2096921,155081,658400,0
2096921,2096921,155251,658718,0
2096921,2096921,155441,658340,0
2096921,2096921,155441,659002,0
2096921,2096921,155263,659065,0
2096921,2096921,155228,659203,0
2096921,2096921,154903,659325,0
2096921,2096921,155576,659245,0
2096921,2096921,155576,659879,0
2096921,2096921,155739,660121,0
2096921,2096921,155549,660350,0
2096921,2096921,155555,659867,0
2096921,2096921,155917,659977,0
2096921,2096921,155885,660485,0
2096921,2096921,156074,660851,0
2096921,2096921,156085,660611,0
2096921,2096921,155973,660925,0
2096921,2096921,156254,661008,0
2096921,2096921,156114,661873,0
2096921,2096921,156122,661541,0
