2096921,2096921,457303,252849,51075
2096921,2096921,457019,252655,51020
2096921,2096921,457031,252681,51020
2096921,2096921,457050,252744,51107
2096921,2096921,457004,252757,51020
2096921,2096921,456543,252841,51059
2096921,2096921,456479,252702,51043
2096921,2096921,456414,252610,51107
2096921,2096921,456323,252509,51706
2096921,2096921,455622,252401,51020
2096921,2096921,455663,252338,51020
2096921,2096921,455689,252396,51059
2096921,2096921,455554,252375,51020
2096921,2096921,454997,252454,51706
2096921,2096921,454756,252149,51059
2096921,2096921,454725,251925,51020
2096921,2096921,453096,251883,51043
2096921,2096921,452807,251488,51107
2096921,2096921,452794,251459,51020
2096921,2096921,450201,250560,51043
2096921,2096921,448718,250465,51706
2096921,2096921,448561,250109,51193
2096921,2096921,448453,250081,51201
2096921,2096921,447493,250102,51043
2096921,2096921,446084,249272,51146
2096921,2096921,446033,249301,51059
2096921,2096921,445288,248994,51075
2096921,2096921,445191,248921,51059
2096921,2096921,444931,248887,51020
2096921,2096921,444933,248898,51146
2096921,2096921,444877,248880,51020
2096921,2096921,444708,248894,51059
2096921,2096921,444661,248805,51075
2096921,2096921,444316,248611,51706
2096921,2096921,444470,248666,51059
2096921,2096921,444508,248727,51107
2096921,2096921,444400,248752,51075
2096921,2096921,444239,248713,51020
2096921,2096921,444593,248654,51075
2096921,2096921,444592,248778,51706
2096921,2096921,444666,248775,51020
2096921,2096921,444755,248622,50972
2096921,2096921,444899,248875,51107
2096921,2096921,444817,248933,51020
2096921,2096921,445234,248904,51706
2096921,2096921,445220,248902,50972
2096921,2096921,445713,249184,51107
2096921,2096921,445645,249124,50972
2096921,2096921,446027,249195,50972
2096921,2096921,446470,249394,51020
2096921,2096921,446509,249449,51020
2096921,2096921,446904,249449,50972
2096921,2096921,446839,249523,50972
2096921,2096921,447186,249436,51020
2096921,2096921,447290,249660,51020
2096921,2096921,447346,249806,51059
2096921,2096921,447396,249643,50972
2096921,2096921,447844,249784,50972
2096921,2096921,447641,249772,50972
2096921,2096921,448199,249934,51706
2096921,2096921,448312,249991,50972
2096921,2096921,448519,250149,51201
2096921,2096921,448815,250023,51059
2096921,2096921,449103,250185,51075
2096921,2096921,449541,250244,51043
2096921,2096921,449469,250373,51059
2096921,2096921,449911,250205,51706
2096921,2096921,450127,250570,51193
2096921,2096921,450125,250535,51059
2096921,2096921,450339,250673,51020
2096921,2096921,450624,250506,51020
2096921,2096921,450766,250772,51020
2096921,2096921,450741,250828,51020
2096921,2096921,450887,250842,51706
2096921,2096921,451238,250939,51107
2096921,2096921,451107,251031,51059
2096921,2096921,451306,251108,51020
2096921,2096921,451331,251101,51706
2096921,2096921,451217,250891,51706
2096921,2096921,451189,250998,51020
2096921,2096921,451325,251093,51020
2096921,2096921,451322,250970,51193
2096921,2096921,451180,250889,51020
2096921,2096921,450979,250752,51020
2096921,2096921,451170,250983,51107
2096921,2096921,451119,250958,51201
2096921,2096921,451028,251000,51075
2096921,2096921,451150,250934,51020
2096921,2096921,451045,250936,51107
2096921,2096921,450878,250735,50972
2096921,2096921,450690,250672,50972
2096921,2096921,450848,250854,51020
2096921,2096921,450785,250776,50933
2096921,2096921,450539,250587,50972
2096921,2096921,450526,250701,51075
2096921,2096921,450579,250684,51020
2096921,2096921,450597,250735,51020
2096921,2096921,450505,250705,51201
2096921,2096921,450247,250580,51706
2096921,2096921,450166,250504,50972
2096921,2096921,450391,250545,50972
2096921,2096921,450450,250631,51706
2096921,2096921,450391,250758,51107
2096921,2096921,450140,250534,50972
2096921,2096921,450451,250551,50972
2096921,2096921,450402,250636,50972
2096921,2096921,450540,250679,50972
2096921,2096921,450324,250555,51706
2096921,2096921,450615,250491,51059
2096921,2096921,450879,250565,51020
2096921,2096921,450770,250727,51059
2096921,2096921,451050,250865,51146
2096921,2096921,450951,250692,51706
2096921,2096921,451099,250548,51043
2096921,2096921,451310,250750,51059
2096921,2096921,451325,250819,51107
2096921,2096921,451214,250919,51059
2096921,2096921,451577,251084,51059
2096921,2096921,451573,251012,51059
2096921,2096921,451482,250815,51059
2096921,2096921,451623,250739,51020
2096921,2096921,451839,250847,51075
2096921,2096921,451854,251035,51107
2096921,2096921,451710,251074,51059
2096921,2096921,451949,251120,51059
2096921,2096921,452046,251171,51020
2096921,2096921,451888,250924,51075
2096921,2096921,451918,250843,51201
2096921,2096921,452110,250958,51059
2096921,2096921,452045,251130,51146
2096921,2096921,452065,251102,51201
2096921,2096921,452444,251125,51146
2096921,2096921,452207,251010,51075
2096921,2096921,452343,250998,51020
2096921,2096921,452510,251264,51146
2096921,2096921,452475,251100,51020
2096921,2096921,452782,251186,51107
2096921,2096921,452494,251093,50972
2096921,2096921,452505,251043,50972
2096921,2096921,452716,251238,51075
2096921,2096921,452907,251216,51059
2096921,2096921,452864,251182,50972
2096921,2096921,452971,251315,50972
2096921,2096921,452954,251229,50972
2096921,2096921,453026,251165,51043
2096921,2096921,453223,251294,50972
2096921,2096921,453251,251370,51059
2096921,2096921,453411,251344,51020
2096921,2096921,453408,251459,50972
2096921,2096921,453344,251410,51201
2096921,2096921,453181,251384,51020
2096921,2096921,453268,251207,51020
2096921,2096921,453488,251364,51075
2096921,2096921,453566,251365,51107
2096921,2096921,453443,251344,51020
2096921,2096921,453632,251427,51020
2096921,2096921,453635,251527,50972
2096921,2096921,453550,251491,51146
2096921,2096921,453509,251338,51706
2096921,2096921,453601,251311,50972
2096921,2096921,453846,251446,50972
2096921,2096921,453903,251453,51201
2096921,2096921,453774,251457,51020
2096921,2096921,453871,251525,51020
2096921,2096921,453821,251512,50972
2096921,2096921,453779,251562,51201
2096921,2096921,453727,251369,51020
2096921,2096921,453908,251347,50972
2096921,2096921,454012,251479,51020
2096921,2096921,454012,251413,51706
2096921,2096921,453903,251485,51020
2096921,2096921,453999,251593,51706
2096921,2096921,454112,251547,50972
2096921,2096921,454111,251542,51107
2096921,2096921,453948,251366,51020
2096921,2096921,453933,251262,51020
2096921,2096921,454054,251412,50972
2096921,2096921,454079,251521,51020
2096921,2096921,454014,251530,51059
2096921,2096921,454194,251548,51020
2096921,2096921,454306,251600,51059
2096921,2096921,454249,251522,51107
2096921,2096921,454142,251435,51043
2096921,2096921,454095,251256,51075
2096921,2096921,454273,251460,51020
2096921,2096921,454307,251476,51107
2096921,2096921,454235,251529,51020
2096921,2096921,454340,251547,51020
2096921,2096921,454383,251581,51706
2096921,2096921,454406,251557,51107
2096921,2096921,454257,251381,50972
2096921,2096921,454264,251375,51075
2096921,2096921,454357,251462,51020
2096921,2096921,454406,251526,51193
2096921,2096921,454447,251518,51020
2096921,2096921,454528,251570,51706
2096921,2096921,454530,251521,51706
2096921,2096921,454549,251497,51146
2096921,2096921,454233,251381,51020
2096921,2096921,454293,251284,51020
2096921,2096921,454481,251408,51201
2096921,2096921,454448,251526,51201
2096921,2096921,454480,251453,51706
2096921,2096921,454588,251519,51020
2096921,2096921,454581,251480,51020
2096921,2096921,454511,251469,51146
2096921,2096921,454360,251336,51020
2096921,2096921,454303,251333,51020
2096921,2096921,454443,251460,51020
2096921,2096921,454498,251492,51107
2096921,2096921,454606,251507,51059
2096921,2096921,454727,251526,51075
2096921,2096921,454630,251521,51201
2096921,2096921,454598,251475,51059
2096921,2096921,454351,251412,51059
2096921,2096921,454272,251201,51059
2096921,2096921,454425,251361,51020
2096921,2096921,454570,251445,51059
2096921,2096921,454523,251355,51706
2096921,2096921,454576,251332,51059
2096921,2096921,454537,251441,51059
2096921,2096921,454451,251480,51201
2096921,2096921,454331,251322,51020
2096921,2096921,454312,251147,51059
2096921,2096921,454516,251292,51059
2096921,2096921,454556,251386,51107
2096921,2096921,454463,251355,51059
2096921,2096921,454501,251415,51020
2096921,2096921,454519,251484,51020
2096921,2096921,454504,251392,51146
2096921,2096921,454379,251274,51059
2096921,2096921,454401,251089,51020
2096921,2096921,454576,251253,51201
2096921,2096921,454535,251313,51193
2096921,2096921,454535,251384,51020
2096921,2096921,454655,251439,51020
2096921,2096921,454674,251498,51020
2096921,2096921,454628,251443,51146
2096921,2096921,454451,251190,51020
2096921,2096921,454459,251105,51706
2096921,2096921,454527,251300,51059
2096921,2096921,454597,251300,51107
2096921,2096921,454538,251367,51075
2096921,2096921,454650,251438,51059
2096921,2096921,454603,251416,51020
2096921,2096921,454592,251419,51146
2096921,2096921,454469,251096,51020
2096921,2096921,454416,251128,51059
2096921,2096921,454620,251209,51706
2096921,2096921,454534,251300,51020
2096921,2096921,454491,251254,51059
2096921,2096921,454623,251342,51020
2096921,2096921,454610,251336,51075
2096921,2096921,454527,251219,51146
2096921,2096921,454369,251156,51107
2096921,2096921,454313,251057,51059
2096921,2096921,454393,251196,51059
2096921,2096921,454448,251276,51146
2096921,2096921,454460,251184,51706
2096921,2096921,454556,251201,51107
2096921,2096921,454581,251248,51059
2096921,2096921,454503,251280,51146
2096921,2096921,454365,251146,51107
2096921,2096921,454308,251033,51059
2096921,2096921,454433,251172,51107
2096921,2096921,454448,251213,51706
2096921,2096921,454491,251122,51075
2096921,2096921,454574,251218,51059
2096921,2096921,454525,251238,51107
2096921,2096921,454472,251214,51193
2096921,2096921,454325,251070,51706
2096921,2096921,454258,250951,51059
2096921,2096921,454306,251061,51706
2096921,2096921,454382,251142,51233
2096921,2096921,454302,251104,51107
2096921,2096921,454340,251195,51201
2096921,2096921,454345,251157,51107
2096921,2096921,454347,251127,51193
2096921,2096921,454102,250999,51059
2096921,2096921,454101,250947,51059
2096921,2096921,454208,251043,51075
2096921,2096921,454264,251035,51146
2096921,2096921,454249,250976,51107
2096921,2096921,454216,251006,51107
2096921,2096921,454181,250998,51059
2096921,2096921,454154,250956,51146
2096921,2096921,454000,250891,51201
2096921,2096921,453950,250775,51059
2096921,2096921,454145,250938,51107
2096921,2096921,454239,250977,51146
2096921,2096921,454211,250929,51706
2096921,2096921,454217,250924,51107
2096921,2096921,454161,251013,51107
2096921,2096921,454069,250989,51193
2096921,2096921,453923,250894,51020
2096921,2096921,453918,250764,51201
2096921,2096921,454060,250927,51059
2096921,2096921,454061,250949,51146
2096921,2096921,454024,250789,51059
2096921,2096921,454027,250939,51107
2096921,2096921,453949,250970,51107
2096921,2096921,453951,250963,51193
2096921,2096921,453883,250753,51059
2096921,2096921,453850,250684,51059
2096921,2096921,453941,250814,51107
2096921,2096921,454016,250919,51280
2096921,2096921,453920,250850,51059
2096921,2096921,453633,250966,51059
2096921,2096921,453512,250840,51107
2096921,2096921,453504,250706,51146
2096921,2096921,453427,250568,51107
2096921,2096921,453121,250463,51706
2096921,2096921,453169,250565,51107
2096921,2096921,453083,250565,51193
2096921,2096921,453066,250589,51107
2096921,2096921,452519,250553,51059
2096921,2096921,452444,250490,51706
2096921,2096921,452406,250362,51193
2096921,2096921,452280,250233,51706
2096921,2096921,451571,250098,51059
2096921,2096921,451645,250080,51706
2096921,2096921,451535,250175,51059
2096921,2096921,451537,250171,51059
2096921,2096921,450916,250159,51059
2096921,2096921,450716,249877,51107
2096921,2096921,450617,249706,51059
2096921,2096921,450523,249663,51107
2096921,2096921,448794,249553,51706
2096921,2096921,448624,249154,51059
2096921,2096921,448584,249214,51146
2096921,2096921,448517,249113,51059
2096921,2096921,446736,249124,51107
2096921,2096921,446261,248503,51059
2096921,2096921,446107,248355,51201
2096921,2096921,445916,248253,51107
2096921,2096921,444457,248113,51059
2096921,2096921,444364,247792,51059
2096921,2096921,444396,247732,51193
2096921,2096921,444252,247691,51201
2096921,2096921,443218,247717,51075
2096921,2096921,443017,247453,51059
2096921,2096921,442834,247282,51706
2096921,2096921,442726,247142,51059
2096921,2096921,441865,247068,51107
2096921,2096921,441805,246941,51706
2096921,2096921,441833,246919,51146
2096921,2096921,441819,246809,51107
2096921,2096921,441275,246890,51059
2096921,2096921,441107,246721,51059
2096921,2096921,441001,246645,51146
2096921,2096921,440875,246513,51075
2096921,2096921,440438,246409,51107
2096921,2096921,440510,246472,51059
2096921,2096921,440513,246435,51146
2096921,2096921,440504,246389,51059
2096921,2096921,440293,246452,51059
2096921,2096921,440182,246419,51107
2096921,2096921,440168,246380,51107
2096921,2096921,440044,246298,51059
2096921,2096921,439987,246151,51059
2096921,2096921,440080,246254,51107
2096921,2096921,440161,246309,51146
2096921,2096921,440054,246248,51059
2096921,2096921,440138,246267,51059
2096921,2096921,440202,246408,51201
2096921,2096921,440061,246378,51146
2096921,2096921,439948,246202,51107
2096921,2096921,440099,246168,51059
2096921,2096921,440159,246201,51706
2096921,2096921,440234,246338,51146
2096921,2096921,440310,246315,50972
2096921,2096921,440468,246407,51020
2096921,2096921,440492,246524,51043
2096921,2096921,440413,246480,51201
2096921,2096921,440268,246312,50972
2096921,2096921,440358,246205,50972
2096921,2096921,440515,246373,50972
2096921,2096921,440494,246438,51107
2096921,2096921,440489,246436,50972
2096921,2096921,440941,246545,51706
2096921,2096921,440939,246670,50972
2096921,2096921,440976,246582,51706
2096921,2096921,440824,246553,51706
2096921,2096921,441112,246403,51020
2096921,2096921,441288,246697,51706
2096921,2096921,441362,246721,51107
2096921,2096921,441332,246751,51020
2096921,2096921,441805,246686,50972
2096921,2096921,441818,246861,51043
2096921,2096921,441777,246867,50972
2096921,2096921,441638,246762,50972
2096921,2096921,441962,246663,51020
2096921,2096921,442186,246946,50972
2096921,2096921,442264,247030,51059
2096921,2096921,442202,247057,50972
2096921,2096921,442660,247034,51020
2096921,2096921,442808,247173,51020
2096921,2096921,442764,247213,51043
2096921,2096921,442423,247076,50933
2096921,2096921,442797,246987,50933
2096921,2096921,443061,247349,50972
2096921,2096921,443079,247409,51059
2096921,2096921,443107,247274,50972
2096921,2096921,443477,247269,51201
2096921,2096921,443519,247453,51706
2096921,2096921,443421,247407,51107
2096921,2096921,443268,247256,51706
2096921,2096921,443661,247219,50972
2096921,2096921,443893,247525,51020
2096921,2096921,443856,247546,51107
2096921,2096921,443855,247512,51059
2096921,2096921,444292,247527,51059
2096921,2096921,444375,247659,51075
2096921,2096921,444269,247730,51233
2096921,2096921,444149,247693,51059
2096921,2096921,444509,247512,51059
2096921,2096921,444685,247761,51059
2096921,2096921,444689,247844,51146
2096921,2096921,444699,247808,51201
2096921,2096921,445165,247859,51075
2096921,2096921,445133,248021,51020
2096921,2096921,445105,247960,51706
2096921,2096921,444941,247855,51020
2096921,2096921,445365,247824,51059
2096921,2096921,445577,248048,51059
2096921,2096921,445673,248110,51107
2096921,2096921,445619,248136,51020
2096921,2096921,445899,248062,51075
2096921,2096921,445909,248255,51020
2096921,2096921,445925,248271,51059
2096921,2096921,445826,248112,51059
2096921,2096921,446142,248015,51059
2096921,2096921,446289,248279,51020
2096921,2096921,446324,248368,51146
2096921,2096921,446260,248268,51059
2096921,2096921,446427,248339,51059
2096921,2096921,446521,248412,51020
2096921,2096921,446469,248427,51107
2096921,2096921,446394,248298,51059
2096921,2096921,446496,248184,51059
2096921,2096921,446719,248367,51059
2096921,2096921,446756,248431,51107
2096921,2096921,446727,248473,51201
2096921,2096921,446834,248453,51075
2096921,2096921,446772,248527,51020
2096921,2096921,446728,248558,51233
2096921,2096921,446741,248381,51059
2096921,2096921,446762,248311,51059
2096921,2096921,446810,248368,51020
2096921,2096921,446843,248399,51193
2096921,2096921,446859,248551,51020
2096921,2096921,446941,248564,51706
2096921,2096921,446878,248576,51706
2096921,2096921,446817,248510,51146
2096921,2096921,446733,248421,51706
2096921,2096921,446699,248314,51075
2096921,2096921,446676,248403,51706
2096921,2096921,446724,248523,51146
2096921,2096921,446771,248493,51020
2096921,2096921,446776,248423,51043
2096921,2096921,446734,248502,51020
2096921,2096921,446716,248462,51107
2096921,2096921,446536,248364,51201
2096921,2096921,446327,248188,51020
2096921,2096921,446463,248416,51075
2096921,2096921,446441,248485,51020
2096921,2096921,446530,248419,51706
2096921,2096921,446528,248383,51020
2096921,2096921,446493,248443,51020
2096921,2096921,446455,248405,51020
2096921,2096921,446184,248278,51020
2096921,2096921,446102,248235,51043
2096921,2096921,446198,248341,51020
2096921,2096921,446287,248346,51146
2096921,2096921,446321,248298,51020
2096921,2096921,446408,248390,51020
2096921,2096921,446365,248416,51043
2096921,2096921,446322,248382,51107
2096921,2096921,446100,248320,51043
2096921,2096921,446197,248197,51706
2096921,2096921,446366,248333,51020
2096921,2096921,446366,248481,51146
2096921,2096921,446365,248364,51020
2096921,2096921,446466,248367,51020
2096921,2096921,446418,248459,51020
2096921,2096921,446303,248350,51146
2096921,2096921,446199,248270,51059
2096921,2096921,446294,248143,51043
2096921,2096921,446474,248396,51020
2096921,2096921,446501,248431,51193
2096921,2096921,446450,248373,51107
2096921,2096921,446736,248380,51107
2096921,2096921,446757,248607,51075
2096921,2096921,446726,248591,51233
2096921,2096921,446585,248494,51107
2096921,2096921,446912,248281,51146
2096921,2096921,447158,248554,51201
2096921,2096921,447178,248716,51233
2096921,2096921,447096,248704,51107
2096921,2096921,447432,248700,51706
2096921,2096921,447472,248817,51706
2096921,2096921,447454,248779,51107
2096921,2096921,447261,248602,51107
2096921,2096921,447583,248519,51107
2096921,2096921,447773,248829,51706
2096921,2096921,447826,248929,51146
2096921,2096921,447735,248894,51107
2096921,2096921,448087,248934,51059
2096921,2096921,448155,249055,51059
2096921,2096921,448152,249064,51146
2096921,2096921,447976,249010,51107
2096921,2096921,448276,248911,51059
2096921,2096921,448483,249055,51107
2096921,2096921,448554,249172,51146
2096921,2096921,448505,249105,51201
2096921,2096921,448773,249210,51107
2096921,2096921,448804,249358,51059
2096921,2096921,448777,249302,51193
2096921,2096921,448600,249182,51107
2096921,2096921,448809,249074,51075
2096921,2096921,449014,249311,51107
2096921,2096921,449086,249380,51233
2096921,2096921,448988,249328,51107
2096921,2096921,449417,249409,51107
2096921,2096921,449455,249595,51107
2096921,2096921,449384,249548,51193
2096921,2096921,449255,249327,51107
2096921,2096921,449573,249295,51107
2096921,2096921,449581,249499,51107
2096921,2096921,449567,249630,51146
2096921,2096921,449670,249550,51059
2096921,2096921,450038,249591,51059
2096921,2096921,450120,249760,51075
2096921,2096921,450040,249763,51146
2096921,2096921,449895,249633,51020
2096921,2096921,450057,249493,51020
2096921,2096921,450291,249785,51075
2096921,2096921,450308,249892,51107
2096921,2096921,450300,249761,51059
2096921,2096921,450643,249810,51706
2096921,2096921,450598,249941,51020
2096921,2096921,450639,249894,51020
2096921,2096921,450460,249842,51020
2096921,2096921,450689,249797,51043
2096921,2096921,450871,250073,51020
2096921,2096921,450937,250156,51107
2096921,2096921,450921,250038,51043
2096921,2096921,451277,250068,51059
2096921,2096921,451249,250145,51020
2096921,2096921,451196,250103,51107
2096921,2096921,451004,250175,51020
2096921,2096921,451224,250027,51020
2096921,2096921,451470,250257,51043
2096921,2096921,451474,250308,51107
2096921,2096921,451517,250155,51020
2096921,2096921,451778,250265,51059
2096921,2096921,451883,250429,51020
2096921,2096921,451785,250414,51146
2096921,2096921,451585,250310,51059
2096921,2096921,451866,250207,51075
2096921,2096921,452082,250482,51059
2096921,2096921,452210,250520,51193
2096921,2096921,452193,250481,51059
2096921,2096921,452354,250507,51059
2096921,2096921,452361,250692,51059
2096921,2096921,452310,250660,51201
2096921,2096921,452120,250468,51706
2096921,2096921,452417,250376,51020
2096921,2096921,452585,250667,51020
2096921,2096921,452652,250774,51107
2096921,2096921,452599,250724,51706
2096921,2096921,452807,250773,51020
2096921,2096921,452846,250881,51020
2096921,2096921,452885,250838,51020
2096921,2096921,452790,250721,50972
2096921,2096921,453020,250645,51075
2096921,2096921,453079,250811,51706
2096921,2096921,453081,250876,50972
2096921,2096921,453060,250882,50972
2096921,2096921,453319,251010,51043
2096921,2096921,453371,251143,51075
2096921,2096921,453399,251037,51059
2096921,2096921,453193,250872,50972
2096921,2096921,453406,250823,51020
2096921,2096921,453594,251086,50972
2096921,2096921,453620,251165,51107
2096921,2096921,453642,251110,50972
2096921,2096921,453838,251192,50972
2096921,2096921,453932,251343,50972
2096921,2096921,453916,251305,51107
2096921,2096921,453753,251106,50972
2096921,2096921,453898,251045,50972
2096921,2096921,454055,251256,51706
2096921,2096921,454057,251387,51146
2096921,2096921,454155,251337,51075
2096921,2096921,454346,251370,50972
2096921,2096921,454368,251501,50972
2096921,2096921,454243,251398,51107
2096921,2096921,454046,251302,51706
2096921,2096921,454198,251127,50972
2096921,2096921,454381,251415,50972
2096921,2096921,454463,251502,51075
2096921,2096921,454473,251407,50972
2096921,2096921,454846,251535,50972
2096921,2096921,454712,251628,50972
2096921,2096921,454686,251555,51075
2096921,2096921,454446,251504,50972
2096921,2096921,454562,251367,50972
2096921,2096921,454751,251630,51020
2096921,2096921,454728,251629,51020
2096921,2096921,454807,251572,51075
2096921,2096921,455122,251605,51201
2096921,2096921,455060,251745,51075
2096921,2096921,454986,251785,51146
2096921,2096921,454794,251632,51020
2096921,2096921,454933,251547,51706
2096921,2096921,455151,251714,51020
2096921,2096921,455223,251714,51107
2096921,2096921,455144,251813,51201
2096921,2096921,455367,251797,51020
2096921,2096921,455330,251913,51020
2096921,2096921,455309,251857,51107
2096921,2096921,455151,251694,51075
2096921,2096921,455284,251646,51020
2096921,2096921,455449,251821,51020
2096921,2096921,455542,251930,51706
2096921,2096921,455565,251920,51020
2096921,2096921,455770,251982,50972
2096921,2096921,455824,252099,51020
2096921,2096921,455745,252141,51193
2096921,2096921,455511,251985,51706
2096921,2096921,455690,251890,51020
2096921,2096921,455854,252017,51020
2096921,2096921,455903,252099,51107
2096921,2096921,455897,252021,51706
2096921,2096921,456001,252103,51059
2096921,2096921,456101,252177,51020
2096921,2096921,456035,252191,51107
2096921,2096921,455821,252050,51020
2096921,2096921,456021,251956,51020
2096921,2096921,456253,252190,51075
2096921,2096921,456345,252283,51020
2096921,2096921,456099,252140,51059
2096921,2096921,456380,252193,51020
2096921,2096921,456379,252351,51075
2096921,2096921,456325,252371,51059
2096921,2096921,456244,252158,51020
2096921,2096921,456355,252105,51706
2096921,2096921,456563,252395,51020
2096921,2096921,456533,252347,51059
2096921,2096921,456446,252365,51020
2096921,2096921,456687,252397,50972
2096921,2096921,456644,252512,50972
2096921,2096921,456579,252559,51059
2096921,2096921,456463,252290,50972
2096921,2096921,456589,252160,50972
2096921,2096921,456808,252343,51075
2096921,2096921,456808,252498,51059
2096921,2096921,456702,252527,50972
2096921,2096921,456936,252503,51043
2096921,2096921,456929,252557,50972
2096921,2096921,456816,252483,51193
2096921,2096921,456734,252402,51020
2096921,2096921,456806,252330,51075
2096921,2096921,457009,252536,51020
2096921,2096921,456967,252642,51146
2096921,2096921,456998,252588,51706
2096921,2096921,457149,252582,50972
2096921,2096921,457180,252684,50972
2096921,2096921,457070,252704,51107
2096921,2096921,456940,252539,51706
2096921,2096921,457085,252493,50972
2096921,2096921,457140,252647,50972
2096921,2096921,457131,252669,51107
2096921,2096921,457160,252654,51020
2096921,2096921,457318,252629,50972
2096921,2096921,457324,252772,50972
2096921,2096921,457235,252730,51107
2096921,2096921,457132,252629,51020
2096921,2096921,457145,252586,51201
2096921,2096921,457270,252786,50972
2096921,2096921,457267,252881,51020
2096921,2096921,457347,252752,50972
2096921,2096921,457516,252695,50972
2096921,2096921,457430,252808,50972
2096921,2096921,457481,252800,51059
2096921,2096921,457289,252735,50972
2096921,2096921,457324,252597,50972
2096921,2096921,457390,252773,51706
2096921,2096921,457422,252923,51201
2096921,2096921,457616,252755,51020
2096921,2096921,457659,252733,51020
2096921,2096921,457537,252872,51706
2096921,2096921,457516,252932,51706
2096921,2096921,457379,252835,51020
2096921,2096921,457432,252668,51706
2096921,2096921,457524,252859,51020
2096921,2096921,457664,252891,51201
2096921,2096921,457620,252803,51020
2096921,2096921,457698,252790,51020
2096921,2096921,457722,253013,51043
2096921,2096921,457556,252956,51146
2096921,2096921,457583,252873,51706
2096921,2096921,457596,252758,51043
2096921,2096921,457695,252836,51020
2096921,2096921,457669,252954,51146
2096921,2096921,457710,252908,51020
2096921,2096921,457469,252938,51075
2096921,2096921,457357,252940,51075
2096921,2096921,457259,252872,51146
2096921,2096921,457170,252713,51020
2096921,2096921,456904,252604,51059
2096921,2096921,457040,252680,51706
2096921,2096921,456969,252714,51107
2096921,2096921,456946,252753,51059
2096921,2096921,456545,252719,51706
2096921,2096921,456505,252641,51020
2096921,2096921,456353,252567,51020
2096921,2096921,456256,252450,51201
2096921,2096921,455621,252402,51706
2096921,2096921,455678,252346,51020
2096921,2096921,455643,252398,51020
2096921,2096921,455651,252345,51020
2096921,2096921,455017,252312,51020
2096921,2096921,454836,252155,51059
2096921,2096921,454743,252061,51146
2096921,2096921,454660,251925,51706
2096921,2096921,453073,251890,51020
2096921,2096921,452825,251578,51020
2096921,2096921,452758,251481,51107
2096921,2096921,452748,251387,51020
2096921,2096921,450923,251453,51020
2096921,2096921,450472,250930,51043
2096921,2096921,450371,250720,51146
2096921,2096921,450093,250568,51020
2096921,2096921,448752,250443,51075
2096921,2096921,448564,250124,51706
2096921,2096921,448539,250051,51706
2096921,2096921,448499,249982,51020
2096921,2096921,447434,250074,51020
2096921,2096921,447201,249781,51020
2096921,2096921,447167,249617,51706
2096921,2096921,446987,249495,51020
2096921,2096921,446109,249406,51020
2096921,2096921,446096,249251,51020
2096921,2096921,446037,249357,51201
2096921,2096921,446054,249286,51020
2096921,2096921,445607,249250,51020
2096921,2096921,445384,249119,51059
2096921,2096921,445331,249029,51706
2096921,2096921,445126,248922,51020
2096921,2096921,444786,248840,51020
2096921,2096921,444839,248959,51020
2096921,2096921,444841,248922,51020
2096921,2096921,444838,248880,51020
2096921,2096921,444735,248879,51075
2096921,2096921,444684,248832,51020
2096921,2096921,444474,248791,51020
2096921,2096921,444290,248677,51020
2096921,2096921,444179,248670,51020
2096921,2096921,444348,248780,51706
2096921,2096921,444396,248815,51107
2096921,2096921,444489,248738,51020
2096921,2096921,444517,248755,51020
2096921,2096921,444531,248837,51059
2096921,2096921,444412,248774,51146
2096921,2096921,444249,248750,51020
2096921,2096921,444444,248610,51020
2096921,2096921,444639,248881,51020
2096921,2096921,444710,248936,51146
2096921,2096921,444675,248792,51075
2096921,2096921,444840,248869,51020
2096921,2096921,444821,249011,51020
2096921,2096921,444712,248966,51201
2096921,2096921,444631,248840,51020
2096921,2096921,444759,248673,51059
2096921,2096921,445030,248853,51059
2096921,2096921,445034,248921,51146
2096921,2096921,445047,248908,51059
2096921,2096921,445360,248985,51706
2096921,2096921,445327,249174,51059
2096921,2096921,445268,249110,51146
2096921,2096921,445110,248951,51201
2096921,2096921,445463,248834,51706
2096921,2096921,445779,249042,51059
2096921,2096921,445777,249138,51059
2096921,2096921,445723,249180,51020
2096921,2096921,446095,249225,51020
2096921,2096921,446202,249372,50972
2096921,2096921,446198,249319,51020
2096921,2096921,446026,249204,51059
2096921,2096921,446436,249134,51020
2096921,2096921,446613,249397,51020
2096921,2096921,446616,249510,51059
2096921,2096921,446505,249500,51020
2096921,2096921,446942,249443,51020
2096921,2096921,446999,249621,51706
2096921,2096921,446941,249621,51107
2096921,2096921,446870,249442,51020
2096921,2096921,447227,249424,51706
2096921,2096921,447324,249714,51020
2096921,2096921,447415,249847,51201
2096921,2096921,447398,249748,51020
2096921,2096921,447818,249714,51020
2096921,2096921,447881,249904,50972
2096921,2096921,447862,249884,51193
2096921,2096921,447605,249791,51201
2096921,2096921,447961,249684,51706
2096921,2096921,448117,249933,51043
2096921,2096921,448176,250027,51193
2096921,2096921,448259,250031,51059
2096921,2096921,448689,249956,51075
2096921,2096921,448723,250173,51059
2096921,2096921,448704,250141,51146
2096921,2096921,448463,250097,51706
2096921,2096921,448832,249987,51043
2096921,2096921,449069,250260,51020
2096921,2096921,449117,250388,51107
2096921,2096921,449182,250211,51020
2096921,2096921,449607,250213,51059
2096921,2096921,449666,250498,51020
2096921,2096921,449548,250468,51146
2096921,2096921,449432,250297,51020
2096921,2096921,449804,250303,51059
2096921,2096921,450096,250524,51020
2096921,2096921,450051,250660,51107
2096921,2096921,450021,250500,51059
2096921,2096921,450395,250576,51706
2096921,2096921,450370,250756,51059
2096921,2096921,450298,250742,51059
2096921,2096921,450187,250581,51020
2096921,2096921,450501,250521,51020
2096921,2096921,450660,250738,51059
2096921,2096921,450751,250773,51706
2096921,2096921,450681,250726,51075
2096921,2096921,450950,250755,51020
2096921,2096921,450962,250978,51075
2096921,2096921,450850,250887,51107
2096921,2096921,450769,250833,51059
2096921,2096921,450925,250642,51059
2096921,2096921,451042,250842,51706
2096921,2096921,451074,250852,51193
2096921,2096921,451159,250859,51020
2096921,2096921,451313,250905,51020
2096921,2096921,451214,250999,51059
2096921,2096921,451157,251004,51146
2096921,2096921,451022,250762,51075
2096921,2096921,451128,250826,51020
2096921,2096921,451355,250909,51706
2096921,2096921,451312,251012,51107
2096921,2096921,451321,250993,51020
2096921,2096921,451349,251077,51020
2096921,2096921,451242,251115,51706
2096921,2096921,451228,251037,51146
2096921,2096921,451241,250943,51043
2096921,2096921,451084,250757,51706
2096921,2096921,451178,250862,51059
2096921,2096921,451190,250874,51107
2096921,2096921,451125,250872,51075
2096921,2096921,450984,250962,51020
2096921,2096921,450990,250986,51043
2096921,2096921,450980,250993,51020
2096921,2096921,450965,250764,50972
2096921,2096921,450771,250654,51075
2096921,2096921,450785,250806,51020
2096921,2096921,450817,250872,51107
2096921,2096921,450785,250871,51020
2096921,2096921,450768,250854,51201
2096921,2096921,450749,250799,51075
2096921,2096921,450748,250772,51107
2096921,2096921,450563,250602,51020
2096921,2096921,450423,250566,51020
2096921,2096921,450591,250742,51201
2096921,2096921,450490,250699,51107
2096921,2096921,450494,250724,51020
2096921,2096921,450565,250695,51059
2096921,2096921,450514,250709,51020
2096921,2096921,450481,250627,51146
2096921,2096921,450283,250564,51043
2096921,2096921,450157,250461,51075
2096921,2096921,450340,250635,51706
2096921,2096921,450336,250662,51233
2096921,2096921,450366,250623,51020
2096921,2096921,450521,250607,51706
2096921,2096921,450474,250624,51020
2096921,2096921,450367,250632,51146
2096921,2096921,450224,250551,51020
2096921,2096921,450285,250472,51706
2096921,2096921,450502,250526,51059
2096921,2096921,450487,250697,51107
2096921,2096921,450545,250679,51059
2096921,2096921,450634,250712,51706
2096921,2096921,450601,250842,51020
2096921,2096921,450521,250663,51706
2096921,2096921,450385,250571,51201
2096921,2096921,450616,250504,51706
2096921,2096921,450804,250735,51059
2096921,2096921,450878,250847,51059
2096921,2096921,450889,250788,51075
2096921,2096921,451210,250767,51075
2096921,2096921,451251,250891,51020
2096921,2096921,451171,250887,51059
2096921,2096921,450964,250756,51020
2096921,2096921,451133,250657,51020
2096921,2096921,451339,250867,51020
2096921,2096921,451469,250916,51059
2096921,2096921,451457,250894,51020
2096921,2096921,451666,250945,51020
2096921,2096921,451657,251059,51706
2096921,2096921,451508,251049,51706
2096921,2096921,451396,250855,51075
2096921,2096921,451653,250740,51020
2096921,2096921,451869,250957,51020
2096921,2096921,451906,251001,51201
2096921,2096921,451847,250927,51059
2096921,2096921,451958,251023,51059
2096921,2096921,452007,251189,51020
2096921,2096921,451938,251123,51107
2096921,2096921,451853,251048,51043
2096921,2096921,452042,250925,51020
2096921,2096921,452194,250994,51020
2096921,2096921,452190,251128,51146
2096921,2096921,452134,251075,51059
2096921,2096921,452361,251156,51020
2096921,2096921,452354,251280,51020
2096921,2096921,452374,251249,51146
2096921,2096921,452260,250984,51059
2096921,2096921,452449,250945,51020
2096921,2096921,452549,251182,51706
2096921,2096921,452636,251243,51146
2096921,2096921,452631,251274,51706
2096921,2096921,452834,251212,51020
2096921,2096921,452908,251358,51706
2096921,2096921,452873,251277,51146
2096921,2096921,452587,251175,51020
2096921,2096921,452802,251083,51075
2096921,2096921,452961,251272,51059
2096921,2096921,452925,251361,51059
2096921,2096921,452943,251370,51020
2096921,2096921,453116,251320,51059
2096921,2096921,453222,251446,51059
2096921,2096921,453187,251381,51059
2096921,2096921,452960,251288,51043
2096921,2096921,453128,251175,51059
2096921,2096921,453291,251331,51020
2096921,2096921,453323,251457,51146
2096921,2096921,453267,251409,51059
2096921,2096921,453506,251376,51059
2096921,2096921,453530,251525,51059
2096921,2096921,453489,251447,51146
2096921,2096921,453246,251301,51059
2096921,2096921,453398,251239,51020
2096921,2096921,453549,251401,51059
2096921,2096921,453508,251336,51193
2096921,2096921,453581,251350,51059
2096921,2096921,453800,251450,51020
2096921,2096921,453774,251592,51059
2096921,2096921,453666,251503,51706
2096921,2096921,453530,251335,51059
2096921,2096921,453676,251310,51020
2096921,2096921,453862,251459,51059
2096921,2096921,453865,251543,51146
2096921,2096921,453876,251465,51059
2096921,2096921,454060,251470,51075
2096921,2096921,454062,251641,51075
2096921,2096921,453990,251616,51193
2096921,2096921,453848,251448,51706
2096921,2096921,453873,251399,51059
2096921,2096921,454073,251515,51043
2096921,2096921,454094,251610,51107
2096921,2096921,454069,251489,51201
2096921,2096921,454140,251522,51706
2096921,2096921,454203,251572,51020
2096921,2096921,454099,251606,51020
2096921,2096921,453975,251434,51020
2096921,2096921,454145,251385,51020
2096921,2096921,454193,251522,51020
2096921,2096921,454311,251529,51020
2096921,2096921,454291,251498,51020
2096921,2096921,454285,251555,51706
2096921,2096921,454321,251668,51706
2096921,2096921,454258,251643,51107
2096921,2096921,454153,251527,51201
2096921,2096921,454273,251401,51020
2096921,2096921,454372,251515,51020
2096921,2096921,454431,251600,51107
2096921,2096921,454369,251497,51059
2096921,2096921,454500,251613,51059
2096921,2096921,454474,251721,51020
2096921,2096921,454420,251608,51107
2096921,2096921,454309,251428,51020
2096921,2096921,454455,251313,51020
2096921,2096921,454611,251475,51043
2096921,2096921,454559,251576,51201
2096921,2096921,454479,251571,51075
2096921,2096921,454596,251600,51020
2096921,2096921,454638,251642,51020
2096921,2096921,454610,251578,51146
2096921,2096921,454508,251411,51020
2096921,2096921,454405,251338,51020
2096921,2096921,454532,251511,51020
2096921,2096921,454607,251540,51706
2096921,2096921,454570,251604,51059
2096921,2096921,454661,251538,51059
2096921,2096921,454668,251578,51706
2096921,2096921,454602,251547,51146
2096921,2096921,454386,251387,51059
2096921,2096921,454453,251270,51075
2096921,2096921,454597,251476,51020
2096921,2096921,454654,251620,51146
2096921,2096921,454672,251525,51059
2096921,2096921,454744,251556,51706
2096921,2096921,454736,251604,51020
2096921,2096921,454705,251520,51020
2096921,2096921,454468,251365,51059
2096921,2096921,454496,251347,51059
2096921,2096921,454585,251469,51706
2096921,2096921,454631,251565,51059
2096921,2096921,454691,251479,51059
2096921,2096921,454796,251412,51059
2096921,2096921,454737,251484,51706
2096921,2096921,454686,251457,51146
2096921,2096921,454442,251348,51020
2096921,2096921,454535,251370,51059
2096921,2096921,454699,251485,51706
2096921,2096921,454707,251450,51146
2096921,2096921,454735,251385,51075
2096921,2096921,454774,251461,51020
2096921,2096921,454609,251443,51075
2096921,2096921,454638,251390,51193
2096921,2096921,454421,251300,51020
2096921,2096921,454496,251192,51020
2096921,2096921,454611,251284,51020
2096921,2096921,454564,251354,51193
2096921,2096921,454648,251247,51020
2096921,2096921,454643,251300,51059
2096921,2096921,454686,251435,51706
2096921,2096921,454564,251345,51193
2096921,2096921,454439,251257,51043
2096921,2096921,454404,251209,51059
2096921,2096921,454616,251297,51059
2096921,2096921,454599,251390,51146
2096921,2096921,454652,251302,51059
2096921,2096921,454678,251308,50972
2096921,2096921,454643,251393,51075
2096921,2096921,454545,251388,51107
2096921,2096921,454398,251254,51075
2096921,2096921,454476,251190,50972
2096921,2096921,454616,251256,50972
2096921,2096921,454690,251394,51020
2096921,2096921,454756,251264,50972
2096921,2096921,454756,251279,50972
2096921,2096921,454695,251377,51201
2096921,2096921,454599,251336,51059
2096921,2096921,454467,251219,50972
2096921,2096921,454488,251218,50972
2096921,2096921,454654,251271,50972
2096921,2096921,454620,251313,51059
2096921,2096921,454698,251183,50972
2096921,2096921,454693,251219,51020
2096921,2096921,454597,251386,50972
2096921,2096921,454519,251267,51059
2096921,2096921,454436,251150,51020
2096921,2096921,454585,251052,51020
2096921,2096921,454653,251245,50972
2096921,2096921,454648,251230,51146
2096921,2096921,454493,251264,50972
2096921,2096921,454586,251279,51043
2096921,2096921,454633,251299,50972
2096921,2096921,454568,251191,51146
2096921,2096921,454394,251030,50972
2096921,2096921,454398,250972,51020
2096921,2096921,454480,251140,51706
2096921,2096921,454481,251257,51059
2096921,2096921,454504,251232,51020
2096921,2096921,454483,251206,50972
2096921,2096921,454442,251214,51020
2096921,2096921,454406,251154,51193
2096921,2096921,454112,251052,50972
2096921,2096921,454190,250910,50972
2096921,2096921,454284,251030,51020
2096921,2096921,454400,251177,51059
2096921,2096921,454410,251051,51020
2096921,2096921,454375,251096,51059
2096921,2096921,454325,251117,51059
2096921,2096921,454245,251078,51020
2096921,2096921,454043,250894,51075
2096921,2096921,454061,250793,51059
2096921,2096921,454143,250997,51020
2096921,2096921,454255,250939,51020
2096921,2096921,454165,250972,51059
2096921,2096921,454251,250925,51043
2096921,2096921,454277,251013,51201
2096921,2096921,454159,250974,51107
2096921,2096921,453986,250898,51020
2096921,2096921,453953,250736,51059
2096921,2096921,454086,250935,51020
2096921,2096921,454149,251003,51107
2096921,2096921,454195,250994,51059
2096921,2096921,454258,250942,51059
2096921,2096921,454210,251004,51043
2096921,2096921,454138,250944,51146
2096921,2096921,453903,250877,51706
2096921,2096921,453884,250789,51059
2096921,2096921,453950,250932,51059
2096921,2096921,454034,250956,51233
2096921,2096921,454048,250872,51075
2096921,2096921,453789,250897,51075
2096921,2096921,453727,250876,51059
2096921,2096921,453606,250826,51107
2096921,2096921,453384,250682,51020
2096921,2096921,453080,250594,51020
2096921,2096921,453175,250676,51706
2096921,2096921,453271,250718,51146
2096921,2096921,453220,250522,51059
2096921,2096921,452717,250545,51020
2096921,2096921,452569,250503,51075
2096921,2096921,452529,250463,51146
2096921,2096921,452255,250313,51706
2096921,2096921,451710,250184,51075
2096921,2096921,451721,250145,51020
2096921,2096921,451706,250162,51020
2096921,2096921,451625,250063,51059
2096921,2096921,450956,250058,51020
2096921,2096921,450737,249974,51020
2096921,2096921,450663,249876,51107
2096921,2096921,450571,249653,51059
2096921,2096921,449022,249607,51059
2096921,2096921,448837,249185,51075
2096921,2096921,448743,249156,51146
2096921,2096921,448617,249071,51075
2096921,2096921,446718,249071,51059
2096921,2096921,446230,248613,51075
2096921,2096921,446135,248367,51107
2096921,2096921,445958,248219,51075
2096921,2096921,444633,248049,51059
2096921,2096921,444414,247737,51020
2096921,2096921,444321,247757,51146
2096921,2096921,444219,247665,51075
2096921,2096921,443196,247719,51075
2096921,2096921,442915,247360,51201
2096921,2096921,442802,247272,51146
2096921,2096921,442729,247055,51020
2096921,2096921,441981,246991,51020
2096921,2096921,441852,246883,51020
2096921,2096921,441826,246897,51193
2096921,2096921,441887,246867,51020
2096921,2096921,441267,246924,51020
2096921,2096921,441177,246800,51020
2096921,2096921,441078,246649,51146
2096921,2096921,440935,246482,51020
2096921,2096921,440486,246413,51020
2096921,2096921,440492,246465,51706
2096921,2096921,440583,246567,51146
2096921,2096921,440504,246498,51020
2096921,2096921,440316,246452,51020
2096921,2096921,440310,246417,51059
2096921,2096921,440207,246366,51020
2096921,2096921,440007,246208,51020
2096921,2096921,439942,246141,51020
2096921,2096921,440098,246331,51020
2096921,2096921,440071,246405,51059
2096921,2096921,440167,246357,51059
2096921,2096921,440286,246340,51059
2096921,2096921,440200,246384,51059
2096921,2096921,440105,246295,51146
2096921,2096921,439867,246297,51020
2096921,2096921,440045,246168,51059
2096921,2096921,440208,246422,51043
2096921,2096921,440219,246401,51107
2096921,2096921,440277,246269,51020
2096921,2096921,440444,246305,51020
2096921,2096921,440436,246461,51059
2096921,2096921,440332,246413,51146
2096921,2096921,440125,246333,51059
2096921,2096921,440326,246217,51706
2096921,2096921,440556,246421,51059
2096921,2096921,440555,246436,51193
2096921,2096921,440613,246431,51075
2096921,2096921,440984,246509,51075
2096921,2096921,440925,246675,51020
2096921,2096921,440897,246663,51059
2096921,2096921,440743,246503,51043
2096921,2096921,441137,246501,51020
2096921,2096921,441307,246633,51020
2096921,2096921,441462,246752,51146
2096921,2096921,441369,246711,51059
2096921,2096921,441673,246732,51075
2096921,2096921,441725,246943,51059
2096921,2096921,441744,246875,51193
2096921,2096921,441569,246719,51059
2096921,2096921,441889,246641,51020
2096921,2096921,442167,246864,51706
2096921,2096921,442159,246976,51020
2096921,2096921,442160,246928,51020
2096921,2096921,442530,246953,51020
2096921,2096921,442622,247195,51043
2096921,2096921,442595,247148,51020
2096921,2096921,442331,246918,51706
2096921,2096921,442789,246943,51020
2096921,2096921,442960,247109,51020
2096921,2096921,443048,247278,51146
2096921,2096921,442985,247262,51059
2096921,2096921,443354,247304,51059
2096921,2096921,443423,247459,51059
2096921,2096921,443376,247434,51146
2096921,2096921,443267,247309,51059
2096921,2096921,443586,247189,51059
2096921,2096921,443744,247461,51059
2096921,2096921,443825,247486,51146
2096921,2096921,443892,247487,51059
2096921,2096921,444271,247506,51059
2096921,2096921,444248,247657,51020
2096921,2096921,444262,247613,51193
2096921,2096921,444075,247514,51201
2096921,2096921,444537,247457,51059
2096921,2096921,444714,247699,51059
2096921,2096921,444770,247821,51193
2096921,2096921,444737,247834,51020
2096921,2096921,445258,247889,51059
2096921,2096921,445204,248043,51706
2096921,2096921,445224,248017,51107
2096921,2096921,445116,247891,51059
2096921,2096921,445497,247830,51020
2096921,2096921,445761,248103,51059
2096921,2096921,445743,248208,51146
2096921,2096921,445703,248066,51059
2096921,2096921,446093,248141,51059
2096921,2096921,446067,248323,51020
2096921,2096921,446096,248237,51193
2096921,2096921,445870,248178,51020
2096921,2096921,446213,248147,51020
2096921,2096921,446404,248426,51059
2096921,2096921,446373,248416,51107
2096921,2096921,446485,248407,51706
2096921,2096921,446694,248356,51020
2096921,2096921,446667,248493,51706
2096921,2096921,446516,248404,51107
2096921,2096921,446330,248312,51059
2096921,2096921,446525,248286,51020
2096921,2096921,446690,248502,51059
2096921,2096921,446700,248499,51059
2096921,2096921,446778,248365,51020
2096921,2096921,446961,248468,51706
2096921,2096921,446928,248545,51706
2096921,2096921,446869,248508,51059
2096921,2096921,446682,248399,51020
2096921,2096921,446742,248319,50972
2096921,2096921,446938,248552,51020
2096921,2096921,447011,248554,51201
2096921,2096921,447069,248466,51020
2096921,2096921,447044,248469,51201
2096921,2096921,446874,248559,50972
2096921,2096921,446827,248638,51146
2096921,2096921,446708,248474,51020
2096921,2096921,446648,248280,51020
2096921,2096921,446847,248409,51020
2096921,2096921,446824,248474,51107
2096921,2096921,446799,248481,51020
2096921,2096921,446764,248529,50972
2096921,2096921,446689,248544,50972
2096921,2096921,446589,248526,51059
2096921,2096921,446540,248362,51020
2096921,2096921,446500,248240,51706
2096921,2096921,446572,248386,51020
2096921,2096921,446520,248464,51107
2096921,2096921,446466,248393,51043
2096921,2096921,446493,248440,51020
2096921,2096921,446498,248539,51043
2096921,2096921,446432,248443,51020
2096921,2096921,446314,248242,51020
2096921,2096921,446161,248169,51020
2096921,2096921,446186,248291,50972
2096921,2096921,446226,248404,51107
2096921,2096921,446263,248362,51201
2096921,2096921,446392,248294,51706
2096921,2096921,446333,248462,50972
2096921,2096921,446252,248312,51107
2096921,2096921,446209,248303,50972
2096921,2096921,446210,248135,50972
2096921,2096921,446396,248355,50972
2096921,2096921,446331,248409,51059
2096921,2096921,446392,248332,50972
2096921,2096921,446481,248276,50972
2096921,2096921,446513,248423,51020
2096921,2096921,446478,248430,51107
2096921,2096921,446288,248374,50972
2096921,2096921,446441,248244,51075
2096921,2096921,446551,248369,51020
2096921,2096921,446548,248406,51201
2096921,2096921,446570,248491,51706
2096921,2096921,446767,248448,51020
2096921,2096921,446735,248585,50972
2096921,2096921,446690,248561,51107
2096921,2096921,446521,248355,51201
2096921,2096921,446975,248283,50972
2096921,2096921,447157,248618,50972
2096921,2096921,447135,248740,51107
2096921,2096921,447113,248636,51020
2096921,2096921,447478,248580,50972
2096921,2096921,447560,248805,51706
2096921,2096921,447458,248766,51107
2096921,2096921,447277,248666,50972
2096921,2096921,447625,248590,50972
2096921,2096921,447798,248915,50972
2096921,2096921,447884,248970,51020
2096921,2096921,447898,248859,51043
2096921,2096921,448243,248869,50972
2096921,2096921,448253,249063,50972
2096921,2096921,448122,249047,51059
2096921,2096921,447819,248973,51706
2096921,2096921,448222,248848,50972
2096921,2096921,448369,249133,51020
2096921,2096921,448505,249166,51059
2096921,2096921,448673,249136,51020
2096921,2096921,448821,249062,50972
2096921,2096921,448818,249260,51020
2096921,2096921,448775,249280,51059
2096921,2096921,448518,249234,50972
2096921,2096921,448803,249144,50972
2096921,2096921,449060,249199,51020
2096921,2096921,449127,249325,51146
2096921,2096921,449117,249355,51706
2096921,2096921,449411,249465,51059
2096921,2096921,449401,249583,51020
2096921,2096921,449359,249516,51193
2096921,2096921,449202,249352,51059
2096921,2096921,449619,249277,51020
2096921,2096921,449764,249456,51201
2096921,2096921,449707,249586,51706
2096921,2096921,449700,249573,51075
2096921,2096921,450006,249653,51043
2096921,2096921,450046,249877,51059
2096921,2096921,449948,249839,51146
2096921,2096921,449972,249587,51075
2096921,2096921,450220,249497,51020
2096921,2096921,450343,249732,51059
2096921,2096921,450427,249807,51146
2096921,2096921,450324,249824,51059
2096921,2096921,450612,249840,51020
2096921,2096921,450716,249997,51075
2096921,2096921,450648,249988,51020
2096921,2096921,450435,249864,51020
2096921,2096921,450672,249762,51043
2096921,2096921,450849,249976,50972
2096921,2096921,450772,250061,51020
2096921,2096921,450898,250031,51059
2096921,2096921,451215,250042,51020
2096921,2096921,451242,250184,51706
2096921,2096921,451225,250177,51146
2096921,2096921,451050,250055,51043
2096921,2096921,451361,249978,51706
2096921,2096921,451473,250268,51020
2096921,2096921,451448,250433,51107
2096921,2096921,451514,250212,51059
2096921,2096921,451853,250239,51020
2096921,2096921,451890,250446,51059
2096921,2096921,451821,250370,51193
2096921,2096921,451646,250350,51706
2096921,2096921,451952,250246,51043
2096921,2096921,452105,250507,51059
2096921,2096921,452169,250572,51193
2096921,2096921,452139,250478,51020
2096921,2096921,452420,250460,51059
2096921,2096921,452355,250594,51107
2096921,2096921,452314,250629,51193
2096921,2096921,452195,250509,51706
2096921,2096921,452404,250438,51043
2096921,2096921,452575,250663,51075
2096921,2096921,452628,250655,51706
2096921,2096921,452631,250662,51706
2096921,2096921,452893,250658,51059
2096921,2096921,452911,250831,51706
2096921,2096921,452904,250877,51706
2096921,2096921,452660,250823,51059
2096921,2096921,452944,250651,51059
2096921,2096921,453080,250847,51059
2096921,2096921,453086,250896,51059
2096921,2096921,453122,250924,51059
2096921,2096921,453318,250899,51020
2096921,2096921,453440,251069,51059
2096921,2096921,453328,251099,51020
2096921,2096921,453269,250892,51706
2096921,2096921,453460,250838,51075
2096921,2096921,453700,251076,51020
2096921,2096921,453709,251164,51146
2096921,2096921,453682,251129,51020
2096921,2096921,453941,251115,51059
2096921,2096921,453919,251263,51020
2096921,2096921,453846,251237,51146
2096921,2096921,453683,251145,51059
2096921,2096921,453941,251040,51059
2096921,2096921,454070,251216,51059
2096921,2096921,454139,251259,51146
2096921,2096921,454205,251347,51020
2096921,2096921,454416,251425,51201
2096921,2096921,454303,251492,51201
2096921,2096921,454244,251418,51193
2096921,2096921,454073,251317,51020
2096921,2096921,454324,251220,50972
2096921,2096921,454463,251494,51706
2096921,2096921,454517,251506,51107
2096921,2096921,454520,251455,50972
2096921,2096921,454770,251504,50972
2096921,2096921,454822,251650,50972
2096921,2096921,454661,251652,51059
2096921,2096921,454517,251506,50972
2096921,2096921,454709,251400,50972
2096921,2096921,454863,251533,50972
2096921,2096921,454859,251678,51107
2096921,2096921,454842,251616,51706
2096921,2096921,455068,251648,50972
2096921,2096921,455009,251757,50972
2096921,2096921,455001,251707,50972
2096921,2096921,454815,251580,50972
2096921,2096921,455035,251469,51706
2096921,2096921,455115,251665,51075
2096921,2096921,455118,251742,51020
2096921,2096921,455174,251853,51020
2096921,2096921,455325,251816,51075
2096921,2096921,455293,251919,51020
2096921,2096921,455327,251903,51706
2096921,2096921,455163,251682,50972
2096921,2096921,455357,251596,51043
2096921,2096921,455436,251854,51020
2096921,2096921,455501,252037,51075
2096921,2096921,455503,251795,51020
2096921,2096921,455669,251897,50972
2096921,2096921,455753,251862,51075
2096921,2096921,455669,251878,51075
2096921,2096921,455452,251850,50972
2096921,2096921,455638,251802,51020
2096921,2096921,455825,252009,50972
2096921,2096921,455855,252068,51706
2096921,2096921,455937,252041,51201
2096921,2096921,456008,251963,51020
2096921,2096921,456030,252095,50972
2096921,2096921,456050,252116,51146
2096921,2096921,455700,252042,51020
2096921,2096921,455988,251942,51020
2096921,2096921,456189,252174,51020
2096921,2096921,456179,252135,51107
2096921,2096921,456247,252126,51020
2096921,2096921,456446,252151,51043
2096921,2096921,456422,252276,51059
2096921,2096921,456321,252328,51146
2096921,2096921,456097,252191,51059
2096921,2096921,456358,252135,51706
2096921,2096921,456513,252326,51059
2096921,2096921,456548,252322,51193
2096921,2096921,456515,252335,51059
2096921,2096921,456711,252348,51020
2096921,2096921,456674,252412,51059
2096921,2096921,456651,252410,51107
2096921,2096921,456382,252320,51059
2096921,2096921,456595,252219,51075
2096921,2096921,456788,252443,51706
2096921,2096921,456797,252488,51146
2096921,2096921,456782,252449,51059
2096921,2096921,456899,252416,51706
2096921,2096921,456869,252583,51075
2096921,2096921,456732,252518,51146
2096921,2096921,456612,252399,51020
2096921,2096921,456890,252276,51059
2096921,2096921,457034,252501,51059
2096921,2096921,457127,252526,51146
2096921,2096921,457027,252587,51020
2096921,2096921,457111,252590,51075
2096921,2096921,457048,252714,51059
2096921,2096921,457029,252606,51146
2096921,2096921,456978,252520,51059
2096921,2096921,457163,252443,51020
2096921,2096921,457180,252557,51020
2096921,2096921,457166,252625,51193
2096921,2096921,457177,252649,51706
2096921,2096921,457335,252747,51706
2096921,2096921,457330,252783,51059
2096921,2096921,457223,252716,51706
2096921,2096921,457112,252607,51020
2096921,2096921,457260,252561,50972
2096921,2096921,457386,252750,50972
2096921,2096921,457428,252782,51107
2096921,2096921,457406,252756,50972
2096921,2096921,457433,252773,51706
2096921,2096921,457390,252775,50972
2096921,2096921,457335,252799,51107
2096921,2096921,457202,252673,50972
2096921,2096921,457297,252568,50972
2096921,2096921,457391,252851,50972
2096921,2096921,457433,252860,51020
2096921,2096921,457506,252869,51075
2096921,2096921,457515,252852,50972
2096921,2096921,457565,252927,50972
2096921,2096921,457563,252870,51075
2096921,2096921,457349,252657,50972
2096921,2096921,457412,252559,51020
2096921,2096921,457532,252821,50972
2096921,2096921,457554,252945,51706
2096921,2096921,457530,252889,50972
2096921,2096921,457729,252859,50972
2096921,2096921,457673,252974,51706
2096921,2096921,457591,252885,51059
2096921,2096921,457367,252767,50972
2096921,2096921,457537,252702,51075
2096921,2096921,457643,252921,51020
2096921,2096921,457720,252981,51107
2096921,2096921,457754,252867,51020
2096921,2096921,457541,252836,50972
2096921,2096921,457464,252932,50972
2096921,2096921,457265,252906,51059
2096921,2096921,457064,252781,50972
2096921,2096921,456903,252566,50972
2096921,2096921,456944,252693,50972
2096921,2096921,456985,252700,51107
2096921,2096921,457063,252616,51075
2096921,2096921,456598,252683,51020
2096921,2096921,456517,252651,50972
2096921,2096921,456411,252570,51107
2096921,2096921,456282,252474,51201
2096921,2096921,455660,252424,51706
2096921,2096921,455644,252322,50972
2096921,2096921,455662,252356,51059
2096921,2096921,455604,252297,50972
2096921,2096921,455029,252254,50972
2096921,2096921,454772,252108,51706
2096921,2096921,454722,252083,51059
2096921,2096921,454577,252014,50972
2096921,2096921,453024,251820,51020
2096921,2096921,452754,251508,51020
2096921,2096921,452816,251433,51059
2096921,2096921,452734,251392,51020
2096921,2096921,450864,251276,50972
2096921,2096921,450385,250857,50972
2096921,2096921,450275,250644,51020
2096921,2096921,450134,250639,51020
2096921,2096921,448757,250366,51020
2096921,2096921,448573,250164,51075
2096921,2096921,448595,250089,51020
2096921,2096921,448637,250045,50972
2096921,2096921,447560,249991,50972
2096921,2096921,447280,249822,50972
2096921,2096921,447088,249696,51107
2096921,2096921,446948,249522,50972
2096921,2096921,446335,249344,51706
2096921,2096921,446261,249328,51020
2096921,2096921,446219,249346,51201
2096921,2096921,446160,249274,51020
2096921,2096921,445643,249337,51020
2096921,2096921,445441,249264,51020
2096921,2096921,445426,249092,51146
2096921,2096921,445284,248933,50972
2096921,2096921,444863,248816,51075
2096921,2096921,445004,248905,50972
2096921,2096921,444936,248952,51706
2096921,2096921,444847,248880,51020
2096921,2096921,444657,248928,51706
2096921,2096921,444592,248929,50972
2096921,2096921,444560,248833,51706
2096921,2096921,444381,248776,50972
2096921,2096921,444337,248591,50972
2096921,2096921,444488,248831,50972
2096921,2096921,444571,248937,51107
2096921,2096921,444470,248748,50972
2096921,2096921,444586,248812,51075
2096921,2096921,444570,248831,51075
2096921,2096921,444515,248803,50972
2096921,2096921,444252,248696,51020
2096921,2096921,444513,248632,50972
2096921,2096921,444578,248915,51020
2096921,2096921,444571,248844,50972
2096921,2096921,444749,248902,51020
2096921,2096921,444943,248888,51020
2096921,2096921,444883,248959,50972
2096921,2096921,444788,248871,51059
2096921,2096921,444521,248836,51020
2096921,2096921,444725,248786,50972
2096921,2096921,444943,248922,51706
2096921,2096921,444979,248952,51107
2096921,2096921,445007,248878,50972
2096921,2096921,445350,248948,51706
2096921,2096921,445410,249062,50972
2096921,2096921,445305,249088,51107
2096921,2096921,445080,248965,50972
2096921,2096921,445471,248912,50972
2096921,2096921,445709,249177,51075
2096921,2096921,445754,249150,51193
2096921,2096921,445789,249114,51075
2096921,2096921,446168,249130,51020
2096921,2096921,446150,249372,51075
2096921,2096921,446099,249302,51107
2096921,2096921,446050,249264,50972
2096921,2096921,446438,249206,50972
2096921,2096921,446552,249411,50972
2096921,2096921,446616,249465,51107
2096921,2096921,446668,249478,51020
2096921,2096921,447049,249528,50972
2096921,2096921,446996,249672,50972
2096921,2096921,446988,249644,51107
2096921,2096921,446823,249527,50972
2096921,2096921,447243,249426,51020
2096921,2096921,447447,249595,51020
2096921,2096921,447476,249723,51020
2096921,2096921,447464,249720,50972
2096921,2096921,447825,249779,51020
2096921,2096921,447800,249897,50972
2096921,2096921,447760,249846,50972
2096921,2096921,447597,249782,51020
2096921,2096921,448045,249689,51020
2096921,2096921,448258,249922,50972
2096921,2096921,448212,249991,51107
2096921,2096921,448393,250014,51020
2096921,2096921,448746,250047,50972
2096921,2096921,448709,250239,51075
2096921,2096921,448710,250157,51059
2096921,2096921,448542,250006,51020
2096921,2096921,449065,249962,51020
2096921,2096921,449191,250206,51020
2096921,2096921,449145,250282,51107
2096921,2096921,449223,250376,51020
2096921,2096921,449600,250440,51020
2096921,2096921,449641,250500,50972
2096921,2096921,449651,250453,51706
2096921,2096921,449426,250287,51020
2096921,2096921,449884,250250,51201
2096921,2096921,450069,250515,51075
2096921,2096921,450064,250621,51146
2096921,2096921,450097,250656,50972
2096921,2096921,450480,250623,51020
2096921,2096921,450430,250712,51020
2096921,2096921,450458,250693,51107
2096921,2096921,450199,250558,50972
2096921,2096921,450565,250524,51020
2096921,2096921,450706,250721,51020
2096921,2096921,450728,250858,51059
2096921,2096921,450813,250777,51043
2096921,2096921,451068,250860,50972
2096921,2096921,451138,250905,51020
2096921,2096921,451043,250925,51706
2096921,2096921,450763,250777,50972
2096921,2096921,450964,250742,51020
2096921,2096921,451160,250994,51075
2096921,2096921,451130,250948,51059
2096921,2096921,451212,250864,51706
2096921,2096921,451386,250932,51706
2096921,2096921,451368,251026,51020
2096921,2096921,451244,251081,51020
2096921,2096921,451086,250982,50972
2096921,2096921,451154,250786,51020
2096921,2096921,451211,251026,50972
2096921,2096921,451362,250978,51059
2096921,2096921,451424,250987,51020
2096921,2096921,451380,251012,51075
2096921,2096921,451361,251089,51075
2096921,2096921,451252,250992,51075
2096921,2096921,451082,250877,50972
2096921,2096921,451139,250742,51020
2096921,2096921,451202,250935,51020
2096921,2096921,451223,250973,51146
2096921,2096921,451246,250938,50972
2096921,2096921,451235,250856,51020
2096921,2096921,451094,250990,51020
2096921,2096921,450931,250901,51107
2096921,2096921,450785,250823,51020
2096921,2096921,450789,250683,50972
2096921,2096921,450906,250815,51020
2096921,2096921,450911,250902,51059
2096921,2096921,450905,250794,51020
2096921,2096921,450814,250832,51706
2096921,2096921,450693,250847,50972
2096921,2096921,450652,250916,51107
2096921,2096921,450528,250663,51706
2096921,2096921,450503,250575,50972
2096921,2096921,450507,250641,51020
2096921,2096921,450501,250687,51020
2096921,2096921,450518,250677,50972
2096921,2096921,450572,250747,51075
2096921,2096921,450497,250771,51059
2096921,2096921,450458,250772,51059
2096921,2096921,450388,250599,51020
2096921,2096921,450419,250497,51706
2096921,2096921,450480,250648,51706
2096921,2096921,450464,250700,51059
2096921,2096921,450552,250674,51059
2096921,2096921,450590,250646,51020
2096921,2096921,450469,250786,51020
2096921,2096921,450344,250671,51107
2096921,2096921,450378,250502,51059
2096921,2096921,450405,250477,51059
2096921,2096921,450436,250695,51020
2096921,2096921,450490,250729,51107
2096921,2096921,450632,250717,51059
2096921,2096921,450757,250753,51075
2096921,2096921,450666,250802,51059
2096921,2096921,450697,250735,51146
2096921,2096921,450450,250584,51043
2096921,2096921,450844,250568,51706
2096921,2096921,450881,250793,51059
2096921,2096921,450935,250830,51201
2096921,2096921,450938,250768,51706
2096921,2096921,451194,250751,51059
2096921,2096921,451301,250930,51059
2096921,2096921,451279,250919,51107
2096921,2096921,451070,250843,51020
2096921,2096921,451357,250750,51059
2096921,2096921,451476,250983,51059
2096921,2096921,451536,251006,51146
2096921,2096921,451570,250998,51059
2096921,2096921,451808,251024,51059
2096921,2096921,451849,251122,51059
2096921,2096921,451704,251065,51146
2096921,2096921,451544,250950,51020
2096921,2096921,451702,250863,51020
2096921,2096921,451824,251042,51020
2096921,2096921,451821,251109,51059
2096921,2096921,451975,251034,51020
2096921,2096921,452178,251101,51706
2096921,2096921,452213,251234,51706
2096921,2096921,452175,251089,51107
2096921,2096921,451926,251057,51059
2096921,2096921,452090,250990,51059
2096921,2096921,452303,251194,51201
2096921,2096921,452409,251228,51146
2096921,2096921,452418,251151,51059
2096921,2096921,452558,251167,51043
2096921,2096921,452522,251291,51020
2096921,2096921,452485,251255,51107
2096921,2096921,452319,251188,51075
2096921,2096921,452572,251120,51020
2096921,2096921,452691,251264,51059
2096921,2096921,452771,251258,51193
2096921,2096921,452765,251206,51107
2096921,2096921,452936,251324,51706
2096921,2096921,452996,251393,51706
2096921,2096921,452848,251367,51706
2096921,2096921,452681,251187,51706
2096921,2096921,452973,251120,51059
2096921,2096921,453057,251373,51059
2096921,2096921,453153,251420,51146
2096921,2096921,453175,251374,51059
2096921,2096921,453372,251440,51020
2096921,2096921,453303,251549,51059
2096921,2096921,453139,251405,51146
2096921,2096921,453038,251336,51201
2096921,2096921,453306,251221,51706
2096921,2096921,453310,251390,51020
2096921,2096921,453468,251480,51146
2096921,2096921,453505,251434,51706
2096921,2096921,453657,251559,51020
2096921,2096921,453603,251566,51706
2096921,2096921,453562,251553,51107
2096921,2096921,453355,251377,51020
2096921,2096921,453561,251354,51043
2096921,2096921,453740,251490,51059
2096921,2096921,453799,251529,51146
2096921,2096921,453754,251495,51201
2096921,2096921,453872,251514,51075
2096921,2096921,453875,251574,51020
2096921,2096921,453775,251552,51043
2096921,2096921,453723,251453,50972
2096921,2096921,453888,251384,50972
2096921,2096921,453986,251464,50972
2096921,2096921,454034,251565,51107
2096921,2096921,453983,251538,51020
2096921,2096921,454179,251628,50972
2096921,2096921,454129,251633,51020
2096921,2096921,454082,251683,51107
2096921,2096921,453900,251476,50972
2096921,2096921,454060,251394,51075
2096921,2096921,454114,251610,51075
2096921,2096921,454131,251605,51193
2096921,2096921,454196,251615,51020
2096921,2096921,454388,251587,51075
2096921,2096921,454384,251679,51075
2096921,2096921,454259,251612,51107
2096921,2096921,454053,251474,51075
2096921,2096921,454140,251439,51706
2096921,2096921,454232,251576,50972
2096921,2096921,454299,251679,51146
2096921,2096921,454330,251577,51706
2096921,2096921,454609,251557,50972
2096921,2096921,454613,251702,50972
2096921,2096921,454587,251665,51059
2096921,2096921,454309,251565,50972
2096921,2096921,454443,251537,50972
2096921,2096921,454580,251664,50972
2096921,2096921,454616,251685,51706
2096921,2096921,454712,251713,50972
2096921,2096921,454796,251770,51043
2096921,2096921,454792,251831,50972
2096921,2096921,454637,251746,51020
2096921,2096921,454454,251654,50972
2096921,2096921,454605,251515,50972
2096921,2096921,454670,251575,51706
2096921,2096921,454793,251719,51059
2096921,2096921,454803,251581,51059
2096921,2096921,454871,251677,51059
2096921,2096921,454832,251732,51059
2096921,2096921,454720,251745,51107
2096921,2096921,454619,251546,51059
2096921,2096921,454749,251462,51706
2096921,2096921,454829,251691,51020
2096921,2096921,454820,251595,51107
2096921,2096921,454789,251592,51059
2096921,2096921,454793,251626,51020
2096921,2096921,454908,251758,51059
2096921,2096921,454783,251711,51201
2096921,2096921,454647,251564,51059
2096921,2096921,454745,251472,51020
2096921,2096921,454838,251567,51201
2096921,2096921,454862,251622,51706
2096921,2096921,454874,251589,51020
2096921,2096921,454920,251630,51059
2096921,2096921,454920,251736,51059
2096921,2096921,454841,251635,51146
2096921,2096921,454605,251527,51075
2096921,2096921,454777,251472,51075
2096921,2096921,454843,251562,51059
2096921,2096921,454874,251649,51146
2096921,2096921,454891,251601,51706
2096921,2096921,454972,251660,51075
2096921,2096921,454967,251726,51706
2096921,2096921,454879,251660,51059
2096921,2096921,454705,251495,50972
2096921,2096921,454737,251441,51706
2096921,2096921,454886,251522,51020
2096921,2096921,454798,251488,51059
2096921,2096921,454900,251590,51020
2096921,2096921,454960,251627,51020
2096921,2096921,454947,251672,51020
2096921,2096921,454965,251545,51107
2096921,2096921,454751,251406,51020
2096921,2096921,454841,251345,51075
2096921,2096921,454906,251512,51706
2096921,2096921,454901,251572,51107
2096921,2096921,454822,251535,51706
2096921,2096921,454894,251515,51706
2096921,2096921,454934,251545,51020
2096921,2096921,454884,251509,51146
2096921,2096921,454725,251404,51020
2096921,2096921,454808,251300,51706
2096921,2096921,454807,251532,51059
2096921,2096921,454875,251560,51201
2096921,2096921,454911,251456,51020
2096921,2096921,455036,251513,51059
2096921,2096921,455033,251493,51059
2096921,2096921,454839,251471,51146
2096921,2096921,454640,251385,51075
2096921,2096921,454674,251285,51201
2096921,2096921,454768,251436,51059
2096921,2096921,454803,251396,51201
2096921,2096921,454842,251330,51075
2096921,2096921,454873,251360,51059
2096921,2096921,454798,251462,51059
2096921,2096921,454811,251395,51146
2096921,2096921,454652,251343,51075
2096921,2096921,454675,251268,51706
2096921,2096921,454836,251366,51075
2096921,2096921,454770,251447,51059
2096921,2096921,454882,251298,51020
2096921,2096921,454892,251442,51020
2096921,2096921,454867,251493,51020
2096921,2096921,454713,251403,51107
2096921,2096921,454641,251235,51706
2096921,2096921,454555,251183,51059
2096921,2096921,454710,251367,51059
2096921,2096921,454741,251378,51107
2096921,2096921,454847,251349,51043
2096921,2096921,454836,251372,51020
2096921,2096921,454753,251282,51020
2096921,2096921,454685,251352,51146
2096921,2096921,454482,251316,51075
2096921,2096921,454575,251165,51020
2096921,2096921,454681,251349,51020
2096921,2096921,454818,251326,51706
2096921,2096921,454700,251296,51020
2096921,2096921,454767,251294,51075
2096921,2096921,454661,251305,51020
2096921,2096921,454531,251367,51201
2096921,2096921,454478,251165,50972
2096921,2096921,454490,251029,51706
2096921,2096921,454584,251121,51020
2096921,2096921,454538,251177,51107
2096921,2096921,454529,251217,50972
2096921,2096921,454554,251231,51020
2096921,2096921,454542,251268,51020
2096921,2096921,454415,251242,51107
2096921,2096921,454347,251076,51201
2096921,2096921,454422,250883,51020
2096921,2096921,454414,251062,50972
2096921,2096921,454354,251208,51107
2096921,2096921,454494,251148,50972
2096921,2096921,454479,251215,51020
2096921,2096921,454389,251205,51043
2096921,2096921,454354,251113,51020
2096921,2096921,454212,250958,51201
2096921,2096921,454180,250914,51020
2096921,2096921,454238,251012,51020
2096921,2096921,454206,251078,51107
2096921,2096921,454331,251064,51020
2096921,2096921,454409,251094,51043
2096921,2096921,454347,251167,51020
2096921,2096921,454274,251020,51107
2096921,2096921,454107,250942,51706
2096921,2096921,454148,250878,50972
2096921,2096921,454223,250952,51075
2096921,2096921,454310,251025,51107
2096921,2096921,454261,251119,51020
2096921,2096921,453872,251010,51020
2096921,2096921,453766,250965,51706
2096921,2096921,453714,250871,51146
2096921,2096921,453499,250663,50972
2096921,2096921,453275,250574,51020
2096921,2096921,453342,250638,51020
2096921,2096921,453313,250710,51146
2096921,2096921,453395,250709,51075
2096921,2096921,452855,250628,51075
2096921,2096921,452702,250550,51020
2096921,2096921,452652,250439,51107
2096921,2096921,452497,250274,51020
2096921,2096921,451937,250225,51706
2096921,2096921,451791,250240,50972
2096921,2096921,451749,250250,51107
2096921,2096921,451839,250215,50972
2096921,2096921,451133,250098,50972
2096921,2096921,450981,249961,50972
2096921,2096921,450881,249885,51107
2096921,2096921,450624,249753,50972
2096921,2096921,449071,249463,50972
2096921,2096921,448817,249280,51706
2096921,2096921,448775,249285,51020
2096921,2096921,448856,249173,50972
2096921,2096921,446976,248837,51706
2096921,2096921,446547,248524,51706
2096921,2096921,446260,248420,50972
2096921,2096921,446003,248341,51020
2096921,2096921,444680,247992,51020
2096921,2096921,444497,247803,50972
2096921,2096921,444487,247854,51020
2096921,2096921,444553,247750,51020
2096921,2096921,443438,247593,51706
2096921,2096921,443064,247522,50972
2096921,2096921,443004,247430,51059
2096921,2096921,442766,247269,50972
2096921,2096921,442078,247022,50972
2096921,2096921,441961,246911,51706
2096921,2096921,441976,246988,51075
2096921,2096921,441937,246935,50972
2096921,2096921,441430,246838,51020
2096921,2096921,441265,246833,50972
2096921,2096921,441102,246819,51146
2096921,2096921,441056,246648,50972
2096921,2096921,440704,246509,50972
2096921,2096921,440746,246530,50972
2096921,2096921,440693,246559,51233
2096921,2096921,440610,246516,51059
2096921,2096921,440377,246489,51020
2096921,2096921,440316,246507,51020
2096921,2096921,440263,246539,51146
2096921,2096921,440169,246295,51020
2096921,2096921,440196,246182,51706
2096921,2096921,440133,246298,51059
2096921,2096921,440174,246288,51201
2096921,2096921,440169,246384,51059
2096921,2096921,440218,246339,51020
2096921,2096921,440244,246425,51059
2096921,2096921,440181,246444,51146
2096921,2096921,440015,246265,51059
2096921,2096921,440265,246219,51059
2096921,2096921,440324,246418,51059
2096921,2096921,440253,246473,51059
2096921,2096921,440379,246497,51075
2096921,2096921,440544,246498,51059
2096921,2096921,440581,246513,51059
2096921,2096921,440562,246446,51146
2096921,2096921,440403,246382,51059
2096921,2096921,440522,246378,51059
2096921,2096921,440670,246536,51043
2096921,2096921,440640,246615,51193
2096921,2096921,440760,246542,51059
2096921,2096921,441122,246657,51059
2096921,2096921,441169,246766,51059
2096921,2096921,441072,246706,51146
2096921,2096921,440895,246632,51706
2096921,2096921,441254,246647,51020
2096921,2096921,441365,246826,51043
2096921,2096921,441438,246813,51233
2096921,2096921,441520,246713,51020
2096921,2096921,441996,246899,51020
2096921,2096921,441940,246973,51020
2096921,2096921,441855,246933,51193
2096921,2096921,441683,246866,51059
2096921,2096921,442083,246913,51020
2096921,2096921,442385,247086,50972
2096921,2096921,442386,247152,51059
2096921,2096921,442373,247032,50972
2096921,2096921,442767,247104,51075
2096921,2096921,442806,247262,50972
2096921,2096921,442720,247273,51107
2096921,2096921,442602,247177,50972
2096921,2096921,442914,247119,50972
2096921,2096921,443116,247260,50972
2096921,2096921,443196,247333,51107
2096921,2096921,443136,247287,50972
2096921,2096921,443508,247365,51020
2096921,2096921,443539,247553,51020
2096921,2096921,443481,247482,51059
2096921,2096921,443323,247410,50972
2096921,2096921,443803,247380,50972
2096921,2096921,443958,247633,51075
2096921,2096921,443972,247670,50972
2096921,2096921,444006,247527,50972
2096921,2096921,444356,247687,50972
2096921,2096921,444384,247793,50972
2096921,2096921,444322,247773,51059
2096921,2096921,444206,247672,50972
2096921,2096921,444646,247640,50972
2096921,2096921,444873,247839,50972
2096921,2096921,444876,247861,51059
2096921,2096921,444873,247815,51075
2096921,2096921,445242,247915,51706
2096921,2096921,445278,248103,50972
2096921,2096921,445294,248039,51107
2096921,2096921,445071,247950,51706
2096921,2096921,445578,247885,51020
2096921,2096921,445693,248147,51043
2096921,2096921,445791,248217,51107
2096921,2096921,445814,248146,51020
2096921,2096921,446047,248264,51706
2096921,2096921,446048,248352,50972
2096921,2096921,446088,248388,51107
2096921,2096921,445938,248094,50972
2096921,2096921,446237,248109,50972
2096921,2096921,446370,248278,51075
2096921,2096921,446430,248414,51193
2096921,2096921,446392,248375,51020
2096921,2096921,446556,248401,51059
2096921,2096921,446674,248549,51201
2096921,2096921,446674,248396,51107
2096921,2096921,446484,248338,51020
2096921,2096921,446650,248215,51020
2096921,2096921,446750,248421,51075
2096921,2096921,446768,248542,51059
2096921,2096921,446819,248500,51059
2096921,2096921,447018,248529,51075
2096921,2096921,447028,248600,51059
2096921,2096921,447001,248603,51059
2096921,2096921,446811,248424,51059
2096921,2096921,446783,248404,51020
2096921,2096921,446912,248541,51059
2096921,2096921,446945,248648,51107
2096921,2096921,447058,248586,51020
2096921,2096921,447079,248521,51075
2096921,2096921,447030,248536,51075
2096921,2096921,446948,248543,51146
2096921,2096921,446724,248523,51059
2096921,2096921,446730,248412,51020
2096921,2096921,446783,248590,51075
2096921,2096921,446878,248556,51193
2096921,2096921,446878,248513,51075
2096921,2096921,446810,248464,51075
2096921,2096921,446753,248493,51075
2096921,2096921,446641,248529,51193
2096921,2096921,446483,248385,51020
2096921,2096921,446521,248293,51059
2096921,2096921,446568,248419,51075
2096921,2096921,446625,248464,51706
2096921,2096921,446657,248397,51043
2096921,2096921,446568,248496,51020
2096921,2096921,446495,248512,51020
2096921,2096921,446442,248508,51201
2096921,2096921,446259,248378,51201
2096921,2096921,446269,248266,51059
2096921,2096921,446334,248372,51059
2096921,2096921,446360,248415,51193
2096921,2096921,446385,248356,51059
2096921,2096921,446489,248356,51059
2096921,2096921,446384,248489,51059
2096921,2096921,446294,248469,51059
2096921,2096921,446197,248337,51059
2096921,2096921,446286,248304,51706
2096921,2096921,446411,248365,51059
2096921,2096921,446448,248440,51059
2096921,2096921,446435,248358,51059
2096921,2096921,446591,248445,51075
2096921,2096921,446487,248529,51059
2096921,2096921,446358,248542,51107
2096921,2096921,446280,248415,51075
2096921,2096921,446569,248277,51059
2096921,2096921,446686,248460,51059
2096921,2096921,446692,248523,51146
2096921,2096921,446641,248469,51059
2096921,2096921,446759,248540,51059
2096921,2096921,446766,248631,51020
2096921,2096921,446713,248589,51146
2096921,2096921,446580,248475,51059
2096921,2096921,446992,248379,51020
2096921,2096921,447056,248572,51020
2096921,2096921,447043,248575,51193
2096921,2096921,447092,248644,51706
2096921,2096921,447455,248715,51020
2096921,2096921,447539,248843,51020
2096921,2096921,447555,248846,51146
2096921,2096921,447314,248663,51706
2096921,2096921,447608,248657,51020
2096921,2096921,447789,248778,51706
2096921,2096921,447797,248898,51193
2096921,2096921,447829,248944,51706
2096921,2096921,448173,248989,51020
2096921,2096921,448283,249112,51020
2096921,2096921,448243,249086,51107
2096921,2096921,447977,248973,51020
2096921,2096921,448267,249024,51075
2096921,2096921,448474,249136,51020
2096921,2096921,448488,249241,51107
2096921,2096921,448499,249123,51201
2096921,2096921,448833,249129,51020
2096921,2096921,448825,249298,51059
2096921,2096921,448803,249245,51059
2096921,2096921,448652,249269,51059
2096921,2096921,448826,249158,51706
2096921,2096921,449014,249338,51059
2096921,2096921,449094,249392,51107
2096921,2096921,449159,249368,51059
2096921,2096921,449389,249467,51059
2096921,2096921,449534,249539,51059
2096921,2096921,449411,249543,51193
2096921,2096921,449120,249395,51201
2096921,2096921,449568,249353,51020
2096921,2096921,449683,249542,51706
2096921,2096921,449756,249651,51233
2096921,2096921,449736,249604,51059
2096921,2096921,450103,249692,51059
2096921,2096921,450043,249753,51059
2096921,2096921,449991,249764,51146
2096921,2096921,449829,249653,51059
2096921,2096921,450102,249632,51706
2096921,2096921,450284,249751,51020
2096921,2096921,450378,249855,51146
2096921,2096921,450403,249789,51059
2096921,2096921,450654,249875,51075
2096921,2096921,450649,249949,51020
2096921,2096921,450563,249924,51146
2096921,2096921,450319,249880,51059
2096921,2096921,450717,249789,51059
2096921,2096921,450933,249985,51059
2096921,2096921,450919,250088,51146
2096921,2096921,451019,250089,51706
2096921,2096921,451248,250119,51020
2096921,2096921,451239,250290,51706
2096921,2096921,451135,250129,51107
2096921,2096921,451004,250002,51059
2096921,2096921,451343,250030,51020
2096921,2096921,451470,250219,51706
2096921,2096921,451550,250326,51020
2096921,2096921,451567,250353,51020
2096921,2096921,451827,250343,51706
2096921,2096921,451795,250428,51706
2096921,2096921,451748,250395,51146
2096921,2096921,451657,250260,51020
2096921,2096921,451962,250329,51075
2096921,2096921,452081,250504,50972
2096921,2096921,452136,250531,51107
2096921,2096921,452071,250509,51706
2096921,2096921,452354,250513,51706
2096921,2096921,452339,250659,51020
2096921,2096921,452279,250621,51706
2096921,2096921,452123,250446,51020
2096921,2096921,452373,250386,51020
2096921,2096921,452527,250657,51020
2096921,2096921,452562,250707,51146
2096921,2096921,452599,250689,51020
2096921,2096921,452902,250734,51020
2096921,2096921,452872,250761,51075
2096921,2096921,452759,250801,51201
2096921,2096921,452601,250683,51059
2096921,2096921,452886,250631,51020
2096921,2096921,453016,250914,51075
2096921,2096921,453104,250963,51146
2096921,2096921,453191,250875,51059
2096921,2096921,453443,250909,51059
2096921,2096921,453431,251011,51020
2096921,2096921,453214,251010,51146
2096921,2096921,453080,250877,51020
2096921,2096921,453335,250871,51706
2096921,2096921,453473,251057,51059
2096921,2096921,453524,251122,51059
2096921,2096921,453604,251049,51020
2096921,2096921,453887,251087,51020
2096921,2096921,453871,251257,51020
2096921,2096921,453777,251185,51020
2096921,2096921,453569,251066,51059
2096921,2096921,453864,251064,51075
2096921,2096921,453902,251259,51706
2096921,2096921,454087,251294,51233
2096921,2096921,454132,251224,51706
2096921,2096921,454295,251321,51107
2096921,2096921,454238,251434,51706
2096921,2096921,454210,251402,51706
2096921,2096921,453973,251332,51059
2096921,2096921,454287,251222,51107
2096921,2096921,454422,251425,51107
2096921,2096921,454433,251428,51233
2096921,2096921,454447,251355,51201
2096921,2096921,454722,251495,51107
2096921,2096921,454641,251542,51201
2096921,2096921,454555,251589,51193
2096921,2096921,454413,251538,51107
2096921,2096921,454649,251338,51706
2096921,2096921,454805,251627,51075
2096921,2096921,454829,251552,51193
2096921,2096921,454838,251599,51107
2096921,2096921,454912,251603,51107
2096921,2096921,454929,251814,51107
2096921,2096921,454909,251717,51233
2096921,2096921,454726,251505,51107
2096921,2096921,455015,251480,51706
2096921,2096921,455137,251737,51059
2096921,2096921,455023,251749,51706
2096921,2096921,455155,251697,51075
2096921,2096921,455344,251819,51059
2096921,2096921,455244,251957,51107
2096921,2096921,455270,251855,51059
2096921,2096921,455112,251703,51107
2096921,2096921,455342,251596,51107
2096921,2096921,455467,251896,51107
2096921,2096921,455436,251934,51107
2096921,2096921,455470,251879,51107
2096921,2096921,455665,251961,51059
2096921,2096921,455681,252068,51059
2096921,2096921,455666,252022,51146
2096921,2096921,455494,251816,51020
2096921,2096921,455623,251781,51201
2096921,2096921,455814,252022,51706
2096921,2096921,455695,252106,51107
2096921,2096921,455788,252036,51020
2096921,2096921,456016,252134,50972
2096921,2096921,456017,252159,51043
2096921,2096921,456018,252101,51107
2096921,2096921,455724,251939,50972
2096921,2096921,455938,251901,51075
2096921,2096921,456031,252189,51020
2096921,2096921,456141,252311,51146
2096921,2096921,456179,252210,50972
2096921,2096921,456409,252230,51020
2096921,2096921,456374,252269,50972
2096921,2096921,456314,252243,51075
2096921,2096921,456151,252164,51075
2096921,2096921,456361,252192,51020
2096921,2096921,456396,252326,51020
2096921,2096921,456427,252317,51146
2096921,2096921,456522,252242,51020
2096921,2096921,456682,252300,51020
2096921,2096921,456679,252485,50972
2096921,2096921,456584,252420,51107
2096921,2096921,456391,252348,51020
2096921,2096921,456653,252275,51043
2096921,2096921,456772,252448,51043
2096921,2096921,456810,252511,51020
2096921,2096921,456861,252439,51020
2096921,2096921,456972,252560,51020
2096921,2096921,456963,252593,51020
2096921,2096921,456912,252551,51020
2096921,2096921,456681,252538,51706
2096921,2096921,456928,252448,51043
2096921,2096921,457064,252613,51043
2096921,2096921,457071,252622,51107
2096921,2096921,457170,252600,51020
2096921,2096921,457215,252628,51020
2096921,2096921,457270,252780,50972
2096921,2096921,457140,252662,51059
2096921,2096921,456878,252587,51020
2096921,2096921,457073,252555,50972
2096921,2096921,457161,252665,51020
2096921,2096921,457286,252730,51107
2096921,2096921,457253,252627,50972
2096921,2096921,457349,252722,50972
2096921,2096921,457320,252837,51201
2096921,2096921,457237,252795,51107
2096921,2096921,457066,252627,50972
2096921,2096921,457159,252579,51075
2096921,2096921,457341,252730,50972
2096921,2096921,457360,252775,51059
2096921,2096921,457321,252783,51020
2096921,2096921,457454,252769,51020
2096921,2096921,457357,252873,51075
2096921,2096921,457375,252891,51146
2096921,2096921,457224,252719,50972
2096921,2096921,457350,252614,50972
2096921,2096921,457532,252759,51706
2096921,2096921,457490,252784,51706
2096921,2096921,457428,252888,51020
2096921,2096921,457530,252942,50972
2096921,2096921,457508,252970,50972
2096921,2096921,457509,252961,50972
2096921,2096921,457382,252770,51020
2096921,2096921,457605,252662,51020
2096921,2096921,457576,252861,50972
2096921,2096921,457586,252866,50972
2096921,2096921,457570,252930,50972
2096921,2096921,457704,252996,51020
2096921,2096921,457646,253036,50972
2096921,2096921,457585,252942,51059
2096921,2096921,457518,252734,50972
2096921,2096921,457616,252704,50972
2096921,2096921,457726,252937,51020
2096921,2096921,457646,253077,51059
2096921,2096921,457689,253010,50972
2096921,2096921,457470,253019,51020
2096921,2096921,457421,252959,51706
2096921,2096921,457365,252884,51107
2096921,2096921,457169,252723,50972
2096921,2096921,456958,252595,50972
2096921,2096921,457025,252776,51020
2096921,2096921,456982,252847,51107
2096921,2096921,457049,252704,51020
2096921,2096921,456665,252641,50972
2096921,2096921,456496,252620,50972
2096921,2096921,456341,252546,51059
2096921,2096921,456180,252475,50972
2096921,2096921,455574,252308,50972
2096921,2096921,455529,252355,50972
2096921,2096921,455555,252363,51107
2096921,2096921,455686,252281,51020
2096921,2096921,455079,252118,51706
2096921,2096921,454904,252094,50972
2096921,2096921,454784,252051,51107
2096921,2096921,454457,251958,50972
2096921,2096921,453039,251570,50972
2096921,2096921,452832,251504,50972
2096921,2096921,452763,251493,50972
2096921,2096921,452872,251416,50972
2096921,2096921,450986,250972,51020
2096921,2096921,450491,250772,50972
2096921,2096921,450302,250696,50972
2096921,2096921,450117,250565,51020
2096921,2096921,448809,250103,51020
2096921,2096921,448653,250117,50972
2096921,2096921,448609,250088,51706
2096921,2096921,448612,250082,51020
2096921,2096921,447563,249907,51706
2096921,2096921,447285,249748,51075
2096921,2096921,447075,249729,51107
2096921,2096921,446926,249612,50972
2096921,2096921,446241,249334,51706
2096921,2096921,446252,249318,50972
2096921,2096921,446198,249338,51193
2096921,2096921,446238,249283,51020
2096921,2096921,445674,249222,51043
2096921,2096921,445528,249229,50972
2096921,2096921,445391,249205,51193
2096921,2096921,445308,249040,51020
2096921,2096921,445064,248801,51706
2096921,2096921,445025,248876,51020
2096921,2096921,444992,248950,51107
2096921,2096921,445016,248950,51075
2096921,2096921,444773,248921,50972
2096921,2096921,444680,249030,50972
2096921,2096921,444619,248897,51107
2096921,2096921,444478,248782,50972
2096921,2096921,444531,248645,51075
2096921,2096921,444611,248788,51075
2096921,2096921,444663,248851,51146
2096921,2096921,444531,248833,51020
2096921,2096921,444589,248874,50972
2096921,2096921,444497,248910,50972
2096921,2096921,444529,248828,50972
2096921,2096921,444410,248707,51020
2096921,2096921,444580,248692,51020
2096921,2096921,444739,248802,51020
2096921,2096921,444706,248996,51020
2096921,2096921,444690,248877,51020
2096921,2096921,444860,248976,51020
2096921,2096921,444941,249002,51020
2096921,2096921,444895,248950,51107
2096921,2096921,444675,248858,51706
2096921,2096921,444897,248794,51020
2096921,2096921,444955,248962,50972
2096921,2096921,445038,249050,51146
2096921,2096921,445087,248967,51020
2096921,2096921,445397,249055,51020
2096921,2096921,445442,249200,51706
2096921,2096921,445393,249176,51193
2096921,2096921,445303,249031,50972
2096921,2096921,445598,249034,50972
2096921,2096921,445774,249292,50972
2096921,2096921,445793,249231,51107
2096921,2096921,445883,249258,51020
2096921,2096921,446293,249429,51020
2096921,2096921,446323,249504,51020
2096921,2096921,446237,249442,51146
2096921,2096921,446070,249293,51059
2096921,2096921,446491,249358,51043
2096921,2096921,446700,249544,51020
2096921,2096921,446647,249477,51706
2096921,2096921,446830,249505,51075
2096921,2096921,447127,249642,51059
2096921,2096921,447210,249693,51059
2096921,2096921,447108,249672,51146
2096921,2096921,446914,249599,51059
2096921,2096921,447370,249663,51059
2096921,2096921,447518,249771,51075
2096921,2096921,447566,249847,51020
2096921,2096921,447658,249737,51020
2096921,2096921,448033,249921,51020
2096921,2096921,448049,250018,51706
2096921,2096921,447982,249979,51107
2096921,2096921,447618,249877,51706
2096921,2096921,448147,249849,51059
2096921,2096921,448380,250087,51075
2096921,2096921,448506,250071,51193
2096921,2096921,448344,250039,51059
2096921,2096921,448806,250194,51020
2096921,2096921,448857,250292,51706
2096921,2096921,448760,250238,51146
2096921,2096921,448629,250095,51706
2096921,2096921,449088,250136,51059
2096921,2096921,449226,250268,51059
2096921,2096921,449290,250372,51233
2096921,2096921,449300,250290,51059
2096921,2096921,449765,250437,51059
2096921,2096921,449721,250587,51059
2096921,2096921,449687,250525,51146
2096921,2096921,449582,250403,51059
2096921,2096921,449966,250395,51020
2096921,2096921,450118,250667,51706
2096921,2096921,450163,250738,51193
2096921,2096921,450174,250643,51059
2096921,2096921,450505,250763,51020
2096921,2096921,450538,250846,50972
2096921,2096921,450486,250822,51107
2096921,2096921,450326,250702,51020
2096921,2096921,450651,250679,51075
2096921,2096921,450802,250814,51075
2096921,2096921,450799,250879,51107
2096921,2096921,450788,250929,50972
2096921,2096921,451068,250930,51043
2096921,2096921,451069,251038,50972
2096921,2096921,451017,250962,50972
2096921,2096921,450893,250745,51706
2096921,2096921,451044,250742,51020
2096921,2096921,451112,250995,51020
2096921,2096921,451169,251064,51059
2096921,2096921,451280,251000,51020
2096921,2096921,451486,251046,51020
2096921,2096921,451485,251096,51706
2096921,2096921,451400,251024,51107
2096921,2096921,451213,250889,51706
2096921,2096921,451224,250797,51706
2096921,2096921,451314,251081,51020
2096921,2096921,451338,251117,51059
2096921,2096921,451359,251077,51020
2096921,2096921,451549,251065,51020
2096921,2096921,451469,251052,51043
2096921,2096921,451378,251091,51193
2096921,2096921,451130,251034,51075
2096921,2096921,451173,250867,51706
2096921,2096921,451242,251046,51020
2096921,2096921,451295,251045,51193
2096921,2096921,451313,250997,51020
2096921,2096921,451214,250964,50972
2096921,2096921,451258,251040,50972
2096921,2096921,451136,250973,51107
2096921,2096921,450847,250909,50972
2096921,2096921,450840,250787,51201
2096921,2096921,450850,250941,50972
2096921,2096921,451030,250997,51107
2096921,2096921,451061,250922,51020
2096921,2096921,450988,250894,50972
2096921,2096921,450879,250972,50972
2096921,2096921,450710,250902,51107
2096921,2096921,450614,250796,51020
2096921,2096921,450676,250741,50972
2096921,2096921,450690,250836,51075
2096921,2096921,450699,250822,50972
2096921,2096921,450701,250782,50972
2096921,2096921,450707,250815,50972
2096921,2096921,450591,250908,51706
2096921,2096921,450556,250813,51107
2096921,2096921,450427,250701,50972
2096921,2096921,450484,250615,50972
2096921,2096921,450601,250798,51020
2096921,2096921,450652,250756,51706
2096921,2096921,450624,250727,51706
2096921,2096921,450708,250824,51706
2096921,2096921,450705,250859,50972
2096921,2096921,450537,250871,51059
2096921,2096921,450402,250697,50972
2096921,2096921,450558,250573,50972
2096921,2096921,450738,250756,51201
2096921,2096921,450695,250747,51201
2096921,2096921,450675,250842,51075
2096921,2096921,450851,250878,51075
2096921,2096921,450809,250950,51020
2096921,2096921,450823,250905,51107
2096921,2096921,450665,250691,50972
2096921,2096921,450961,250631,50972
2096921,2096921,450991,250801,50972
2096921,2096921,451086,250923,51107
2096921,2096921,451099,251009,50972
2096921,2096921,451408,251013,51706
2096921,2096921,451467,251066,51020
2096921,2096921,451419,250966,51075
2096921,2096921,451144,250852,50972
2096921,2096921,451427,250742,50972
2096921,2096921,451595,250983,50972
2096921,2096921,451560,251068,51020
2096921,2096921,451654,251042,50972
2096921,2096921,451985,251110,51706
2096921,2096921,452017,251152,50972
2096921,2096921,451951,251138,50972
2096921,2096921,451715,251036,51075
2096921,2096921,451884,251014,51706
2096921,2096921,452034,251215,51020
2096921,2096921,452049,251218,50972
2096921,2096921,452202,251121,50972
2096921,2096921,452388,251251,51075
2096921,2096921,452370,251284,50972
2096921,2096921,452339,251291,51107
2096921,2096921,452097,251215,51043
2096921,2096921,452281,251123,51020
2096921,2096921,452356,251284,51706
2096921,2096921,452427,251222,51107
2096921,2096921,452629,251258,51020
2096921,2096921,452736,251268,50972
2096921,2096921,452702,251289,51043
2096921,2096921,452629,251269,51146
2096921,2096921,452451,251221,50972
2096921,2096921,452819,251256,51020
2096921,2096921,452857,251437,51020
2096921,2096921,452931,251461,51146
2096921,2096921,452873,251259,51075
2096921,2096921,453078,251356,50972
2096921,2096921,453054,251440,51706
2096921,2096921,453001,251450,51146
2096921,2096921,452818,251343,51706
2096921,2096921,453022,251291,51020
2096921,2096921,453200,251365,50972
2096921,2096921,453219,251391,51146
2096921,2096921,453164,251386,51201
2096921,2096921,453409,251454,51020
2096921,2096921,453402,251575,51020
2096921,2096921,453334,251502,51020
2096921,2096921,453185,251441,50972
2096921,2096921,453534,251313,51075
2096921,2096921,453558,251436,51043
2096921,2096921,453552,251523,51059
2096921,2096921,453553,251528,51059
2096921,2096921,453698,251640,51059
2096921,2096921,453735,251632,51059
2096921,2096921,453630,251626,51706
2096921,2096921,453594,251438,51020
2096921,2096921,453808,251395,51020
2096921,2096921,453902,251572,51059
2096921,2096921,453882,251612,51146
2096921,2096921,453860,251609,51706
2096921,2096921,454037,251716,51706
2096921,2096921,454060,251712,51059
2096921,2096921,454061,251625,51201
2096921,2096921,453853,251533,51020
2096921,2096921,454080,251519,51059
2096921,2096921,454140,251639,51020
2096921,2096921,454201,251681,51146
2096921,2096921,454143,251656,51075
2096921,2096921,454286,251692,51020
2096921,2096921,454315,251680,51020
2096921,2096921,454257,251686,51146
2096921,2096921,454143,251603,51020
2096921,2096921,454265,251573,51020
2096921,2096921,454303,251731,51075
2096921,2096921,454386,251783,51146
2096921,2096921,454456,251691,51020
2096921,2096921,454574,251727,51020
2096921,2096921,454584,251767,51020
2096921,2096921,454484,251755,51107
2096921,2096921,454247,251660,51706
2096921,2096921,454448,251561,51706
2096921,2096921,454482,251793,50972
2096921,2096921,454538,251867,51020
2096921,2096921,454647,251766,51706
2096921,2096921,454836,251746,51020
2096921,2096921,454756,251791,51075
2096921,2096921,454633,251768,51059
2096921,2096921,454417,251612,51059
2096921,2096921,454560,251591,51020
2096921,2096921,454764,251709,51706
2096921,2096921,454742,251748,51107
2096921,2096921,454809,251727,50972
2096921,2096921,454977,251733,51043
2096921,2096921,454813,251778,51020
2096921,2096921,454668,251748,51107
2096921,2096921,454594,251667,50972
2096921,2096921,454720,251624,51075
2096921,2096921,454794,251768,50972
2096921,2096921,454872,251765,51146
2096921,2096921,454941,251668,50972
2096921,2096921,455001,251779,51020
2096921,2096921,454930,251857,51020
2096921,2096921,454821,251832,51193
2096921,2096921,454658,251635,51020
2096921,2096921,454809,251608,50972
2096921,2096921,454891,251724,51020
2096921,2096921,454986,251674,51146
2096921,2096921,454963,251701,51020
2096921,2096921,454997,251778,51075
2096921,2096921,454938,251865,50972
2096921,2096921,454861,251799,51059
2096921,2096921,454750,251622,51020
2096921,2096921,454947,251533,51020
2096921,2096921,455034,251711,51020
2096921,2096921,454964,251729,51706
2096921,2096921,455026,251717,51020
2096921,2096921,454985,251838,51020
2096921,2096921,454986,251884,51706
2096921,2096921,454922,251717,50972
2096921,2096921,454836,251596,51706
2096921,2096921,454934,251456,51020
2096921,2096921,454927,251634,51020
2096921,2096921,454962,251661,51059
2096921,2096921,454977,251726,51020
2096921,2096921,454998,251754,51020
2096921,2096921,455032,251834,51020
2096921,2096921,455032,251708,51059
2096921,2096921,454862,251486,51020
2096921,2096921,454958,251420,51020
2096921,2096921,454962,251544,51706
2096921,2096921,454974,251626,51059
2096921,2096921,455014,251755,51020
2096921,2096921,455028,251681,51020
2096921,2096921,455076,251720,50972
2096921,2096921,455053,251610,51059
2096921,2096921,454796,251433,51020
2096921,2096921,454961,251428,51020
2096921,2096921,454963,251565,51020
2096921,2096921,454934,251612,51706
2096921,2096921,454989,251643,51020
2096921,2096921,455093,251599,51020
2096921,2096921,455054,251657,51020
2096921,2096921,455099,251592,51146
2096921,2096921,454794,251502,50972
2096921,2096921,454846,251430,51020
2096921,2096921,454899,251559,51020
2096921,2096921,454955,251672,51107
2096921,2096921,455029,251526,50972
2096921,2096921,455186,251526,51020
2096921,2096921,455098,251639,51201
2096921,2096921,455002,251555,51146
2096921,2096921,454735,251478,51043
2096921,2096921,454829,251404,51706
2096921,2096921,454935,251548,51706
2096921,2096921,454971,251573,50972
2096921,2096921,455054,251422,51020
2096921,2096921,455082,251448,51706
2096921,2096921,454994,251508,51706
2096921,2096921,454930,251439,50972
2096921,2096921,454688,251469,51020
2096921,2096921,454794,251348,50972
2096921,2096921,454892,251446,50972
2096921,2096921,454964,251514,51146
2096921,2096921,454963,251405,51020
2096921,2096921,454991,251410,50972
2096921,2096921,454969,251440,50972
2096921,2096921,454777,251489,51059
2096921,2096921,454749,251319,50933
2096921,2096921,454784,251325,50933
2096921,2096921,454879,251358,51706
2096921,2096921,454915,251443,51146
2096921,2096921,454944,251339,51059
2096921,2096921,454918,251367,51075
2096921,2096921,454860,251490,51059
2096921,2096921,454858,251521,51193
2096921,2096921,454634,251288,51075
2096921,2096921,454633,251185,51059
2096921,2096921,454760,251336,51706
2096921,2096921,454734,251381,51146
2096921,2096921,454732,251266,51706
2096921,2096921,454774,251437,51059
2096921,2096921,454677,251460,51059
2096921,2096921,454627,251271,51146
2096921,2096921,454503,251184,51706
2096921,2096921,454582,251067,51059
2096921,2096921,454665,251304,51059
2096921,2096921,454634,251348,51706
2096921,2096921,454650,251330,51059
2096921,2096921,454626,251343,51059
2096921,2096921,454682,251345,51706
2096921,2096921,454582,251248,51107
2096921,2096921,454389,251082,51059
2096921,2096921,454464,251046,51020
2096921,2096921,454594,251187,51020
2096921,2096921,454550,251298,51059
2096921,2096921,454502,251146,51059
2096921,2096921,454542,251209,51059
2096921,2096921,454461,251231,51075
2096921,2096921,454447,251190,51107
2096921,2096921,454218,251078,51075
2096921,2096921,454303,250986,51059
2096921,2096921,454425,251108,51020
2096921,2096921,454369,251243,51146
2096921,2096921,454446,251186,51706
2096921,2096921,454511,251132,51020
2096921,2096921,454412,251137,51075
2096921,2096921,454335,251063,51146
2096921,2096921,454103,251042,51059
2096921,2096921,454200,250936,51020
2096921,2096921,454222,251052,51020
2096921,2096921,454268,251081,51146
2096921,2096921,454342,251082,50972
2096921,2096921,454069,250979,51706
2096921,2096921,453860,250995,51706
2096921,2096921,453702,250890,51107
2096921,2096921,453652,250774,51020
2096921,2096921,453336,250584,50972
2096921,2096921,453288,250731,50972
2096921,2096921,453312,250740,51059
2096921,2096921,453550,250709,50972
2096921,2096921,452877,250568,50972
2096921,2096921,452750,250563,50972
2096921,2096921,452597,250502,51107
2096921,2096921,452427,250385,51075
2096921,2096921,451861,250164,51075
2096921,2096921,451844,250234,51020
2096921,2096921,451853,250227,50972
2096921,2096921,451911,250218,51201
2096921,2096921,451162,250030,50972
2096921,2096921,450973,250034,50972
2096921,2096921,450921,250009,50972
2096921,2096921,450780,249825,51075
2096921,2096921,449228,249232,51020
2096921,2096921,448950,249237,51020
2096921,2096921,448909,249259,51107
2096921,2096921,448926,249208,50972
2096921,2096921,446930,248759,51706
2096921,2096921,446442,248604,51706
2096921,2096921,446290,248563,51059
2096921,2096921,446184,248344,51020
2096921,2096921,444831,247808,50972
2096921,2096921,444608,247855,51201
2096921,2096921,444568,247891,51146
2096921,2096921,444525,247798,51020
2096921,2096921,443428,247522,50972
2096921,2096921,443172,247510,51075
2096921,2096921,443029,247472,51107
2096921,2096921,442883,247180,50972
2096921,2096921,442256,246892,50972
2096921,2096921,442101,246971,51059
2096921,2096921,442058,247026,51146
2096921,2096921,442009,247052,51020
2096921,2096921,441433,246915,51059
2096921,2096921,441282,246863,51043
2096921,2096921,441199,246784,51706
2096921,2096921,441038,246651,51020
2096921,2096921,440729,246409,51059
2096921,2096921,440695,246496,50972
2096921,2096921,440679,246565,51146
2096921,2096921,440667,246576,51706
2096921,2096921,440421,246527,51706
2096921,2096921,440431,246628,51075
2096921,2096921,440406,246464,51020
2096921,2096921,440130,246340,51075
2096921,2096921,440200,246213,51706
2096921,2096921,440218,246385,51059
2096921,2096921,440223,246403,51020
2096921,2096921,440234,246349,51059
2096921,2096921,440252,246411,51059
2096921,2096921,440231,246390,51020
2096921,2096921,440162,246385,51107
2096921,2096921,439968,246248,51020
2096921,2096921,440229,246148,51020
2096921,2096921,440310,246331,51020
2096921,2096921,440384,246447,51107
2096921,2096921,440335,246457,51043
2096921,2096921,440513,246514,51059
2096921,2096921,440608,246640,51020
2096921,2096921,440507,246545,51146
2096921,2096921,440354,246355,51020
2096921,2096921,440525,246361,51020
2096921,2096921,440578,246509,51706
2096921,2096921,440673,246641,51146
2096921,2096921,440710,246583,51020
2096921,2096921,441094,246673,51059
2096921,2096921,441078,246700,51059
2096921,2096921,441067,246657,51107
2096921,2096921,440818,246614,51059
2096921,2096921,441279,246573,51706
2096921,2096921,441429,246769,51059
2096921,2096921,441424,246892,51193
2096921,2096921,441489,246761,51706
2096921,2096921,441909,246916,51706
2096921,2096921,441926,246974,51020
2096921,2096921,441880,246934,51107
2096921,2096921,441602,246865,51020
2096921,2096921,442164,246839,51706
2096921,2096921,442377,247130,51020
2096921,2096921,442292,247147,51020
2096921,2096921,442325,247045,51059
2096921,2096921,442672,247144,51059
2096921,2096921,442757,247274,51020
2096921,2096921,442653,247250,51020
2096921,2096921,442469,247095,51706
2096921,2096921,442944,247080,51059
2096921,2096921,443082,247290,51201
2096921,2096921,443175,247361,51146
2096921,2096921,443215,247281,51059
2096921,2096921,443509,247432,51020
2096921,2096921,443505,247561,51059
2096921,2096921,443491,247532,51146
2096921,2096921,443335,247399,51059
2096921,2096921,443703,247328,51059
2096921,2096921,443898,247531,51706
2096921,2096921,443903,247653,51146
2096921,2096921,443930,247537,51059
2096921,2096921,444362,247734,51020
2096921,2096921,444401,247820,51075
2096921,2096921,444369,247732,51233
2096921,2096921,444249,247597,51075
2096921,2096921,444702,247620,51020
2096921,2096921,444854,247896,51059
2096921,2096921,444905,247855,51146
2096921,2096921,444840,247920,51059
2096921,2096921,445265,248052,51059
2096921,2096921,445340,248092,51059
2096921,2096921,445312,248096,51146
2096921,2096921,445160,247878,51059
2096921,2096921,445526,247922,51059
2096921,2096921,445727,248134,51020
2096921,2096921,445784,248247,51146
2096921,2096921,445735,248223,51020
2096921,2096921,446071,248266,51059
2096921,2096921,446095,248310,51020
2096921,2096921,446073,248304,51059
2096921,2096921,445793,248228,51059
2096921,2096921,446199,248227,51059
2096921,2096921,446408,248362,51020
2096921,2096921,446440,248521,51107
2096921,2096921,446494,248412,51059
2096921,2096921,446711,248425,51059
2096921,2096921,446721,248536,51059
2096921,2096921,446663,248504,51107
2096921,2096921,446423,248367,51059
2096921,2096921,446636,248384,51075
2096921,2096921,446791,248483,51201
2096921,2096921,446787,248526,51201
2096921,2096921,446877,248515,51059
2096921,2096921,446987,248545,51020
2096921,2096921,446961,248606,51107
2096921,2096921,446910,248620,51146
2096921,2096921,446696,248525,51075
2096921,2096921,446783,248456,51059
2096921,2096921,446849,248573,51059
2096921,2096921,446923,248542,51233
2096921,2096921,446961,248489,51706
2096921,2096921,447057,248570,51059
2096921,2096921,447031,248601,51020
2096921,2096921,446896,248636,51107
2096921,2096921,446727,248509,51020
2096921,2096921,446731,248332,51059
2096921,2096921,446799,248460,51059
2096921,2096921,446895,248496,51146
2096921,2096921,446943,248537,51020
2096921,2096921,446836,248498,51020
2096921,2096921,446730,248627,51075
2096921,2096921,446623,248533,51107
2096921,2096921,446474,248396,51020
2096921,2096921,446508,248246,51059
2096921,2096921,446571,248352,51059
2096921,2096921,446534,248367,51107
2096921,2096921,446608,248407,51020
2096921,2096921,446561,248495,51706
2096921,2096921,446504,248608,51706
2096921,2096921,446411,248495,51020
2096921,2096921,446219,248307,51706
2096921,2096921,446283,248200,51059
2096921,2096921,446383,248396,51075
2096921,2096921,446344,248363,51107
2096921,2096921,446380,248393,51020
2096921,2096921,446474,248468,51020
2096921,2096921,446424,248559,51706
2096921,2096921,446357,248459,51706
2096921,2096921,446088,248235,51020
2096921,2096921,446292,248188,51020
2096921,2096921,446298,248367,51075
2096921,2096921,446258,248367,51146
2096921,2096921,446349,248371,51020
2096921,2096921,446461,248430,51059
2096921,2096921,446427,248481,51020
2096921,2096921,446363,248441,51146
2096921,2096921,446178,248269,51020
2096921,2096921,446364,248256,51020
2096921,2096921,446571,248416,51020
2096921,2096921,446586,248468,51146
2096921,2096921,446591,248502,51059
2096921,2096921,446752,248523,51059
2096921,2096921,446796,248605,51020
2096921,2096921,446728,248540,51146
2096921,2096921,446495,248457,51020
2096921,2096921,446894,248421,51020
2096921,2096921,447067,248648,51059
2096921,2096921,447066,248752,51201
2096921,2096921,447105,248645,51075
2096921,2096921,447501,248672,51043
2096921,2096921,447522,248825,51059
2096921,2096921,447403,248781,51020
2096921,2096921,447156,248717,51043
2096921,2096921,447589,248730,51201
2096921,2096921,447775,248897,51706
2096921,2096921,447817,248934,51059
2096921,2096921,447882,248900,50972
2096921,2096921,448256,248911,50972
2096921,2096921,448211,249048,50972
2096921,2096921,448157,249071,51107
2096921,2096921,447920,248959,51020
2096921,2096921,448236,248965,50972
2096921,2096921,448398,249074,51020
2096921,2096921,448451,249150,51107
2096921,2096921,448496,249033,51075
2096921,2096921,448753,249159,51020
2096921,2096921,448743,249277,50972
2096921,2096921,448646,249262,51107
2096921,2096921,448480,249142,51043
2096921,2096921,448797,249153,51706
2096921,2096921,449000,249295,50972
2096921,2096921,449040,249331,51146
2096921,2096921,449067,249365,51020
2096921,2096921,449270,249460,50972
2096921,2096921,449309,249522,50972
2096921,2096921,449330,249458,51059
2096921,2096921,449128,249331,51020
2096921,2096921,449507,249388,50972
2096921,2096921,449648,249562,50972
2096921,2096921,449658,249567,51706
2096921,2096921,449742,249516,50972
2096921,2096921,449985,249734,50972
2096921,2096921,450057,249843,51706
2096921,2096921,449965,249756,51706
2096921,2096921,449889,249625,51706
2096921,2096921,450172,249624,50972
2096921,2096921,450305,249768,50972
2096921,2096921,450333,249851,50972
2096921,2096921,450311,249792,51706
2096921,2096921,450580,249938,50972
2096921,2096921,450672,249973,51706
2096921,2096921,450554,249979,51059
2096921,2096921,450365,249870,51020
2096921,2096921,450650,249773,51059
2096921,2096921,450818,250025,51020
2096921,2096921,450854,250114,51146
2096921,2096921,450867,250080,51059
2096921,2096921,451166,250184,51059
2096921,2096921,451164,250292,51020
2096921,2096921,451154,250189,51146
2096921,2096921,451051,250100,51059
2096921,2096921,451298,250055,51020
2096921,2096921,451405,250138,51075
2096921,2096921,451339,250257,51233
2096921,2096921,451428,250261,51020
2096921,2096921,451755,250353,51020
2096921,2096921,451791,250382,51020
2096921,2096921,451773,250346,51193
2096921,2096921,451585,250309,51706
2096921,2096921,451853,250258,51059
2096921,2096921,451995,250421,51075
2096921,2096921,452017,250497,51233
2096921,2096921,451990,250400,51020
2096921,2096921,452182,250447,51059
2096921,2096921,452313,250568,51059
2096921,2096921,452195,250445,51193
2096921,2096921,452038,250389,51706
2096921,2096921,452321,250396,51059
2096921,2096921,452468,250627,51043
2096921,2096921,452463,250706,51146
2096921,2096921,452532,250582,51059
2096921,2096921,452774,250611,51020
2096921,2096921,452824,250775,51020
2096921,2096921,452666,250733,51059
2096921,2096921,452579,250700,51020
2096921,2096921,452750,250693,51075
2096921,2096921,452938,250887,51059
2096921,2096921,452989,250889,51020
2096921,2096921,453054,250759,51059
2096921,2096921,453303,250846,51059
2096921,2096921,453292,251000,51020
2096921,2096921,453205,250985,51075
2096921,2096921,452936,250795,50972
2096921,2096921,453222,250841,50972
2096921,2096921,453379,251040,51020
2096921,2096921,453509,251037,51059
2096921,2096921,453510,251055,50972
2096921,2096921,453745,251142,51020
2096921,2096921,453710,251232,51020
2096921,2096921,453664,251178,51107
2096921,2096921,453482,251065,51020
2096921,2096921,453783,251032,51020
2096921,2096921,453973,251162,51020
2096921,2096921,453970,251187,51146
2096921,2096921,453940,251097,51706
2096921,2096921,454186,251275,51020
2096921,2096921,454171,251428,51020
2096921,2096921,454042,251353,51107
2096921,2096921,453881,251251,51075
2096921,2096921,454212,251249,51706
2096921,2096921,454399,251372,50972
2096921,2096921,454377,251435,51107
2096921,2096921,454287,251364,51075
2096921,2096921,454437,251498,51020
2096921,2096921,454487,251481,51075
2096921,2096921,454419,251457,51059
2096921,2096921,454318,251378,50972
2096921,2096921,454573,251333,51020
2096921,2096921,454687,251430,51020
2096921,2096921,454737,251484,51020
2096921,2096921,454768,251533,51020
2096921,2096921,454930,251669,51075
2096921,2096921,454882,251730,50972
2096921,2096921,454827,251663,51020
2096921,2096921,454700,251521,51020
2096921,2096921,454941,251502,51706
2096921,2096921,455054,251659,50972
2096921,2096921,455054,251628,51059
2096921,2096921,455050,251696,51020
2096921,2096921,455168,251803,51020
2096921,2096921,455219,251848,50972
2096921,2096921,455187,251825,51146
2096921,2096921,454992,251617,51020
2096921,2096921,455214,251600,51020
2096921,2096921,455346,251741,51020
2096921,2096921,455314,251924,51107
2096921,2096921,455286,251775,51020
2096921,2096921,455553,251889,50972
2096921,2096921,455592,252018,51706
2096921,2096921,455563,251898,51706
2096921,2096921,455314,251792,51020
2096921,2096921,455501,251787,50972
2096921,2096921,455590,251900,51201
2096921,2096921,455585,252030,51059
2096921,2096921,455705,251994,51020
2096921,2096921,455930,251972,50972
2096921,2096921,455867,251994,51020
2096921,2096921,455820,251984,51146
2096921,2096921,455633,251952,50972
2096921,2096921,455774,251942,50972
2096921,2096921,455914,252105,50972
2096921,2096921,455920,252156,51059
2096921,2096921,456179,252052,51020
2096921,2096921,456240,252098,50972
2096921,2096921,456244,252151,50972
2096921,2096921,456129,252149,50972
2096921,2096921,455990,252163,51075
2096921,2096921,456179,252116,50972
2096921,2096921,456305,252332,50972
2096921,2096921,456457,252280,50972
2096921,2096921,456441,252226,50972
2096921,2096921,456593,252283,50972
2096921,2096921,456530,252416,51075
2096921,2096921,456444,252468,51059
2096921,2096921,456340,252312,50972
2096921,2096921,456516,252210,50972
2096921,2096921,456617,252371,51020
2096921,2096921,456648,252333,51107
2096921,2096921,456667,252303,51075
2096921,2096921,456821,252471,50972
2096921,2096921,456739,252597,51201
2096921,2096921,456677,252564,51146
2096921,2096921,456575,252393,51020
2096921,2096921,456853,252325,51059
2096921,2096921,456971,252419,51020
2096921,2096921,456919,252515,51146
2096921,2096921,456941,252529,51201
2096921,2096921,457061,252606,51020
2096921,2096921,457115,252715,51059
2096921,2096921,457107,252650,51146
2096921,2096921,456857,252554,51020
2096921,2096921,457028,252416,51059
2096921,2096921,457199,252619,51706
2096921,2096921,457129,252655,51193
2096921,2096921,457177,252627,51059
2096921,2096921,457301,252647,51059
2096921,2096921,457203,252774,51043
2096921,2096921,457146,252659,51193
2096921,2096921,456967,252519,51020
2096921,2096921,457116,252460,51706
2096921,2096921,457218,252674,51020
2096921,2096921,457202,252727,51107
2096921,2096921,457283,252695,51075
2096921,2096921,457387,252716,51020
2096921,2096921,457321,252805,51020
2096921,2096921,457326,252790,51020
2096921,2096921,457192,252611,51201
2096921,2096921,457288,252593,51706
2096921,2096921,457350,252768,51020
2096921,2096921,457392,252812,51706
2096921,2096921,457394,252800,51075
2096921,2096921,457486,252850,51020
2096921,2096921,457486,252891,51020
2096921,2096921,457451,252830,51193
2096921,2096921,457221,252667,51020
2096921,2096921,457373,252644,51020
2096921,2096921,457554,252839,51020
2096921,2096921,457517,252878,51706
2096921,2096921,457476,252852,51201
2096921,2096921,457569,252915,51020
2096921,2096921,457660,252951,51059
2096921,2096921,457559,252824,51146
2096921,2096921,457287,252693,51059
2096921,2096921,457505,252695,51020
2096921,2096921,457567,252929,51059
2096921,2096921,457607,252877,51706
2096921,2096921,457583,252952,51043
2096921,2096921,457364,252837,51059
2096921,2096921,457277,252769,51043
2096921,2096921,457183,252664,51146
2096921,2096921,456997,252691,51059
2096921,2096921,456843,252554,51059
2096921,2096921,456936,252632,51059
2096921,2096921,456894,252769,51146
2096921,2096921,457025,252730,51059
2096921,2096921,456614,252591,51706
2096921,2096921,456389,252608,51020
2096921,2096921,456363,252553,51107
2096921,2096921,456083,252439,51059
2096921,2096921,455506,252123,51059
2096921,2096921,455542,252261,51201
2096921,2096921,455577,252323,51107
2096921,2096921,455637,252332,51020
2096921,2096921,454962,252137,51059
2096921,2096921,454775,252083,51020
2096921,2096921,454592,252108,51020
2096921,2096921,454408,251905,51059
2096921,2096921,452999,251314,51020
2096921,2096921,452757,251314,51020
2096921,2096921,452753,251394,51146
2096921,2096921,452714,251309,51059
2096921,2096921,450823,250727,51020
2096921,2096921,450429,250740,51020
2096921,2096921,450207,250662,51107
2096921,2096921,449978,250521,51043
2096921,2096921,448738,249956,51706
2096921,2096921,448590,249962,51059
2096921,2096921,448511,250027,51233
2096921,2096921,448514,249994,51059
2096921,2096921,447420,249696,51020
2096921,2096921,447124,249689,50972
2096921,2096921,447029,249633,51146
2096921,2096921,446947,249448,51020
2096921,2096921,446207,249125,50972
2096921,2096921,446122,249286,50972
2096921,2096921,446061,249325,51059
2096921,2096921,445997,249289,51201
2096921,2096921,445503,249137,50972
2096921,2096921,445401,249203,51020
2096921,2096921,445302,249139,51201
2096921,2096921,445228,248988,50972
2096921,2096921,444897,248756,50972
2096921,2096921,444876,248878,51020
2096921,2096921,444889,248905,50972
2096921,2096921,444899,248965,50972
2096921,2096921,444706,248854,50972
2096921,2096921,444646,248847,50972
2096921,2096921,444576,248905,51020
2096921,2096921,444345,248712,51020
2096921,2096921,444409,248602,51020
2096921,2096921,444485,248773,51020
2096921,2096921,444536,248891,51020
2096921,2096921,444504,248809,50972
2096921,2096921,444560,248823,51020
2096921,2096921,444517,248862,51075
2096921,2096921,444498,248809,51020
2096921,2096921,444331,248745,51020
2096921,2096921,444536,248731,50972
2096921,2096921,444651,248898,51043
2096921,2096921,444763,248850,51107
2096921,2096921,444823,248812,50972
2096921,2096921,445027,248876,51020
2096921,2096921,444951,248943,51043
2096921,2096921,444843,248869,51107
2096921,2096921,444690,248776,51075
2096921,2096921,444795,248771,50972
2096921,2096921,444928,248848,50972
2096921,2096921,445064,248768,51107
2096921,2096921,444985,249017,51043
2096921,2096921,445198,249241,51020
2096921,2096921,445294,249309,51043
2096921,2096921,445287,249277,51146
2096921,2096921,445241,249051,51020
2096921,2096921,445667,249066,51020
2096921,2096921,445824,249200,51020
2096921,2096921,445911,249184,51146
2096921,2096921,445886,249288,51020
2096921,2096921,446172,249465,51059
2096921,2096921,446193,249561,51020
2096921,2096921,446162,249408,51146
2096921,2096921,446219,249078,51059
2096921,2096921,446503,249173,51706
2096921,2096921,446613,249430,51020
2096921,2096921,446576,249594,51107
2096921,2096921,446682,249412,51059
2096921,2096921,447064,249496,51020
2096921,2096921,447062,249632,51059
2096921,2096921,447054,249633,51059
2096921,2096921,446857,249473,51020
2096921,2096921,447287,249547,51059
2096921,2096921,447478,249670,51059
2096921,2096921,447479,249779,51107
2096921,2096921,447554,249734,51020
2096921,2096921,447954,249847,51020
2096921,2096921,448035,249870,51059
2096921,2096921,447907,249890,51107
2096921,2096921,447712,249735,51059
2096921,2096921,448114,249760,51059
2096921,2096921,448250,249932,51075
2096921,2096921,448259,250059,51193
2096921,2096921,448246,249951,51059
2096921,2096921,448724,250073,51059
2096921,2096921,448764,250226,51706
2096921,2096921,448637,250178,51146
2096921,2096921,448525,250097,51706
2096921,2096921,449073,250110,51075
2096921,2096921,449273,250337,51059
2096921,2096921,449292,250352,51201
2096921,2096921,449188,250387,50972
2096921,2096921,449704,250519,51020
2096921,2096921,449686,250631,50972
2096921,2096921,449639,250504,51706
2096921,2096921,449541,250355,50972
2096921,2096921,449899,250414,50972
2096921,2096921,450123,250571,50972
2096921,2096921,450202,250682,51107
2096921,2096921,450064,250584,50972
2096921,2096921,450412,250696,51020
2096921,2096921,450499,250725,51706
2096921,2096921,450435,250739,51020
2096921,2096921,450251,250576,51020
2096921,2096921,450543,250587,51201
2096921,2096921,450689,250730,51706
2096921,2096921,450741,250843,51059
2096921,2096921,450762,250819,50972
2096921,2096921,451044,250893,51020
2096921,2096921,451117,250931,51020
2096921,2096921,451007,250953,51059
2096921,2096921,450862,250888,50972
2096921,2096921,451081,250822,50972
2096921,2096921,451164,251014,51706
2096921,2096921,451184,251045,51107
2096921,2096921,451315,250943,50972
2096921,2096921,451490,250984,50972
2096921,2096921,451406,251103,51020
2096921,2096921,451334,251015,51201
2096921,2096921,451137,250932,51075
2096921,2096921,451204,250876,51706
2096921,2096921,451335,251041,50972
2096921,2096921,451311,251093,51146
2096921,2096921,451507,251052,50972
2096921,2096921,451451,251071,50972
2096921,2096921,451459,251075,51020
2096921,2096921,451294,251038,51706
2096921,2096921,451125,250914,50972
2096921,2096921,451098,250864,50972
2096921,2096921,451251,251021,50972
2096921,2096921,451297,251031,51107
2096921,2096921,451363,251010,51020
2096921,2096921,451277,250899,51706
2096921,2096921,451208,251087,51059
2096921,2096921,451064,251052,51146
2096921,2096921,450908,250906,51059
2096921,2096921,450941,250757,51059
2096921,2096921,451058,250848,51706
2096921,2096921,451061,250930,51020
2096921,2096921,451001,250808,51059
2096921,2096921,450958,250844,51059
2096921,2096921,450893,250965,51059
2096921,2096921,450808,250898,51107
2096921,2096921,450661,250782,51020
2096921,2096921,450623,250641,51075
2096921,2096921,450724,250752,51020
2096921,2096921,450646,250747,51146
2096921,2096921,450629,250791,51020
2096921,2096921,450737,250806,51706
2096921,2096921,450682,250835,51706
2096921,2096921,450627,250857,51193
2096921,2096921,450501,250638,51059
2096921,2096921,450491,250600,51059
2096921,2096921,450641,250711,51059
2096921,2096921,450550,250729,51146
2096921,2096921,450547,250758,51706
2096921,2096921,450744,250797,51706
2096921,2096921,450592,250855,51020
2096921,2096921,450650,250875,51193
2096921,2096921,450488,250632,51020
2096921,2096921,450620,250610,51020
2096921,2096921,450714,250705,51020
2096921,2096921,450690,250787,51193
2096921,2096921,450814,250827,51059
2096921,2096921,450894,250878,51020
2096921,2096921,450854,250897,51020
2096921,2096921,450869,250897,51706
2096921,2096921,450671,250659,51020
2096921,2096921,450889,250624,51020
2096921,2096921,451020,250833,51020
2096921,2096921,451030,250952,51059
2096921,2096921,451074,250882,50972
2096921,2096921,451429,250953,51020
2096921,2096921,451601,251015,50972
2096921,2096921,451483,250980,51059
2096921,2096921,451183,250895,50972
2096921,2096921,451446,250874,50972
2096921,2096921,451607,251061,50972
2096921,2096921,451664,251132,51059
2096921,2096921,451791,251066,50933
2096921,2096921,452068,251098,51706
2096921,2096921,452016,251260,50972
2096921,2096921,451940,251145,50933
2096921,2096921,451763,251133,50972
2096921,2096921,451959,251061,51075
2096921,2096921,452142,251207,50933
2096921,2096921,452110,251215,51059
2096921,2096921,452228,251157,50972
2096921,2096921,452408,251234,50933
2096921,2096921,452451,251254,50972
2096921,2096921,452332,251389,51059
2096921,2096921,452142,251277,50972
2096921,2096921,452429,251169,50972
2096921,2096921,452477,251283,51706
2096921,2096921,452622,251327,51146
2096921,2096921,452648,251283,50972
2096921,2096921,452766,251305,50972
2096921,2096921,452710,251410,50972
2096921,2096921,452675,251393,51107
2096921,2096921,452434,251327,51020
2096921,2096921,452728,251175,50972
2096921,2096921,452971,251349,50972
2096921,2096921,453046,251371,51201
2096921,2096921,452979,251484,51020
2096921,2096921,453226,251552,50972
2096921,2096921,453258,251652,50972
