2096921,2096921, 167720, 677373
2096921,2096921, 167809, 677578
2096921,2096921, 167943, 677345
2096921,2096921, 167526, 677808
2096921,2096921, 167926, 676865
2096921,2096921, 167735, 676715
2096921,2096921, 167754, 676977
2096921,2096921, 167811, 677066
2096921,2096921, 167462, 676599
2096921,2096921, 167275, 675528
2096921,2096921, 167117, 675204
2096921,2096921, 167051, 674574
2096921,2096921, 166974, 675115
2096921,2096921, 166932, 675478
2096921,2096921, 167050, 673838
2096921,2096921, 166786, 673474
2096921,2096921, 166735, 673519
2096921,2096921, 166995, 673613
2096921,2096921, 166400, 673446
2096921,2096921, 166292, 671853
2096921,2096921, 166037, 671192
2096921,2096921, 166220, 671174
2096921,2096921, 166282, 671261
2096921,2096921, 165238, 671386
2096921,2096921, 165002, 667504
2096921,2096921, 164777, 666851
2096921,2096921, 164816, 666814
2096921,2096921, 164944, 666759
2096921,2096921, 163699, 667071
2096921,2096921, 163105, 662705
2096921,2096921, 162839, 661638
2096921,2096921, 163176, 661228
2096921,2096921, 163326, 661195
2096921,2096921, 162432, 661522
2096921,2096921, 162114, 658419
2096921,2096921, 162232, 657488
2096921,2096921, 161914, 657296
2096921,2096921, 161852, 657369
2096921,2096921, 160976, 657122
2096921,2096921, 161159, 654824
2096921,2096921, 160957, 654179
2096921,2096921, 160999, 653901
2096921,2096921, 161056, 653837
2096921,2096921, 160856, 654159
2096921,2096921, 160707, 652392
2096921,2096921, 160690, 652026
2096921,2096921, 160644, 651738
2096921,2096921, 160519, 651992
2096921,2096921, 160073, 651405
2096921,2096921, 159905, 650349
2096921,2096921, 160044, 650197
2096921,2096921, 160086, 650115
2096921,2096921, 160071, 650101
2096921,2096921, 159757, 650121
2096921,2096921, 159570, 649348
2096921,2096921, 159343, 649135
2096921,2096921, 159385, 649203
2096921,2096921, 159573, 648791
2096921,2096921, 159662, 648638
2096921,2096921, 159439, 648155
2096921,2096921, 159320, 648039
2096921,2096921, 159556, 647939
2096921,2096921, 159484, 648226
2096921,2096921, 159278, 648344
2096921,2096921, 159485, 648040
2096921,2096921, 159205, 647973
2096921,2096921, 159292, 648013
2096921,2096921, 159219, 647958
2096921,2096921, 159084, 647941
2096921,2096921, 158976, 647834
2096921,2096921, 159151, 647857
2096921,2096921, 158964, 647868
2096921,2096921, 159019, 647773
2096921,2096921, 159414, 647833
2096921,2096921, 159540, 648307
2096921,2096921, 159500, 648435
2096921,2096921, 159846, 648347
2096921,2096921, 159640, 648380
2096921,2096921, 159478, 648284
2096921,2096921, 159484, 648660
2096921,2096921, 159423, 648472
2096921,2096921, 159526, 648354
2096921,2096921, 159683, 648752
2096921,2096921, 159441, 648757
2096921,2096921, 159822, 649338
2096921,2096921, 159974, 649143
2096921,2096921, 159594, 649219
2096921,2096921, 159688, 649334
2096921,2096921, 159888, 648940
2096921,2096921, 160003, 649801
2096921,2096921, 159950, 650141
2096921,2096921, 159766, 649799
2096921,2096921, 159548, 650020
2096921,2096921, 160072, 649916
2096921,2096921, 160076, 650829
2096921,2096921, 160296, 650778
2096921,2096921, 160255, 650941
2096921,2096921, 160377, 650679
2096921,2096921, 160222, 650866
2096921,2096921, 160463, 651593
2096921,2096921, 160750, 652146
2096921,2096921, 160312, 652043
2096921,2096921, 160342, 652092
2096921,2096921, 160789, 652174
2096921,2096921, 160968, 652906
2096921,2096921, 160732, 653280
2096921,2096921, 160702, 653199
2096921,2096921, 160766, 653337
2096921,2096921, 160973, 652986
2096921,2096921, 161246, 653819
2096921,2096921, 161099, 654143
2096921,2096921, 161065, 653911
2096921,2096921, 161192, 654061
2096921,2096921, 161181, 654134
2096921,2096921, 161663, 655124
2096921,2096921, 161113, 654794
2096921,2096921, 161447, 654942
2096921,2096921, 161053, 655112
2096921,2096921, 161431, 654860
2096921,2096921, 161517, 655599
2096921,2096921, 161438, 656048
2096921,2096921, 161581, 655912
2096921,2096921, 161291, 655998
2096921,2096921, 161788, 656081
2096921,2096921, 161914, 656767
2096921,2096921, 161944, 657124
2096921,2096921, 162044, 657593
2096921,2096921, 162061, 657113
2096921,2096921, 161954, 657114
2096921,2096921, 162168, 657969
2096921,2096921, 162460, 658078
2096921,2096921, 162051, 657968
2096921,2096921, 162127, 658357
2096921,2096921, 162673, 658537
2096921,2096921, 162496, 659553
2096921,2096921, 162921, 659516
2096921,2096921, 162765, 659299
2096921,2096921, 162726, 659504
2096921,2096921, 162731, 659404
2096921,2096921, 162682, 660132
2096921,2096921, 162439, 660578
2096921,2096921, 162924, 660581
2096921,2096921, 162931, 660514
2096921,2096921, 162955, 660430
2096921,2096921, 163376, 661336
2096921,2096921, 163313, 661405
2096921,2096921, 163518, 661765
2096921,2096921, 163588, 661505
2096921,2096921, 163426, 661439
2096921,2096921, 163186, 662028
2096921,2096921, 163477, 662460
2096921,2096921, 163480, 662402
2096921,2096921, 163557, 662667
2096921,2096921, 163953, 662752
2096921,2096921, 163908, 663226
2096921,2096921, 163770, 663015
2096921,2096921, 163841, 663202
2096921,2096921, 164021, 663057
2096921,2096921, 163911, 663179
2096921,2096921, 163666, 663493
2096921,2096921, 163729, 663881
2096921,2096921, 163698, 663743
2096921,2096921, 164092, 664001
2096921,2096921, 164139, 663751
2096921,2096921, 163860, 664421
2096921,2096921, 163978, 664793
2096921,2096921, 164284, 664729
2096921,2096921, 164246, 664563
2096921,2096921, 164052, 664574
2096921,2096921, 164245, 664810
2096921,2096921, 164010, 664916
2096921,2096921, 163743, 664552
2096921,2096921, 163846, 664649
2096921,2096921, 163987, 664759
2096921,2096921, 164138, 665268
2096921,2096921, 164339, 665473
2096921,2096921, 164231, 665172
2096921,2096921, 164357, 665438
2096921,2096921, 164111, 665130
2096921,2096921, 164238, 665051
2096921,2096921, 164127, 664967
2096921,2096921, 164135, 664903
2096921,2096921, 164171, 664768
2096921,2096921, 164332, 665240
2096921,2096921, 164397, 665183
2096921,2096921, 164270, 665327
2096921,2096921, 164455, 665518
2096921,2096921, 164178, 665086
2096921,2096921, 164299, 665295
2096921,2096921, 164301, 665120
2096921,2096921, 163908, 664844
2096921,2096921, 164188, 664542
2096921,2096921, 164151, 665172
2096921,2096921, 164162, 665014
2096921,2096921, 164068, 664988
2096921,2096921, 164193, 664874
2096921,2096921, 164499, 665125
2096921,2096921, 164220, 664733
2096921,2096921, 163929, 664938
2096921,2096921, 164059, 664632
2096921,2096921, 164013, 664690
2096921,2096921, 163924, 664752
2096921,2096921, 164026, 664257
2096921,2096921, 163902, 664783
2096921,2096921, 163937, 664913
2096921,2096921, 164290, 664786
2096921,2096921, 164027, 664491
2096921,2096921, 164076, 664300
2096921,2096921, 163890, 664598
2096921,2096921, 164030, 664403
2096921,2096921, 164010, 664348
2096921,2096921, 163859, 664401
2096921,2096921, 164007, 664562
2096921,2096921, 164081, 664806
2096921,2096921, 164145, 665039
2096921,2096921, 164178, 665157
2096921,2096921, 164210, 664931
2096921,2096921, 164317, 665467
2096921,2096921, 164328, 664910
2096921,2096921, 164094, 664862
2096921,2096921, 164204, 664821
2096921,2096921, 164093, 664925
2096921,2096921, 164187, 665113
2096921,2096921, 164246, 665341
2096921,2096921, 164595, 665605
2096921,2096921, 164392, 665687
2096921,2096921, 164432, 665920
2096921,2096921, 164417, 665803
2096921,2096921, 164203, 665683
2096921,2096921, 164300, 665879
2096921,2096921, 164502, 665882
2096921,2096921, 164246, 665817
2096921,2096921, 163985, 665719
2096921,2096921, 164357, 666091
2096921,2096921, 164752, 666873
2096921,2096921, 164998, 667148
2096921,2096921, 164943, 667163
2096921,2096921, 164675, 666969
2096921,2096921, 164900, 667255
2096921,2096921, 165165, 667661
2096921,2096921, 164969, 668113
2096921,2096921, 164834, 667922
2096921,2096921, 164927, 668231
2096921,2096921, 164999, 668004
2096921,2096921, 165229, 668830
2096921,2096921, 165171, 668953
2096921,2096921, 165070, 668740
2096921,2096921, 165337, 668954
2096921,2096921, 165110, 668725
2096921,2096921, 165391, 669425
2096921,2096921, 165117, 669741
2096921,2096921, 165354, 669673
2096921,2096921, 165665, 669590
2096921,2096921, 165423, 669414
2096921,2096921, 165530, 670444
2096921,2096921, 165592, 670758
2096921,2096921, 165651, 670946
2096921,2096921, 165580, 670895
2096921,2096921, 165575, 670489
2096921,2096921, 166046, 671267
2096921,2096921, 165759, 671187
2096921,2096921, 165890, 671264
2096921,2096921, 165884, 671566
2096921,2096921, 166315, 671692
2096921,2096921, 166416, 672139
2096921,2096921, 166069, 672097
2096921,2096921, 166374, 672450
2096921,2096921, 166415, 672137
2096921,2096921, 166414, 672046
2096921,2096921, 166103, 672513
2096921,2096921, 166596, 672659
2096921,2096921, 166334, 672690
2096921,2096921, 166405, 672854
2096921,2096921, 166571, 672912
2096921,2096921, 166518, 673608
2096921,2096921, 166722, 673717
2096921,2096921, 166705, 673826
2096921,2096921, 166544, 673759
2096921,2096921, 166650, 673928
2096921,2096921, 166880, 674612
2096921,2096921, 166895, 674626
2096921,2096921, 166822, 674732
2096921,2096921, 166917, 674307
2096921,2096921, 167111, 674973
2096921,2096921, 167157, 675356
2096921,2096921, 167179, 675351
2096921,2096921, 167337, 675271
2096921,2096921, 167088, 675497
2096921,2096921, 167216, 675388
2096921,2096921, 167354, 676073
2096921,2096921, 167001, 676363
2096921,2096921, 166957, 676227
2096921,2096921, 167094, 676135
2096921,2096921, 167170, 676408
2096921,2096921, 167555, 676967
2096921,2096921, 167366, 676655
2096921,2096921, 167531, 676954
2096921,2096921, 167596, 676917
2096921,2096921, 167673, 676998
2096921,2096921, 167412, 677586
2096921,2096921, 167531, 677552
2096921,2096921, 167992, 677753
2096921,2096921, 167799, 677715
2096921,2096921, 167795, 677996
2096921,2096921, 167748, 678599
2096921,2096921, 168074, 678851
2096921,2096921, 167942, 678624
2096921,2096921, 167758, 678382
2096921,2096921, 167651, 678734
2096921,2096921, 167838, 679158
2096921,2096921, 168018, 678976
2096921,2096921, 167910, 679139
2096921,2096921, 168103, 679266
2096921,2096921, 168324, 679324
2096921,2096921, 168257, 679646
2096921,2096921, 168072, 679672
2096921,2096921, 168350, 679730
2096921,2096921, 168353, 679997
2096921,2096921, 168708, 680100
2096921,2096921, 168672, 680094
2096921,2096921, 168714, 680354
2096921,2096921, 168609, 680510
2096921,2096921, 168652, 680749
2096921,2096921, 168655, 680537
2096921,2096921, 168738, 681129
2096921,2096921, 168820, 681110
2096921,2096921, 168746, 680965
2096921,2096921, 168711, 681432
2096921,2096921, 168700, 681225
2096921,2096921, 168893, 681580
2096921,2096921, 169015, 681710
2096921,2096921, 168926, 681430
2096921,2096921, 168892, 681584
2096921,2096921, 169132, 682042
2096921,2096921, 169388, 682527
2096921,2096921, 169115, 682541
2096921,2096921, 168931, 682777
2096921,2096921, 169201, 682558
2096921,2096921, 169051, 682286
2096921,2096921, 169010, 682520
2096921,2096921, 169060, 682626
2096921,2096921, 168800, 682763
2096921,2096921, 168806, 682657
2096921,2096921, 169040, 682816
2096921,2096921, 169176, 683436
2096921,2096921, 169283, 683616
2096921,2096921, 169339, 683447
2096921,2096921, 169407, 683469
2096921,2096921, 169448, 683484
2096921,2096921, 169316, 683743
2096921,2096921, 169369, 683867
2096921,2096921, 169681, 683860
2096921,2096921, 169488, 684084
2096921,2096921, 169594, 684418
2096921,2096921, 169527, 684585
2096921,2096921, 169713, 684942
2096921,2096921, 169868, 684720
2096921,2096921, 170081, 684946
2096921,2096921, 169573, 684643
2096921,2096921, 169515, 684915
2096921,2096921, 169576, 684889
2096921,2096921, 169579, 685117
2096921,2096921, 169562, 685009
2096921,2096921, 169657, 685260
2096921,2096921, 169968, 685805
2096921,2096921, 170255, 685764
2096921,2096921, 170107, 685859
2096921,2096921, 170047, 685793
2096921,2096921, 170176, 685739
2096921,2096921, 169971, 686180
2096921,2096921, 170064, 686301
2096921,2096921, 169959, 686212
2096921,2096921, 170002, 686197
2096921,2096921, 170326, 686224
2096921,2096921, 170416, 686724
2096921,2096921, 170155, 686686
2096921,2096921, 170189, 686728
2096921,2096921, 170219, 686738
2096921,2096921, 170411, 686705
2096921,2096921, 170162, 686859
2096921,2096921, 170273, 686980
2096921,2096921, 170223, 687272
2096921,2096921, 170098, 687246
2096921,2096921, 170321, 687493
2096921,2096921, 170526, 687655
2096921,2096921, 170556, 687610
2096921,2096921, 170613, 687545
2096921,2096921, 170576, 687782
2096921,2096921, 170355, 687585
2096921,2096921, 170526, 688193
2096921,2096921, 170499, 688014
2096921,2096921, 170643, 687878
2096921,2096921, 170545, 688176
2096921,2096921, 170813, 688026
2096921,2096921, 171068, 688559
2096921,2096921, 170851, 688706
2096921,2096921, 170711, 688793
2096921,2096921, 170800, 688723
2096921,2096921, 170795, 688961
2096921,2096921, 170729, 688804
2096921,2096921, 170928, 688898
2096921,2096921, 170917, 688815
2096921,2096921, 170843, 688975
2096921,2096921, 170891, 689052
2096921,2096921, 171241, 689344
2096921,2096921, 171049, 689419
2096921,2096921, 170886, 689635
2096921,2096921, 171042, 689824
2096921,2096921, 171078, 689740
2096921,2096921, 171058, 689851
2096921,2096921, 171022, 690036
2096921,2096921, 171099, 689863
2096921,2096921, 171219, 689647
2096921,2096921, 171284, 690162
2096921,2096921, 171331, 690187
2096921,2096921, 171453, 690240
2096921,2096921, 171281, 690223
2096921,2096921, 171142, 690402
2096921,2096921, 171250, 690295
2096921,2096921, 171104, 690464
2096921,2096921, 171265, 690833
2096921,2096921, 171151, 690816
2096921,2096921, 171587, 690742
2096921,2096921, 171465, 690630
2096921,2096921, 171697, 691170
2096921,2096921, 171461, 691090
2096921,2096921, 171620, 691418
2096921,2096921, 171363, 691257
2096921,2096921, 171452, 691074
2096921,2096921, 171053, 691326
2096921,2096921, 171472, 691560
2096921,2096921, 171541, 691682
2096921,2096921, 171544, 691937
2096921,2096921, 171724, 691960
2096921,2096921, 171894, 692030
2096921,2096921, 171682, 692140
2096921,2096921, 171975, 691965
2096921,2096921, 171899, 692067
2096921,2096921, 171513, 691805
2096921,2096921, 171321, 692681
2096921,2096921, 171556, 692320
2096921,2096921, 171655, 692331
2096921,2096921, 171727, 692369
2096921,2096921, 171895, 692485
2096921,2096921, 171803, 692774
2096921,2096921, 171700, 692899
2096921,2096921, 171563, 692598
2096921,2096921, 171675, 692564
2096921,2096921, 171766, 692677
2096921,2096921, 171753, 692918
2096921,2096921, 171986, 692951
2096921,2096921, 171942, 692743
2096921,2096921, 171800, 692930
2096921,2096921, 171948, 692864
2096921,2096921, 171763, 693005
2096921,2096921, 171938, 693203
2096921,2096921, 171979, 693083
2096921,2096921, 171976, 693176
2096921,2096921, 172072, 693364
2096921,2096921, 172026, 693312
2096921,2096921, 172019, 693536
2096921,2096921, 172105, 693613
2096921,2096921, 171968, 693720
2096921,2096921, 172315, 693533
2096921,2096921, 172062, 693996
2096921,2096921, 172047, 693812
2096921,2096921, 172035, 693880
2096921,2096921, 172047, 694044
2096921,2096921, 172032, 693499
2096921,2096921, 172151, 693822
2096921,2096921, 172050, 693788
2096921,2096921, 171943, 693883
2096921,2096921, 172266, 694068
2096921,2096921, 172278, 693956
2096921,2096921, 172411, 694426
2096921,2096921, 172129, 694360
2096921,2096921, 172131, 694513
2096921,2096921, 172174, 694424
2096921,2096921, 172303, 694055
2096921,2096921, 172440, 694254
2096921,2096921, 172430, 694531
2096921,2096921, 172144, 694281
2096921,2096921, 172367, 694352
2096921,2096921, 172389, 694650
2096921,2096921, 172462, 694780
2096921,2096921, 172513, 694794
2096921,2096921, 172433, 694833
2096921,2096921, 172356, 694650
2096921,2096921, 172342, 694746
2096921,2096921, 172324, 694776
2096921,2096921, 172554, 694863
2096921,2096921, 172494, 694878
2096921,2096921, 172631, 694757
2096921,2096921, 172433, 695044
2096921,2096921, 172474, 695043
2096921,2096921, 172591, 695215
2096921,2096921, 172697, 695343
2096921,2096921, 172781, 695274
2096921,2096921, 172250, 695073
2096921,2096921, 172180, 694523
2096921,2096921, 172259, 694316
2096921,2096921, 172113, 694387
2096921,2096921, 172155, 694409
2096921,2096921, 172028, 694429
2096921,2096921, 171993, 694234
2096921,2096921, 171861, 694087
2096921,2096921, 172007, 694072
2096921,2096921, 172300, 693916
2096921,2096921, 171817, 693594
2096921,2096921, 171940, 692747
2096921,2096921, 171950, 692653
2096921,2096921, 171867, 692360
2096921,2096921, 171557, 692284
2096921,2096921, 171433, 692562
2096921,2096921, 171229, 691312
2096921,2096921, 171076, 691122
2096921,2096921, 171267, 690771
2096921,2096921, 171269, 691033
2096921,2096921, 170829, 690870
2096921,2096921, 170574, 689414
2096921,2096921, 170622, 689014
2096921,2096921, 170676, 689056
2096921,2096921, 170644, 688955
2096921,2096921, 169776, 689128
2096921,2096921, 169560, 685291
2096921,2096921, 169739, 684812
2096921,2096921, 169326, 684626
2096921,2096921, 169219, 684331
2096921,2096921, 168116, 684388
2096921,2096921, 167505, 679935
2096921,2096921, 167589, 679234
2096921,2096921, 167771, 678760
2096921,2096921, 167659, 679170
2096921,2096921, 166860, 679012
2096921,2096921, 167060, 675683
2096921,2096921, 166617, 674988
2096921,2096921, 166524, 675010
2096921,2096921, 166527, 674507
2096921,2096921, 165850, 674709
2096921,2096921, 165523, 672333
2096921,2096921, 165462, 671861
2096921,2096921, 165518, 671556
2096921,2096921, 165388, 671733
2096921,2096921, 165213, 671873
2096921,2096921, 165212, 670402
2096921,2096921, 165258, 669759
2096921,2096921, 165189, 669727
2096921,2096921, 164896, 669660
2096921,2096921, 164550, 669684
2096921,2096921, 164411, 668274
2096921,2096921, 164432, 667822
2096921,2096921, 164397, 667909
2096921,2096921, 164482, 668237
2096921,2096921, 164263, 668160
2096921,2096921, 163915, 667439
2096921,2096921, 164144, 667186
2096921,2096921, 164360, 667093
2096921,2096921, 164427, 667144
2096921,2096921, 164202, 667010
2096921,2096921, 163915, 666411
2096921,2096921, 164084, 666244
2096921,2096921, 164024, 666091
2096921,2096921, 164160, 666203
2096921,2096921, 163981, 666534
2096921,2096921, 163897, 666130
2096921,2096921, 164163, 666205
2096921,2096921, 164088, 666035
2096921,2096921, 164080, 666346
2096921,2096921, 163943, 666296
2096921,2096921, 164090, 666103
2096921,2096921, 163795, 666560
2096921,2096921, 164005, 666338
2096921,2096921, 164306, 666331
2096921,2096921, 164341, 666604
2096921,2096921, 164367, 666922
2096921,2096921, 164625, 666906
2096921,2096921, 164363, 667049
2096921,2096921, 164168, 667283
2096921,2096921, 164017, 666592
2096921,2096921, 164485, 667143
2096921,2096921, 164352, 667349
2096921,2096921, 164367, 667593
2096921,2096921, 164321, 667490
2096921,2096921, 164650, 667493
2096921,2096921, 164584, 668122
2096921,2096921, 164850, 667991
2096921,2096921, 164852, 668344
2096921,2096921, 164337, 667955
2096921,2096921, 164752, 667854
2096921,2096921, 164541, 668519
2096921,2096921, 164634, 668698
2096921,2096921, 164645, 668595
2096921,2096921, 164765, 668825
2096921,2096921, 164838, 668874
2096921,2096921, 165056, 669944
2096921,2096921, 165284, 670271
2096921,2096921, 165121, 670364
2096921,2096921, 165001, 670032
2096921,2096921, 165391, 669745
2096921,2096921, 165458, 670785
2096921,2096921, 165142, 670712
2096921,2096921, 165211, 670988
2096921,2096921, 165214, 671079
2096921,2096921, 165476, 670861
2096921,2096921, 165745, 671795
2096921,2096921, 165781, 672250
2096921,2096921, 165737, 672288
2096921,2096921, 165698, 672270
2096921,2096921, 165755, 672262
2096921,2096921, 165755, 672946
2096921,2096921, 166016, 673397
2096921,2096921, 165927, 673297
2096921,2096921, 165825, 673142
2096921,2096921, 166202, 673154
2096921,2096921, 166118, 674153
2096921,2096921, 166274, 674280
2096921,2096921, 166331, 674191
2096921,2096921, 166162, 673938
2096921,2096921, 166765, 673823
2096921,2096921, 166506, 674797
2096921,2096921, 166480, 675090
2096921,2096921, 166508, 675044
2096921,2096921, 166595, 675106
2096921,2096921, 167117, 675523
2096921,2096921, 167268, 676361
2096921,2096921, 167128, 676382
2096921,2096921, 167015, 676389
2096921,2096921, 167082, 676657
2096921,2096921, 167148, 676562
2096921,2096921, 167220, 677026
2096921,2096921, 167293, 677098
2096921,2096921, 167030, 677455
2096921,2096921, 167220, 677691
2096921,2096921, 167385, 677581
2096921,2096921, 167178, 678467
2096921,2096921, 167299, 678810
2096921,2096921, 167269, 678697
2096921,2096921, 167519, 678541
2096921,2096921, 167475, 678512
2096921,2096921, 167725, 679570
2096921,2096921, 167852, 679330
2096921,2096921, 167677, 679220
2096921,2096921, 167951, 679400
2096921,2096921, 168268, 679675
2096921,2096921, 168274, 680324
2096921,2096921, 168213, 680600
2096921,2096921, 168281, 680773
2096921,2096921, 168036, 681079
2096921,2096921, 168353, 680682
2096921,2096921, 168469, 681215
2096921,2096921, 168052, 681306
2096921,2096921, 168220, 681349
2096921,2096921, 168338, 681013
2096921,2096921, 168532, 681516
2096921,2096921, 168429, 682176
2096921,2096921, 168833, 682239
2096921,2096921, 168923, 682514
2096921,2096921, 168662, 682405
2096921,2096921, 168620, 682472
2096921,2096921, 168460, 682682
2096921,2096921, 168469, 683153
2096921,2096921, 168831, 683078
2096921,2096921, 169111, 682902
2096921,2096921, 168994, 683090
2096921,2096921, 169187, 683500
2096921,2096921, 169136, 683658
2096921,2096921, 169221, 683545
2096921,2096921, 169161, 683439
2096921,2096921, 168965, 683313
2096921,2096921, 168827, 683705
2096921,2096921, 168932, 683921
2096921,2096921, 169012, 683821
2096921,2096921, 169251, 683938
2096921,2096921, 169022, 683697
2096921,2096921, 169116, 683784
2096921,2096921, 169199, 683852
2096921,2096921, 169403, 683545
2096921,2096921, 169098, 684022
2096921,2096921, 168965, 683821
2096921,2096921, 169162, 683679
2096921,2096921, 168993, 683719
2096921,2096921, 168936, 683762
2096921,2096921, 169125, 683583
2096921,2096921, 169151, 683835
2096921,2096921, 169153, 683857
2096921,2096921, 169195, 683876
2096921,2096921, 169034, 683563
2096921,2096921, 168670, 683690
2096921,2096921, 168902, 683691
2096921,2096921, 168819, 683363
2096921,2096921, 168841, 683073
2096921,2096921, 169011, 682939
2096921,2096921, 168948, 683204
2096921,2096921, 168874, 682948
2096921,2096921, 168959, 683269
2096921,2096921, 168807, 683133
2096921,2096921, 168907, 683184
2096921,2096921, 168961, 682932
2096921,2096921, 168897, 683128
2096921,2096921, 168363, 682662
2096921,2096921, 168620, 682671
2096921,2096921, 168444, 682496
2096921,2096921, 168555, 682470
2096921,2096921, 168916, 682650
2096921,2096921, 169039, 682278
2096921,2096921, 168636, 682364
2096921,2096921, 168364, 682352
2096921,2096921, 168734, 681982
2096921,2096921, 168534, 682213
2096921,2096921, 168655, 681852
2096921,2096921, 168323, 682078
2096921,2096921, 168534, 682314
2096921,2096921, 168557, 682423
2096921,2096921, 168759, 682370
2096921,2096921, 168743, 682193
2096921,2096921, 168734, 681940
2096921,2096921, 168732, 682230
2096921,2096921, 168619, 682150
2096921,2096921, 168690, 682058
2096921,2096921, 168670, 682092
2096921,2096921, 168651, 682082
2096921,2096921, 168685, 682009
2096921,2096921, 168634, 682246
2096921,2096921, 168673, 682357
2096921,2096921, 168715, 682782
2096921,2096921, 168933, 682808
2096921,2096921, 168605, 682777
2096921,2096921, 168468, 682798
2096921,2096921, 168600, 682508
2096921,2096921, 168874, 682589
2096921,2096921, 168671, 682638
2096921,2096921, 168903, 682675
2096921,2096921, 168880, 682897
2096921,2096921, 168965, 682990
2096921,2096921, 169268, 683819
2096921,2096921, 169110, 683736
2096921,2096921, 169099, 683913
2096921,2096921, 168708, 683687
2096921,2096921, 169100, 683926
2096921,2096921, 169135, 684379
2096921,2096921, 169303, 684476
2096921,2096921, 169151, 684530
2096921,2096921, 169324, 684325
2096921,2096921, 169380, 684378
2096921,2096921, 169522, 685103
2096921,2096921, 169459, 685213
2096921,2096921, 169403, 685227
2096921,2096921, 169523, 685157
2096921,2096921, 169547, 685144
2096921,2096921, 169494, 685721
2096921,2096921, 169534, 685451
2096921,2096921, 169624, 685530
2096921,2096921, 169410, 685573
2096921,2096921, 169827, 685752
2096921,2096921, 169765, 686574
2096921,2096921, 169977, 686643
2096921,2096921, 169816, 686547
2096921,2096921, 169485, 686572
2096921,2096921, 169961, 686602
2096921,2096921, 169871, 686661
2096921,2096921, 169768, 686823
2096921,2096921, 169949, 686931
2096921,2096921, 169979, 687038
2096921,2096921, 170089, 686814
2096921,2096921, 169974, 687251
2096921,2096921, 170226, 687624
2096921,2096921, 170094, 687446
2096921,2096921, 169996, 687586
2096921,2096921, 170246, 687352
2096921,2096921, 170116, 687652
2096921,2096921, 170382, 688121
2096921,2096921, 170327, 688076
2096921,2096921, 170393, 687871
2096921,2096921, 170423, 688288
2096921,2096921, 170457, 688433
2096921,2096921, 170826, 689002
2096921,2096921, 170466, 688985
2096921,2096921, 170372, 688603
2096921,2096921, 170428, 688301
2096921,2096921, 170837, 688943
2096921,2096921, 170488, 689244
2096921,2096921, 170550, 689302
2096921,2096921, 170422, 689523
2096921,2096921, 170751, 689643
2096921,2096921, 170822, 689820
2096921,2096921, 170945, 689881
2096921,2096921, 170769, 689634
2096921,2096921, 170900, 689674
2096921,2096921, 170892, 689741
2096921,2096921, 170971, 690127
2096921,2096921, 170984, 690300
2096921,2096921, 170703, 690133
2096921,2096921, 170612, 690255
2096921,2096921, 171194, 690366
2096921,2096921, 171520, 690878
2096921,2096921, 171240, 690659
2096921,2096921, 170977, 691073
2096921,2096921, 170855, 691150
2096921,2096921, 171217, 691113
2096921,2096921, 171242, 691142
2096921,2096921, 171136, 691160
2096921,2096921, 171208, 691413
2096921,2096921, 171348, 691373
2096921,2096921, 171581, 691619
2096921,2096921, 171317, 692197
2096921,2096921, 171475, 692394
2096921,2096921, 171329, 692249
2096921,2096921, 171337, 692201
2096921,2096921, 171475, 692147
2096921,2096921, 171606, 692313
2096921,2096921, 171581, 692323
2096921,2096921, 171317, 692174
2096921,2096921, 171699, 692278
2096921,2096921, 171845, 692626
2096921,2096921, 171876, 693136
2096921,2096921, 171858, 693030
2096921,2096921, 171756, 693042
2096921,2096921, 171806, 692850
2096921,2096921, 171898, 693080
2096921,2096921, 171787, 693232
2096921,2096921, 171577, 693567
2096921,2096921, 171872, 693429
2096921,2096921, 171797, 693312
2096921,2096921, 171878, 693341
2096921,2096921, 172270, 693628
2096921,2096921, 171889, 693585
2096921,2096921, 171853, 693907
2096921,2096921, 171952, 693922
2096921,2096921, 171859, 693819
2096921,2096921, 171570, 693880
2096921,2096921, 171892, 693938
2096921,2096921, 172177, 694128
2096921,2096921, 172060, 694218
2096921,2096921, 171950, 694088
2096921,2096921, 172113, 694477
2096921,2096921, 172252, 694502
2096921,2096921, 172137, 694580
2096921,2096921, 172362, 694450
2096921,2096921, 172167, 694321
2096921,2096921, 172123, 694851
2096921,2096921, 172128, 694626
2096921,2096921, 172135, 694468
2096921,2096921, 172236, 694626
2096921,2096921, 172406, 694823
2096921,2096921, 172270, 695157
2096921,2096921, 172211, 695414
2096921,2096921, 172393, 695296
2096921,2096921, 172428, 695207
2096921,2096921, 172564, 695245
2096921,2096921, 172209, 695307
2096921,2096921, 172051, 695430
2096921,2096921, 172145, 695385
2096921,2096921, 172454, 695217
2096921,2096921, 172662, 695318
2096921,2096921, 172942, 695709
2096921,2096921, 172904, 695863
2096921,2096921, 172681, 696069
2096921,2096921, 172453, 695755
2096921,2096921, 172621, 695387
2096921,2096921, 172109, 695743
2096921,2096921, 172395, 695772
2096921,2096921, 172648, 695845
2096921,2096921, 172513, 696069
2096921,2096921, 172521, 695881
2096921,2096921, 172498, 696110
2096921,2096921, 172761, 696041
2096921,2096921, 172602, 696115
2096921,2096921, 172382, 695957
2096921,2096921, 172660, 696104
2096921,2096921, 172544, 696291
2096921,2096921, 172559, 695964
2096921,2096921, 172737, 696072
2096921,2096921, 172518, 696208
2096921,2096921, 172820, 696484
2096921,2096921, 173102, 696824
2096921,2096921, 173145, 696503
2096921,2096921, 173017, 696698
2096921,2096921, 172812, 696385
2096921,2096921, 172561, 696447
2096921,2096921, 172346, 696606
2096921,2096921, 172491, 696506
2096921,2096921, 172646, 696361
2096921,2096921, 172742, 696649
2096921,2096921, 172945, 696555
2096921,2096921, 172985, 696718
2096921,2096921, 173025, 697045
2096921,2096921, 172742, 696724
2096921,2096921, 172762, 696838
2096921,2096921, 172823, 696884
2096921,2096921, 173106, 696580
2096921,2096921, 172633, 696856
2096921,2096921, 172648, 696430
2096921,2096921, 172843, 696796
2096921,2096921, 173329, 696548
2096921,2096921, 173223, 696739
2096921,2096921, 172951, 696792
2096921,2096921, 172921, 697000
2096921,2096921, 172461, 697056
2096921,2096921, 172702, 696553
2096921,2096921, 172896, 696651
2096921,2096921, 172781, 697082
2096921,2096921, 173053, 696964
2096921,2096921, 173197, 697017
2096921,2096921, 172879, 696929
2096921,2096921, 172922, 697021
2096921,2096921, 172874, 697291
2096921,2096921, 172988, 697178
2096921,2096921, 172793, 697129
2096921,2096921, 172979, 697307
2096921,2096921, 173006, 697162
2096921,2096921, 172888, 697420
2096921,2096921, 172811, 697255
2096921,2096921, 173127, 697160
2096921,2096921, 173271, 697336
2096921,2096921, 173111, 697265
2096921,2096921, 173107, 697209
2096921,2096921, 173124, 697164
2096921,2096921, 172924, 697398
2096921,2096921, 172903, 697358
2096921,2096921, 172765, 697049
2096921,2096921, 173066, 697369
2096921,2096921, 172935, 697211
2096921,2096921, 173073, 697349
2096921,2096921, 172987, 697518
2096921,2096921, 173345, 697261
2096921,2096921, 173109, 697267
2096921,2096921, 173278, 697251
2096921,2096921, 172969, 697302
2096921,2096921, 173130, 697482
2096921,2096921, 172781, 697178
2096921,2096921, 172755, 697273
2096921,2096921, 172929, 697167
2096921,2096921, 172988, 697345
2096921,2096921, 173007, 697646
2096921,2096921, 173151, 697636
2096921,2096921, 173102, 697282
2096921,2096921, 172974, 697182
2096921,2096921, 173100, 697355
2096921,2096921, 172817, 697133
2096921,2096921, 172838, 697164
2096921,2096921, 172988, 696921
2096921,2096921, 173094, 696925
2096921,2096921, 172641, 696908
2096921,2096921, 172940, 697130
2096921,2096921, 172701, 697035
2096921,2096921, 173083, 697060
2096921,2096921, 173128, 697410
2096921,2096921, 173099, 697120
2096921,2096921, 172801, 697319
2096921,2096921, 172928, 697217
2096921,2096921, 172983, 697113
2096921,2096921, 172881, 696807
2096921,2096921, 173107, 697080
2096921,2096921, 173078, 696986
2096921,2096921, 173182, 697020
2096921,2096921, 173159, 697126
2096921,2096921, 173461, 696924
2096921,2096921, 172860, 696973
2096921,2096921, 172813, 697015
2096921,2096921, 172811, 696784
2096921,2096921, 173024, 696885
2096921,2096921, 172909, 696513
2096921,2096921, 172608, 696937
2096921,2096921, 173001, 696779
2096921,2096921, 172761, 696702
2096921,2096921, 173156, 696699
2096921,2096921, 173226, 696977
2096921,2096921, 172996, 696380
2096921,2096921, 172578, 696605
2096921,2096921, 172635, 696147
2096921,2096921, 172615, 696065
2096921,2096921, 172783, 696015
2096921,2096921, 172896, 696117
2096921,2096921, 173187, 696344
2096921,2096921, 172832, 696610
2096921,2096921, 172802, 696375
2096921,2096921, 172889, 696442
2096921,2096921, 172728, 696155
2096921,2096921, 172715, 696072
2096921,2096921, 172784, 695806
2096921,2096921, 172723, 695740
2096921,2096921, 172651, 695922
2096921,2096921, 172730, 695898
2096921,2096921, 172356, 696390
2096921,2096921, 172304, 695777
2096921,2096921, 172748, 695758
2096921,2096921, 172700, 695890
2096921,2096921, 172682, 696050
2096921,2096921, 172322, 696104
2096921,2096921, 172706, 695350
2096921,2096921, 172315, 695643
2096921,2096921, 172655, 695443
2096921,2096921, 172759, 695123
2096921,2096921, 172587, 695409
2096921,2096921, 172604, 695660
2096921,2096921, 172839, 695158
2096921,2096921, 172760, 695505
2096921,2096921, 172585, 695349
2096921,2096921, 172392, 695407
2096921,2096921, 172214, 694278
2096921,2096921, 171914, 694402
2096921,2096921, 171946, 694358
2096921,2096921, 172328, 694245
2096921,2096921, 171959, 694569
2096921,2096921, 171812, 693574
2096921,2096921, 172053, 693055
2096921,2096921, 172105, 693141
2096921,2096921, 171775, 693158
2096921,2096921, 171345, 693105
2096921,2096921, 171149, 691492
2096921,2096921, 171087, 691177
2096921,2096921, 171396, 691190
2096921,2096921, 171564, 691176
2096921,2096921, 171277, 691409
2096921,2096921, 170734, 689669
2096921,2096921, 170747, 689736
2096921,2096921, 170758, 689497
2096921,2096921, 170732, 689315
2096921,2096921, 170148, 689197
2096921,2096921, 170209, 686957
2096921,2096921, 169863, 687121
2096921,2096921, 170063, 686780
2096921,2096921, 170136, 687102
2096921,2096921, 169158, 687043
2096921,2096921, 168908, 683188
2096921,2096921, 168865, 682489
2096921,2096921, 168614, 682211
2096921,2096921, 168749, 682528
2096921,2096921, 167437, 682246
2096921,2096921, 167091, 677366
2096921,2096921, 167031, 676333
2096921,2096921, 167020, 676021
2096921,2096921, 166983, 676054
2096921,2096921, 166167, 675986
2096921,2096921, 166058, 672593
2096921,2096921, 165984, 671736
2096921,2096921, 165860, 671775
2096921,2096921, 165548, 671721
2096921,2096921, 164654, 671499
2096921,2096921, 164781, 668793
2096921,2096921, 164649, 667973
2096921,2096921, 164556, 668172
2096921,2096921, 164575, 668059
2096921,2096921, 164264, 668343
2096921,2096921, 164092, 666188
2096921,2096921, 164073, 665780
2096921,2096921, 163728, 665758
2096921,2096921, 163931, 665704
2096921,2096921, 163353, 665563
2096921,2096921, 163451, 664191
2096921,2096921, 163206, 663640
2096921,2096921, 163180, 663660
2096921,2096921, 163520, 663605
2096921,2096921, 163261, 663628
2096921,2096921, 163115, 662637
2096921,2096921, 163246, 662290
2096921,2096921, 163089, 662339
2096921,2096921, 163004, 662252
2096921,2096921, 163037, 662263
2096921,2096921, 162866, 661380
2096921,2096921, 162776, 661259
2096921,2096921, 162699, 661050
2096921,2096921, 162932, 661232
2096921,2096921, 162783, 661333
2096921,2096921, 162798, 660855
2096921,2096921, 162948, 660951
2096921,2096921, 162646, 660682
2096921,2096921, 162492, 660801
2096921,2096921, 162329, 660650
2096921,2096921, 162396, 660531
2096921,2096921, 162432, 660377
2096921,2096921, 162646, 660674
2096921,2096921, 162869, 660458
2096921,2096921, 162613, 660209
2096921,2096921, 162408, 660701
2096921,2096921, 162705, 660535
2096921,2096921, 162929, 660753
2096921,2096921, 162739, 660762
2096921,2096921, 162636, 660525
2096921,2096921, 162499, 660762
2096921,2096921, 162464, 660702
2096921,2096921, 162253, 660782
2096921,2096921, 162461, 660799
2096921,2096921, 162728, 660731
2096921,2096921, 162566, 660995
2096921,2096921, 162899, 660986
2096921,2096921, 162664, 660919
2096921,2096921, 162483, 660805
2096921,2096921, 162820, 660750
2096921,2096921, 162470, 661169
2096921,2096921, 162585, 661346
2096921,2096921, 162822, 661448
2096921,2096921, 162755, 661284
2096921,2096921, 163110, 661638
2096921,2096921, 163122, 661988
2096921,2096921, 163171, 662418
2096921,2096921, 163012, 662357
2096921,2096921, 163187, 662069
2096921,2096921, 162841, 661857
2096921,2096921, 163140, 662847
2096921,2096921, 163213, 662884
2096921,2096921, 163234, 662705
2096921,2096921, 163236, 662870
2096921,2096921, 163330, 662873
2096921,2096921, 163566, 663737
2096921,2096921, 163523, 663913
2096921,2096921, 163693, 663999
2096921,2096921, 163492, 664002
2096921,2096921, 163552, 663803
2096921,2096921, 163506, 664421
2096921,2096921, 163342, 664231
2096921,2096921, 163202, 664370
2096921,2096921, 163937, 664067
2096921,2096921, 164051, 664415
2096921,2096921, 163676, 664923
2096921,2096921, 163989, 665090
2096921,2096921, 163938, 664931
2096921,2096921, 163858, 665262
2096921,2096921, 163930, 664966
2096921,2096921, 164104, 665342
2096921,2096921, 163906, 665702
2096921,2096921, 164029, 665773
2096921,2096921, 163900, 665735
2096921,2096921, 164256, 666045
2096921,2096921, 164467, 666262
2096921,2096921, 164590, 666475
2096921,2096921, 164350, 666560
2096921,2096921, 164232, 666276
2096921,2096921, 164397, 666276
2096921,2096921, 164607, 667063
2096921,2096921, 164220, 667301
2096921,2096921, 164431, 666948
2096921,2096921, 164723, 667372
2096921,2096921, 164886, 667395
2096921,2096921, 164837, 668122
2096921,2096921, 164970, 668032
2096921,2096921, 165203, 668114
2096921,2096921, 164806, 668450
2096921,2096921, 164899, 667866
2096921,2096921, 165140, 668458
2096921,2096921, 164633, 668802
2096921,2096921, 164745, 668844
2096921,2096921, 164923, 669004
2096921,2096921, 165365, 668980
2096921,2096921, 165534, 669483
2096921,2096921, 165456, 669700
2096921,2096921, 165281, 669822
2096921,2096921, 165125, 669718
2096921,2096921, 165424, 669646
2096921,2096921, 165395, 670177
2096921,2096921, 164964, 670048
2096921,2096921, 165575, 669876
2096921,2096921, 165288, 670098
2096921,2096921, 165842, 670405
2096921,2096921, 165636, 670280
2096921,2096921, 165899, 670397
2096921,2096921, 165560, 670933
2096921,2096921, 165794, 670463
2096921,2096921, 165321, 670495
2096921,2096921, 165340, 670783
2096921,2096921, 165536, 670829
2096921,2096921, 165451, 670789
2096921,2096921, 165682, 670877
2096921,2096921, 165963, 670902
2096921,2096921, 165546, 670926
2096921,2096921, 165749, 670866
2096921,2096921, 165780, 671321
2096921,2096921, 165379, 671187
2096921,2096921, 165892, 671188
2096921,2096921, 165764, 671452
2096921,2096921, 165487, 671484
2096921,2096921, 165558, 671277
2096921,2096921, 165758, 671303
2096921,2096921, 165790, 671266
2096921,2096921, 165620, 671055
2096921,2096921, 165750, 671284
2096921,2096921, 166070, 671167
2096921,2096921, 165606, 671312
2096921,2096921, 165800, 671028
2096921,2096921, 165672, 670886
2096921,2096921, 165499, 670651
2096921,2096921, 165586, 670943
2096921,2096921, 165860, 670904
2096921,2096921, 165427, 670653
2096921,2096921, 165558, 670629
2096921,2096921, 165924, 670605
2096921,2096921, 165813, 670392
2096921,2096921, 165585, 670460
2096921,2096921, 165725, 670348
2096921,2096921, 165203, 669654
2096921,2096921, 165138, 669597
2096921,2096921, 165021, 669563
2096921,2096921, 165559, 669720
2096921,2096921, 165440, 669786
2096921,2096921, 165438, 669416
2096921,2096921, 165371, 669467
2096921,2096921, 165502, 669464
2096921,2096921, 165408, 669165
2096921,2096921, 165039, 669353
2096921,2096921, 165230, 668607
2096921,2096921, 165124, 668500
2096921,2096921, 164741, 668401
2096921,2096921, 165250, 668639
2096921,2096921, 165371, 668885
2096921,2096921, 165184, 668383
2096921,2096921, 165297, 667938
2096921,2096921, 164927, 668338
2096921,2096921, 164641, 668252
2096921,2096921, 164798, 668128
2096921,2096921, 164736, 668086
2096921,2096921, 164745, 668028
2096921,2096921, 164912, 667973
2096921,2096921, 164729, 668165
2096921,2096921, 164795, 667462
2096921,2096921, 165104, 667677
2096921,2096921, 164905, 667613
2096921,2096921, 164796, 667676
2096921,2096921, 164675, 667760
2096921,2096921, 164850, 667376
2096921,2096921, 164789, 667513
2096921,2096921, 164726, 667610
2096921,2096921, 164766, 667276
2096921,2096921, 164565, 667610
2096921,2096921, 164757, 667898
2096921,2096921, 164961, 667649
2096921,2096921, 164554, 667595
2096921,2096921, 164673, 667528
2096921,2096921, 164592, 667563
2096921,2096921, 164558, 667610
2096921,2096921, 164639, 667505
2096921,2096921, 164499, 667520
2096921,2096921, 164716, 667568
2096921,2096921, 164654, 667632
2096921,2096921, 165144, 667439
2096921,2096921, 164948, 668079
2096921,2096921, 165237, 667816
2096921,2096921, 164887, 668079
2096921,2096921, 164815, 668101
2096921,2096921, 164743, 668090
2096921,2096921, 165121, 668265
2096921,2096921, 164887, 668589
2096921,2096921, 164963, 668319
2096921,2096921, 165371, 668362
2096921,2096921, 165071, 668656
2096921,2096921, 165196, 669231
2096921,2096921, 165388, 669335
2096921,2096921, 165083, 669011
2096921,2096921, 165085, 669191
2096921,2096921, 165230, 669094
2096921,2096921, 165380, 669313
2096921,2096921, 165233, 669590
2096921,2096921, 165508, 669526
2096921,2096921, 165369, 669389
2096921,2096921, 165688, 669366
2096921,2096921, 165606, 669788
2096921,2096921, 165663, 669951
2096921,2096921, 165452, 670082
2096921,2096921, 165589, 670147
2096921,2096921, 165409, 669976
2096921,2096921, 165474, 670109
2096921,2096921, 165441, 670368
2096921,2096921, 165489, 670279
2096921,2096921, 165892, 670182
2096921,2096921, 166194, 669971
2096921,2096921, 165933, 670531
2096921,2096921, 165997, 670628
2096921,2096921, 165912, 670675
2096921,2096921, 165782, 670465
2096921,2096921, 165719, 670627
2096921,2096921, 165968, 670637
2096921,2096921, 166003, 670690
2096921,2096921, 165650, 670763
2096921,2096921, 165958, 671114
2096921,2096921, 166064, 671224
2096921,2096921, 166038, 671023
2096921,2096921, 166047, 671309
2096921,2096921, 166005, 671347
2096921,2096921, 165779, 671348
2096921,2096921, 165753, 671111
2096921,2096921, 165960, 671765
2096921,2096921, 165785, 671689
2096921,2096921, 166122, 671827
2096921,2096921, 166268, 672038
2096921,2096921, 166038, 671737
2096921,2096921, 166176, 672111
2096921,2096921, 166213, 672275
2096921,2096921, 166257, 672383
2096921,2096921, 166006, 672635
2096921,2096921, 166387, 672243
2096921,2096921, 166079, 672368
2096921,2096921, 165952, 672447
2096921,2096921, 166167, 672262
2096921,2096921, 166277, 672347
2096921,2096921, 166287, 672480
2096921,2096921, 166424, 672864
2096921,2096921, 166672, 672766
2096921,2096921, 166407, 672897
2096921,2096921, 166336, 672960
2096921,2096921, 166558, 672520
2096921,2096921, 166567, 672974
2096921,2096921, 166365, 673108
2096921,2096921, 166513, 672871
2096921,2096921, 166402, 673085
2096921,2096921, 166952, 673077
2096921,2096921, 166661, 673238
2096921,2096921, 166744, 673450
2096921,2096921, 166489, 673364
2096921,2096921, 166515, 673396
2096921,2096921, 166596, 673405
2096921,2096921, 166868, 673955
2096921,2096921, 166285, 673747
2096921,2096921, 166571, 673773
2096921,2096921, 166807, 673767
2096921,2096921, 167061, 673765
2096921,2096921, 166969, 674161
2096921,2096921, 166947, 674222
2096921,2096921, 166799, 674083
2096921,2096921, 166535, 674033
2096921,2096921, 166686, 674235
2096921,2096921, 166891, 674209
2096921,2096921, 167055, 674654
2096921,2096921, 166878, 674603
2096921,2096921, 167270, 674677
2096921,2096921, 166841, 674469
2096921,2096921, 167213, 674836
2096921,2096921, 167320, 674654
2096921,2096921, 167136, 674454
2096921,2096921, 166959, 674757
2096921,2096921, 167008, 674521
2096921,2096921, 167179, 674938
2096921,2096921, 167097, 674689
2096921,2096921, 167039, 674839
2096921,2096921, 166978, 674734
2096921,2096921, 167223, 675018
2096921,2096921, 167259, 675209
2096921,2096921, 166966, 675313
2096921,2096921, 167230, 675394
2096921,2096921, 167286, 674962
2096921,2096921, 167308, 675352
2096921,2096921, 167217, 675119
2096921,2096921, 167078, 675458
2096921,2096921, 166924, 675175
2096921,2096921, 167103, 675202
2096921,2096921, 167372, 675177
2096921,2096921, 167329, 675369
2096921,2096921, 167436, 675594
2096921,2096921, 167050, 675612
2096921,2096921, 167210, 675440
2096921,2096921, 167172, 675527
2096921,2096921, 167329, 675689
2096921,2096921, 167078, 675836
2096921,2096921, 167179, 675967
2096921,2096921, 167605, 676013
2096921,2096921, 167591, 675963
2096921,2096921, 167368, 676111
2096921,2096921, 167579, 676173
2096921,2096921, 167458, 676063
2096921,2096921, 167258, 676140
2096921,2096921, 167598, 676113
2096921,2096921, 167694, 676045
2096921,2096921, 166974, 676179
2096921,2096921, 167466, 676327
2096921,2096921, 167468, 676294
2096921,2096921, 167651, 676150
2096921,2096921, 167369, 676284
2096921,2096921, 167483, 676073
2096921,2096921, 167606, 676189
2096921,2096921, 167370, 675991
2096921,2096921, 167305, 676328
2096921,2096921, 167218, 676711
2096921,2096921, 167324, 676235
2096921,2096921, 167709, 676384
2096921,2096921, 167643, 676635
2096921,2096921, 168019, 676525
2096921,2096921, 167824, 676763
2096921,2096921, 167812, 676690
2096921,2096921, 167585, 677122
2096921,2096921, 167730, 676733
2096921,2096921, 167475, 676677
2096921,2096921, 167975, 676951
2096921,2096921, 167494, 677163
2096921,2096921, 167580, 676822
2096921,2096921, 167541, 677009
2096921,2096921, 167496, 677057
2096921,2096921, 167674, 676883
2096921,2096921, 167984, 676920
2096921,2096921, 167648, 677061
2096921,2096921, 167910, 677070
2096921,2096921, 167344, 676995
2096921,2096921, 167587, 676672
2096921,2096921, 167411, 676772
2096921,2096921, 167873, 677020
2096921,2096921, 168016, 677084
2096921,2096921, 167613, 677135
2096921,2096921, 167769, 677415
2096921,2096921, 167782, 677178
2096921,2096921, 167934, 677287
2096921,2096921, 167887, 677101
2096921,2096921, 167811, 677031
2096921,2096921, 167639, 677157
2096921,2096921, 167576, 677337
2096921,2096921, 167737, 677317
2096921,2096921, 167850, 677239
2096921,2096921, 167913, 677512
2096921,2096921, 167901, 677694
2096921,2096921, 168014, 677471
2096921,2096921, 167889, 677624
2096921,2096921, 167978, 677572
2096921,2096921, 167676, 677305
2096921,2096921, 167636, 677264
2096921,2096921, 167618, 677684
2096921,2096921, 167649, 677655
2096921,2096921, 168046, 677642
2096921,2096921, 168041, 677824
2096921,2096921, 167739, 677764
2096921,2096921, 168262, 678003
2096921,2096921, 167980, 678310
2096921,2096921, 168127, 677932
2096921,2096921, 167883, 677655
2096921,2096921, 167837, 677843
2096921,2096921, 167760, 677834
2096921,2096921, 167985, 677555
2096921,2096921, 167793, 677944
2096921,2096921, 167716, 677726
2096921,2096921, 167934, 677931
2096921,2096921, 168137, 678180
2096921,2096921, 168241, 678139
2096921,2096921, 168002, 677876
2096921,2096921, 167729, 677873
2096921,2096921, 167692, 678176
2096921,2096921, 167573, 678321
2096921,2096921, 168108, 677945
2096921,2096921, 167645, 678057
2096921,2096921, 168121, 678338
2096921,2096921, 168148, 678106
2096921,2096921, 168346, 678329
2096921,2096921, 168443, 678371
2096921,2096921, 168284, 678321
2096921,2096921, 168062, 678265
2096921,2096921, 168229, 678231
2096921,2096921, 168251, 678282
2096921,2096921, 167890, 678641
2096921,2096921, 168471, 678494
2096921,2096921, 168273, 678321
2096921,2096921, 168385, 678655
2096921,2096921, 168499, 678518
2096921,2096921, 168348, 678840
2096921,2096921, 168241, 678585
2096921,2096921, 168208, 678494
2096921,2096921, 167926, 678418
2096921,2096921, 167686, 678458
2096921,2096921, 167836, 678420
2096921,2096921, 167941, 678628
2096921,2096921, 167901, 678538
2096921,2096921, 168420, 678750
2096921,2096921, 168353, 678914
2096921,2096921, 168251, 678475
2096921,2096921, 168290, 678573
2096921,2096921, 168150, 678524
2096921,2096921, 168295, 678533
2096921,2096921, 168011, 678426
2096921,2096921, 168000, 678327
2096921,2096921, 168419, 678527
2096921,2096921, 168209, 678461
2096921,2096921, 167939, 678597
2096921,2096921, 168262, 678598
2096921,2096921, 168092, 678742
2096921,2096921, 167972, 678717
2096921,2096921, 167981, 678724
2096921,2096921, 168133, 678512
2096921,2096921, 167864, 678550
2096921,2096921, 168054, 678551
2096921,2096921, 168261, 678565
2096921,2096921, 168492, 678454
2096921,2096921, 168409, 678792
2096921,2096921, 168381, 678701
2096921,2096921, 168176, 678972
2096921,2096921, 168036, 678782
2096921,2096921, 168353, 678440
2096921,2096921, 168129, 678600
2096921,2096921, 168362, 678600
2096921,2096921, 168143, 678281
2096921,2096921, 168238, 678692
2096921,2096921, 168427, 678714
2096921,2096921, 168418, 678689
2096921,2096921, 168310, 678819
2096921,2096921, 168234, 678698
2096921,2096921, 168163, 678547
2096921,2096921, 167864, 678531
2096921,2096921, 167877, 678651
2096921,2096921, 167944, 678538
2096921,2096921, 168087, 678570
2096921,2096921, 168070, 678755
2096921,2096921, 168236, 678840
2096921,2096921, 168406, 678629
2096921,2096921, 168141, 678707
2096921,2096921, 168255, 678838
2096921,2096921, 168135, 678650
2096921,2096921, 167798, 678446
2096921,2096921, 167880, 677674
2096921,2096921, 167634, 677677
2096921,2096921, 167891, 677673
2096921,2096921, 167891, 677551
2096921,2096921, 167781, 677524
2096921,2096921, 167358, 676881
2096921,2096921, 167785, 676899
2096921,2096921, 168002, 676963
2096921,2096921, 167458, 676986
2096921,2096921, 167379, 676809
2096921,2096921, 167110, 675497
2096921,2096921, 166990, 675217
2096921,2096921, 167093, 675340
2096921,2096921, 167222, 675389
2096921,2096921, 166879, 675373
2096921,2096921, 166713, 674074
2096921,2096921, 166794, 673340
2096921,2096921, 166562, 673448
2096921,2096921, 166862, 673568
2096921,2096921, 166086, 673373
2096921,2096921, 166211, 671716
2096921,2096921, 166147, 671554
2096921,2096921, 166115, 671547
2096921,2096921, 166328, 671741
2096921,2096921, 164749, 671471
2096921,2096921, 164807, 668186
2096921,2096921, 164893, 667371
2096921,2096921, 164823, 667195
2096921,2096921, 165101, 666839
2096921,2096921, 163638, 666918
2096921,2096921, 163311, 662623
2096921,2096921, 163222, 661493
2096921,2096921, 163300, 661492
2096921,2096921, 163029, 661555
2096921,2096921, 162354, 661564
2096921,2096921, 162051, 658096
2096921,2096921, 161988, 657388
2096921,2096921, 162072, 657247
2096921,2096921, 162089, 657170
2096921,2096921, 161318, 656995
2096921,2096921, 160911, 654792
2096921,2096921, 161054, 653956
2096921,2096921, 161250, 654289
2096921,2096921, 160894, 653926
2096921,2096921, 160703, 654096
2096921,2096921, 160307, 652235
2096921,2096921, 160669, 652060
2096921,2096921, 160233, 651949
2096921,2096921, 160171, 651972
2096921,2096921, 160152, 651997
2096921,2096921, 159914, 650431
2096921,2096921, 159922, 650134
2096921,2096921, 159732, 649714
2096921,2096921, 160056, 650042
2096921,2096921, 159740, 650330
2096921,2096921, 159519, 649006
2096921,2096921, 159766, 649088
2096921,2096921, 159882, 649017
2096921,2096921, 159697, 648989
2096921,2096921, 159369, 649034
2096921,2096921, 159170, 648190
2096921,2096921, 159170, 648200
2096921,2096921, 159045, 648180
2096921,2096921, 159342, 648265
2096921,2096921, 159211, 648041
2096921,2096921, 159346, 648343
2096921,2096921, 159344, 648024
2096921,2096921, 159576, 647902
2096921,2096921, 159276, 647843
2096921,2096921, 159287, 647727
2096921,2096921, 159300, 647652
2096921,2096921, 159173, 647904
2096921,2096921, 159292, 647635
2096921,2096921, 159177, 647916
2096921,2096921, 159392, 647848
2096921,2096921, 159641, 648290
2096921,2096921, 159733, 648133
2096921,2096921, 159507, 648635
2096921,2096921, 159656, 648494
2096921,2096921, 159475, 648123
2096921,2096921, 159373, 648398
2096921,2096921, 159420, 648419
2096921,2096921, 159193, 648342
2096921,2096921, 159292, 648559
2096921,2096921, 159741, 648429
2096921,2096921, 159592, 648993
2096921,2096921, 159574, 649148
2096921,2096921, 159615, 649220
2096921,2096921, 159710, 649224
2096921,2096921, 159961, 649225
2096921,2096921, 159862, 649540
2096921,2096921, 159693, 649913
2096921,2096921, 159651, 649897
2096921,2096921, 159984, 649871
2096921,2096921, 160167, 650096
2096921,2096921, 160373, 650915
2096921,2096921, 160657, 651092
2096921,2096921, 160281, 651273
2096921,2096921, 160021, 650980
2096921,2096921, 160256, 651083
2096921,2096921, 160356, 651628
2096921,2096921, 160260, 651760
2096921,2096921, 160463, 651599
2096921,2096921, 160314, 651863
2096921,2096921, 160768, 652239
2096921,2096921, 160660, 652888
2096921,2096921, 160535, 653193
2096921,2096921, 160829, 653104
2096921,2096921, 160816, 652897
2096921,2096921, 160879, 653001
2096921,2096921, 160910, 653899
2096921,2096921, 160809, 653822
2096921,2096921, 161116, 653895
2096921,2096921, 161158, 653914
2096921,2096921, 161259, 653879
2096921,2096921, 160957, 654919
2096921,2096921, 161373, 654834
2096921,2096921, 161298, 654941
2096921,2096921, 161031, 654865
2096921,2096921, 161104, 654788
2096921,2096921, 161637, 655586
2096921,2096921, 161406, 655685
2096921,2096921, 161616, 655989
2096921,2096921, 161733, 655917
2096921,2096921, 161795, 656117
2096921,2096921, 162108, 656788
2096921,2096921, 161979, 656963
2096921,2096921, 162103, 657100
2096921,2096921, 162089, 656940
2096921,2096921, 162296, 656927
2096921,2096921, 162119, 657517
2096921,2096921, 162323, 658013
2096921,2096921, 162181, 657811
2096921,2096921, 162251, 658027
2096921,2096921, 162751, 658284
2096921,2096921, 162664, 658883
2096921,2096921, 162840, 659024
2096921,2096921, 162855, 659081
2096921,2096921, 162563, 659346
2096921,2096921, 162692, 659137
2096921,2096921, 162788, 659789
2096921,2096921, 162499, 660260
2096921,2096921, 162788, 660356
2096921,2096921, 163012, 659984
2096921,2096921, 163027, 660023
2096921,2096921, 163061, 661500
2096921,2096921, 163060, 661435
2096921,2096921, 163296, 661331
2096921,2096921, 162971, 661458
2096921,2096921, 163359, 661449
2096921,2096921, 163288, 662253
2096921,2096921, 162938, 662410
2096921,2096921, 163233, 662149
2096921,2096921, 163242, 662135
2096921,2096921, 163751, 662440
2096921,2096921, 163736, 662953
2096921,2096921, 163574, 662915
2096921,2096921, 163760, 663359
2096921,2096921, 163433, 663271
2096921,2096921, 163652, 663163
2096921,2096921, 163660, 663643
2096921,2096921, 163619, 663785
2096921,2096921, 163575, 663524
2096921,2096921, 163860, 663889
2096921,2096921, 163862, 663982
2096921,2096921, 164002, 664076
2096921,2096921, 164038, 664426
2096921,2096921, 163852, 664002
2096921,2096921, 163789, 664178
2096921,2096921, 163926, 664249
2096921,2096921, 164175, 664309
2096921,2096921, 163891, 664620
2096921,2096921, 164126, 664643
2096921,2096921, 164238, 664794
2096921,2096921, 164230, 664888
2096921,2096921, 164329, 664713
2096921,2096921, 164285, 664791
2096921,2096921, 164322, 664983
2096921,2096921, 164330, 664900
2096921,2096921, 164399, 664777
2096921,2096921, 164164, 664864
2096921,2096921, 164073, 664965
2096921,2096921, 164055, 664869
2096921,2096921, 164012, 664756
2096921,2096921, 164241, 664981
2096921,2096921, 164177, 665011
2096921,2096921, 164339, 664865
2096921,2096921, 164297, 665052
2096921,2096921, 164108, 664672
2096921,2096921, 164133, 664545
2096921,2096921, 164018, 664676
2096921,2096921, 164277, 664779
2096921,2096921, 164168, 664511
2096921,2096921, 164212, 664701
2096921,2096921, 164165, 665055
2096921,2096921, 164241, 664714
2096921,2096921, 164209, 664591
2096921,2096921, 163859, 664581
2096921,2096921, 163632, 664622
2096921,2096921, 163784, 664485
2096921,2096921, 163853, 664219
2096921,2096921, 163983, 664243
2096921,2096921, 163615, 664251
2096921,2096921, 163916, 664427
2096921,2096921, 163930, 664351
2096921,2096921, 163939, 664255
2096921,2096921, 164136, 664264
2096921,2096921, 164131, 664325
2096921,2096921, 164133, 664490
2096921,2096921, 163987, 664256
2096921,2096921, 163976, 664014
2096921,2096921, 163712, 664234
2096921,2096921, 163922, 664426
2096921,2096921, 164055, 664370
2096921,2096921, 163666, 664466
2096921,2096921, 163914, 664744
2096921,2096921, 164114, 664632
2096921,2096921, 164039, 664413
2096921,2096921, 163892, 664404
2096921,2096921, 164203, 664483
2096921,2096921, 164136, 664745
2096921,2096921, 163866, 664635
2096921,2096921, 163917, 664711
2096921,2096921, 164016, 664637
2096921,2096921, 164103, 664891
2096921,2096921, 164255, 665084
2096921,2096921, 164179, 665139
2096921,2096921, 164446, 665144
2096921,2096921, 164024, 665269
2096921,2096921, 164203, 665275
2096921,2096921, 164178, 665462
2096921,2096921, 164256, 665369
2096921,2096921, 164347, 665838
2096921,2096921, 164155, 665684
2096921,2096921, 164640, 665901
2096921,2096921, 164690, 666462
2096921,2096921, 165070, 666732
2096921,2096921, 165026, 666648
2096921,2096921, 164790, 666811
2096921,2096921, 164723, 666729
2096921,2096921, 164855, 667431
2096921,2096921, 164898, 667759
2096921,2096921, 164565, 667533
2096921,2096921, 164887, 667320
2096921,2096921, 165084, 667442
2096921,2096921, 164997, 668188
2096921,2096921, 165310, 668428
2096921,2096921, 165256, 668454
2096921,2096921, 165028, 668739
2096921,2096921, 165030, 668605
2096921,2096921, 165329, 669243
2096921,2096921, 165024, 669180
2096921,2096921, 165296, 669402
2096921,2096921, 165520, 669254
2096921,2096921, 165724, 669393
2096921,2096921, 165872, 670627
2096921,2096921, 165884, 670339
2096921,2096921, 165792, 670389
2096921,2096921, 165715, 670052
2096921,2096921, 165753, 670039
2096921,2096921, 165871, 670740
2096921,2096921, 165910, 670681
2096921,2096921, 165817, 670971
2096921,2096921, 165702, 670724
2096921,2096921, 165990, 671019
2096921,2096921, 166064, 671481
2096921,2096921, 165980, 671662
2096921,2096921, 165833, 671714
2096921,2096921, 166050, 671577
2096921,2096921, 166022, 671737
2096921,2096921, 165971, 672204
2096921,2096921, 165921, 672269
2096921,2096921, 166164, 672331
2096921,2096921, 166162, 672543
2096921,2096921, 166523, 672290
2096921,2096921, 166549, 673311
2096921,2096921, 166536, 673473
2096921,2096921, 166672, 673469
2096921,2096921, 166704, 673396
2096921,2096921, 166346, 673315
2096921,2096921, 166671, 673887
2096921,2096921, 166468, 674005
2096921,2096921, 166659, 674228
2096921,2096921, 167107, 674391
2096921,2096921, 167303, 674293
2096921,2096921, 166976, 675002
2096921,2096921, 167115, 674989
2096921,2096921, 167271, 675200
2096921,2096921, 166843, 675101
2096921,2096921, 167136, 675312
2096921,2096921, 167056, 675636
2096921,2096921, 166710, 675606
2096921,2096921, 166941, 675557
2096921,2096921, 167039, 675750
2096921,2096921, 167345, 675821
2096921,2096921, 167295, 676289
2096921,2096921, 167682, 676181
2096921,2096921, 167628, 676593
2096921,2096921, 167305, 676433
2096921,2096921, 167393, 676116
2096921,2096921, 167166, 676909
2096921,2096921, 167235, 677280
2096921,2096921, 167543, 677121
2096921,2096921, 167390, 677287
2096921,2096921, 167432, 677256
2096921,2096921, 167687, 677714
2096921,2096921, 167933, 678100
2096921,2096921, 167768, 678008
2096921,2096921, 168140, 677700
2096921,2096921, 167914, 677630
2096921,2096921, 168113, 678354
2096921,2096921, 168044, 678692
2096921,2096921, 167957, 678500
2096921,2096921, 168068, 678955
2096921,2096921, 168477, 679068
2096921,2096921, 168290, 679546
2096921,2096921, 168229, 679641
2096921,2096921, 168217, 679849
2096921,2096921, 168331, 679563
2096921,2096921, 168197, 679310
2096921,2096921, 168502, 679992
2096921,2096921, 168450, 679876
2096921,2096921, 168431, 680163
2096921,2096921, 168381, 680048
2096921,2096921, 168754, 679861
2096921,2096921, 168612, 680722
2096921,2096921, 168819, 680540
2096921,2096921, 168753, 680696
2096921,2096921, 168519, 680985
2096921,2096921, 168594, 680595
2096921,2096921, 168858, 681041
2096921,2096921, 168834, 681392
2096921,2096921, 168943, 681342
2096921,2096921, 168966, 681451
2096921,2096921, 168787, 681542
2096921,2096921, 168892, 681937
2096921,2096921, 169233, 681831
2096921,2096921, 168920, 682302
2096921,2096921, 168976, 681751
2096921,2096921, 169142, 681726
2096921,2096921, 168822, 682446
2096921,2096921, 169066, 682440
2096921,2096921, 169076, 682320
2096921,2096921, 169264, 682651
2096921,2096921, 169195, 682833
2096921,2096921, 169540, 683026
2096921,2096921, 169304, 683450
2096921,2096921, 169267, 683348
2096921,2096921, 169127, 683280
2096921,2096921, 169200, 683095
2096921,2096921, 169386, 683448
2096921,2096921, 169255, 683805
2096921,2096921, 169306, 683842
2096921,2096921, 169334, 683677
2096921,2096921, 169838, 684146
2096921,2096921, 169896, 684555
2096921,2096921, 169845, 684757
2096921,2096921, 169909, 684571
2096921,2096921, 169581, 684544
2096921,2096921, 169493, 684527
2096921,2096921, 169660, 684644
2096921,2096921, 169761, 684972
2096921,2096921, 169691, 685167
2096921,2096921, 169591, 685008
2096921,2096921, 170068, 684773
2096921,2096921, 169798, 685119
2096921,2096921, 169967, 685253
2096921,2096921, 169841, 685701
2096921,2096921, 169782, 685523
2096921,2096921, 169935, 685346
2096921,2096921, 170019, 685947
2096921,2096921, 169879, 685891
2096921,2096921, 169807, 685790
2096921,2096921, 169897, 685832
2096921,2096921, 169969, 686198
2096921,2096921, 170352, 686341
2096921,2096921, 170375, 686497
2096921,2096921, 170003, 686498
2096921,2096921, 170432, 686566
2096921,2096921, 170241, 686374
2096921,2096921, 170315, 686571
2096921,2096921, 170322, 686966
2096921,2096921, 170294, 687015
2096921,2096921, 170144, 686885
2096921,2096921, 170339, 686887
2096921,2096921, 170655, 687622
2096921,2096921, 170476, 687441
2096921,2096921, 170567, 687176
2096921,2096921, 170452, 687289
2096921,2096921, 170349, 687173
2096921,2096921, 170608, 687670
2096921,2096921, 170512, 687401
2096921,2096921, 170644, 688049
2096921,2096921, 170361, 688060
2096921,2096921, 170745, 687666
2096921,2096921, 170559, 688375
2096921,2096921, 170636, 688404
2096921,2096921, 170764, 688192
2096921,2096921, 170601, 688477
2096921,2096921, 170671, 688553
2096921,2096921, 170679, 688421
2096921,2096921, 170744, 688424
2096921,2096921, 170649, 688629
2096921,2096921, 170829, 688582
2096921,2096921, 170667, 688819
2096921,2096921, 170714, 689056
2096921,2096921, 171022, 688764
2096921,2096921, 170890, 689080
2096921,2096921, 170822, 689192
2096921,2096921, 170637, 689036
2096921,2096921, 171044, 689466
2096921,2096921, 170757, 689334
2096921,2096921, 170826, 689653
2096921,2096921, 171000, 689485
2096921,2096921, 171029, 689604
2096921,2096921, 171151, 689982
2096921,2096921, 171319, 690029
2096921,2096921, 171174, 690216
2096921,2096921, 171192, 690197
2096921,2096921, 171075, 690033
2096921,2096921, 171361, 690457
2096921,2096921, 171147, 690596
2096921,2096921, 171264, 690573
2096921,2096921, 171465, 690836
2096921,2096921, 171510, 690512
2096921,2096921, 171606, 690739
2096921,2096921, 171592, 691021
2096921,2096921, 171564, 691299
2096921,2096921, 171358, 691096
2096921,2096921, 171348, 690885
2096921,2096921, 171549, 691026
2096921,2096921, 171475, 691279
2096921,2096921, 171445, 691292
2096921,2096921, 171419, 691355
2096921,2096921, 171623, 691637
2096921,2096921, 171632, 691974
2096921,2096921, 171556, 691884
2096921,2096921, 171635, 691992
2096921,2096921, 171385, 691651
2096921,2096921, 171550, 691734
2096921,2096921, 171535, 691766
2096921,2096921, 171384, 691840
2096921,2096921, 171361, 692106
2096921,2096921, 171534, 692460
2096921,2096921, 171676, 692314
2096921,2096921, 171738, 692261
2096921,2096921, 171707, 692458
2096921,2096921, 171840, 692679
2096921,2096921, 172076, 692466
2096921,2096921, 171821, 692151
2096921,2096921, 171795, 692642
2096921,2096921, 171614, 692813
2096921,2096921, 171847, 692645
2096921,2096921, 171792, 692931
2096921,2096921, 171995, 692818
2096921,2096921, 172225, 693079
2096921,2096921, 171996, 692881
2096921,2096921, 172148, 693374
2096921,2096921, 172219, 693142
2096921,2096921, 171645, 693253
2096921,2096921, 171940, 693229
2096921,2096921, 171607, 693311
2096921,2096921, 171764, 693118
2096921,2096921, 171827, 693342
2096921,2096921, 172019, 693148
2096921,2096921, 172020, 693423
2096921,2096921, 171982, 693620
2096921,2096921, 172004, 693782
2096921,2096921, 171883, 693812
2096921,2096921, 171901, 693472
2096921,2096921, 171648, 693679
2096921,2096921, 171765, 693747
2096921,2096921, 171977, 693463
2096921,2096921, 172022, 693735
2096921,2096921, 172328, 693991
2096921,2096921, 172298, 694335
2096921,2096921, 172298, 694496
2096921,2096921, 172213, 693953
2096921,2096921, 172328, 693916
2096921,2096921, 172068, 693985
2096921,2096921, 172204, 694358
2096921,2096921, 171883, 694100
2096921,2096921, 172002, 694045
2096921,2096921, 172105, 693987
2096921,2096921, 172401, 694241
2096921,2096921, 172122, 694540
2096921,2096921, 172528, 694558
2096921,2096921, 172621, 694718
2096921,2096921, 172361, 694598
2096921,2096921, 172323, 694205
2096921,2096921, 172537, 694649
2096921,2096921, 172111, 694364
2096921,2096921, 172302, 694437
2096921,2096921, 172719, 694723
2096921,2096921, 172716, 694512
2096921,2096921, 172956, 695141
2096921,2096921, 172520, 695054
2096921,2096921, 172411, 694907
2096921,2096921, 172484, 695147
2096921,2096921, 172063, 695042
2096921,2096921, 172139, 694558
2096921,2096921, 172007, 694158
2096921,2096921, 171938, 694093
2096921,2096921, 172110, 694046
2096921,2096921, 172300, 693917
2096921,2096921, 172025, 693749
2096921,2096921, 172025, 693297
2096921,2096921, 172145, 693650
2096921,2096921, 171844, 693583
2096921,2096921, 171420, 693434
2096921,2096921, 171355, 692603
2096921,2096921, 171547, 691983
2096921,2096921, 171499, 692116
2096921,2096921, 171813, 692163
2096921,2096921, 171366, 692165
2096921,2096921, 171346, 691094
2096921,2096921, 171574, 690718
2096921,2096921, 171100, 690788
2096921,2096921, 171036, 690473
2096921,2096921, 170582, 690318
2096921,2096921, 170454, 689096
2096921,2096921, 170358, 688305
2096921,2096921, 170455, 688210
2096921,2096921, 170438, 688248
2096921,2096921, 169606, 688477
2096921,2096921, 169133, 685277
2096921,2096921, 169301, 684469
2096921,2096921, 169200, 684107
2096921,2096921, 169175, 683962
2096921,2096921, 168027, 683823
2096921,2096921, 167907, 679925
2096921,2096921, 167804, 678859
2096921,2096921, 167827, 678567
2096921,2096921, 167913, 678563
2096921,2096921, 166647, 678409
2096921,2096921, 166876, 675736
2096921,2096921, 166455, 674943
2096921,2096921, 166660, 674491
2096921,2096921, 166441, 674393
2096921,2096921, 165951, 674369
2096921,2096921, 165530, 671998
2096921,2096921, 165504, 671443
2096921,2096921, 165582, 671490
2096921,2096921, 165532, 671414
2096921,2096921, 164892, 671491
2096921,2096921, 165009, 669666
2096921,2096921, 165014, 669374
2096921,2096921, 164913, 669296
2096921,2096921, 164590, 669079
2096921,2096921, 164423, 668970
2096921,2096921, 164266, 667536
2096921,2096921, 164184, 667480
2096921,2096921, 164480, 667512
2096921,2096921, 164579, 667898
2096921,2096921, 164215, 667692
2096921,2096921, 163960, 666815
2096921,2096921, 164212, 666741
2096921,2096921, 164262, 666642
2096921,2096921, 164206, 666296
2096921,2096921, 163726, 666411
2096921,2096921, 164081, 665628
2096921,2096921, 163795, 666079
2096921,2096921, 163773, 665926
2096921,2096921, 164067, 666000
2096921,2096921, 163579, 665997
2096921,2096921, 164090, 665904
2096921,2096921, 163978, 666164
2096921,2096921, 164026, 665896
2096921,2096921, 163849, 666194
2096921,2096921, 163788, 666199
2096921,2096921, 163897, 666191
2096921,2096921, 164012, 665868
2096921,2096921, 163978, 665950
2096921,2096921, 164122, 666372
2096921,2096921, 164036, 666244
2096921,2096921, 164169, 666794
2096921,2096921, 164757, 666845
2096921,2096921, 164475, 666867
2096921,2096921, 164224, 666737
2096921,2096921, 164200, 666567
2096921,2096921, 164048, 666990
2096921,2096921, 164172, 667032
2096921,2096921, 164403, 667249
2096921,2096921, 164452, 667276
2096921,2096921, 164181, 667101
2096921,2096921, 164562, 667703
2096921,2096921, 164547, 667622
2096921,2096921, 164338, 667519
2096921,2096921, 164134, 667610
2096921,2096921, 164359, 667528
2096921,2096921, 164610, 668288
2096921,2096921, 164434, 668522
2096921,2096921, 164555, 668608
2096921,2096921, 164573, 668495
2096921,2096921, 164815, 668778
2096921,2096921, 164872, 669484
2096921,2096921, 164947, 669744
2096921,2096921, 164597, 669865
2096921,2096921, 165108, 669818
2096921,2096921, 165259, 669311
2096921,2096921, 165190, 670577
2096921,2096921, 165409, 670625
2096921,2096921, 164911, 670739
2096921,2096921, 165055, 670653
2096921,2096921, 165548, 670540
2096921,2096921, 165660, 671684
2096921,2096921, 165378, 672087
2096921,2096921, 165637, 671949
2096921,2096921, 165482, 671928
2096921,2096921, 165774, 671843
2096921,2096921, 165967, 672701
2096921,2096921, 165634, 672927
2096921,2096921, 165818, 672931
2096921,2096921, 166057, 672901
2096921,2096921, 166269, 673082
2096921,2096921, 166059, 673717
2096921,2096921, 166465, 673758
2096921,2096921, 166448, 673902
2096921,2096921, 166192, 673869
2096921,2096921, 166472, 673642
2096921,2096921, 166103, 674721
2096921,2096921, 166274, 674688
2096921,2096921, 166554, 675166
2096921,2096921, 166641, 675201
2096921,2096921, 166732, 675241
2096921,2096921, 167004, 675868
2096921,2096921, 167066, 676207
2096921,2096921, 166834, 676248
2096921,2096921, 167070, 676206
2096921,2096921, 166844, 676110
2096921,2096921, 166922, 676871
2096921,2096921, 167149, 677233
2096921,2096921, 167208, 677149
2096921,2096921, 167196, 677153
2096921,2096921, 167428, 677273
2096921,2096921, 167771, 678466
2096921,2096921, 167751, 678507
2096921,2096921, 167293, 678578
2096921,2096921, 167271, 678650
2096921,2096921, 167517, 678309
2096921,2096921, 167577, 679010
2096921,2096921, 167594, 679346
2096921,2096921, 168086, 679516
2096921,2096921, 168142, 679737
2096921,2096921, 168208, 679453
2096921,2096921, 168347, 680304
2096921,2096921, 168177, 680753
2096921,2096921, 168283, 680494
2096921,2096921, 168172, 680589
2096921,2096921, 168442, 680725
2096921,2096921, 168368, 681100
2096921,2096921, 168343, 680898
2096921,2096921, 168428, 681345
2096921,2096921, 168553, 681440
2096921,2096921, 168694, 681655
2096921,2096921, 168752, 682255
2096921,2096921, 168729, 682411
2096921,2096921, 168578, 682298
2096921,2096921, 168404, 682661
2096921,2096921, 168767, 682681
2096921,2096921, 168806, 682693
2096921,2096921, 168808, 683233
2096921,2096921, 168770, 682667
2096921,2096921, 168910, 682725
2096921,2096921, 168835, 682724
2096921,2096921, 168921, 683492
2096921,2096921, 169229, 683596
2096921,2096921, 168989, 683637
2096921,2096921, 168824, 683426
2096921,2096921, 169062, 683278
2096921,2096921, 168879, 683441
2096921,2096921, 168821, 683629
2096921,2096921, 169049, 683681
2096921,2096921, 168949, 683527
2096921,2096921, 169274, 683658
2096921,2096921, 169159, 683916
2096921,2096921, 169188, 683866
2096921,2096921, 169332, 683790
2096921,2096921, 168974, 683694
2096921,2096921, 168786, 683572
2096921,2096921, 169019, 683941
2096921,2096921, 168767, 683310
2096921,2096921, 169397, 683627
2096921,2096921, 169068, 683851
2096921,2096921, 169178, 683588
2096921,2096921, 169119, 683623
2096921,2096921, 168745, 683828
2096921,2096921, 168904, 683729
2096921,2096921, 168928, 683780
2096921,2096921, 168800, 683612
2096921,2096921, 168788, 683138
2096921,2096921, 168826, 682938
2096921,2096921, 168862, 683228
2096921,2096921, 169323, 683530
2096921,2096921, 169085, 683578
2096921,2096921, 168714, 683093
2096921,2096921, 168974, 683048
2096921,2096921, 168816, 682839
2096921,2096921, 168954, 682616
2096921,2096921, 168750, 682676
2096921,2096921, 168726, 682671
2096921,2096921, 168790, 682673
2096921,2096921, 168551, 682411
2096921,2096921, 168754, 682517
2096921,2096921, 168467, 682455
2096921,2096921, 168497, 682398
2096921,2096921, 168631, 682298
2096921,2096921, 168528, 682238
2096921,2096921, 168583, 682491
2096921,2096921, 168760, 682044
2096921,2096921, 168688, 682186
2096921,2096921, 168276, 682284
2096921,2096921, 168579, 682009
2096921,2096921, 168575, 682276
2096921,2096921, 168476, 681975
2096921,2096921, 168509, 682496
2096921,2096921, 168932, 682457
2096921,2096921, 168779, 682473
2096921,2096921, 168750, 682276
2096921,2096921, 168918, 682323
2096921,2096921, 168659, 682301
2096921,2096921, 168786, 682272
2096921,2096921, 168769, 682412
2096921,2096921, 168511, 682218
2096921,2096921, 168731, 682305
2096921,2096921, 168639, 682641
2096921,2096921, 168895, 682724
2096921,2096921, 168763, 682707
2096921,2096921, 168582, 682649
2096921,2096921, 168765, 682631
2096921,2096921, 168925, 682784
2096921,2096921, 168928, 682685
2096921,2096921, 168654, 682609
2096921,2096921, 168879, 682951
2096921,2096921, 169009, 682822
2096921,2096921, 168844, 683320
2096921,2096921, 168708, 683609
2096921,2096921, 169072, 683550
2096921,2096921, 169031, 683637
2096921,2096921, 169232, 683791
2096921,2096921, 169278, 684438
2096921,2096921, 169175, 684503
2096921,2096921, 169214, 684659
2096921,2096921, 169326, 684539
2096921,2096921, 169382, 684363
2096921,2096921, 169594, 685150
2096921,2096921, 169636, 685037
2096921,2096921, 169747, 685236
2096921,2096921, 169316, 685218
2096921,2096921, 169586, 685332
2096921,2096921, 169748, 685711
2096921,2096921, 169449, 685907
2096921,2096921, 169324, 685840
2096921,2096921, 169635, 685881
2096921,2096921, 169717, 685703
2096921,2096921, 169452, 686458
2096921,2096921, 169902, 686452
2096921,2096921, 169971, 686468
2096921,2096921, 169970, 686430
2096921,2096921, 169968, 686495
2096921,2096921, 169870, 686802
2096921,2096921, 169961, 686575
2096921,2096921, 169894, 686908
2096921,2096921, 169783, 686885
2096921,2096921, 169721, 686881
2096921,2096921, 170167, 687351
2096921,2096921, 170444, 687360
2096921,2096921, 170094, 687533
2096921,2096921, 170347, 687493
2096921,2096921, 170358, 687374
2096921,2096921, 170064, 687819
2096921,2096921, 170051, 687949
2096921,2096921, 170083, 688020
2096921,2096921, 170232, 688316
2096921,2096921, 170464, 688277
2096921,2096921, 170577, 688428
2096921,2096921, 170773, 689042
2096921,2096921, 170656, 688582
2096921,2096921, 170255, 688801
2096921,2096921, 170529, 688842
2096921,2096921, 170513, 689227
2096921,2096921, 170417, 689276
2096921,2096921, 170439, 689229
2096921,2096921, 170565, 689534
2096921,2096921, 171112, 689421
2096921,2096921, 171044, 689786
2096921,2096921, 170628, 689942
2096921,2096921, 170831, 689748
2096921,2096921, 170924, 689672
2096921,2096921, 170767, 689850
2096921,2096921, 170680, 690086
2096921,2096921, 170755, 690735
2096921,2096921, 170786, 690489
2096921,2096921, 170754, 690714
2096921,2096921, 171223, 690346
2096921,2096921, 171365, 691005
2096921,2096921, 171663, 691272
2096921,2096921, 171245, 690985
2096921,2096921, 170978, 690991
2096921,2096921, 171286, 690929
2096921,2096921, 171447, 691307
2096921,2096921, 171445, 691362
2096921,2096921, 171358, 691150
2096921,2096921, 171491, 691209
2096921,2096921, 171594, 691374
2096921,2096921, 171585, 691851
2096921,2096921, 171635, 692217
2096921,2096921, 171347, 692076
2096921,2096921, 171278, 692042
2096921,2096921, 171434, 692057
2096921,2096921, 171653, 692525
2096921,2096921, 171643, 692337
2096921,2096921, 171789, 692374
2096921,2096921, 171524, 692678
2096921,2096921, 171561, 692822
2096921,2096921, 171788, 693202
2096921,2096921, 171683, 692884
2096921,2096921, 171728, 693159
2096921,2096921, 171599, 693226
2096921,2096921, 171619, 692928
2096921,2096921, 171385, 693432
2096921,2096921, 172044, 693089
2096921,2096921, 171754, 693343
2096921,2096921, 171891, 693571
2096921,2096921, 172241, 693392
2096921,2096921, 172229, 693752
2096921,2096921, 172272, 693659
2096921,2096921, 172294, 694045
2096921,2096921, 171883, 693751
2096921,2096921, 171891, 693533
2096921,2096921, 171694, 693997
2096921,2096921, 171677, 694108
2096921,2096921, 172144, 694012
2096921,2096921, 172010, 694113
2096921,2096921, 172672, 694319
2096921,2096921, 172032, 694881
2096921,2096921, 172232, 695003
2096921,2096921, 172179, 694730
2096921,2096921, 172190, 694812
2096921,2096921, 172238, 694878
2096921,2096921, 172376, 694744
2096921,2096921, 172358, 694898
2096921,2096921, 172305, 694724
2096921,2096921, 172239, 694832
2096921,2096921, 172392, 695040
2096921,2096921, 172219, 695260
2096921,2096921, 172147, 695394
2096921,2096921, 172423, 695247
2096921,2096921, 172249, 695397
2096921,2096921, 172594, 695384
2096921,2096921, 172767, 695055
2096921,2096921, 172237, 695196
2096921,2096921, 172457, 695362
2096921,2096921, 172549, 695460
2096921,2096921, 172464, 695567
2096921,2096921, 172592, 695750
2096921,2096921, 172411, 695783
2096921,2096921, 172501, 695894
2096921,2096921, 172674, 695836
2096921,2096921, 172507, 695626
2096921,2096921, 172555, 695989
2096921,2096921, 172326, 695618
2096921,2096921, 172544, 695967
2096921,2096921, 172640, 696204
2096921,2096921, 172907, 696116
2096921,2096921, 172933, 696058
2096921,2096921, 172724, 696309
2096921,2096921, 172911, 696400
2096921,2096921, 172781, 696271
2096921,2096921, 172766, 696160
2096921,2096921, 172477, 696487
2096921,2096921, 172723, 696491
2096921,2096921, 172599, 696328
2096921,2096921, 172663, 696750
2096921,2096921, 172838, 696382
2096921,2096921, 172780, 696732
2096921,2096921, 172847, 696593
2096921,2096921, 172708, 696603
2096921,2096921, 172686, 696457
2096921,2096921, 172438, 696615
2096921,2096921, 172861, 696736
2096921,2096921, 172734, 696587
2096921,2096921, 172574, 696590
2096921,2096921, 172967, 696718
2096921,2096921, 172954, 696681
2096921,2096921, 172657, 697073
2096921,2096921, 173025, 697103
2096921,2096921, 172838, 696926
2096921,2096921, 172860, 696904
2096921,2096921, 172850, 696833
2096921,2096921, 172963, 696842
2096921,2096921, 172797, 696821
2096921,2096921, 172940, 696962
2096921,2096921, 172681, 696909
2096921,2096921, 173001, 697064
2096921,2096921, 172883, 697306
2096921,2096921, 173068, 696956
2096921,2096921, 172924, 697369
2096921,2096921, 172903, 697140
2096921,2096921, 173191, 697096
2096921,2096921, 173186, 696918
2096921,2096921, 172815, 697433
2096921,2096921, 173231, 697205
2096921,2096921, 173048, 697201
2096921,2096921, 173180, 697302
2096921,2096921, 173281, 697357
2096921,2096921, 173134, 697178
2096921,2096921, 173068, 697493
2096921,2096921, 172940, 697515
2096921,2096921, 172950, 697077
2096921,2096921, 172791, 697291
2096921,2096921, 172857, 697412
2096921,2096921, 173055, 697260
2096921,2096921, 172943, 697335
2096921,2096921, 172885, 697628
2096921,2096921, 173291, 697702
2096921,2096921, 173338, 697749
2096921,2096921, 173065, 697755
2096921,2096921, 173122, 697581
2096921,2096921, 173034, 697376
2096921,2096921, 173065, 697501
2096921,2096921, 173018, 697488
2096921,2096921, 172660, 697278
2096921,2096921, 172981, 697856
2096921,2096921, 173429, 697808
2096921,2096921, 173635, 697754
2096921,2096921, 172979, 697870
2096921,2096921, 173355, 697857
2096921,2096921, 173197, 697269
2096921,2096921, 172862, 697316
2096921,2096921, 173014, 697520
2096921,2096921, 172915, 697356
2096921,2096921, 172885, 697744
2096921,2096921, 173009, 697693
2096921,2096921, 172908, 697089
2096921,2096921, 173065, 697546
2096921,2096921, 172990, 697574
2096921,2096921, 172967, 697607
2096921,2096921, 172906, 697808
2096921,2096921, 172838, 697516
2096921,2096921, 173116, 697395
2096921,2096921, 172833, 697475
2096921,2096921, 172964, 697668
2096921,2096921, 173067, 697598
2096921,2096921, 173273, 697567
2096921,2096921, 173324, 697483
2096921,2096921, 173160, 697515
2096921,2096921, 173106, 697585
2096921,2096921, 173090, 697547
2096921,2096921, 172707, 697550
2096921,2096921, 172976, 697113
2096921,2096921, 173092, 697506
2096921,2096921, 172981, 697329
2096921,2096921, 173054, 697736
2096921,2096921, 173229, 697382
2096921,2096921, 173239, 697480
2096921,2096921, 172894, 697490
2096921,2096921, 173122, 696982
2096921,2096921, 172880, 697112
2096921,2096921, 172783, 697066
2096921,2096921, 172781, 697048
2096921,2096921, 172520, 697181
2096921,2096921, 172719, 696906
2096921,2096921, 172667, 696970
2096921,2096921, 172870, 697097
2096921,2096921, 172712, 697139
2096921,2096921, 172824, 696971
2096921,2096921, 172394, 696937
2096921,2096921, 172898, 696612
2096921,2096921, 172776, 696487
2096921,2096921, 172851, 696693
2096921,2096921, 172696, 696593
2096921,2096921, 172830, 696802
2096921,2096921, 172832, 696829
2096921,2096921, 172874, 696824
2096921,2096921, 172851, 696600
2096921,2096921, 173083, 696608
2096921,2096921, 172708, 696808
2096921,2096921, 172565, 696351
2096921,2096921, 172321, 696649
2096921,2096921, 172399, 696175
2096921,2096921, 172745, 696206
2096921,2096921, 172630, 696454
2096921,2096921, 172753, 696437
2096921,2096921, 172709, 696584
2096921,2096921, 172922, 696008
2096921,2096921, 173011, 696267
2096921,2096921, 172819, 696528
2096921,2096921, 172782, 696416
2096921,2096921, 172713, 696174
2096921,2096921, 172814, 696087
2096921,2096921, 172745, 695786
2096921,2096921, 172404, 696002
2096921,2096921, 172788, 696081
2096921,2096921, 172800, 696069
2096921,2096921, 172640, 695666
2096921,2096921, 172565, 696049
2096921,2096921, 172409, 695931
2096921,2096921, 172243, 695761
2096921,2096921, 172357, 695630
2096921,2096921, 172310, 694998
2096921,2096921, 171981, 694444
2096921,2096921, 172457, 694556
2096921,2096921, 172243, 694501
2096921,2096921, 172111, 694617
2096921,2096921, 171928, 693610
2096921,2096921, 172132, 693710
2096921,2096921, 172163, 693556
2096921,2096921, 172252, 693422
2096921,2096921, 171572, 693416
2096921,2096921, 171506, 692261
2096921,2096921, 171628, 691733
2096921,2096921, 171496, 691868
2096921,2096921, 171502, 691875
2096921,2096921, 171029, 691841
2096921,2096921, 171121, 690421
2096921,2096921, 170880, 689966
2096921,2096921, 170774, 689836
2096921,2096921, 170850, 689971
2096921,2096921, 170395, 690128
2096921,2096921, 170051, 688277
2096921,2096921, 170324, 687246
2096921,2096921, 170508, 687236
2096921,2096921, 170280, 687218
2096921,2096921, 169338, 687353
2096921,2096921, 169036, 683619
2096921,2096921, 168723, 683042
2096921,2096921, 168869, 682602
2096921,2096921, 168907, 682736
2096921,2096921, 167268, 682441
2096921,2096921, 167115, 677847
2096921,2096921, 167014, 676907
2096921,2096921, 166883, 676405
2096921,2096921, 167042, 676721
2096921,2096921, 166192, 676487
2096921,2096921, 166189, 672984
2096921,2096921, 165895, 672408
2096921,2096921, 166075, 672172
2096921,2096921, 166004, 672222
2096921,2096921, 164933, 671959
2096921,2096921, 164799, 669450
2096921,2096921, 164836, 668441
2096921,2096921, 164636, 668741
2096921,2096921, 164820, 668648
2096921,2096921, 164391, 668809
2096921,2096921, 164248, 666925
2096921,2096921, 164240, 666624
2096921,2096921, 164155, 666329
2096921,2096921, 164214, 665941
2096921,2096921, 163872, 666041
2096921,2096921, 163627, 664514
2096921,2096921, 163587, 664491
2096921,2096921, 163558, 663938
2096921,2096921, 163539, 663970
2096921,2096921, 163258, 664307
2096921,2096921, 163224, 663137
2096921,2096921, 163288, 663174
2096921,2096921, 163281, 662902
2096921,2096921, 163376, 662866
2096921,2096921, 162991, 662464
2096921,2096921, 162769, 661630
2096921,2096921, 162912, 661613
2096921,2096921, 162739, 661893
2096921,2096921, 162852, 661577
2096921,2096921, 162787, 661806
2096921,2096921, 162883, 661539
2096921,2096921, 163015, 661752
2096921,2096921, 162687, 661319
2096921,2096921, 162726, 661159
2096921,2096921, 162602, 661036
2096921,2096921, 162657, 660884
2096921,2096921, 162598, 660720
2096921,2096921, 162610, 660922
2096921,2096921, 162623, 661047
2096921,2096921, 162883, 660933
2096921,2096921, 162960, 661155
2096921,2096921, 162957, 661410
2096921,2096921, 162726, 661468
2096921,2096921, 162406, 661474
2096921,2096921, 162692, 661217
2096921,2096921, 162315, 661230
2096921,2096921, 162507, 661265
2096921,2096921, 162861, 661520
2096921,2096921, 162895, 661334
2096921,2096921, 163071, 661140
2096921,2096921, 163146, 661488
2096921,2096921, 163078, 661146
2096921,2096921, 162940, 661275
2096921,2096921, 162713, 661073
2096921,2096921, 162858, 661326
2096921,2096921, 162580, 662025
2096921,2096921, 162938, 662169
2096921,2096921, 162892, 661965
2096921,2096921, 163121, 662098
2096921,2096921, 163318, 662062
2096921,2096921, 163368, 662728
2096921,2096921, 163309, 663155
2096921,2096921, 163390, 662688
2096921,2096921, 163063, 662555
2096921,2096921, 163352, 662530
2096921,2096921, 163501, 663005
2096921,2096921, 163251, 663141
2096921,2096921, 163436, 663478
2096921,2096921, 163634, 663478
2096921,2096921, 163621, 663511
2096921,2096921, 163537, 664336
2096921,2096921, 163791, 664299
2096921,2096921, 163821, 664296
2096921,2096921, 163582, 664258
2096921,2096921, 163773, 664318
2096921,2096921, 163937, 664991
2096921,2096921, 163788, 664933
2096921,2096921, 163949, 664778
2096921,2096921, 164018, 664905
2096921,2096921, 163835, 665269
2096921,2096921, 164107, 665544
2096921,2096921, 164236, 665581
2096921,2096921, 164098, 665614
2096921,2096921, 163967, 665597
2096921,2096921, 164297, 665679
2096921,2096921, 164131, 665803
2096921,2096921, 164434, 665847
2096921,2096921, 164322, 665921
2096921,2096921, 164389, 666198
2096921,2096921, 164949, 666361
2096921,2096921, 164712, 666863
2096921,2096921, 164800, 667239
2096921,2096921, 164906, 666992
2096921,2096921, 164716, 666934
2096921,2096921, 164477, 667202
2096921,2096921, 164825, 667659
2096921,2096921, 164508, 667461
2096921,2096921, 164782, 667716
2096921,2096921, 164784, 667848
2096921,2096921, 165226, 667658
2096921,2096921, 165154, 668213
2096921,2096921, 165042, 668615
2096921,2096921, 165154, 668429
2096921,2096921, 164836, 668444
2096921,2096921, 165060, 668505
2096921,2096921, 165123, 668994
2096921,2096921, 165007, 669266
2096921,2096921, 165231, 669102
2096921,2096921, 165367, 669197
2096921,2096921, 165650, 669584
2096921,2096921, 165387, 669867
2096921,2096921, 165481, 670274
2096921,2096921, 165175, 670190
2096921,2096921, 165156, 669955
2096921,2096921, 165390, 669995
2096921,2096921, 165333, 670670
2096921,2096921, 165244, 670478
2096921,2096921, 165346, 670448
2096921,2096921, 165299, 670768
2096921,2096921, 165448, 670887
2096921,2096921, 165903, 671044
2096921,2096921, 165995, 671343
2096921,2096921, 165776, 671352
2096921,2096921, 165783, 671281
2096921,2096921, 165781, 671205
2096921,2096921, 165597, 671419
2096921,2096921, 165423, 671139
2096921,2096921, 165619, 671284
2096921,2096921, 165802, 671388
2096921,2096921, 165764, 671308
2096921,2096921, 165802, 671454
2096921,2096921, 165977, 672119
2096921,2096921, 165974, 671614
2096921,2096921, 165933, 671586
2096921,2096921, 165713, 671329
2096921,2096921, 165785, 671620
2096921,2096921, 165646, 671574
2096921,2096921, 165970, 671762
2096921,2096921, 165942, 671876
2096921,2096921, 165890, 671574
2096921,2096921, 165771, 671631
2096921,2096921, 166182, 671464
2096921,2096921, 166003, 671245
2096921,2096921, 165583, 671230
2096921,2096921, 165769, 671136
2096921,2096921, 165806, 671348
2096921,2096921, 165792, 671075
2096921,2096921, 165801, 671226
2096921,2096921, 165976, 671341
2096921,2096921, 165656, 671333
2096921,2096921, 165599, 670821
2096921,2096921, 165954, 670893
2096921,2096921, 165826, 670719
2096921,2096921, 165535, 670643
2096921,2096921, 165226, 670690
2096921,2096921, 165210, 669987
2096921,2096921, 165407, 669829
2096921,2096921, 165513, 669979
2096921,2096921, 165399, 670088
2096921,2096921, 165229, 670297
2096921,2096921, 165133, 669900
2096921,2096921, 165116, 670029
2096921,2096921, 165276, 669439
2096921,2096921, 165410, 669240
2096921,2096921, 165001, 669569
2096921,2096921, 165068, 669042
2096921,2096921, 165022, 668717
2096921,2096921, 165485, 668653
2096921,2096921, 165030, 669048
2096921,2096921, 165093, 669228
2096921,2096921, 165203, 668457
2096921,2096921, 165311, 668501
2096921,2096921, 164749, 668488
2096921,2096921, 164781, 668346
2096921,2096921, 164796, 668209
2096921,2096921, 164893, 668127
2096921,2096921, 164722, 668319
2096921,2096921, 164826, 668220
2096921,2096921, 164953, 667968
2096921,2096921, 164989, 668441
2096921,2096921, 164790, 668352
2096921,2096921, 164923, 668161
2096921,2096921, 164414, 667934
2096921,2096921, 164672, 667848
2096921,2096921, 164816, 667684
2096921,2096921, 164657, 667589
2096921,2096921, 164650, 667414
2096921,2096921, 164724, 667790
2096921,2096921, 165018, 667597
2096921,2096921, 164987, 667907
2096921,2096921, 165064, 667853
2096921,2096921, 165395, 667837
2096921,2096921, 164734, 667677
2096921,2096921, 164892, 667917
2096921,2096921, 164658, 667770
2096921,2096921, 164591, 667704
2096921,2096921, 164934, 667919
2096921,2096921, 164410, 667409
2096921,2096921, 164964, 667690
2096921,2096921, 165065, 668031
2096921,2096921, 164978, 668411
2096921,2096921, 165229, 668769
2096921,2096921, 165096, 668387
2096921,2096921, 164936, 668377
2096921,2096921, 164827, 668157
2096921,2096921, 165037, 668956
2096921,2096921, 164945, 668656
2096921,2096921, 165007, 668582
2096921,2096921, 165104, 668872
2096921,2096921, 165207, 668977
2096921,2096921, 165589, 669214
2096921,2096921, 165458, 669316
2096921,2096921, 165687, 669390
2096921,2096921, 165048, 669450
2096921,2096921, 165420, 669389
2096921,2096921, 165660, 669871
2096921,2096921, 165409, 669746
2096921,2096921, 165740, 669734
2096921,2096921, 165595, 669901
2096921,2096921, 165836, 669985
2096921,2096921, 165939, 669947
2096921,2096921, 165877, 670334
2096921,2096921, 165687, 670478
2096921,2096921, 165718, 670786
2096921,2096921, 165666, 670462
2096921,2096921, 165640, 670696
2096921,2096921, 165538, 670509
2096921,2096921, 165605, 670420
2096921,2096921, 165896, 670433
2096921,2096921, 166031, 670534
2096921,2096921, 166012, 670483
2096921,2096921, 165834, 670764
2096921,2096921, 165839, 670807
2096921,2096921, 165676, 670591
2096921,2096921, 166038, 670639
2096921,2096921, 166052, 671042
2096921,2096921, 165776, 671333
2096921,2096921, 165910, 671072
2096921,2096921, 166100, 671117
2096921,2096921, 166193, 671373
2096921,2096921, 166070, 671607
2096921,2096921, 166283, 671847
2096921,2096921, 166251, 671555
2096921,2096921, 166558, 671598
2096921,2096921, 166212, 671819
2096921,2096921, 166031, 671854
2096921,2096921, 166036, 671727
2096921,2096921, 166286, 672052
2096921,2096921, 165997, 672148
2096921,2096921, 166298, 672118
2096921,2096921, 166359, 672632
2096921,2096921, 166415, 672279
2096921,2096921, 166573, 672350
2096921,2096921, 166339, 672510
2096921,2096921, 166122, 672390
2096921,2096921, 166161, 672676
2096921,2096921, 166199, 672599
2096921,2096921, 166217, 672617
2096921,2096921, 166213, 672381
2096921,2096921, 166558, 672764
2096921,2096921, 166135, 672873
2096921,2096921, 166411, 673338
2096921,2096921, 166184, 673475
2096921,2096921, 166325, 673179
2096921,2096921, 166228, 673054
2096921,2096921, 166340, 673037
2096921,2096921, 166397, 672834
2096921,2096921, 166691, 673282
2096921,2096921, 166441, 673232
2096921,2096921, 166777, 672967
2096921,2096921, 166680, 673628
2096921,2096921, 166588, 674032
2096921,2096921, 166891, 673740
2096921,2096921, 166630, 673602
2096921,2096921, 166297, 673562
2096921,2096921, 166695, 673833
2096921,2096921, 166578, 673912
2096921,2096921, 166683, 673919
2096921,2096921, 166832, 674203
2096921,2096921, 167243, 673794
2096921,2096921, 167285, 674211
2096921,2096921, 167020, 674504
2096921,2096921, 167079, 674109
2096921,2096921, 166672, 674260
2096921,2096921, 166719, 674339
2096921,2096921, 166867, 674430
2096921,2096921, 166822, 674417
2096921,2096921, 167048, 674555
2096921,2096921, 167099, 674658
2096921,2096921, 167428, 674640
2096921,2096921, 167145, 674725
2096921,2096921, 167165, 674910
2096921,2096921, 166824, 675069
2096921,2096921, 167201, 674725
2096921,2096921, 167115, 674955
2096921,2096921, 166942, 674963
2096921,2096921, 167230, 675382
2096921,2096921, 166961, 675121
2096921,2096921, 167163, 675039
2096921,2096921, 167227, 675165
2096921,2096921, 167461, 675310
2096921,2096921, 167188, 675329
2096921,2096921, 166877, 675266
2096921,2096921, 167274, 674692
2096921,2096921, 166974, 675045
2096921,2096921, 167209, 675118
2096921,2096921, 167264, 675399
2096921,2096921, 167207, 675447
2096921,2096921, 167461, 675546
2096921,2096921, 167541, 675613
2096921,2096921, 167566, 676044
2096921,2096921, 167678, 676086
2096921,2096921, 167513, 675839
2096921,2096921, 167178, 675651
2096921,2096921, 167293, 675551
2096921,2096921, 167269, 675687
2096921,2096921, 167049, 675938
2096921,2096921, 167404, 676050
2096921,2096921, 167687, 675848
2096921,2096921, 167374, 675838
2096921,2096921, 167253, 676173
2096921,2096921, 167622, 676348
2096921,2096921, 167370, 676401
2096921,2096921, 167435, 676341
2096921,2096921, 167423, 676261
2096921,2096921, 167376, 676504
2096921,2096921, 167323, 676187
2096921,2096921, 167400, 676294
2096921,2096921, 167356, 676309
2096921,2096921, 167697, 676589
2096921,2096921, 167716, 676625
2096921,2096921, 167599, 676622
2096921,2096921, 167357, 676735
2096921,2096921, 167427, 676608
2096921,2096921, 167662, 676433
2096921,2096921, 167730, 676794
2096921,2096921, 167776, 676755
2096921,2096921, 167634, 676502
2096921,2096921, 167507, 676704
2096921,2096921, 167653, 677084
2096921,2096921, 167567, 676876
2096921,2096921, 167776, 676918
2096921,2096921, 167647, 676742
2096921,2096921, 167529, 676801
2096921,2096921, 167431, 677037
2096921,2096921, 167748, 676718
2096921,2096921, 167748, 676498
2096921,2096921, 167383, 676573
2096921,2096921, 167362, 676866
2096921,2096921, 167717, 676890
2096921,2096921, 167950, 676847
2096921,2096921, 167823, 676809
2096921,2096921, 167858, 676715
2096921,2096921, 167407, 676996
2096921,2096921, 167663, 677055
2096921,2096921, 167397, 676764
2096921,2096921, 167853, 676650
2096921,2096921, 167782, 676986
2096921,2096921, 168001, 677317
2096921,2096921, 167955, 677221
2096921,2096921, 167773, 677590
2096921,2096921, 167886, 677404
2096921,2096921, 167861, 677241
2096921,2096921, 167683, 677310
2096921,2096921, 167767, 677242
2096921,2096921, 167918, 677583
2096921,2096921, 167871, 677479
2096921,2096921, 168104, 677191
2096921,2096921, 168003, 676925
2096921,2096921, 167879, 677460
2096921,2096921, 167765, 677828
2096921,2096921, 167933, 677487
2096921,2096921, 167558, 677570
2096921,2096921, 167666, 677377
2096921,2096921, 167707, 677282
2096921,2096921, 167897, 677568
2096921,2096921, 168074, 677557
2096921,2096921, 167812, 677425
2096921,2096921, 167753, 677503
2096921,2096921, 167923, 677730
2096921,2096921, 168117, 677767
2096921,2096921, 168297, 677999
2096921,2096921, 167637, 678025
2096921,2096921, 167779, 678030
2096921,2096921, 167766, 677947
2096921,2096921, 167860, 678085
2096921,2096921, 167781, 677557
2096921,2096921, 167998, 678281
2096921,2096921, 167974, 678374
2096921,2096921, 168116, 678238
2096921,2096921, 167896, 678311
2096921,2096921, 167910, 678176
2096921,2096921, 168175, 678049
2096921,2096921, 167771, 678384
2096921,2096921, 167912, 678270
2096921,2096921, 168025, 678411
2096921,2096921, 168026, 677867
2096921,2096921, 167843, 678068
2096921,2096921, 168006, 678258
2096921,2096921, 168226, 678490
2096921,2096921, 168029, 678606
2096921,2096921, 168061, 678598
2096921,2096921, 168272, 678602
2096921,2096921, 168180, 678536
2096921,2096921, 168090, 678253
2096921,2096921, 167896, 678280
2096921,2096921, 167970, 678155
2096921,2096921, 168271, 678441
2096921,2096921, 168434, 678546
2096921,2096921, 168480, 678392
2096921,2096921, 168226, 678463
2096921,2096921, 168123, 678925
2096921,2096921, 168161, 678507
2096921,2096921, 168138, 678450
2096921,2096921, 167926, 678445
2096921,2096921, 168124, 678461
2096921,2096921, 167930, 678495
2096921,2096921, 167868, 678610
2096921,2096921, 168195, 678726
2096921,2096921, 168381, 678705
2096921,2096921, 168253, 678587
2096921,2096921, 168182, 678858
2096921,2096921, 168154, 678587
2096921,2096921, 167864, 678727
2096921,2096921, 168009, 678730
2096921,2096921, 167930, 678426
2096921,2096921, 167700, 678201
2096921,2096921, 167901, 678471
2096921,2096921, 168257, 678569
2096921,2096921, 168408, 678567
2096921,2096921, 168026, 678704
2096921,2096921, 168182, 678791
2096921,2096921, 168114, 678947
2096921,2096921, 168063, 678649
2096921,2096921, 168358, 678509
2096921,2096921, 168107, 678342
2096921,2096921, 168109, 678227
2096921,2096921, 168096, 678576
2096921,2096921, 168053, 678630
2096921,2096921, 168318, 678578
2096921,2096921, 168284, 678653
2096921,2096921, 168259, 678744
2096921,2096921, 167940, 678770
2096921,2096921, 168007, 678708
2096921,2096921, 167907, 678695
2096921,2096921, 168074, 678769
2096921,2096921, 167853, 678444
2096921,2096921, 168488, 678562
2096921,2096921, 168309, 678601
2096921,2096921, 168264, 678368
2096921,2096921, 168139, 678832
2096921,2096921, 168225, 678616
2096921,2096921, 168274, 678413
2096921,2096921, 168198, 678508
2096921,2096921, 167710, 678546
2096921,2096921, 168018, 678366
2096921,2096921, 167867, 678644
2096921,2096921, 168027, 678298
2096921,2096921, 168194, 678769
2096921,2096921, 168328, 678456
2096921,2096921, 168275, 678527
2096921,2096921, 168110, 678632
2096921,2096921, 168238, 678736
2096921,2096921, 168515, 678154
2096921,2096921, 167970, 677935
2096921,2096921, 168031, 677855
2096921,2096921, 167680, 677536
2096921,2096921, 167798, 677735
2096921,2096921, 167766, 677949
2096921,2096921, 167799, 677813
2096921,2096921, 167591, 677349
2096921,2096921, 167951, 676896
2096921,2096921, 167709, 676959
2096921,2096921, 167585, 676619
2096921,2096921, 167297, 676702
2096921,2096921, 167169, 675705
2096921,2096921, 167123, 675499
2096921,2096921, 167225, 675499
2096921,2096921, 167334, 675357
2096921,2096921, 166962, 675324
2096921,2096921, 166897, 673964
2096921,2096921, 166678, 673714
2096921,2096921, 167093, 673585
2096921,2096921, 166754, 673546
2096921,2096921, 166196, 673301
2096921,2096921, 166022, 671806
2096921,2096921, 166160, 671402
2096921,2096921, 166075, 671453
2096921,2096921, 166393, 671680
2096921,2096921, 165206, 671747
2096921,2096921, 164835, 668091
2096921,2096921, 164988, 667300
2096921,2096921, 164863, 667158
2096921,2096921, 164746, 667138
2096921,2096921, 163134, 666842
2096921,2096921, 162989, 662522
2096921,2096921, 163029, 661444
2096921,2096921, 163176, 661259
2096921,2096921, 162937, 661351
2096921,2096921, 162397, 661282
2096921,2096921, 162054, 658179
2096921,2096921, 162125, 657584
2096921,2096921, 162104, 657166
2096921,2096921, 161773, 657279
2096921,2096921, 161248, 657202
2096921,2096921, 160886, 654706
2096921,2096921, 160936, 654183
2096921,2096921, 161096, 654108
2096921,2096921, 161132, 654068
2096921,2096921, 160650, 654022
2096921,2096921, 160207, 652654
2096921,2096921, 160396, 652212
2096921,2096921, 160609, 651589
2096921,2096921, 160289, 651534
2096921,2096921, 160035, 652005
2096921,2096921, 159681, 650225
2096921,2096921, 160119, 650135
2096921,2096921, 160041, 650066
2096921,2096921, 160053, 649966
2096921,2096921, 159624, 650486
2096921,2096921, 159661, 649105
2096921,2096921, 159900, 649023
2096921,2096921, 159762, 648983
2096921,2096921, 159606, 648852
2096921,2096921, 159256, 648964
2096921,2096921, 159296, 648429
2096921,2096921, 159464, 648111
2096921,2096921, 159073, 648175
2096921,2096921, 159269, 648364
2096921,2096921, 159237, 648065
2096921,2096921, 159094, 647955
2096921,2096921, 159386, 648199
2096921,2096921, 159150, 648013
2096921,2096921, 159253, 648048
2096921,2096921, 159293, 647881
2096921,2096921, 159264, 648056
2096921,2096921, 158895, 647874
2096921,2096921, 159113, 647758
2096921,2096921, 159163, 648124
2096921,2096921, 159418, 648269
2096921,2096921, 159504, 648747
2096921,2096921, 159450, 648377
2096921,2096921, 159255, 648935
2096921,2096921, 159412, 648568
2096921,2096921, 159330, 648491
2096921,2096921, 159343, 648674
2096921,2096921, 159401, 648289
2096921,2096921, 159332, 648264
2096921,2096921, 159393, 648643
2096921,2096921, 159688, 649026
2096921,2096921, 159709, 649055
2096921,2096921, 159839, 649375
2096921,2096921, 159594, 649413
2096921,2096921, 159598, 649187
2096921,2096921, 159258, 649088
2096921,2096921, 159469, 649766
2096921,2096921, 159820, 649814
2096921,2096921, 159757, 650215
2096921,2096921, 159866, 650241
2096921,2096921, 159860, 650050
2096921,2096921, 160282, 650842
2096921,2096921, 160177, 651065
2096921,2096921, 160127, 651045
2096921,2096921, 159955, 651268
2096921,2096921, 160408, 651332
2096921,2096921, 160496, 651975
2096921,2096921, 160022, 651827
2096921,2096921, 160154, 652064
2096921,2096921, 160146, 652039
2096921,2096921, 160668, 652219
2096921,2096921, 160612, 653347
2096921,2096921, 160896, 653651
2096921,2096921, 160662, 653491
2096921,2096921, 160737, 653379
2096921,2096921, 160855, 653423
2096921,2096921, 160993, 654279
2096921,2096921, 161148, 654151
2096921,2096921, 161172, 654315
2096921,2096921, 161013, 654703
2096921,2096921, 161567, 654705
2096921,2096921, 161236, 655407
2096921,2096921, 161440, 655581
2096921,2096921, 161098, 655732
2096921,2096921, 161079, 655619
2096921,2096921, 161229, 655329
2096921,2096921, 161289, 656201
2096921,2096921, 161414, 656265
2096921,2096921, 161486, 656295
2096921,2096921, 161847, 656335
2096921,2096921, 161999, 656406
2096921,2096921, 161881, 657230
2096921,2096921, 161884, 657555
2096921,2096921, 161698, 657498
2096921,2096921, 161600, 657522
2096921,2096921, 162094, 657569
2096921,2096921, 161953, 658357
2096921,2096921, 161794, 658345
2096921,2096921, 162141, 658223
2096921,2096921, 161904, 658578
2096921,2096921, 162493, 658792
2096921,2096921, 162603, 659767
2096921,2096921, 162484, 659896
2096921,2096921, 162279, 659671
2096921,2096921, 162412, 659372
2096921,2096921, 162691, 659499
2096921,2096921, 162316, 660254
2096921,2096921, 162379, 660299
2096921,2096921, 162507, 660524
2096921,2096921, 162489, 660819
2096921,2096921, 163094, 660890
2096921,2096921, 163200, 661493
2096921,2096921, 163294, 661905
2096921,2096921, 163140, 661675
2096921,2096921, 163381, 661852
2096921,2096921, 163339, 661622
2096921,2096921, 163093, 662335
2096921,2096921, 163328, 662353
2096921,2096921, 163186, 662349
2096921,2096921, 163586, 662374
2096921,2096921, 163550, 662481
2096921,2096921, 163532, 663132
2096921,2096921, 163797, 663492
2096921,2096921, 163511, 663327
2096921,2096921, 163584, 663504
2096921,2096921, 163717, 663328
2096921,2096921, 163649, 663677
2096921,2096921, 163557, 663619
2096921,2096921, 163625, 663773
2096921,2096921, 163555, 663744
2096921,2096921, 163740, 663925
2096921,2096921, 163857, 664644
2096921,2096921, 164006, 664606
2096921,2096921, 163854, 664410
2096921,2096921, 163936, 664410
2096921,2096921, 164069, 663984
2096921,2096921, 163988, 664385
2096921,2096921, 163533, 664535
2096921,2096921, 163982, 664491
2096921,2096921, 164138, 664633
2096921,2096921, 164109, 664641
2096921,2096921, 164334, 664758
2096921,2096921, 164051, 664705
2096921,2096921, 164039, 664506
2096921,2096921, 163900, 664436
2096921,2096921, 163787, 664790
2096921,2096921, 164024, 664798
2096921,2096921, 163802, 664672
2096921,2096921, 163984, 664814
2096921,2096921, 164244, 664945
2096921,2096921, 164403, 664621
2096921,2096921, 164236, 665041
2096921,2096921, 164135, 664686
2096921,2096921, 163917, 664859
2096921,2096921, 164148, 664826
2096921,2096921, 163967, 664741
2096921,2096921, 163719, 664489
2096921,2096921, 163814, 664390
2096921,2096921, 163750, 664664
2096921,2096921, 164121, 664527
2096921,2096921, 163841, 664548
2096921,2096921, 164133, 664289
2096921,2096921, 164128, 664151
2096921,2096921, 164070, 664335
2096921,2096921, 164137, 663906
2096921,2096921, 164041, 663963
2096921,2096921, 164065, 664032
2096921,2096921, 163985, 663877
2096921,2096921, 164162, 664001
2096921,2096921, 163880, 664094
2096921,2096921, 163821, 664194
2096921,2096921, 164090, 664545
2096921,2096921, 164007, 664507
2096921,2096921, 163866, 664444
2096921,2096921, 164078, 664243
2096921,2096921, 163470, 664102
2096921,2096921, 163683, 664100
2096921,2096921, 164079, 663613
2096921,2096921, 163745, 664050
2096921,2096921, 163642, 663915
2096921,2096921, 164074, 663978
2096921,2096921, 164053, 664245
2096921,2096921, 163909, 664197
2096921,2096921, 164155, 664338
2096921,2096921, 163921, 663933
2096921,2096921, 163898, 664110
2096921,2096921, 163806, 664285
2096921,2096921, 163751, 664331
2096921,2096921, 164083, 664184
2096921,2096921, 163860, 664503
2096921,2096921, 164118, 664693
2096921,2096921, 163994, 664746
2096921,2096921, 164048, 664999
2096921,2096921, 163979, 664797
2096921,2096921, 164211, 665042
2096921,2096921, 164333, 665083
2096921,2096921, 164355, 665216
2096921,2096921, 164138, 665084
2096921,2096921, 164385, 665353
2096921,2096921, 164643, 665314
2096921,2096921, 164309, 665747
2096921,2096921, 164548, 666137
2096921,2096921, 164421, 666422
2096921,2096921, 164285, 666311
2096921,2096921, 164603, 666561
2096921,2096921, 164418, 666210
2096921,2096921, 164605, 666694
2096921,2096921, 164817, 667110
2096921,2096921, 164650, 666860
2096921,2096921, 164863, 667348
2096921,2096921, 165147, 667271
2096921,2096921, 165285, 667888
2096921,2096921, 165276, 668330
2096921,2096921, 165117, 668485
2096921,2096921, 165065, 668075
2096921,2096921, 165169, 667917
2096921,2096921, 165199, 668772
2096921,2096921, 165065, 668878
2096921,2096921, 165121, 668819
2096921,2096921, 165092, 669102
2096921,2096921, 165537, 669143
2096921,2096921, 165216, 669686
2096921,2096921, 165438, 669806
2096921,2096921, 165380, 670086
2096921,2096921, 165447, 669851
2096921,2096921, 165585, 669943
2096921,2096921, 165635, 670624
2096921,2096921, 165869, 670468
2096921,2096921, 165695, 670582
2096921,2096921, 165507, 670642
2096921,2096921, 165836, 670580
2096921,2096921, 166048, 671481
2096921,2096921, 166165, 671437
2096921,2096921, 165792, 671483
2096921,2096921, 165810, 671430
2096921,2096921, 166127, 671187
2096921,2096921, 166339, 671992
2096921,2096921, 166369, 671945
2096921,2096921, 166189, 671833
2096921,2096921, 166145, 672096
2096921,2096921, 166315, 672324
2096921,2096921, 166604, 672903
2096921,2096921, 166448, 672941
2096921,2096921, 166209, 672738
2096921,2096921, 166028, 672733
2096921,2096921, 166527, 672637
2096921,2096921, 166710, 673636
2096921,2096921, 166214, 673549
2096921,2096921, 166475, 673464
2096921,2096921, 166526, 673634
2096921,2096921, 166576, 673963
2096921,2096921, 166772, 674495
2096921,2096921, 166926, 674682
2096921,2096921, 166762, 674439
2096921,2096921, 166627, 674208
2096921,2096921, 166645, 674227
2096921,2096921, 166758, 674996
2096921,2096921, 166872, 675218
2096921,2096921, 166746, 675404
2096921,2096921, 166808, 675427
2096921,2096921, 167137, 675260
2096921,2096921, 167196, 675826
2096921,2096921, 167193, 676004
2096921,2096921, 167244, 676111
2096921,2096921, 167389, 676022
2096921,2096921, 167222, 675962
2096921,2096921, 167070, 676450
2096921,2096921, 167298, 676560
2096921,2096921, 167369, 676704
2096921,2096921, 167565, 676914
2096921,2096921, 167427, 676742
2096921,2096921, 167864, 677460
2096921,2096921, 167637, 677808
2096921,2096921, 167688, 677408
2096921,2096921, 167479, 677319
2096921,2096921, 167763, 677263
2096921,2096921, 168105, 678073
2096921,2096921, 167965, 677907
2096921,2096921, 167788, 678172
2096921,2096921, 167848, 678244
2096921,2096921, 168068, 678420
2096921,2096921, 168179, 678914
2096921,2096921, 168114, 679130
2096921,2096921, 168375, 679027
2096921,2096921, 168179, 679153
2096921,2096921, 168283, 678722
2096921,2096921, 168237, 679627
2096921,2096921, 168106, 679635
2096921,2096921, 167984, 679458
2096921,2096921, 168024, 679640
2096921,2096921, 168366, 679481
2096921,2096921, 168539, 680061
2096921,2096921, 168378, 680482
2096921,2096921, 168237, 680115
2096921,2096921, 168441, 680242
2096921,2096921, 168348, 680159
2096921,2096921, 168415, 680631
2096921,2096921, 168743, 680577
2096921,2096921, 168606, 680788
2096921,2096921, 168788, 681034
2096921,2096921, 168786, 680995
2096921,2096921, 168708, 681187
2096921,2096921, 168756, 681821
2096921,2096921, 168669, 681874
2096921,2096921, 168824, 681500
2096921,2096921, 168715, 681225
2096921,2096921, 168684, 681801
2096921,2096921, 168631, 682116
2096921,2096921, 168890, 682218
2096921,2096921, 169085, 682080
2096921,2096921, 168983, 682350
2096921,2096921, 169499, 682524
2096921,2096921, 169286, 683034
2096921,2096921, 169225, 682971
2096921,2096921, 169201, 682735
2096921,2096921, 169349, 682798
2096921,2096921, 169558, 683038
2096921,2096921, 169201, 683273
2096921,2096921, 169337, 683382
2096921,2096921, 169274, 683654
2096921,2096921, 169353, 683347
2096921,2096921, 169495, 683715
2096921,2096921, 169540, 683899
2096921,2096921, 169543, 684292
2096921,2096921, 169421, 684011
2096921,2096921, 169515, 683640
2096921,2096921, 169504, 684116
2096921,2096921, 169710, 684342
2096921,2096921, 169746, 684686
2096921,2096921, 169433, 684376
2096921,2096921, 169633, 684604
2096921,2096921, 169683, 684959
2096921,2096921, 169935, 685245
2096921,2096921, 169589, 685336
2096921,2096921, 169790, 684964
2096921,2096921, 169741, 684932
2096921,2096921, 169694, 685265
2096921,2096921, 169807, 685309
2096921,2096921, 169740, 685444
2096921,2096921, 169982, 685667
2096921,2096921, 170371, 685658
2096921,2096921, 170370, 686240
2096921,2096921, 170208, 686186
2096921,2096921, 170198, 685859
2096921,2096921, 169932, 686205
2096921,2096921, 170121, 686253
2096921,2096921, 170017, 686434
2096921,2096921, 169882, 686319
2096921,2096921, 170213, 686401
2096921,2096921, 170132, 686639
2096921,2096921, 170519, 686422
2096921,2096921, 170613, 686956
2096921,2096921, 170506, 687199
2096921,2096921, 170473, 686882
2096921,2096921, 170198, 686734
2096921,2096921, 170330, 686833
2096921,2096921, 170389, 687594
2096921,2096921, 170457, 687230
2096921,2096921, 170354, 687271
2096921,2096921, 170301, 687895
2096921,2096921, 170308, 687523
2096921,2096921, 170723, 687841
2096921,2096921, 170587, 687895
2096921,2096921, 170808, 687798
2096921,2096921, 170387, 687640
2096921,2096921, 170438, 687622
2096921,2096921, 170584, 688131
2096921,2096921, 170742, 687953
2096921,2096921, 170527, 688253
2096921,2096921, 170735, 688238
2096921,2096921, 170747, 688369
2096921,2096921, 170899, 688666
2096921,2096921, 170935, 688616
2096921,2096921, 170887, 688815
2096921,2096921, 170757, 689048
2096921,2096921, 170727, 688685
2096921,2096921, 170972, 689131
2096921,2096921, 170737, 689084
2096921,2096921, 170993, 689223
2096921,2096921, 170906, 689193
2096921,2096921, 171186, 689327
2096921,2096921, 171111, 689849
2096921,2096921, 170959, 690037
2096921,2096921, 171371, 689960
2096921,2096921, 170989, 689806
2096921,2096921, 171160, 689844
2096921,2096921, 171015, 689914
2096921,2096921, 171051, 690092
2096921,2096921, 170901, 690163
2096921,2096921, 171276, 690254
2096921,2096921, 171285, 690109
2096921,2096921, 171203, 690559
2096921,2096921, 171384, 690700
2096921,2096921, 171210, 690493
2096921,2096921, 171047, 690668
2096921,2096921, 171210, 690542
2096921,2096921, 171324, 690672
2096921,2096921, 171145, 690673
2096921,2096921, 171247, 690809
2096921,2096921, 171336, 690904
2096921,2096921, 171875, 691075
2096921,2096921, 171646, 691312
2096921,2096921, 171648, 691639
2096921,2096921, 171385, 691621
2096921,2096921, 171451, 691222
2096921,2096921, 171539, 691005
2096921,2096921, 171561, 691340
2096921,2096921, 171447, 691658
2096921,2096921, 171299, 691656
2096921,2096921, 171220, 691961
2096921,2096921, 171842, 691766
2096921,2096921, 171756, 692264
2096921,2096921, 171865, 692427
2096921,2096921, 171584, 692082
2096921,2096921, 171741, 692089
2096921,2096921, 171748, 692119
2096921,2096921, 172001, 692529
2096921,2096921, 171695, 692288
2096921,2096921, 171946, 692289
2096921,2096921, 171825, 692778
2096921,2096921, 171863, 692453
2096921,2096921, 171788, 692759
2096921,2096921, 171667, 692792
2096921,2096921, 171814, 692846
2096921,2096921, 172068, 692758
2096921,2096921, 171893, 692706
2096921,2096921, 171682, 692947
2096921,2096921, 171462, 692883
2096921,2096921, 172036, 692966
2096921,2096921, 171826, 692913
2096921,2096921, 172017, 692991
2096921,2096921, 171948, 693218
2096921,2096921, 171968, 693557
2096921,2096921, 171743, 693934
2096921,2096921, 171938, 693432
2096921,2096921, 172000, 693138
2096921,2096921, 171887, 693500
2096921,2096921, 171792, 693373
2096921,2096921, 172163, 693503
2096921,2096921, 171934, 693360
2096921,2096921, 172019, 693447
2096921,2096921, 172169, 693600
2096921,2096921, 172309, 693631
2096921,2096921, 171807, 693934
2096921,2096921, 171974, 693605
2096921,2096921, 172164, 693581
2096921,2096921, 172078, 693953
2096921,2096921, 172124, 694068
2096921,2096921, 172342, 694315
2096921,2096921, 172352, 694029
2096921,2096921, 172331, 694112
2096921,2096921, 172240, 694218
2096921,2096921, 172373, 694396
2096921,2096921, 172245, 694253
2096921,2096921, 172288, 694276
2096921,2096921, 172413, 693943
2096921,2096921, 172289, 694090
2096921,2096921, 172387, 694218
2096921,2096921, 172280, 694188
2096921,2096921, 172302, 694702
2096921,2096921, 172316, 694494
2096921,2096921, 172317, 694978
2096921,2096921, 172387, 695095
2096921,2096921, 172474, 694714
2096921,2096921, 172377, 694424
2096921,2096921, 172012, 694507
2096921,2096921, 172109, 693974
2096921,2096921, 171999, 693626
2096921,2096921, 172334, 693531
2096921,2096921, 172473, 693972
2096921,2096921, 172187, 693763
2096921,2096921, 171856, 693587
2096921,2096921, 172112, 693526
2096921,2096921, 171796, 693322
2096921,2096921, 171529, 693195
2096921,2096921, 171481, 693204
2096921,2096921, 171540, 692257
2096921,2096921, 171267, 691720
2096921,2096921, 171638, 692304
2096921,2096921, 171600, 692203
2096921,2096921, 171051, 692061
2096921,2096921, 171080, 690287
2096921,2096921, 171316, 690394
2096921,2096921, 170915, 690485
2096921,2096921, 170941, 690009
2096921,2096921, 170485, 690110
2096921,2096921, 170166, 688541
2096921,2096921, 170295, 688201
2096921,2096921, 170502, 688410
2096921,2096921, 170492, 688330
2096921,2096921, 169626, 688423
2096921,2096921, 169578, 685146
2096921,2096921, 169393, 684624
2096921,2096921, 169093, 683830
2096921,2096921, 169138, 683776
2096921,2096921, 167770, 683996
2096921,2096921, 167381, 679557
2096921,2096921, 167618, 678488
2096921,2096921, 167444, 678290
2096921,2096921, 167697, 678340
2096921,2096921, 166944, 678604
2096921,2096921, 166672, 675431
2096921,2096921, 166532, 674578
2096921,2096921, 166664, 674607
2096921,2096921, 166417, 674398
2096921,2096921, 165797, 674353
2096921,2096921, 165616, 671616
2096921,2096921, 165174, 671322
2096921,2096921, 165265, 670995
2096921,2096921, 165370, 671159
2096921,2096921, 165293, 671112
2096921,2096921, 165275, 669947
2096921,2096921, 165272, 669591
2096921,2096921, 164655, 669286
2096921,2096921, 164794, 668911
2096921,2096921, 164376, 669040
2096921,2096921, 164274, 667976
2096921,2096921, 164241, 667422
2096921,2096921, 164406, 667283
2096921,2096921, 164424, 667448
2096921,2096921, 164154, 667470
2096921,2096921, 163962, 666632
2096921,2096921, 164153, 666650
2096921,2096921, 164292, 666568
2096921,2096921, 164043, 666473
2096921,2096921, 164107, 666439
2096921,2096921, 163811, 666180
2096921,2096921, 163750, 665970
2096921,2096921, 163686, 665795
2096921,2096921, 164142, 666169
2096921,2096921, 164069, 665966
2096921,2096921, 163875, 665808
2096921,2096921, 164145, 666038
2096921,2096921, 164022, 665752
2096921,2096921, 163828, 665970
2096921,2096921, 163537, 665670
2096921,2096921, 163760, 665718
2096921,2096921, 163722, 665900
2096921,2096921, 163872, 666015
2096921,2096921, 163791, 665938
2096921,2096921, 164295, 666246
2096921,2096921, 164415, 666615
2096921,2096921, 164119, 666790
2096921,2096921, 164171, 666840
2096921,2096921, 163892, 666880
2096921,2096921, 164459, 666551
2096921,2096921, 164360, 666697
2096921,2096921, 164441, 666643
2096921,2096921, 164212, 667050
2096921,2096921, 164324, 666965
2096921,2096921, 164389, 667072
2096921,2096921, 164278, 667534
2096921,2096921, 164287, 667558
2096921,2096921, 164257, 667395
2096921,2096921, 164468, 667407
2096921,2096921, 164495, 667588
2096921,2096921, 164508, 668174
2096921,2096921, 164434, 668238
2096921,2096921, 164398, 668597
2096921,2096921, 164471, 668488
2096921,2096921, 164879, 668662
2096921,2096921, 165023, 669205
2096921,2096921, 165162, 669847
2096921,2096921, 164927, 669642
2096921,2096921, 164831, 669920
2096921,2096921, 165110, 669845
2096921,2096921, 165282, 670718
2096921,2096921, 164972, 670631
2096921,2096921, 165099, 670510
2096921,2096921, 165209, 670792
2096921,2096921, 165513, 670855
2096921,2096921, 165622, 672099
2096921,2096921, 165598, 672286
2096921,2096921, 165554, 672166
2096921,2096921, 165580, 672019
2096921,2096921, 165816, 672046
2096921,2096921, 165755, 673088
2096921,2096921, 165888, 673094
2096921,2096921, 166105, 673232
2096921,2096921, 165981, 672921
2096921,2096921, 166292, 673215
2096921,2096921, 166232, 673911
2096921,2096921, 166414, 674068
2096921,2096921, 166220, 674106
2096921,2096921, 166146, 673985
2096921,2096921, 166369, 673918
2096921,2096921, 166303, 674697
2096921,2096921, 166244, 675045
2096921,2096921, 166492, 675113
2096921,2096921, 166468, 674953
2096921,2096921, 166878, 675029
2096921,2096921, 166863, 675938
2096921,2096921, 166894, 676238
2096921,2096921, 166850, 676017
2096921,2096921, 166964, 675885
2096921,2096921, 166988, 676301
2096921,2096921, 167241, 677042
2096921,2096921, 167392, 677402
2096921,2096921, 167157, 677314
2096921,2096921, 166894, 677075
2096921,2096921, 167412, 677303
2096921,2096921, 167597, 678343
2096921,2096921, 167487, 678614
2096921,2096921, 167739, 678511
2096921,2096921, 167289, 678499
2096921,2096921, 167957, 678245
2096921,2096921, 167756, 679316
2096921,2096921, 167742, 679349
2096921,2096921, 168002, 679505
2096921,2096921, 167486, 679658
2096921,2096921, 168007, 679557
2096921,2096921, 168198, 680714
2096921,2096921, 168538, 680827
2096921,2096921, 168433, 680934
2096921,2096921, 168372, 680652
2096921,2096921, 168647, 680651
2096921,2096921, 168346, 681239
2096921,2096921, 168353, 681598
2096921,2096921, 168486, 681738
2096921,2096921, 168529, 681811
2096921,2096921, 168602, 681683
2096921,2096921, 168617, 682278
2096921,2096921, 168787, 682673
2096921,2096921, 168813, 682455
2096921,2096921, 168420, 682439
2096921,2096921, 168384, 682293
2096921,2096921, 168406, 682986
2096921,2096921, 168651, 682914
2096921,2096921, 168736, 682970
2096921,2096921, 168857, 682965
2096921,2096921, 169038, 682968
2096921,2096921, 168854, 683169
2096921,2096921, 169151, 683315
2096921,2096921, 168776, 683334
2096921,2096921, 168676, 683392
2096921,2096921, 168949, 683646
2096921,2096921, 169138, 683473
2096921,2096921, 168662, 683740
2096921,2096921, 168993, 683763
2096921,2096921, 168875, 683760
2096921,2096921, 168926, 683810
2096921,2096921, 168964, 683961
2096921,2096921, 169437, 683887
2096921,2096921, 168869, 683732
2096921,2096921, 168819, 683724
2096921,2096921, 168855, 683730
2096921,2096921, 169116, 683809
2096921,2096921, 168844, 683875
2096921,2096921, 169318, 683745
2096921,2096921, 169306, 683804
2096921,2096921, 169167, 683708
2096921,2096921, 168949, 683670
2096921,2096921, 168977, 683654
2096921,2096921, 168941, 683698
2096921,2096921, 169280, 683717
2096921,2096921, 169075, 683714
2096921,2096921, 168384, 683423
2096921,2096921, 168895, 683501
2096921,2096921, 168909, 683393
2096921,2096921, 168887, 683231
2096921,2096921, 168668, 683426
2096921,2096921, 168841, 683158
2096921,2096921, 168819, 683192
2096921,2096921, 168706, 683122
2096921,2096921, 168961, 682856
2096921,2096921, 168616, 683207
2096921,2096921, 168839, 682607
2096921,2096921, 168586, 682532
2096921,2096921, 168590, 682685
2096921,2096921, 168871, 682845
2096921,2096921, 168493, 682626
2096921,2096921, 168690, 682291
2096921,2096921, 168726, 682279
2096921,2096921, 168591, 682482
2096921,2096921, 168682, 682196
2096921,2096921, 168395, 682203
2096921,2096921, 168621, 682501
2096921,2096921, 168400, 682029
2096921,2096921, 168402, 682088
2096921,2096921, 168587, 682458
2096921,2096921, 168436, 682497
2096921,2096921, 168686, 682578
2096921,2096921, 168846, 682360
2096921,2096921, 168504, 682490
2096921,2096921, 168352, 682314
2096921,2096921, 168487, 682531
2096921,2096921, 168575, 682475
2096921,2096921, 168454, 682290
2096921,2096921, 168574, 682660
2096921,2096921, 168637, 682594
2096921,2096921, 168718, 682582
2096921,2096921, 168831, 682612
2096921,2096921, 168899, 683040
2096921,2096921, 168642, 683021
2096921,2096921, 168737, 682783
2096921,2096921, 168903, 682682
2096921,2096921, 168965, 682885
2096921,2096921, 168796, 683030
2096921,2096921, 168631, 682723
2096921,2096921, 168959, 682654
2096921,2096921, 168930, 682829
2096921,2096921, 169162, 683455
2096921,2096921, 168874, 683473
2096921,2096921, 168575, 683724
2096921,2096921, 168788, 683783
2096921,2096921, 168726, 683569
2096921,2096921, 169229, 684229
2096921,2096921, 169000, 684263
2096921,2096921, 169077, 684705
2096921,2096921, 169174, 684654
2096921,2096921, 169425, 684325
2096921,2096921, 169655, 685105
2096921,2096921, 169448, 685361
2096921,2096921, 169783, 685600
2096921,2096921, 169441, 685111
2096921,2096921, 169733, 685197
2096921,2096921, 169830, 685794
