2096921,2096921,183203,611497,0
2096921,2096921,183326,611449,0
2096921,2096921,183163,611379,0
2096921,2096921,183415,611610,0
2096921,2096921,183346,611438,0
2096921,2096921,183320,611269,0
2096921,2096921,183371,611151,0
2096921,2096921,183142,610993,0
2096921,2096921,183334,611342,0
2096921,2096921,182765,611112,0
2096921,2096921,182749,610670,0
2096921,2096921,182921,610455,0
2096921,2096921,183104,610706,0
2096921,2096921,183074,610425,0
2096921,2096921,182602,610347,0
2096921,2096921,182284,609688,0
2096921,2096921,182148,609307,0
2096921,2096921,182167,609540,0
2096921,2096921,182211,609610,0
2096921,2096921,181932,609453,0
2096921,2096921,181910,608429,0
2096921,2096921,181988,608188,0
2096921,2096921,181889,608395,0
2096921,2096921,181838,608353,0
2096921,2096921,180901,608266,0
2096921,2096921,180689,605853,0
2096921,2096921,180597,605280,0
2096921,2096921,180546,605158,0
2096921,2096921,180549,605068,0
2096921,2096921,179319,605167,0
2096921,2096921,178597,602389,0
2096921,2096921,178968,601703,0
2096921,2096921,178911,601619,0
2096921,2096921,179078,601489,0
2096921,2096921,177684,601585,0
2096921,2096921,177779,599232,0
2096921,2096921,177476,599053,0
2096921,2096921,177664,598940,0
2096921,2096921,177511,598902,0
2096921,2096921,177057,598555,0
2096921,2096921,176760,597455,0
2096921,2096921,176677,597072,0
2096921,2096921,176690,597006,0
2096921,2096921,176486,596855,0
2096921,2096921,176417,597073,0
2096921,2096921,176061,595810,0
2096921,2096921,176059,595495,0
2096921,2096921,175889,595386,0
2096921,2096921,176056,595249,0
2096921,2096921,176094,595449,0
2096921,2096921,175949,594807,0
2096921,2096921,175687,594446,0
2096921,2096921,175916,594720,0
2096921,2096921,175908,594620,0
2096921,2096921,175482,594379,0
2096921,2096921,175358,594139,0
2096921,2096921,175216,594005,0
2096921,2096921,174969,593998,0
2096921,2096921,175253,593921,0
2096921,2096921,174998,594159,0
2096921,2096921,175307,594065,0
2096921,2096921,175477,593828,0
2096921,2096921,175273,593904,0
2096921,2096921,174960,593986,0
2096921,2096921,174801,594008,0
2096921,2096921,174998,593510,0
2096921,2096921,175108,594015,0
2096921,2096921,175036,593735,0
2096921,2096921,175183,593417,0
2096921,2096921,175154,594039,0
2096921,2096921,175427,594242,0
2096921,2096921,175661,594441,0
2096921,2096921,175322,594526,0
2096921,2096921,175187,594172,0
2096921,2096921,175250,594341,0
2096921,2096921,175334,594836,0
2096921,2096921,175263,594689,0
2096921,2096921,175484,594605,0
2096921,2096921,175422,594881,0
2096921,2096921,175604,594784,0
2096921,2096921,175645,594972,0
2096921,2096921,175749,595235,0
2096921,2096921,175502,595162,0
2096921,2096921,175651,595286,0
2096921,2096921,175841,595181,0
2096921,2096921,175925,595528,0
2096921,2096921,175771,595909,0
2096921,2096921,176008,595724,0
2096921,2096921,175944,595833,0
2096921,2096921,176160,595927,0
2096921,2096921,176064,596669,0
2096921,2096921,176127,596695,0
2096921,2096921,176144,596851,0
2096921,2096921,176426,596905,0
2096921,2096921,176407,596914,0
2096921,2096921,176291,597624,0
2096921,2096921,176370,597672,0
2096921,2096921,176440,597310,0
2096921,2096921,176665,597319,0
2096921,2096921,177035,597491,0
2096921,2096921,176844,598182,0
2096921,2096921,177042,598422,0
2096921,2096921,176897,598538,0
2096921,2096921,176700,598455,0
2096921,2096921,177353,598604,0
2096921,2096921,177341,599621,0
2096921,2096921,177348,599542,0
2096921,2096921,177249,599418,0
2096921,2096921,177271,599349,0
2096921,2096921,177526,599350,0
2096921,2096921,177853,600430,0
2096921,2096921,177586,600367,0
2096921,2096921,177706,600405,0
2096921,2096921,177814,600629,0
2096921,2096921,177978,600495,0
2096921,2096921,178142,601482,0
2096921,2096921,178251,601132,0
2096921,2096921,177604,601255,0
2096921,2096921,178111,601496,0
2096921,2096921,178075,601491,0
2096921,2096921,178433,602152,0
2096921,2096921,178452,602268,0
2096921,2096921,178747,602109,0
2096921,2096921,178812,602088,0
2096921,2096921,178725,602038,0
2096921,2096921,178798,603076,0
2096921,2096921,178573,602937,0
2096921,2096921,178673,603106,0
2096921,2096921,178979,602993,0
2096921,2096921,179004,602995,0
2096921,2096921,179184,603784,0
2096921,2096921,179146,604210,0
2096921,2096921,179063,604463,0
2096921,2096921,179160,604317,0
2096921,2096921,179560,604265,0
2096921,2096921,179688,604846,0
2096921,2096921,179764,604951,0
2096921,2096921,179517,604735,0
2096921,2096921,179505,604956,0
2096921,2096921,180111,604577,0
2096921,2096921,179879,605577,0
2096921,2096921,179966,605741,0
2096921,2096921,179807,605887,0
2096921,2096921,179720,606054,0
2096921,2096921,180105,605954,0
2096921,2096921,180295,606577,0
2096921,2096921,179928,606799,0
2096921,2096921,180252,606638,0
2096921,2096921,180458,606983,0
2096921,2096921,180550,606821,0
2096921,2096921,180630,607429,0
2096921,2096921,180696,607522,0
2096921,2096921,180838,607703,0
2096921,2096921,180847,607785,0
2096921,2096921,180700,607734,0
2096921,2096921,180558,608214,0
2096921,2096921,180881,608394,0
2096921,2096921,180728,608326,0
2096921,2096921,180872,608158,0
2096921,2096921,180971,608274,0
2096921,2096921,181144,608612,0
2096921,2096921,181297,608963,0
2096921,2096921,181353,608899,0
2096921,2096921,181053,609108,0
2096921,2096921,181207,609106,0
2096921,2096921,181435,609285,0
2096921,2096921,181289,609083,0
2096921,2096921,181398,609409,0
2096921,2096921,181254,609438,0
2096921,2096921,181594,609243,0
2096921,2096921,181364,609743,0
2096921,2096921,181308,609979,0
2096921,2096921,181479,609686,0
2096921,2096921,181623,610055,0
2096921,2096921,181381,609982,0
2096921,2096921,181504,610308,0
2096921,2096921,181342,610015,0
2096921,2096921,181468,609854,0
2096921,2096921,181564,610098,0
2096921,2096921,181408,609913,0
2096921,2096921,181533,610254,0
2096921,2096921,181758,610274,0
2096921,2096921,181606,610272,0
2096921,2096921,181789,610220,0
2096921,2096921,181463,610499,0
2096921,2096921,181324,610144,0
2096921,2096921,181533,609993,0
2096921,2096921,181619,609822,0
2096921,2096921,181586,610079,0
2096921,2096921,181564,610207,0
2096921,2096921,181556,610308,0
2096921,2096921,181607,610012,0
2096921,2096921,181805,610346,0
2096921,2096921,181372,610004,0
2096921,2096921,181350,610036,0
2096921,2096921,181298,610059,0
2096921,2096921,181122,610113,0
2096921,2096921,181588,610219,0
2096921,2096921,181439,610066,0
2096921,2096921,181433,610093,0
2096921,2096921,181582,610213,0
2096921,2096921,181188,609802,0
2096921,2096921,181690,610117,0
2096921,2096921,181602,609999,0
2096921,2096921,181422,610061,0
2096921,2096921,181527,609979,0
2096921,2096921,181412,610012,0
2096921,2096921,181693,609871,0
2096921,2096921,181436,609869,0
2096921,2096921,181433,609687,0
2096921,2096921,181277,609885,0
2096921,2096921,181360,610304,0
2096921,2096921,181690,610359,0
2096921,2096921,181617,610214,0
2096921,2096921,181735,610348,0
2096921,2096921,181415,610281,0
2096921,2096921,181511,610501,0
2096921,2096921,181502,610212,0
2096921,2096921,181414,610326,0
2096921,2096921,181735,610353,0
2096921,2096921,181668,610472,0
2096921,2096921,181530,610400,0
2096921,2096921,181443,610577,0
2096921,2096921,181662,610278,0
2096921,2096921,181692,610073,0
2096921,2096921,181569,610473,0
2096921,2096921,181686,610283,0
2096921,2096921,181550,610462,0
2096921,2096921,181416,610586,0
2096921,2096921,181694,610357,0
2096921,2096921,181690,611025,0
2096921,2096921,181832,610828,0
2096921,2096921,181894,610937,0
2096921,2096921,181973,610795,0
2096921,2096921,182026,610950,0
2096921,2096921,182119,611624,0
2096921,2096921,181605,611837,0
2096921,2096921,181984,611616,0
2096921,2096921,182134,611483,0
2096921,2096921,182296,611573,0
2096921,2096921,182332,612323,0
2096921,2096921,182249,612217,0
2096921,2096921,182314,612088,0
2096921,2096921,182463,612505,0
2096921,2096921,182302,612353,0
2096921,2096921,182531,612763,0
2096921,2096921,182638,612920,0
2096921,2096921,182361,612648,0
2096921,2096921,182405,613073,0
2096921,2096921,182640,612907,0
2096921,2096921,182690,613469,0
2096921,2096921,183135,613548,0
2096921,2096921,183061,613397,0
2096921,2096921,182742,613637,0
2096921,2096921,182800,613624,0
2096921,2096921,182931,613925,0
2096921,2096921,183137,613934,0
2096921,2096921,182954,614135,0
2096921,2096921,183039,614005,0
2096921,2096921,183031,614072,0
2096921,2096921,183002,614342,0
2096921,2096921,183150,614589,0
2096921,2096921,183051,614445,0
2096921,2096921,183295,614463,0
2096921,2096921,183399,614929,0
2096921,2096921,183539,614779,0
2096921,2096921,183402,614684,0
2096921,2096921,183292,614836,0
2096921,2096921,183162,614784,0
2096921,2096921,183328,614929,0
2096921,2096921,183628,615151,0
2096921,2096921,183669,615484,0
2096921,2096921,183630,615372,0
2096921,2096921,183793,615563,0
2096921,2096921,183819,615381,0
2096921,2096921,183736,615807,0
2096921,2096921,183505,615982,0
2096921,2096921,183621,615864,0
2096921,2096921,183903,615747,0
2096921,2096921,184112,615918,0
2096921,2096921,184139,616409,0
2096921,2096921,184218,616242,0
2096921,2096921,184067,616324,0
2096921,2096921,184204,616425,0
2096921,2096921,184293,616547,0
2096921,2096921,184276,616727,0
2096921,2096921,183786,616778,0
2096921,2096921,184123,616576,0
2096921,2096921,184005,617051,0
2096921,2096921,184032,616975,0
2096921,2096921,184437,617370,0
2096921,2096921,184362,617350,0
2096921,2096921,184462,617511,0
2096921,2096921,184515,617089,0
2096921,2096921,184555,617062,0
2096921,2096921,184324,617467,0
2096921,2096921,184250,617562,0
2096921,2096921,184621,617517,0
2096921,2096921,184455,617506,0
2096921,2096921,184430,617288,0
2096921,2096921,184652,617796,0
2096921,2096921,184882,617930,0
2096921,2096921,184949,618148,0
2096921,2096921,184480,618018,0
2096921,2096921,184896,618205,0
2096921,2096921,184733,618322,0
2096921,2096921,184886,617903,0
2096921,2096921,185095,618261,0
2096921,2096921,184713,618185,0
2096921,2096921,184804,618345,0
2096921,2096921,184841,618715,0
2096921,2096921,184954,618210,0
2096921,2096921,185042,618792,0
2096921,2096921,185202,618724,0
2096921,2096921,185224,618900,0
2096921,2096921,185254,619000,0
2096921,2096921,185360,618879,0
2096921,2096921,185152,619153,0
2096921,2096921,185143,619223,0
2096921,2096921,185106,618871,0
2096921,2096921,185238,618825,0
2096921,2096921,185358,619340,0
2096921,2096921,185490,619368,0
2096921,2096921,185738,619520,0
2096921,2096921,185488,619284,0
2096921,2096921,185489,619169,0
2096921,2096921,185412,619534,0
2096921,2096921,185471,619585,0
2096921,2096921,185613,619360,0
2096921,2096921,185603,619486,0
2096921,2096921,185199,619754,0
2096921,2096921,185685,620250,0
2096921,2096921,185800,619989,0
2096921,2096921,185742,619839,0
2096921,2096921,185522,620065,0
2096921,2096921,185595,619976,0
2096921,2096921,185565,620025,0
2096921,2096921,185427,620270,0
2096921,2096921,185496,620048,0
2096921,2096921,185799,620341,0
2096921,2096921,185733,620569,0
2096921,2096921,185819,620675,0
2096921,2096921,185533,620543,0
2096921,2096921,185447,620469,0
2096921,2096921,185732,620624,0
2096921,2096921,185790,620485,0
2096921,2096921,185897,620587,0
2096921,2096921,185924,620691,0
2096921,2096921,185808,620574,0
2096921,2096921,186172,620560,0
2096921,2096921,186083,620915,0
2096921,2096921,186163,621001,0
2096921,2096921,186286,621081,0
2096921,2096921,186165,621160,0
2096921,2096921,186041,621085,0
2096921,2096921,186227,621087,0
2096921,2096921,186178,621253,0
2096921,2096921,185973,621148,0
2096921,2096921,186254,621286,0
2096921,2096921,186315,621247,0
2096921,2096921,186326,621409,0
2096921,2096921,186402,621457,0
2096921,2096921,186225,621504,0
2096921,2096921,186396,621288,0
2096921,2096921,186356,621621,0
2096921,2096921,186323,621633,0
2096921,2096921,186469,621479,0
2096921,2096921,186382,621852,0
2096921,2096921,185982,621522,0
2096921,2096921,186307,621332,0
2096921,2096921,186072,621837,0
2096921,2096921,186382,621690,0
2096921,2096921,186584,621523,0
2096921,2096921,186588,621985,0
2096921,2096921,186557,621855,0
2096921,2096921,186421,621934,0
2096921,2096921,186263,621717,0
2096921,2096921,186387,621760,0
2096921,2096921,186546,621963,0
2096921,2096921,186618,621830,0
2096921,2096921,186353,622138,0
2096921,2096921,186574,622076,0
2096921,2096921,186581,621902,0
2096921,2096921,186661,622008,0
2096921,2096921,186663,622250,0
2096921,2096921,186717,622369,0
2096921,2096921,186430,622034,0
2096921,2096921,186609,622092,0
2096921,2096921,186556,621972,0
2096921,2096921,186432,622007,0
2096921,2096921,186527,622247,0
2096921,2096921,186556,622149,0
2096921,2096921,186690,622056,0
2096921,2096921,186604,622222,0
2096921,2096921,186717,622262,0
2096921,2096921,186669,622410,0
2096921,2096921,186758,622484,0
2096921,2096921,186759,622301,0
2096921,2096921,186490,622468,0
2096921,2096921,186717,622383,0
2096921,2096921,187062,622461,0
2096921,2096921,186687,622851,0
2096921,2096921,186725,622790,0
2096921,2096921,186687,622222,0
2096921,2096921,186805,622770,0
2096921,2096921,186502,623006,0
2096921,2096921,186716,622509,0
2096921,2096921,186798,622593,0
2096921,2096921,186818,622661,0
2096921,2096921,186761,622880,0
2096921,2096921,186903,622908,0
2096921,2096921,187037,623347,0
2096921,2096921,187124,623534,0
2096921,2096921,187013,623195,0
2096921,2096921,187182,623140,0
2096921,2096921,187078,623131,0
2096921,2096921,186998,622879,0
2096921,2096921,186790,623067,0
2096921,2096921,186958,622755,0
2096921,2096921,187032,623127,0
2096921,2096921,187078,623075,0
2096921,2096921,187020,623020,0
2096921,2096921,187030,623335,0
2096921,2096921,187085,623254,0
2096921,2096921,186988,622959,0
2096921,2096921,187229,623210,0
2096921,2096921,186974,623220,0
2096921,2096921,187058,623168,0
2096921,2096921,186794,623199,0
2096921,2096921,186866,623151,0
2096921,2096921,187067,623427,0
2096921,2096921,187199,623546,0
2096921,2096921,187105,623419,0
2096921,2096921,187006,623364,0
2096921,2096921,187183,623123,0
2096921,2096921,187303,623500,0
2096921,2096921,186996,623526,0
2096921,2096921,187088,623393,0
2096921,2096921,187472,623438,0
2096921,2096921,186989,623329,0
2096921,2096921,186990,623497,0
2096921,2096921,187179,623627,0
2096921,2096921,187320,623750,0
2096921,2096921,187196,623474,0
2096921,2096921,187508,623442,0
2096921,2096921,187314,623415,0
2096921,2096921,187160,623557,0
2096921,2096921,187093,623395,0
2096921,2096921,187268,623339,0
2096921,2096921,187423,623536,0
2096921,2096921,187256,623747,0
2096921,2096921,187344,623550,0
2096921,2096921,187254,623523,0
2096921,2096921,187381,623877,0
2096921,2096921,187194,623588,0
2096921,2096921,187344,623755,0
2096921,2096921,187301,623642,0
2096921,2096921,187169,623426,0
2096921,2096921,187184,623483,0
2096921,2096921,186890,623714,0
2096921,2096921,187239,623703,0
2096921,2096921,187391,623584,0
2096921,2096921,187249,623762,0
2096921,2096921,187306,623799,0
2096921,2096921,186961,623653,0
2096921,2096921,187002,623485,0
2096921,2096921,187061,623647,0
2096921,2096921,187173,623380,0
2096921,2096921,187085,623214,0
2096921,2096921,187113,623521,0
2096921,2096921,187159,623271,0
2096921,2096921,187245,623439,0
2096921,2096921,187103,623666,0
2096921,2096921,187201,623573,0
2096921,2096921,187326,623488,0
2096921,2096921,186950,623675,0
2096921,2096921,187192,623205,0
2096921,2096921,187278,623269,0
2096921,2096921,187383,623473,0
2096921,2096921,187346,623363,0
2096921,2096921,187315,623600,0
2096921,2096921,187655,623323,0
2096921,2096921,187352,623519,0
2096921,2096921,187314,623203,0
2096921,2096921,187070,623259,0
2096921,2096921,186917,623471,0
2096921,2096921,187030,623397,0
2096921,2096921,187388,623182,0
2096921,2096921,187111,623051,0
2096921,2096921,187066,623205,0
2096921,2096921,186959,623619,0
2096921,2096921,186940,623026,0
2096921,2096921,187380,623079,0
2096921,2096921,187194,623484,0
2096921,2096921,187159,623379,0
2096921,2096921,187061,622803,0
2096921,2096921,186822,623145,0
2096921,2096921,187190,623100,0
2096921,2096921,187019,623176,0
2096921,2096921,186700,623285,0
2096921,2096921,186756,622649,0
2096921,2096921,186745,622547,0
2096921,2096921,186446,622420,0
2096921,2096921,186701,622574,0
2096921,2096921,186822,622170,0
2096921,2096921,186525,622022,0
2096921,2096921,186259,621784,0
2096921,2096921,186169,621441,0
2096921,2096921,186153,621148,0
2096921,2096921,185918,621531,0
2096921,2096921,186021,620526,0
2096921,2096921,185947,620473,0
2096921,2096921,185903,620615,0
2096921,2096921,185960,620576,0
2096921,2096921,185473,620671,0
2096921,2096921,185214,619232,0
2096921,2096921,184945,619193,0
2096921,2096921,185386,619104,0
2096921,2096921,185275,618879,0
2096921,2096921,184708,618790,0
2096921,2096921,184585,617578,0
2096921,2096921,184855,617478,0
2096921,2096921,184878,617428,0
2096921,2096921,184408,617413,0
2096921,2096921,183371,617377,0
2096921,2096921,183032,614674,0
2096921,2096921,183215,613838,0
2096921,2096921,183074,613866,0
2096921,2096921,183010,613730,0
2096921,2096921,181775,613642,0
2096921,2096921,181080,610606,0
2096921,2096921,181400,609936,0
2096921,2096921,181296,609657,0
2096921,2096921,181585,609822,0
2096921,2096921,180112,609895,0
2096921,2096921,180128,607226,0
2096921,2096921,179816,606634,0
2096921,2096921,179764,606437,0
2096921,2096921,180011,606609,0
2096921,2096921,179265,606374,0
2096921,2096921,178925,604473,0
2096921,2096921,179072,604316,0
2096921,2096921,178974,603971,0
2096921,2096921,178925,604476,0
2096921,2096921,178330,604139,0
2096921,2096921,177914,602215,0
2096921,2096921,178076,601874,0
2096921,2096921,177970,601942,0
2096921,2096921,177876,602148,0
2096921,2096921,177372,602157,0
2096921,2096921,177499,601352,0
2096921,2096921,177565,600873,0
2096921,2096921,177228,601143,0
2096921,2096921,177401,600963,0
2096921,2096921,177168,600605,0
2096921,2096921,176883,599920,0
2096921,2096921,177164,599605,0
2096921,2096921,176782,599866,0
2096921,2096921,176980,599931,0
2096921,2096921,176321,599826,0
2096921,2096921,176704,599328,0
2096921,2096921,176552,599095,0
2096921,2096921,176818,599295,0
2096921,2096921,176826,599212,0
2096921,2096921,176575,599317,0
2096921,2096921,176692,598805,0
2096921,2096921,176589,598915,0
2096921,2096921,176620,598606,0
2096921,2096921,176734,598623,0
2096921,2096921,176586,598779,0
2096921,2096921,176714,598400,0
2096921,2096921,176822,598532,0
2096921,2096921,176549,598462,0
2096921,2096921,176265,598489,0
2096921,2096921,176431,598792,0
2096921,2096921,176465,598492,0
2096921,2096921,176688,598315,0
2096921,2096921,176560,598524,0
2096921,2096921,176660,598539,0
2096921,2096921,176548,598459,0
2096921,2096921,176645,598676,0
2096921,2096921,176747,598738,0
2096921,2096921,176528,598692,0
2096921,2096921,177052,598771,0
2096921,2096921,176548,598787,0
2096921,2096921,176677,598791,0
2096921,2096921,176547,598573,0
2096921,2096921,176542,598569,0
2096921,2096921,176666,598758,0
2096921,2096921,177162,598649,0
2096921,2096921,177032,599066,0
2096921,2096921,176586,599341,0
2096921,2096921,176934,599441,0
2096921,2096921,176957,599142,0
2096921,2096921,176810,599356,0
2096921,2096921,176926,599450,0
2096921,2096921,176968,599578,0
2096921,2096921,176657,599527,0
2096921,2096921,177143,599463,0
2096921,2096921,177457,599267,0
2096921,2096921,176998,599763,0
2096921,2096921,177280,599834,0
2096921,2096921,177409,600008,0
2096921,2096921,177163,599747,0
2096921,2096921,177481,599974,0
2096921,2096921,177605,600546,0
2096921,2096921,177489,600606,0
2096921,2096921,177309,600346,0
2096921,2096921,177810,600314,0
2096921,2096921,177717,600508,0
2096921,2096921,177963,600697,0
2096921,2096921,177931,601201,0
2096921,2096921,178388,601160,0
2096921,2096921,177942,601060,0
2096921,2096921,178107,600983,0
2096921,2096921,178124,601305,0
2096921,2096921,178003,601388,0
2096921,2096921,178049,601319,0
2096921,2096921,178069,601321,0
2096921,2096921,178190,601254,0
2096921,2096921,178321,601667,0
2096921,2096921,178414,601805,0
2096921,2096921,178256,601712,0
2096921,2096921,178317,601471,0
2096921,2096921,178451,601678,0
2096921,2096921,178503,602315,0
2096921,2096921,178562,602155,0
2096921,2096921,178465,602042,0
2096921,2096921,178501,602164,0
2096921,2096921,178816,602314,0
2096921,2096921,178785,602489,0
2096921,2096921,179156,602582,0
2096921,2096921,178909,602647,0
2096921,2096921,178522,602720,0
2096921,2096921,178804,602665,0
2096921,2096921,179016,603034,0
2096921,2096921,179095,603085,0
2096921,2096921,179263,602914,0
2096921,2096921,179037,603036,0
2096921,2096921,179259,602968,0
2096921,2096921,179268,603581,0
2096921,2096921,179028,603791,0
2096921,2096921,179470,603804,0
2096921,2096921,179391,603616,0
2096921,2096921,179710,603565,0
2096921,2096921,179386,603999,0
2096921,2096921,179329,604196,0
2096921,2096921,179346,604008,0
2096921,2096921,179306,603991,0
2096921,2096921,179506,604064,0
2096921,2096921,179693,604292,0
2096921,2096921,179554,604325,0
2096921,2096921,179607,604205,0
2096921,2096921,179748,604320,0
2096921,2096921,179921,604430,0
2096921,2096921,179627,604422,0
2096921,2096921,179787,604747,0
2096921,2096921,179894,604713,0
2096921,2096921,179909,604503,0
2096921,2096921,179799,604791,0
2096921,2096921,180259,604589,0
2096921,2096921,180228,604566,0
2096921,2096921,180165,604854,0
2096921,2096921,179712,604865,0
2096921,2096921,180026,604801,0
2096921,2096921,179943,604828,0
2096921,2096921,179955,604753,0
2096921,2096921,179901,604683,0
2096921,2096921,180034,604781,0
2096921,2096921,179981,604669,0
2096921,2096921,179925,604655,0
2096921,2096921,180031,604568,0
2096921,2096921,180107,604705,0
2096921,2096921,180060,604753,0
2096921,2096921,179882,604698,0
2096921,2096921,179716,604630,0
2096921,2096921,179740,604234,0
2096921,2096921,179804,604347,0
2096921,2096921,179869,604343,0
2096921,2096921,180006,604225,0
2096921,2096921,179848,604142,0
2096921,2096921,179696,603942,0
2096921,2096921,179686,603879,0
2096921,2096921,179668,603859,0
2096921,2096921,179619,603983,0
2096921,2096921,179741,603586,0
2096921,2096921,179583,603727,0
2096921,2096921,179627,603554,0
2096921,2096921,179460,603620,0
2096921,2096921,179237,603881,0
2096921,2096921,179344,603147,0
2096921,2096921,179516,603238,0
2096921,2096921,179252,603283,0
2096921,2096921,179200,603220,0
2096921,2096921,179156,603183,0
2096921,2096921,179139,602813,0
2096921,2096921,179283,602728,0
2096921,2096921,179197,602658,0
2096921,2096921,179066,602529,0
2096921,2096921,178646,602764,0
2096921,2096921,178867,602191,0
2096921,2096921,179166,601941,0
2096921,2096921,179078,602217,0
2096921,2096921,178820,601704,0
2096921,2096921,178793,602212,0
2096921,2096921,178842,601569,0
2096921,2096921,178908,601612,0
2096921,2096921,178834,601604,0
2096921,2096921,178799,601729,0
2096921,2096921,178680,601850,0
2096921,2096921,178655,601655,0
2096921,2096921,178611,601212,0
2096921,2096921,178808,601483,0
2096921,2096921,178483,601536,0
2096921,2096921,179058,601661,0
2096921,2096921,178420,600976,0
2096921,2096921,178383,600852,0
2096921,2096921,178397,601134,0
2096921,2096921,178471,600860,0
2096921,2096921,178408,600941,0
2096921,2096921,178625,600743,0
2096921,2096921,178552,600878,0
2096921,2096921,178681,600499,0
2096921,2096921,178630,600938,0
2096921,2096921,178258,600949,0
2096921,2096921,178602,600515,0
2096921,2096921,178284,600375,0
2096921,2096921,178277,600464,0
2096921,2096921,178608,600617,0
2096921,2096921,178703,600429,0
2096921,2096921,178249,600603,0
2096921,2096921,178610,600506,0
2096921,2096921,178619,600133,0
2096921,2096921,178649,600184,0
2096921,2096921,178709,600596,0
2096921,2096921,178495,600475,0
2096921,2096921,178475,600649,0
2096921,2096921,178514,600666,0
2096921,2096921,178528,600677,0
2096921,2096921,178716,600732,0
2096921,2096921,178423,601086,0
2096921,2096921,178703,601019,0
2096921,2096921,178894,600864,0
2096921,2096921,178958,601133,0
2096921,2096921,178817,600922,0
2096921,2096921,178846,601117,0
2096921,2096921,178623,601016,0
2096921,2096921,178559,601115,0
2096921,2096921,179165,601523,0
2096921,2096921,179224,601066,0
2096921,2096921,179270,601388,0
2096921,2096921,179194,601134,0
2096921,2096921,179158,601308,0
2096921,2096921,179205,601376,0
2096921,2096921,179247,601267,0
2096921,2096921,179174,601593,0
2096921,2096921,179244,601207,0
2096921,2096921,179194,601095,0
2096921,2096921,179246,601442,0
2096921,2096921,179159,601308,0
2096921,2096921,179395,601491,0
2096921,2096921,179152,601443,0
2096921,2096921,179305,601595,0
2096921,2096921,178999,601342,0
2096921,2096921,179045,601633,0
2096921,2096921,179236,601421,0
2096921,2096921,179027,601376,0
2096921,2096921,178888,601479,0
2096921,2096921,179305,601502,0
2096921,2096921,179330,601436,0
2096921,2096921,179353,601340,0
2096921,2096921,179566,601450,0
2096921,2096921,179469,601650,0
2096921,2096921,179292,601872,0
2096921,2096921,179506,601774,0
2096921,2096921,179466,601791,0
2096921,2096921,179501,601578,0
2096921,2096921,179498,601832,0
2096921,2096921,179508,601728,0
2096921,2096921,179791,601773,0
2096921,2096921,179494,601881,0
2096921,2096921,179338,601956,0
2096921,2096921,179596,602108,0
2096921,2096921,179738,601590,0
2096921,2096921,179476,601483,0
2096921,2096921,179808,602170,0
2096921,2096921,179495,602011,0
2096921,2096921,179671,601825,0
2096921,2096921,179517,602048,0
2096921,2096921,179599,601935,0
2096921,2096921,179727,601938,0
2096921,2096921,179864,602152,0
2096921,2096921,179732,602009,0
2096921,2096921,179794,602068,0
2096921,2096921,179829,602270,0
2096921,2096921,179767,602061,0
2096921,2096921,179685,602259,0
2096921,2096921,179747,602027,0
2096921,2096921,179987,602167,0
2096921,2096921,179841,602072,0
2096921,2096921,179798,601824,0
2096921,2096921,179908,602103,0
2096921,2096921,179779,602061,0
2096921,2096921,179856,602123,0
2096921,2096921,179863,602090,0
2096921,2096921,179767,601930,0
2096921,2096921,179582,601906,0
2096921,2096921,179538,602163,0
2096921,2096921,179765,601936,0
2096921,2096921,180010,602175,0
2096921,2096921,179937,602229,0
2096921,2096921,180274,602259,0
2096921,2096921,180201,602082,0
2096921,2096921,179670,602145,0
2096921,2096921,179904,602211,0
2096921,2096921,179683,602434,0
2096921,2096921,179611,602259,0
2096921,2096921,179911,602128,0
2096921,2096921,179726,602085,0
2096921,2096921,179928,602099,0
2096921,2096921,180094,602312,0
2096921,2096921,180083,602459,0
2096921,2096921,180108,602312,0
2096921,2096921,179975,602560,0
2096921,2096921,180077,602496,0
2096921,2096921,179951,602311,0
2096921,2096921,180018,602275,0
2096921,2096921,180028,602340,0
2096921,2096921,180063,601828,0
2096921,2096921,179981,602381,0
2096921,2096921,179978,602022,0
2096921,2096921,180055,601974,0
2096921,2096921,180162,602008,0
2096921,2096921,180192,602200,0
2096921,2096921,180091,602469,0
2096921,2096921,179990,602363,0
2096921,2096921,180263,602312,0
2096921,2096921,180169,602295,0
2096921,2096921,180241,602253,0
2096921,2096921,180158,602145,0
2096921,2096921,180394,602482,0
2096921,2096921,179845,602310,0
2096921,2096921,180239,602252,0
2096921,2096921,179973,602463,0
2096921,2096921,180227,602285,0
2096921,2096921,180327,602255,0
2096921,2096921,180236,602287,0
2096921,2096921,180026,602176,0
2096921,2096921,180165,602265,0
2096921,2096921,180195,602333,0
2096921,2096921,180150,602220,0
2096921,2096921,180140,602130,0
2096921,2096921,180253,602227,0
2096921,2096921,179992,602423,0
2096921,2096921,180313,602170,0
2096921,2096921,180111,602153,0
2096921,2096921,180053,602426,0
2096921,2096921,180225,602405,0
2096921,2096921,180489,602489,0
2096921,2096921,180274,601994,0
2096921,2096921,180378,602131,0
2096921,2096921,180215,602337,0
2096921,2096921,180269,602301,0
2096921,2096921,180211,601883,0
2096921,2096921,180241,602194,0
2096921,2096921,180071,602120,0
2096921,2096921,180235,602022,0
2096921,2096921,180208,602196,0
2096921,2096921,180031,602035,0
2096921,2096921,180099,602062,0
2096921,2096921,180063,601874,0
2096921,2096921,179900,602050,0
2096921,2096921,180314,601904,0
2096921,2096921,180097,602246,0
2096921,2096921,180165,601928,0
2096921,2096921,180212,602090,0
2096921,2096921,180420,601694,0
2096921,2096921,180087,601813,0
2096921,2096921,180375,601573,0
2096921,2096921,180157,601826,0
2096921,2096921,180454,602014,0
2096921,2096921,180527,601764,0
2096921,2096921,180223,602108,0
2096921,2096921,180168,601898,0
2096921,2096921,180182,601917,0
2096921,2096921,180089,601569,0
2096921,2096921,180117,601608,0
2096921,2096921,179946,601512,0
2096921,2096921,179946,601628,0
2096921,2096921,180158,601441,0
2096921,2096921,180277,601560,0
2096921,2096921,180403,601758,0
2096921,2096921,180291,601863,0
2096921,2096921,180203,601482,0
2096921,2096921,180131,601791,0
2096921,2096921,180133,601359,0
2096921,2096921,179978,601445,0
2096921,2096921,179755,601585,0
2096921,2096921,180137,601450,0
2096921,2096921,180447,601525,0
2096921,2096921,180302,601338,0
2096921,2096921,180141,601348,0
2096921,2096921,180309,601139,0
2096921,2096921,179887,601190,0
2096921,2096921,179948,601310,0
2096921,2096921,180270,601300,0
2096921,2096921,180138,601295,0
2096921,2096921,179904,601335,0
2096921,2096921,180002,601434,0
2096921,2096921,180088,601286,0
2096921,2096921,180260,601340,0
2096921,2096921,180138,601250,0
2096921,2096921,180416,601402,0
2096921,2096921,180027,601161,0
2096921,2096921,180156,601387,0
2096921,2096921,180030,600953,0
2096921,2096921,180129,601095,0
2096921,2096921,179885,600865,0
2096921,2096921,180109,600867,0
2096921,2096921,179901,600888,0
2096921,2096921,180120,601186,0
2096921,2096921,180350,601061,0
2096921,2096921,180188,601126,0
2096921,2096921,180153,601212,0
2096921,2096921,180270,601200,0
2096921,2096921,180061,601065,0
2096921,2096921,180425,600755,0
2096921,2096921,180307,601216,0
2096921,2096921,180045,600869,0
2096921,2096921,180100,601218,0
2096921,2096921,179993,600897,0
2096921,2096921,180147,600730,0
2096921,2096921,180254,600952,0
2096921,2096921,179997,600815,0
2096921,2096921,179858,600978,0
2096921,2096921,179671,600673,0
2096921,2096921,179900,600595,0
2096921,2096921,180242,600765,0
2096921,2096921,179929,600515,0
2096921,2096921,180253,600486,0
2096921,2096921,180124,600881,0
2096921,2096921,180246,600822,0
2096921,2096921,180224,600768,0
2096921,2096921,180362,600775,0
2096921,2096921,180273,600846,0
2096921,2096921,179821,600339,0
2096921,2096921,180105,600534,0
2096921,2096921,179863,600647,0
2096921,2096921,180058,600708,0
2096921,2096921,180126,600403,0
2096921,2096921,180152,600603,0
2096921,2096921,180112,600468,0
2096921,2096921,180216,600628,0
2096921,2096921,180029,600525,0
2096921,2096921,180175,600313,0
2096921,2096921,179982,600140,0
2096921,2096921,179992,600505,0
2096921,2096921,179722,600449,0
2096921,2096921,179893,600396,0
2096921,2096921,179947,600652,0
2096921,2096921,180060,600419,0
2096921,2096921,179870,600383,0
2096921,2096921,180132,600235,0
2096921,2096921,180054,600604,0
2096921,2096921,179753,600543,0
2096921,2096921,179721,600512,0
2096921,2096921,179809,600244,0
2096921,2096921,179866,600292,0
2096921,2096921,179765,600498,0
2096921,2096921,180010,600435,0
2096921,2096921,180085,600215,0
2096921,2096921,180074,600188,0
2096921,2096921,179773,600065,0
2096921,2096921,179920,600109,0
2096921,2096921,179975,599903,0
2096921,2096921,179946,600092,0
2096921,2096921,179889,599868,0
2096921,2096921,179892,600200,0
2096921,2096921,179958,599941,0
2096921,2096921,179900,599975,0
2096921,2096921,179863,599897,0
2096921,2096921,179926,599825,0
2096921,2096921,179748,600124,0
2096921,2096921,180133,600002,0
2096921,2096921,179830,600142,0
2096921,2096921,179726,599758,0
2096921,2096921,179491,599748,0
2096921,2096921,179853,599530,0
2096921,2096921,179622,599856,0
2096921,2096921,179569,600007,0
2096921,2096921,179734,599613,0
2096921,2096921,179886,599689,0
2096921,2096921,179835,599723,0
2096921,2096921,179809,599657,0
2096921,2096921,179662,599683,0
2096921,2096921,179711,599451,0
2096921,2096921,179805,599712,0
2096921,2096921,179528,599566,0
2096921,2096921,179863,599420,0
2096921,2096921,179296,599334,0
2096921,2096921,179520,598798,0
2096921,2096921,179543,598867,0
2096921,2096921,179455,598727,0
2096921,2096921,179450,598919,0
2096921,2096921,179275,598742,0
2096921,2096921,179203,598143,0
2096921,2096921,179198,597870,0
2096921,2096921,179124,597914,0
2096921,2096921,179329,598036,0
2096921,2096921,178697,597979,0
2096921,2096921,178546,596965,0
2096921,2096921,178514,597192,0
2096921,2096921,178703,597127,0
2096921,2096921,178656,596772,0
2096921,2096921,178225,596899,0
2096921,2096921,178303,595841,0
2096921,2096921,178106,595649,0
2096921,2096921,178224,595727,0
2096921,2096921,177900,595517,0
2096921,2096921,177487,595858,0
2096921,2096921,177594,594372,0
2096921,2096921,177581,594203,0
2096921,2096921,177422,594344,0
2096921,2096921,177240,594227,0
2096921,2096921,176156,594022,0
2096921,2096921,175999,591893,0
2096921,2096921,175616,591101,0
2096921,2096921,175784,590769,0
2096921,2096921,175901,590611,0
2096921,2096921,174675,590876,0
2096921,2096921,174170,587818,0
2096921,2096921,174450,587214,0
2096921,2096921,174026,587041,0
2096921,2096921,174363,587109,0
2096921,2096921,173400,586986,0
2096921,2096921,173140,584502,0
2096921,2096921,173420,584055,0
2096921,2096921,173038,583967,0
2096921,2096921,172999,583920,0
2096921,2096921,172348,584095,0
2096921,2096921,172117,582180,0
2096921,2096921,171983,581880,0
2096921,2096921,171829,581734,0
2096921,2096921,171997,581729,0
2096921,2096921,171367,581361,0
2096921,2096921,171322,580592,0
2096921,2096921,171278,580334,0
2096921,2096921,171087,579806,0
2096921,2096921,171296,579830,0
2096921,2096921,170882,579764,0
2096921,2096921,170920,579248,0
2096921,2096921,170846,579115,0
2096921,2096921,171177,578987,0
2096921,2096921,170600,578916,0
2096921,2096921,170700,579078,0
2096921,2096921,170325,578027,0
2096921,2096921,170255,577902,0
2096921,2096921,170473,577990,0
2096921,2096921,170361,577839,0
2096921,2096921,170262,578070,0
2096921,2096921,170155,577596,0
2096921,2096921,170176,577167,0
2096921,2096921,170205,577623,0
2096921,2096921,170073,577709,0
2096921,2096921,170249,577556,0
2096921,2096921,169876,577499,0
2096921,2096921,169841,577194,0
2096921,2096921,169794,577515,0
2096921,2096921,169813,577344,0
2096921,2096921,170001,577580,0
2096921,2096921,170173,577459,0
2096921,2096921,169866,577520,0
2096921,2096921,170152,577472,0
2096921,2096921,170399,577582,0
2096921,2096921,169997,577173,0
2096921,2096921,170389,577199,0
2096921,2096921,170066,577377,0
2096921,2096921,170319,577537,0
2096921,2096921,170065,577808,0
2096921,2096921,170483,577656,0
2096921,2096921,170434,577583,0
2096921,2096921,170421,577868,0
2096921,2096921,170677,577924,0
2096921,2096921,170277,577923,0
2096921,2096921,170210,577743,0
2096921,2096921,170341,577953,0
2096921,2096921,170374,577829,0
2096921,2096921,170438,578223,0
2096921,2096921,170312,578098,0
2096921,2096921,170677,577806,0
2096921,2096921,170824,578472,0
2096921,2096921,170454,578445,0
2096921,2096921,170549,578805,0
2096921,2096921,170530,578801,0
2096921,2096921,170500,578732,0
2096921,2096921,170966,579193,0
2096921,2096921,171015,579267,0
2096921,2096921,171216,579213,0
2096921,2096921,170960,578930,0
2096921,2096921,171140,579259,0
2096921,2096921,171486,580120,0
2096921,2096921,171212,580296,0
2096921,2096921,171426,580387,0
2096921,2096921,171197,579972,0
2096921,2096921,171368,580157,0
2096921,2096921,171642,580595,0
2096921,2096921,171713,580554,0
2096921,2096921,171551,580779,0
2096921,2096921,171675,580513,0
2096921,2096921,171804,580607,0
2096921,2096921,171877,581173,0
2096921,2096921,172170,581166,0
2096921,2096921,171921,581578,0
2096921,2096921,171602,581385,0
2096921,2096921,172145,581244,0
2096921,2096921,172161,581907,0
2096921,2096921,171991,581705,0
2096921,2096921,172403,582109,0
2096921,2096921,172100,582140,0
2096921,2096921,172090,582098,0
2096921,2096921,172491,582596,0
2096921,2096921,172352,582543,0
2096921,2096921,172612,582646,0
2096921,2096921,172621,582733,0
2096921,2096921,172695,582636,0
2096921,2096921,172866,583250,0
2096921,2096921,172628,583511,0
2096921,2096921,172594,583266,0
2096921,2096921,172803,583253,0
2096921,2096921,172942,583398,0
2096921,2096921,172984,584172,0
2096921,2096921,173240,584252,0
2096921,2096921,173202,584044,0
2096921,2096921,173027,583925,0
2096921,2096921,173274,583932,0
2096921,2096921,173300,584746,0
2096921,2096921,173417,584909,0
2096921,2096921,173612,584737,0
2096921,2096921,173164,584965,0
2096921,2096921,173711,584598,0
2096921,2096921,173515,585388,0
2096921,2096921,173520,585526,0
2096921,2096921,173667,585467,0
2096921,2096921,173557,585451,0
2096921,2096921,173768,585487,0
2096921,2096921,174089,585904,0
2096921,2096921,173983,585865,0
2096921,2096921,173935,586228,0
2096921,2096921,174054,586154,0
2096921,2096921,174081,586121,0
2096921,2096921,174145,586515,0
2096921,2096921,174158,586783,0
2096921,2096921,174108,586957,0
2096921,2096921,174268,586570,0
2096921,2096921,174287,586804,0
2096921,2096921,174186,587354,0
2096921,2096921,174333,587161,0
2096921,2096921,174233,587235,0
2096921,2096921,174422,587302,0
2096921,2096921,174201,587326,0
2096921,2096921,174652,587505,0
2096921,2096921,174529,587816,0
2096921,2096921,174748,587843,0
2096921,2096921,174606,587708,0
2096921,2096921,174495,587397,0
2096921,2096921,174563,587879,0
2096921,2096921,174434,588119,0
2096921,2096921,174585,587728,0
2096921,2096921,174941,587803,0
2096921,2096921,174853,587895,0
2096921,2096921,175022,588002,0
2096921,2096921,174847,588227,0
2096921,2096921,174924,588287,0
2096921,2096921,174733,588356,0
2096921,2096921,174549,587977,0
2096921,2096921,174658,587947,0
2096921,2096921,174814,587892,0
2096921,2096921,175127,587909,0
2096921,2096921,174765,587975,0
2096921,2096921,174887,588115,0
2096921,2096921,175136,588210,0
2096921,2096921,174875,588083,0
2096921,2096921,174780,587946,0
2096921,2096921,174867,587781,0
2096921,2096921,175240,587803,0
2096921,2096921,175014,587701,0
2096921,2096921,174900,588034,0
2096921,2096921,174640,587901,0
2096921,2096921,174761,587868,0
2096921,2096921,174642,587850,0
2096921,2096921,174908,587813,0
2096921,2096921,174786,587646,0
2096921,2096921,174669,587818,0
2096921,2096921,174515,587566,0
2096921,2096921,174349,587677,0
2096921,2096921,174230,587453,0
2096921,2096921,174261,587653,0
2096921,2096921,174435,587746,0
2096921,2096921,174521,587342,0
2096921,2096921,174622,587229,0
2096921,2096921,174079,587619,0
2096921,2096921,174493,587584,0
2096921,2096921,174416,587496,0
2096921,2096921,174423,587441,0
2096921,2096921,174358,587305,0
2096921,2096921,174408,587359,0
2096921,2096921,174350,587280,0
2096921,2096921,174438,586910,0
2096921,2096921,173958,587120,0
2096921,2096921,174560,587093,0
2096921,2096921,174523,587275,0
2096921,2096921,174317,587216,0
2096921,2096921,174648,587174,0
2096921,2096921,174384,587350,0
2096921,2096921,174311,587257,0
2096921,2096921,174279,587400,0
2096921,2096921,174196,587251,0
2096921,2096921,174300,587145,0
2096921,2096921,174454,587065,0
2096921,2096921,174419,587238,0
2096921,2096921,174403,587168,0
2096921,2096921,174536,587240,0
2096921,2096921,174644,587381,0
2096921,2096921,174329,587327,0
2096921,2096921,174452,587212,0
2096921,2096921,174645,587503,0
2096921,2096921,174597,587382,0
2096921,2096921,174366,587435,0
2096921,2096921,174230,587507,0
2096921,2096921,174635,587474,0
2096921,2096921,174624,587599,0
2096921,2096921,174457,587844,0
2096921,2096921,174522,587778,0
2096921,2096921,174747,587662,0
2096921,2096921,174759,587525,0
2096921,2096921,174947,588067,0
2096921,2096921,174647,588366,0
2096921,2096921,174563,588312,0
2096921,2096921,174716,588239,0
2096921,2096921,174715,588227,0
2096921,2096921,175068,589028,0
2096921,2096921,175280,588887,0
2096921,2096921,175262,588702,0
2096921,2096921,175314,589051,0
2096921,2096921,175292,588950,0
2096921,2096921,175150,589224,0
2096921,2096921,175052,589439,0
2096921,2096921,175231,589291,0
2096921,2096921,175566,589439,0
2096921,2096921,175604,589647,0
2096921,2096921,175601,590007,0
2096921,2096921,175719,590090,0
2096921,2096921,175687,590081,0
2096921,2096921,175661,590227,0
2096921,2096921,175898,590194,0
2096921,2096921,176086,590417,0
2096921,2096921,176138,590720,0
2096921,2096921,175808,590663,0
2096921,2096921,175842,590909,0
2096921,2096921,175689,590594,0
2096921,2096921,175824,591010,0
2096921,2096921,176002,591166,0
2096921,2096921,176233,591003,0
2096921,2096921,176007,591156,0
2096921,2096921,176256,591370,0
2096921,2096921,176367,591665,0
2096921,2096921,176140,591427,0
2096921,2096921,176184,591618,0
2096921,2096921,176244,591666,0
2096921,2096921,176393,591445,0
2096921,2096921,176531,591971,0
2096921,2096921,176306,592172,0
2096921,2096921,176634,592179,0
2096921,2096921,176270,592186,0
2096921,2096921,176431,592142,0
2096921,2096921,176650,592649,0
2096921,2096921,176755,592406,0
2096921,2096921,176563,592816,0
2096921,2096921,176690,592524,0
2096921,2096921,176924,592586,0
2096921,2096921,177010,593022,0
2096921,2096921,177047,593005,0
2096921,2096921,176926,593225,0
2096921,2096921,176948,593549,0
2096921,2096921,176837,593614,0
2096921,2096921,177164,593416,0
2096921,2096921,177042,593797,0
2096921,2096921,177304,593936,0
2096921,2096921,176990,594061,0
2096921,2096921,177356,593801,0
2096921,2096921,177283,594628,0
2096921,2096921,177308,594460,0
2096921,2096921,177232,594271,0
2096921,2096921,177237,594254,0
2096921,2096921,177407,594467,0
2096921,2096921,177510,594606,0
2096921,2096921,177662,594657,0
2096921,2096921,177367,594622,0
2096921,2096921,177784,594751,0
2096921,2096921,177873,594581,0
2096921,2096921,177765,595648,0
2096921,2096921,177479,595381,0
2096921,2096921,178112,595268,0
2096921,2096921,177864,595255,0
2096921,2096921,177857,595218,0
2096921,2096921,178023,595738,0
2096921,2096921,178241,595807,0
2096921,2096921,177842,595745,0
2096921,2096921,177812,595803,0
2096921,2096921,177874,595918,0
2096921,2096921,178050,596120,0
2096921,2096921,177991,596666,0
2096921,2096921,178307,596287,0
2096921,2096921,178059,596461,0
2096921,2096921,178115,596261,0
2096921,2096921,178209,596590,0
2096921,2096921,178327,596802,0
2096921,2096921,178266,596886,0
2096921,2096921,178280,596568,0
2096921,2096921,178588,596841,0
2096921,2096921,178588,597241,0
2096921,2096921,178350,597319,0
2096921,2096921,178448,597474,0
2096921,2096921,178620,597339,0
2096921,2096921,178853,597195,0
2096921,2096921,178487,598042,0
2096921,2096921,178616,597599,0
2096921,2096921,178766,597839,0
2096921,2096921,178705,597830,0
2096921,2096921,178977,597598,0
2096921,2096921,178941,598285,0
2096921,2096921,178681,598526,0
2096921,2096921,179093,598612,0
2096921,2096921,178892,598667,0
2096921,2096921,178853,598528,0
2096921,2096921,179067,598953,0
2096921,2096921,179152,598871,0
2096921,2096921,178989,598859,0
2096921,2096921,178892,598729,0
2096921,2096921,179066,598525,0
2096921,2096921,179362,599081,0
2096921,2096921,179391,599180,0
2096921,2096921,179299,599367,0
2096921,2096921,179378,599399,0
2096921,2096921,179687,599279,0
2096921,2096921,179371,599708,0
2096921,2096921,179333,599604,0
2096921,2096921,179166,599549,0
2096921,2096921,179572,599647,0
2096921,2096921,179335,599990,0
2096921,2096921,179511,600188,0
2096921,2096921,179620,600341,0
2096921,2096921,179506,600312,0
2096921,2096921,179710,600384,0
2096921,2096921,179657,600498,0
2096921,2096921,179713,600904,0
2096921,2096921,179645,600710,0
2096921,2096921,179710,600694,0
2096921,2096921,179829,600270,0
2096921,2096921,179852,600707,0
2096921,2096921,179998,600999,0
2096921,2096921,180108,601015,0
2096921,2096921,180009,601272,0
2096921,2096921,179797,601250,0
2096921,2096921,180070,601178,0
2096921,2096921,180294,601280,0
2096921,2096921,180038,601563,0
2096921,2096921,180001,601502,0
2096921,2096921,180032,601339,0
2096921,2096921,180118,601226,0
2096921,2096921,180026,601496,0
2096921,2096921,180064,602047,0
2096921,2096921,180014,601952,0
2096921,2096921,180211,602087,0
2096921,2096921,180358,601952,0
2096921,2096921,180506,602176,0
2096921,2096921,180294,602383,0
2096921,2096921,180431,602391,0
2096921,2096921,180030,602378,0
2096921,2096921,180560,602540,0
2096921,2096921,180497,602806,0
2096921,2096921,180570,602879,0
2096921,2096921,180385,602827,0
2096921,2096921,180750,602711,0
2096921,2096921,180617,602847,0
2096921,2096921,180471,602957,0
2096921,2096921,180555,603145,0
2096921,2096921,180343,603153,0
2096921,2096921,180601,603007,0
2096921,2096921,180557,603190,0
2096921,2096921,180919,603624,0
2096921,2096921,180841,603525,0
2096921,2096921,180896,603734,0
2096921,2096921,180592,603534,0
2096921,2096921,180716,603710,0
2096921,2096921,181107,603785,0
2096921,2096921,180922,603700,0
2096921,2096921,181278,603679,0
2096921,2096921,181067,603858,0
2096921,2096921,181121,603830,0
2096921,2096921,180954,604483,0
2096921,2096921,181139,604134,0
2096921,2096921,181371,604500,0
2096921,2096921,181366,604309,0
2096921,2096921,181183,604601,0
2096921,2096921,181159,604788,0
2096921,2096921,181306,604772,0
2096921,2096921,181289,604789,0
2096921,2096921,181387,604547,0
2096921,2096921,181374,604643,0
2096921,2096921,181372,604918,0
2096921,2096921,181444,605212,0
2096921,2096921,181723,605185,0
2096921,2096921,181437,605281,0
2096921,2096921,181496,605353,0
2096921,2096921,181780,605517,0
2096921,2096921,181604,605569,0
2096921,2096921,181710,605677,0
2096921,2096921,181749,605551,0
2096921,2096921,181845,605347,0
2096921,2096921,181901,606021,0
2096921,2096921,181580,606276,0
2096921,2096921,181883,606352,0
2096921,2096921,181732,606322,0
2096921,2096921,181606,605839,0
2096921,2096921,181705,606211,0
2096921,2096921,181326,606012,0
2096921,2096921,181861,606416,0
2096921,2096921,181845,606148,0
2096921,2096921,182030,606535,0
2096921,2096921,182137,606840,0
2096921,2096921,182105,607090,0
2096921,2096921,182146,606967,0
2096921,2096921,181972,607009,0
2096921,2096921,182154,606864,0
2096921,2096921,182048,607080,0
2096921,2096921,181993,607152,0
2096921,2096921,182219,607263,0
2096921,2096921,181937,607216,0
2096921,2096921,182173,607208,0
2096921,2096921,182396,607453,0
2096921,2096921,182099,607636,0
2096921,2096921,182153,607798,0
2096921,2096921,182198,607702,0
2096921,2096921,182262,607661,0
2096921,2096921,182458,607592,0
2096921,2096921,182344,608152,0
2096921,2096921,182588,608012,0
2096921,2096921,182440,608015,0
2096921,2096921,182317,607900,0
2096921,2096921,182703,608454,0
2096921,2096921,182542,608622,0
2096921,2096921,182617,608470,0
2096921,2096921,182668,608688,0
2096921,2096921,182545,608581,0
2096921,2096921,182877,608500,0
2096921,2096921,182633,608507,0
2096921,2096921,182658,608442,0
2096921,2096921,182536,608561,0
2096921,2096921,182442,608418,0
2096921,2096921,182614,608978,0
2096921,2096921,182339,608856,0
2096921,2096921,182747,609128,0
2096921,2096921,182440,609035,0
2096921,2096921,182724,608946,0
2096921,2096921,182754,609109,0
2096921,2096921,182606,609120,0
2096921,2096921,182659,609519,0
2096921,2096921,182854,609196,0
2096921,2096921,182997,609185,0
2096921,2096921,182650,609438,0
2096921,2096921,183112,609805,0
2096921,2096921,182817,609891,0
2096921,2096921,182853,609937,0
2096921,2096921,182948,609830,0
2096921,2096921,182790,610195,0
2096921,2096921,182848,609722,0
2096921,2096921,182889,609815,0
2096921,2096921,182832,610011,0
2096921,2096921,182920,609899,0
2096921,2096921,183008,610057,0
2096921,2096921,183104,610291,0
2096921,2096921,183152,610541,0
2096921,2096921,182992,610214,0
2096921,2096921,182830,610135,0
2096921,2096921,183144,610509,0
2096921,2096921,182968,610394,0
2096921,2096921,182906,610513,0
2096921,2096921,182937,610518,0
2096921,2096921,183228,610474,0
2096921,2096921,183168,611016,0
2096921,2096921,183121,611258,0
2096921,2096921,183163,611142,0
2096921,2096921,183128,611099,0
2096921,2096921,183266,611062,0
2096921,2096921,183121,611005,0
2096921,2096921,183378,611089,0
2096921,2096921,183230,610936,0
2096921,2096921,183193,611034,0
2096921,2096921,182939,611082,0
2096921,2096921,183053,610883,0
2096921,2096921,183024,610713,0
2096921,2096921,183122,611073,0
2096921,2096921,183133,610783,0
2096921,2096921,183266,610810,0
2096921,2096921,182730,610423,0
2096921,2096921,182730,610497,0
2096921,2096921,182831,610474,0
2096921,2096921,182862,610369,0
2096921,2096921,182544,610451,0
2096921,2096921,182692,609854,0
2096921,2096921,182458,609709,0
2096921,2096921,182377,610029,0
2096921,2096921,182693,609861,0
2096921,2096921,182054,609726,0
2096921,2096921,181787,608971,0
2096921,2096921,182011,609030,0
2096921,2096921,181917,608915,0
2096921,2096921,182060,608769,0
2096921,2096921,181978,608986,0
2096921,2096921,181637,607899,0
2096921,2096921,181657,607769,0
2096921,2096921,181764,607783,0
2096921,2096921,181683,607685,0
2096921,2096921,180928,607686,0
2096921,2096921,180381,605305,0
2096921,2096921,180278,604712,0
2096921,2096921,180155,604697,0
2096921,2096921,180283,604806,0
2096921,2096921,178955,604538,0
2096921,2096921,178775,601657,0
2096921,2096921,178963,601190,0
2096921,2096921,178482,600850,0
2096921,2096921,178552,600654,0
2096921,2096921,177370,600853,0
2096921,2096921,177492,598985,0
2096921,2096921,177342,598388,0
2096921,2096921,177190,598487,0
2096921,2096921,177254,598335,0
2096921,2096921,176850,598202,0
2096921,2096921,176460,596898,0
2096921,2096921,176727,596441,0
2096921,2096921,176439,596341,0
2096921,2096921,176370,596107,0
2096921,2096921,175974,596153,0
2096921,2096921,175720,595291,0
2096921,2096921,175706,594971,0
2096921,2096921,175969,594941,0
2096921,2096921,175764,594962,0
2096921,2096921,175466,594989,0
2096921,2096921,175314,594346,0
2096921,2096921,175664,593913,0
2096921,2096921,175605,594224,0
2096921,2096921,175577,594157,0
2096921,2096921,175155,594287,0
2096921,2096921,175231,593516,0
2096921,2096921,175240,593497,0
2096921,2096921,174829,593274,0
2096921,2096921,175031,593418,0
2096921,2096921,174603,593493,0
2096921,2096921,174866,593226,0
2096921,2096921,175045,593283,0
2096921,2096921,175180,593235,0
2096921,2096921,175174,593538,0
2096921,2096921,175074,593555,0
2096921,2096921,174825,593300,0
2096921,2096921,174919,593413,0
2096921,2096921,174887,593130,0
2096921,2096921,174496,593202,0
2096921,2096921,175034,593119,0
2096921,2096921,175071,593573,0
2096921,2096921,175173,593740,0
2096921,2096921,174807,593834,0
2096921,2096921,175014,593823,0
2096921,2096921,175203,593619,0
2096921,2096921,175168,594281,0
2096921,2096921,175211,594099,0
2096921,2096921,175494,594031,0
2096921,2096921,175395,594264,0
2096921,2096921,175376,594348,0
2096921,2096921,175427,594562,0
2096921,2096921,175526,594656,0
2096921,2096921,175426,594694,0
2096921,2096921,175592,594762,0
2096921,2096921,175737,594810,0
2096921,2096921,175827,595072,0
2096921,2096921,175466,595435,0
2096921,2096921,175552,595315,0
2096921,2096921,175571,595187,0
2096921,2096921,175864,595075,0
2096921,2096921,175794,595851,0
2096921,2096921,176142,596011,0
2096921,2096921,175992,596377,0
2096921,2096921,175988,596114,0
2096921,2096921,176042,596091,0
2096921,2096921,176218,596805,0
2096921,2096921,176115,596881,0
2096921,2096921,176358,597001,0
2096921,2096921,176467,596873,0
2096921,2096921,176765,597064,0
2096921,2096921,176737,597953,0
2096921,2096921,176836,598205,0
2096921,2096921,176908,598290,0
2096921,2096921,176576,598287,0
2096921,2096921,176857,598169,0
2096921,2096921,176761,598666,0
2096921,2096921,177007,598869,0
2096921,2096921,176880,598971,0
2096921,2096921,177382,599137,0
2096921,2096921,177432,599099,0
2096921,2096921,177607,599740,0
2096921,2096921,177694,599999,0
2096921,2096921,177525,600177,0
2096921,2096921,177345,600190,0
2096921,2096921,177580,599986,0
2096921,2096921,177639,600630,0
2096921,2096921,177625,600653,0
2096921,2096921,177855,601041,0
2096921,2096921,177840,600917,0
2096921,2096921,178381,600764,0
2096921,2096921,178137,601313,0
2096921,2096921,178320,601718,0
2096921,2096921,178279,602027,0
2096921,2096921,178237,601716,0
2096921,2096921,178589,601713,0
2096921,2096921,178629,602535,0
2096921,2096921,178802,602396,0
2096921,2096921,178734,602773,0
2096921,2096921,178706,602581,0
2096921,2096921,179019,602853,0
2096921,2096921,179059,603352,0
2096921,2096921,178858,603690,0
2096921,2096921,179231,603705,0
2096921,2096921,179232,603554,0
2096921,2096921,179505,603706,0
2096921,2096921,179460,604500,0
2096921,2096921,179323,604236,0
2096921,2096921,179498,604524,0
2096921,2096921,179498,604790,0
2096921,2096921,179897,604662,0
2096921,2096921,179755,605366,0
2096921,2096921,179838,605637,0
2096921,2096921,179789,605490,0
2096921,2096921,179955,605574,0
2096921,2096921,180053,605458,0
2096921,2096921,180096,605909,0
2096921,2096921,180080,606506,0
2096921,2096921,180037,606436,0
2096921,2096921,180114,606172,0
2096921,2096921,180501,606335,0
2096921,2096921,180528,607328,0
2096921,2096921,180659,607410,0
2096921,2096921,180582,607643,0
2096921,2096921,180607,607194,0
2096921,2096921,180914,607254,0
2096921,2096921,180817,608011,0
2096921,2096921,180773,608030,0
2096921,2096921,180722,608105,0
2096921,2096921,180953,607912,0
2096921,2096921,181324,608131,0
2096921,2096921,181241,608489,0
2096921,2096921,181233,608770,0
2096921,2096921,181146,608783,0
2096921,2096921,181289,608797,0
2096921,2096921,181350,608634,0
2096921,2096921,181136,608986,0
2096921,2096921,181423,609323,0
2096921,2096921,181372,609020,0
2096921,2096921,181227,609032,0
2096921,2096921,181301,609042,0
2096921,2096921,181342,609599,0
2096921,2096921,181310,609673,0
2096921,2096921,181505,609821,0
2096921,2096921,181326,609897,0
2096921,2096921,181290,609518,0
2096921,2096921,181290,609598,0
2096921,2096921,181394,609859,0
2096921,2096921,181377,609755,0
2096921,2096921,181454,609736,0
2096921,2096921,181486,609833,0
2096921,2096921,181380,609853,0
2096921,2096921,181732,609987,0
2096921,2096921,181681,610044,0
2096921,2096921,181728,609993,0
2096921,2096921,181715,610257,0
2096921,2096921,181505,610207,0
2096921,2096921,181641,609835,0
2096921,2096921,181712,610053,0
2096921,2096921,181572,609936,0
2096921,2096921,181392,610014,0
2096921,2096921,181197,609873,0
2096921,2096921,181406,609926,0
2096921,2096921,181284,609946,0
2096921,2096921,181442,609782,0
2096921,2096921,181292,610189,0
2096921,2096921,181256,609746,0
2096921,2096921,181175,610261,0
2096921,2096921,181312,609791,0
2096921,2096921,181480,609794,0
2096921,2096921,181454,609656,0
2096921,2096921,181699,609914,0
2096921,2096921,181442,609984,0
2096921,2096921,181517,610193,0
2096921,2096921,181554,610053,0
2096921,2096921,181426,609993,0
2096921,2096921,181463,609998,0
2096921,2096921,181394,609815,0
2096921,2096921,181350,609771,0
2096921,2096921,181461,609606,0
2096921,2096921,181477,609803,0
2096921,2096921,181615,609864,0
2096921,2096921,181364,609865,0
2096921,2096921,181507,609903,0
2096921,2096921,181565,610443,0
2096921,2096921,181272,610436,0
2096921,2096921,181449,610122,0
2096921,2096921,181551,610200,0
2096921,2096921,181232,610067,0
2096921,2096921,181261,609803,0
2096921,2096921,181299,610091,0
2096921,2096921,181525,610342,0
2096921,2096921,181619,610294,0
2096921,2096921,181659,610491,0
2096921,2096921,181483,610254,0
2096921,2096921,181577,610039,0
2096921,2096921,181414,610359,0
2096921,2096921,181435,610502,0
2096921,2096921,181559,610447,0
2096921,2096921,181611,610122,0
2096921,2096921,181703,610533,0
2096921,2096921,181581,611084,0
2096921,2096921,181651,610834,0
2096921,2096921,181815,610690,0
2096921,2096921,181668,610687,0
2096921,2096921,181732,610658,0
2096921,2096921,181798,611439,0
2096921,2096921,182106,611640,0
2096921,2096921,181923,611368,0
2096921,2096921,181716,611522,0
2096921,2096921,182300,611678,0
2096921,2096921,182315,612170,0
2096921,2096921,182577,612332,0
2096921,2096921,182418,612157,0
2096921,2096921,182408,612205,0
2096921,2096921,182580,612401,0
2096921,2096921,182725,612687,0
2096921,2096921,182523,612906,0
2096921,2096921,182691,612851,0
2096921,2096921,182488,612630,0
2096921,2096921,182732,612879,0
2096921,2096921,182690,613106,0
2096921,2096921,183026,613404,0
2096921,2096921,182999,613485,0
2096921,2096921,182711,613374,0
2096921,2096921,182999,613475,0
2096921,2096921,183209,613858,0
2096921,2096921,183266,613883,0
2096921,2096921,182796,614083,0
2096921,2096921,183021,613765,0
2096921,2096921,182925,613847,0
2096921,2096921,183252,614536,0
2096921,2096921,183000,614322,0
2096921,2096921,183500,614472,0
2096921,2096921,183397,614735,0
2096921,2096921,183541,614717,0
2096921,2096921,183210,614660,0
2096921,2096921,183406,614659,0
2096921,2096921,183778,614566,0
2096921,2096921,183669,614728,0
2096921,2096921,183522,614753,0
2096921,2096921,183416,615366,0
2096921,2096921,183415,615449,0
2096921,2096921,183368,615380,0
2096921,2096921,183869,615434,0
2096921,2096921,183885,615326,0
2096921,2096921,183765,615811,0
2096921,2096921,183743,615717,0
2096921,2096921,183811,615602,0
2096921,2096921,183667,615603,0
2096921,2096921,184164,615906,0
2096921,2096921,184176,616414,0
2096921,2096921,184175,616473,0
2096921,2096921,184150,616375,0
2096921,2096921,184303,616221,0
2096921,2096921,184465,616476,0
2096921,2096921,184179,616707,0
2096921,2096921,184114,616606,0
2096921,2096921,184240,616812,0
2096921,2096921,184226,616413,0
2096921,2096921,184395,616607,0
2096921,2096921,184260,617324,0
2096921,2096921,184457,616921,0
2096921,2096921,184521,617314,0
2096921,2096921,184423,617557,0
2096921,2096921,184338,617191,0
2096921,2096921,184684,617435,0
2096921,2096921,184671,617660,0
2096921,2096921,184537,617258,0
2096921,2096921,184436,617512,0
2096921,2096921,184659,617466,0
2096921,2096921,184758,617867,0
2096921,2096921,184724,618128,0
2096921,2096921,184671,617932,0
2096921,2096921,184661,617933,0
2096921,2096921,184811,618040,0
2096921,2096921,185034,618176,0
2096921,2096921,184748,618409,0
2096921,2096921,184926,618118,0
2096921,2096921,185081,618302,0
2096921,2096921,184797,618201,0
2096921,2096921,185073,618793,0
2096921,2096921,185236,618577,0
2096921,2096921,185423,618919,0
2096921,2096921,185141,618678,0
2096921,2096921,185206,618594,0
2096921,2096921,184977,618971,0
2096921,2096921,185119,618829,0
2096921,2096921,184880,618956,0
2096921,2096921,185174,619048,0
2096921,2096921,185403,618954,0
2096921,2096921,185191,619129,0
2096921,2096921,185167,619302,0
2096921,2096921,185298,619499,0
2096921,2096921,185425,619410,0
2096921,2096921,185450,619315,0
2096921,2096921,185507,619611,0
2096921,2096921,185547,619607,0
2096921,2096921,185349,619614,0
2096921,2096921,185430,619810,0
2096921,2096921,185749,619816,0
2096921,2096921,185821,619827,0
2096921,2096921,185635,619969,0
2096921,2096921,185414,619835,0
2096921,2096921,185564,619979,0
2096921,2096921,185431,620136,0
2096921,2096921,185631,619958,0
2096921,2096921,185660,619805,0
2096921,2096921,185643,619991,0
2096921,2096921,185663,620054,0
2096921,2096921,185425,620115,0
2096921,2096921,185607,620317,0
2096921,2096921,185926,620520,0
2096921,2096921,185933,620546,0
2096921,2096921,185665,620542,0
2096921,2096921,186056,620563,0
2096921,2096921,186134,620484,0
2096921,2096921,185938,620848,0
2096921,2096921,185854,620907,0
2096921,2096921,185748,620686,0
2096921,2096921,185841,620744,0
2096921,2096921,185924,621216,0
2096921,2096921,185851,621185,0
2096921,2096921,185917,621407,0
2096921,2096921,186174,621184,0
2096921,2096921,186129,621122,0
2096921,2096921,186067,621238,0
2096921,2096921,186281,621330,0
2096921,2096921,186214,621165,0
2096921,2096921,186115,621085,0
2096921,2096921,186415,621033,0
2096921,2096921,186340,621228,0
2096921,2096921,186273,621550,0
2096921,2096921,186367,621712,0
2096921,2096921,186104,621701,0
2096921,2096921,186255,621661,0
2096921,2096921,186042,621889,0
2096921,2096921,186396,621757,0
2096921,2096921,186629,621888,0
2096921,2096921,186211,621933,0
2096921,2096921,186255,621735,0
2096921,2096921,186400,621720,0
2096921,2096921,186237,622045,0
2096921,2096921,186474,621720,0
2096921,2096921,186476,621818,0
2096921,2096921,186444,621760,0
2096921,2096921,186259,621896,0
2096921,2096921,186403,622076,0
2096921,2096921,186632,621850,0
2096921,2096921,186411,622035,0
2096921,2096921,186486,622333,0
2096921,2096921,186620,622297,0
2096921,2096921,186758,622303,0
2096921,2096921,186401,622244,0
2096921,2096921,186807,622379,0
2096921,2096921,186537,622259,0
2096921,2096921,186685,622241,0
2096921,2096921,186178,622618,0
2096921,2096921,186798,622193,0
2096921,2096921,186327,622212,0
2096921,2096921,186494,622318,0
2096921,2096921,186864,622447,0
2096921,2096921,186692,622402,0
2096921,2096921,186773,622887,0
2096921,2096921,186500,622545,0
2096921,2096921,186785,622608,0
2096921,2096921,186704,622475,0
2096921,2096921,186614,622324,0
2096921,2096921,186496,622492,0
2096921,2096921,186589,622464,0
2096921,2096921,186897,622593,0
2096921,2096921,186791,623112,0
2096921,2096921,186966,622877,0
2096921,2096921,187285,622842,0
2096921,2096921,186838,622873,0
2096921,2096921,186803,622735,0
2096921,2096921,186487,622996,0
2096921,2096921,186593,622887,0
2096921,2096921,186949,622579,0
2096921,2096921,186769,622749,0
2096921,2096921,186562,622799,0
2096921,2096921,186907,622827,0
2096921,2096921,187013,622983,0
2096921,2096921,186812,623288,0
2096921,2096921,186990,623224,0
2096921,2096921,186940,622802,0
2096921,2096921,186908,623341,0
2096921,2096921,186954,623054,0
2096921,2096921,186668,623170,0
2096921,2096921,186845,623092,0
2096921,2096921,186931,623021,0
2096921,2096921,186984,623352,0
2096921,2096921,186856,623395,0
2096921,2096921,186958,623246,0
2096921,2096921,187118,623433,0
2096921,2096921,187214,623458,0
2096921,2096921,187018,623470,0
2096921,2096921,186945,623242,0
2096921,2096921,187135,623395,0
2096921,2096921,187152,623697,0
2096921,2096921,187271,623648,0
2096921,2096921,187326,623447,0
2096921,2096921,187360,623593,0
2096921,2096921,187147,623573,0
2096921,2096921,186993,623729,0
2096921,2096921,186711,623597,0
2096921,2096921,187008,623472,0
2096921,2096921,187114,623509,0
2096921,2096921,187203,623356,0
2096921,2096921,186929,623514,0
2096921,2096921,187141,623417,0
2096921,2096921,186872,623793,0
2096921,2096921,187480,623604,0
2096921,2096921,187340,623730,0
2096921,2096921,187314,623571,0
2096921,2096921,187249,623573,0
2096921,2096921,187237,623600,0
2096921,2096921,187061,623774,0
2096921,2096921,187243,624061,0
2096921,2096921,187253,623813,0
2096921,2096921,187547,623620,0
2096921,2096921,187556,623837,0
2096921,2096921,187411,623951,0
2096921,2096921,187232,623794,0
2096921,2096921,187214,623762,0
2096921,2096921,187220,623652,0
2096921,2096921,187213,623611,0
2096921,2096921,187281,623294,0
2096921,2096921,187109,623515,0
2096921,2096921,187422,623405,0
2096921,2096921,187321,623758,0
2096921,2096921,187391,623818,0
2096921,2096921,187298,623742,0
2096921,2096921,187272,623817,0
2096921,2096921,187175,623793,0
2096921,2096921,187374,623948,0
2096921,2096921,187218,623697,0
2096921,2096921,187112,623756,0
2096921,2096921,187168,623851,0
2096921,2096921,187118,623745,0
2096921,2096921,187221,623942,0
2096921,2096921,187071,623830,0
2096921,2096921,187227,623656,0
2096921,2096921,187354,623600,0
2096921,2096921,187237,623607,0
2096921,2096921,187219,623436,0
2096921,2096921,187138,623719,0
2096921,2096921,187040,623721,0
2096921,2096921,186967,623933,0
2096921,2096921,187103,623318,0
2096921,2096921,187304,623414,0
2096921,2096921,187269,623677,0
2096921,2096921,187122,623730,0
2096921,2096921,187512,623652,0
2096921,2096921,187177,623842,0
2096921,2096921,187058,623386,0
2096921,2096921,187188,623151,0
2096921,2096921,187168,623243,0
2096921,2096921,187159,623559,0
2096921,2096921,187039,623623,0
2096921,2096921,187084,623492,0
2096921,2096921,187321,623520,0
2096921,2096921,187064,623414,0
2096921,2096921,187125,623473,0
2096921,2096921,187282,623768,0
2096921,2096921,187065,623564,0
2096921,2096921,187296,623144,0
2096921,2096921,186936,623268,0
2096921,2096921,187116,623328,0
2096921,2096921,187125,623545,0
2096921,2096921,186985,623282,0
2096921,2096921,186785,622637,0
2096921,2096921,186675,622580,0
2096921,2096921,186643,622465,0
2096921,2096921,186618,622422,0
2096921,2096921,186506,622589,0
2096921,2096921,186377,621721,0
2096921,2096921,186598,621808,0
2096921,2096921,186112,621814,0
2096921,2096921,186047,622044,0
2096921,2096921,186284,622098,0
2096921,2096921,186123,621413,0
2096921,2096921,186019,620929,0
2096921,2096921,186297,620496,0
2096921,2096921,186047,620685,0
2096921,2096921,185324,620758,0
2096921,2096921,185510,619463,0
2096921,2096921,185232,619063,0
2096921,2096921,185441,619442,0
2096921,2096921,185334,619256,0
2096921,2096921,184788,619407,0
2096921,2096921,184978,618331,0
2096921,2096921,184588,618124,0
2096921,2096921,184728,617372,0
2096921,2096921,184637,617683,0
2096921,2096921,183351,617373,0
2096921,2096921,183194,614688,0
2096921,2096921,183187,614296,0
2096921,2096921,183071,614206,0
2096921,2096921,182871,614166,0
2096921,2096921,181801,614243,0
2096921,2096921,181725,611144,0
2096921,2096921,181341,610463,0
2096921,2096921,181479,610301,0
2096921,2096921,181277,610079,0
2096921,2096921,180316,610223,0
2096921,2096921,179797,607747,0
2096921,2096921,180011,606954,0
2096921,2096921,179842,607020,0
2096921,2096921,180040,606814,0
2096921,2096921,179097,606663,0
2096921,2096921,178811,604831,0
2096921,2096921,179006,604205,0
2096921,2096921,178927,604425,0
2096921,2096921,178910,604281,0
2096921,2096921,178051,604217,0
2096921,2096921,178160,603185,0
2096921,2096921,177825,602525,0
2096921,2096921,177988,602261,0
2096921,2096921,177664,602483,0
2096921,2096921,177485,602331,0
2096921,2096921,177598,601302,0
2096921,2096921,177548,601072,0
2096921,2096921,177695,601344,0
2096921,2096921,177360,601338,0
2096921,2096921,177285,601254,0
2096921,2096921,177319,600401,0
2096921,2096921,177173,600177,0
2096921,2096921,176953,599837,0
2096921,2096921,177318,600329,0
2096921,2096921,176939,600281,0
2096921,2096921,177018,599549,0
2096921,2096921,176754,599546,0
2096921,2096921,176752,599465,0
2096921,2096921,177042,599467,0
2096921,2096921,176985,599240,0
2096921,2096921,176670,599121,0
2096921,2096921,176636,598710,0
2096921,2096921,176809,598917,0
2096921,2096921,176695,599081,0
2096921,2096921,176448,599288,0
2096921,2096921,177065,598853,0
2096921,2096921,176661,598920,0
2096921,2096921,176804,599215,0
2096921,2096921,176820,599045,0
2096921,2096921,176923,598808,0
2096921,2096921,176856,599464,0
2096921,2096921,176801,599122,0
2096921,2096921,176653,598676,0
2096921,2096921,176576,598804,0
2096921,2096921,176609,598889,0
2096921,2096921,176837,599011,0
2096921,2096921,177212,599244,0
2096921,2096921,177100,599088,0
2096921,2096921,176946,599343,0
2096921,2096921,176789,598749,0
2096921,2096921,176793,598837,0
2096921,2096921,176905,598766,0
2096921,2096921,176900,598904,0
2096921,2096921,176707,599075,0
2096921,2096921,177028,599158,0
2096921,2096921,176822,599587,0
2096921,2096921,176914,599441,0
2096921,2096921,177060,599698,0
2096921,2096921,177078,599634,0
2096921,2096921,177392,599770,0
2096921,2096921,177242,599766,0
2096921,2096921,177129,599759,0
2096921,2096921,177236,599969,0
2096921,2096921,177084,599878,0
2096921,2096921,177505,600176,0
2096921,2096921,177762,600754,0
2096921,2096921,177311,600664,0
2096921,2096921,177438,600982,0
2096921,2096921,177621,600737,0
2096921,2096921,177671,600277,0
2096921,2096921,177776,600980,0
2096921,2096921,177802,601097,0
2096921,2096921,177669,600682,0
2096921,2096921,177749,600876,0
2096921,2096921,177850,601029,0
2096921,2096921,177952,601391,0
2096921,2096921,177974,601180,0
2096921,2096921,178174,601447,0
2096921,2096921,178047,601524,0
2096921,2096921,178237,601347,0
2096921,2096921,178098,601679,0
2096921,2096921,178238,601719,0
2096921,2096921,178197,601824,0
2096921,2096921,178400,601957,0
2096921,2096921,178524,601921,0
2096921,2096921,178283,602283,0
2096921,2096921,178499,602220,0
2096921,2096921,178564,602321,0
2096921,2096921,178574,602217,0
2096921,2096921,178902,602171,0
2096921,2096921,178747,602570,0
2096921,2096921,178691,602754,0
2096921,2096921,178703,603007,0
2096921,2096921,178559,602740,0
2096921,2096921,178837,602628,0
2096921,2096921,179006,603280,0
2096921,2096921,179051,603367,0
2096921,2096921,178990,603212,0
2096921,2096921,179014,603464,0
2096921,2096921,179307,603183,0
2096921,2096921,179143,603705,0
2096921,2096921,179116,603705,0
2096921,2096921,178946,603585,0
2096921,2096921,179002,603503,0
2096921,2096921,179616,603841,0
2096921,2096921,179475,604404,0
2096921,2096921,179651,604381,0
2096921,2096921,179381,604273,0
2096921,2096921,179301,604258,0
2096921,2096921,179437,604141,0
2096921,2096921,179543,604656,0
2096921,2096921,179680,604484,0
2096921,2096921,179750,604276,0
2096921,2096921,179771,604423,0
2096921,2096921,180102,604815,0
2096921,2096921,179867,605060,0
2096921,2096921,179877,604888,0
2096921,2096921,180015,604978,0
2096921,2096921,179879,604850,0
2096921,2096921,179816,604874,0
2096921,2096921,179984,604789,0
2096921,2096921,180011,605046,0
2096921,2096921,180014,604862,0
2096921,2096921,180017,605027,0
2096921,2096921,180089,604968,0
2096921,2096921,179995,605174,0
2096921,2096921,179955,605541,0
2096921,2096921,180159,605664,0
2096921,2096921,180010,605263,0
2096921,2096921,180146,605246,0
2096921,2096921,180160,605080,0
2096921,2096921,180284,605465,0
2096921,2096921,180104,605421,0
2096921,2096921,180088,605178,0
2096921,2096921,179936,605264,0
2096921,2096921,179679,605343,0
2096921,2096921,180067,605378,0
2096921,2096921,180176,605400,0
2096921,2096921,180116,605402,0
2096921,2096921,180232,605194,0
2096921,2096921,179988,605159,0
2096921,2096921,180152,604916,0
2096921,2096921,180087,604963,0
2096921,2096921,180112,604795,0
2096921,2096921,180235,605080,0
2096921,2096921,180152,604897,0
2096921,2096921,180272,604989,0
2096921,2096921,180016,604654,0
2096921,2096921,180212,604879,0
2096921,2096921,179941,604655,0
2096921,2096921,179842,604125,0
2096921,2096921,179973,603901,0
2096921,2096921,179819,604270,0
2096921,2096921,179761,604135,0
2096921,2096921,179791,604396,0
2096921,2096921,179568,603662,0
2096921,2096921,179931,603785,0
2096921,2096921,179702,603582,0
2096921,2096921,179578,603557,0
2096921,2096921,179446,603604,0
2096921,2096921,179499,603191,0
2096921,2096921,179107,603063,0
2096921,2096921,179521,602933,0
2096921,2096921,178929,602965,0
2096921,2096921,179157,602984,0
2096921,2096921,179326,602745,0
2096921,2096921,178971,602660,0
2096921,2096921,179255,602721,0
2096921,2096921,179082,602453,0
2096921,2096921,178982,602533,0
2096921,2096921,178869,602268,0
2096921,2096921,178773,602008,0
2096921,2096921,179053,601784,0
2096921,2096921,179152,601954,0
2096921,2096921,178920,601862,0
2096921,2096921,179094,601871,0
2096921,2096921,178751,601885,0
2096921,2096921,178806,601731,0
2096921,2096921,179058,601693,0
2096921,2096921,178924,601772,0
2096921,2096921,178652,601309,0
2096921,2096921,178754,601237,0
2096921,2096921,178692,601336,0
2096921,2096921,178721,601139,0
2096921,2096921,178488,601428,0
2096921,2096921,178739,601307,0
2096921,2096921,178697,601263,0
2096921,2096921,178685,601236,0
2096921,2096921,178895,601209,0
2096921,2096921,178910,601424,0
2096921,2096921,178693,601225,0
2096921,2096921,178819,601394,0
2096921,2096921,178720,601276,0
2096921,2096921,178720,601430,0
2096921,2096921,178667,601676,0
2096921,2096921,178905,600993,0
2096921,2096921,178994,601229,0
2096921,2096921,178517,601142,0
2096921,2096921,178712,600895,0
2096921,2096921,178791,601054,0
2096921,2096921,178849,601377,0
2096921,2096921,179016,600960,0
2096921,2096921,178764,601032,0
2096921,2096921,178799,601402,0
2096921,2096921,178890,601413,0
2096921,2096921,179034,601527,0
2096921,2096921,178889,601488,0
2096921,2096921,179122,601538,0
2096921,2096921,179221,601481,0
2096921,2096921,179173,601328,0
2096921,2096921,179210,601583,0
2096921,2096921,179136,601608,0
2096921,2096921,179181,601331,0
2096921,2096921,179065,601748,0
2096921,2096921,179336,601811,0
2096921,2096921,179423,601943,0
2096921,2096921,179140,601675,0
2096921,2096921,178978,601949,0
2096921,2096921,179188,601877,0
2096921,2096921,179066,601841,0
2096921,2096921,179232,601877,0
2096921,2096921,179501,601749,0
2096921,2096921,179338,601859,0
2096921,2096921,179258,602138,0
2096921,2096921,178990,602053,0
2096921,2096921,179305,602116,0
2096921,2096921,179731,602215,0
2096921,2096921,179345,602526,0
2096921,2096921,179458,602106,0
2096921,2096921,179507,602163,0
2096921,2096921,179331,602349,0
2096921,2096921,179589,602198,0
2096921,2096921,179535,602144,0
2096921,2096921,179546,601779,0
2096921,2096921,179645,601864,0
2096921,2096921,179688,602059,0
2096921,2096921,179507,602232,0
2096921,2096921,179495,602260,0
2096921,2096921,179282,602324,0
2096921,2096921,179543,602267,0
2096921,2096921,179847,602558,0
2096921,2096921,179645,602171,0
2096921,2096921,179649,602285,0
2096921,2096921,179631,602447,0
2096921,2096921,179521,602579,0
2096921,2096921,179691,602493,0
2096921,2096921,179848,602427,0
2096921,2096921,179830,602455,0
2096921,2096921,179771,602733,0
2096921,2096921,179563,602566,0
2096921,2096921,179822,602175,0
2096921,2096921,179916,602538,0
2096921,2096921,179749,602698,0
2096921,2096921,179984,602335,0
2096921,2096921,180171,602576,0
2096921,2096921,180050,602591,0
2096921,2096921,180158,602600,0
2096921,2096921,179840,602427,0
2096921,2096921,179984,602483,0
2096921,2096921,179840,602574,0
2096921,2096921,179909,602529,0
2096921,2096921,179778,602448,0
2096921,2096921,180030,602645,0
2096921,2096921,179898,602803,0
2096921,2096921,180020,602720,0
2096921,2096921,179810,602794,0
2096921,2096921,179952,602810,0
2096921,2096921,179958,602815,0
2096921,2096921,180239,602758,0
2096921,2096921,180278,602838,0
2096921,2096921,179852,602712,0
2096921,2096921,179720,602620,0
2096921,2096921,180258,602943,0
2096921,2096921,180176,602879,0
2096921,2096921,179901,602777,0
2096921,2096921,180094,602981,0
2096921,2096921,180232,603085,0
2096921,2096921,180342,602811,0
2096921,2096921,179968,602873,0
2096921,2096921,179990,602835,0
2096921,2096921,180190,602829,0
2096921,2096921,180234,602708,0
2096921,2096921,180096,602741,0
2096921,2096921,180231,602689,0
2096921,2096921,180212,602939,0
2096921,2096921,180504,602611,0
2096921,2096921,180402,602869,0
2096921,2096921,180225,602965,0
2096921,2096921,180095,602963,0
2096921,2096921,180314,602870,0
2096921,2096921,180208,602763,0
2096921,2096921,180001,602588,0
2096921,2096921,180106,602937,0
2096921,2096921,180089,602673,0
2096921,2096921,180224,602709,0
2096921,2096921,180211,602657,0
2096921,2096921,180283,602801,0
2096921,2096921,180410,602725,0
2096921,2096921,180078,602831,0
2096921,2096921,180313,602899,0
2096921,2096921,180183,602822,0
2096921,2096921,180142,602531,0
2096921,2096921,180327,602708,0
2096921,2096921,180189,602743,0
2096921,2096921,180463,602701,0
2096921,2096921,180139,602876,0
2096921,2096921,180278,602670,0
2096921,2096921,180314,602740,0
2096921,2096921,180335,602718,0
2096921,2096921,180305,602972,0
2096921,2096921,180279,602798,0
2096921,2096921,180331,602877,0
2096921,2096921,180374,603088,0
2096921,2096921,180497,602855,0
2096921,2096921,180463,602770,0
2096921,2096921,180301,602550,0
2096921,2096921,180408,602781,0
2096921,2096921,180508,602907,0
2096921,2096921,180524,602597,0
2096921,2096921,180266,602888,0
2096921,2096921,180084,602503,0
2096921,2096921,180084,602372,0
2096921,2096921,180200,602720,0
2096921,2096921,180338,602708,0
2096921,2096921,180585,602722,0
2096921,2096921,180542,602640,0
2096921,2096921,180448,602508,0
2096921,2096921,180424,602897,0
2096921,2096921,180458,602745,0
2096921,2096921,180402,602682,0
2096921,2096921,180525,602372,0
2096921,2096921,180337,602157,0
2096921,2096921,180231,602619,0
2096921,2096921,180249,602799,0
2096921,2096921,180058,602467,0
2096921,2096921,180703,602327,0
2096921,2096921,180632,602438,0
2096921,2096921,180508,602504,0
2096921,2096921,180556,602495,0
2096921,2096921,180660,602399,0
2096921,2096921,180461,602209,0
2096921,2096921,180549,602165,0
2096921,2096921,180415,602296,0
2096921,2096921,180574,602061,0
2096921,2096921,180447,602557,0
2096921,2096921,180328,602105,0
2096921,2096921,180395,602172,0
2096921,2096921,180310,602394,0
2096921,2096921,180441,602019,0
2096921,2096921,180437,602386,0
2096921,2096921,179927,602286,0
2096921,2096921,180275,601736,0
2096921,2096921,180407,602179,0
2096921,2096921,180406,601988,0
2096921,2096921,180254,602138,0
2096921,2096921,180461,601993,0
2096921,2096921,180592,602069,0
2096921,2096921,180325,602096,0
2096921,2096921,180620,602043,0
2096921,2096921,180330,602034,0
2096921,2096921,180205,601838,0
2096921,2096921,180229,601913,0
2096921,2096921,180266,601965,0
2096921,2096921,180106,601858,0
2096921,2096921,180211,602039,0
2096921,2096921,180225,601743,0
2096921,2096921,180356,601836,0
2096921,2096921,180228,601801,0
2096921,2096921,180202,601997,0
2096921,2096921,180275,601960,0
2096921,2096921,180115,601662,0
2096921,2096921,180245,601699,0
2096921,2096921,180300,601591,0
2096921,2096921,180395,601834,0
2096921,2096921,180322,601584,0
2096921,2096921,180382,601615,0
2096921,2096921,180424,601432,0
2096921,2096921,180331,601450,0
2096921,2096921,180218,601612,0
2096921,2096921,180221,601768,0
2096921,2096921,180062,601621,0
2096921,2096921,180205,601829,0
2096921,2096921,180521,601683,0
2096921,2096921,180147,601356,0
2096921,2096921,180237,601398,0
2096921,2096921,180162,601416,0
2096921,2096921,180352,601175,0
2096921,2096921,180404,601596,0
2096921,2096921,180450,601456,0
2096921,2096921,180276,601484,0
2096921,2096921,180234,601504,0
2096921,2096921,179875,601227,0
2096921,2096921,179984,601296,0
2096921,2096921,180243,601219,0
2096921,2096921,180046,601028,0
2096921,2096921,180273,601392,0
2096921,2096921,180397,601382,0
2096921,2096921,180220,601601,0
2096921,2096921,180367,601321,0
2096921,2096921,180054,601347,0
2096921,2096921,179758,601334,0
2096921,2096921,180057,601338,0
2096921,2096921,180154,601140,0
2096921,2096921,180242,600882,0
2096921,2096921,180256,601155,0
2096921,2096921,180172,601129,0
2096921,2096921,180220,601067,0
2096921,2096921,180033,601248,0
2096921,2096921,180283,601160,0
2096921,2096921,180046,601214,0
2096921,2096921,180313,600798,0
2096921,2096921,180427,600859,0
2096921,2096921,180111,600960,0
2096921,2096921,180026,600596,0
2096921,2096921,180132,600498,0
2096921,2096921,180084,600842,0
2096921,2096921,180204,600795,0
2096921,2096921,180065,600770,0
2096921,2096921,180027,600776,0
2096921,2096921,180074,600798,0
2096921,2096921,179693,600737,0
2096921,2096921,179783,601073,0
2096921,2096921,180033,600700,0
2096921,2096921,180099,600522,0
2096921,2096921,179981,600647,0
2096921,2096921,180189,600539,0
2096921,2096921,180172,600464,0
2096921,2096921,180187,600574,0
2096921,2096921,180005,600626,0
2096921,2096921,180071,600544,0
2096921,2096921,179827,600304,0
2096921,2096921,180012,600249,0
2096921,2096921,179856,600590,0
2096921,2096921,180108,600328,0
2096921,2096921,180064,600122,0
2096921,2096921,180056,600416,0
2096921,2096921,180034,600094,0
2096921,2096921,180024,600269,0
2096921,2096921,180094,600300,0
2096921,2096921,180173,600179,0
2096921,2096921,179521,600017,0
2096921,2096921,179778,600056,0
2096921,2096921,179928,600246,0
2096921,2096921,179797,600044,0
2096921,2096921,179643,599860,0
2096921,2096921,179896,599906,0
2096921,2096921,179980,600066,0
2096921,2096921,179777,599970,0
2096921,2096921,179707,599906,0
2096921,2096921,179612,600085,0
2096921,2096921,179962,599789,0
2096921,2096921,179775,599866,0
2096921,2096921,179527,599888,0
2096921,2096921,179609,599413,0
2096921,2096921,180017,599822,0
2096921,2096921,179833,599635,0
2096921,2096921,179627,599705,0
2096921,2096921,179763,599554,0
2096921,2096921,180032,599953,0
2096921,2096921,179782,599883,0
2096921,2096921,180068,599498,0
2096921,2096921,179979,599509,0
2096921,2096921,179741,599574,0
2096921,2096921,179692,599573,0
2096921,2096921,179481,599441,0
2096921,2096921,179361,599021,0
2096921,2096921,179456,598911,0
2096921,2096921,179387,598981,0
2096921,2096921,179555,598760,0
2096921,2096921,179252,599033,0
2096921,2096921,179059,598337,0
2096921,2096921,179114,598376,0
2096921,2096921,178855,598401,0
2096921,2096921,179029,598290,0
2096921,2096921,179014,598066,0
2096921,2096921,178847,597259,0
2096921,2096921,178780,597191,0
2096921,2096921,178659,596906,0
2096921,2096921,178766,597132,0
2096921,2096921,178118,596908,0
2096921,2096921,178312,596082,0
2096921,2096921,177814,595922,0
2096921,2096921,178047,595564,0
2096921,2096921,177936,595707,0
2096921,2096921,177514,595484,0
2096921,2096921,177404,594506,0
2096921,2096921,177394,594409,0
2096921,2096921,177578,594262,0
2096921,2096921,177625,594212,0
2096921,2096921,176528,594272,0
2096921,2096921,176141,591668,0
2096921,2096921,176022,590765,0
2096921,2096921,176051,591035,0
2096921,2096921,176310,591011,0
2096921,2096921,174731,590832,0
2096921,2096921,174460,587696,0
2096921,2096921,174251,587379,0
2096921,2096921,174288,587134,0
2096921,2096921,174200,587048,0
2096921,2096921,173128,587138,0
2096921,2096921,172996,584653,0
2096921,2096921,172619,584101,0
2096921,2096921,172758,584022,0
2096921,2096921,173106,583887,0
2096921,2096921,172215,583692,0
2096921,2096921,171914,582020,0
2096921,2096921,171905,581896,0
2096921,2096921,171732,581614,0
2096921,2096921,172133,581665,0
2096921,2096921,171790,581664,0
2096921,2096921,171434,580229,0
2096921,2096921,171225,579703,0
2096921,2096921,171267,579794,0
2096921,2096921,171040,579760,0
2096921,2096921,170959,579921,0
2096921,2096921,170752,579078,0
2096921,2096921,170976,578872,0
2096921,2096921,170628,579001,0
2096921,2096921,170680,579056,0
2096921,2096921,170240,578722,0
2096921,2096921,170342,578369,0
2096921,2096921,170428,578438,0
2096921,2096921,170379,578087,0
2096921,2096921,170361,578322,0
2096921,2096921,170307,577839,0
2096921,2096921,170201,577575,0
2096921,2096921,170321,577555,0
2096921,2096921,170252,577243,0
2096921,2096921,170127,577371,0
2096921,2096921,170217,577343,0
2096921,2096921,170395,577150,0
2096921,2096921,170364,577316,0
2096921,2096921,170035,577124,0
2096921,2096921,170264,577244,0
2096921,2096921,170014,577461,0
2096921,2096921,170083,577329,0
2096921,2096921,170037,577312,0
2096921,2096921,170188,577055,0
2096921,2096921,170189,577221,0
2096921,2096921,170330,577533,0
2096921,2096921,170088,577616,0
2096921,2096921,170242,577464,0
2096921,2096921,170238,577403,0
2096921,2096921,170240,577175,0
2096921,2096921,170254,577444,0
2096921,2096921,170558,577932,0
2096921,2096921,170376,578200,0
2096921,2096921,170194,577783,0
2096921,2096921,170314,577823,0
2096921,2096921,170439,577762,0
2096921,2096921,170291,577823,0
2096921,2096921,170051,577978,0
2096921,2096921,170142,578130,0
2096921,2096921,170335,578095,0
2096921,2096921,170531,577914,0
2096921,2096921,170664,578173,0
2096921,2096921,170889,578616,0
2096921,2096921,170800,578672,0
2096921,2096921,170714,578789,0
2096921,2096921,171098,578816,0
2096921,2096921,171065,579188,0
2096921,2096921,170852,579059,0
2096921,2096921,170940,579135,0
2096921,2096921,170697,579220,0
2096921,2096921,171020,579374,0
2096921,2096921,171046,580216,0
2096921,2096921,171370,580157,0
2096921,2096921,171291,579874,0
2096921,2096921,171206,580145,0
2096921,2096921,171643,579855,0
2096921,2096921,171413,580519,0
2096921,2096921,171480,580794,0
2096921,2096921,171642,580732,0
2096921,2096921,171814,580911,0
2096921,2096921,171881,580773,0
2096921,2096921,171701,581194,0
2096921,2096921,171940,581294,0
2096921,2096921,171822,581210,0
2096921,2096921,172140,581413,0
2096921,2096921,172245,581176,0
2096921,2096921,171980,581755,0
2096921,2096921,172212,582132,0
2096921,2096921,171597,581909,0
2096921,2096921,171864,581806,0
2096921,2096921,172625,581956,0
2096921,2096921,172255,582522,0
2096921,2096921,172338,582414,0
2096921,2096921,172504,582511,0
2096921,2096921,172576,582778,0
2096921,2096921,172849,582625,0
2096921,2096921,172595,583098,0
2096921,2096921,172631,583256,0
2096921,2096921,172748,583305,0
2096921,2096921,172831,583582,0
2096921,2096921,173112,583268,0
2096921,2096921,173117,583658,0
2096921,2096921,173135,584047,0
2096921,2096921,172884,583832,0
2096921,2096921,172936,583853,0
2096921,2096921,173299,583992,0
2096921,2096921,173193,584373,0
2096921,2096921,173152,584637,0
2096921,2096921,173262,584630,0
2096921,2096921,173612,584701,0
2096921,2096921,173536,584845,0
2096921,2096921,173935,585342,0
2096921,2096921,173953,585709,0
2096921,2096921,173404,585600,0
2096921,2096921,173704,585453,0
2096921,2096921,173801,585594,0
2096921,2096921,174013,585818,0
2096921,2096921,173715,585939,0
2096921,2096921,173758,586052,0
2096921,2096921,174198,585968,0
2096921,2096921,174239,585949,0
2096921,2096921,174157,586367,0
2096921,2096921,174094,586620,0
2096921,2096921,174215,586729,0
2096921,2096921,174338,586345,0
2096921,2096921,174117,586712,0
2096921,2096921,174261,587109,0
2096921,2096921,174193,587452,0
2096921,2096921,174148,587278,0
2096921,2096921,174265,587391,0
2096921,2096921,174625,586907,0
2096921,2096921,174658,587520,0
2096921,2096921,174964,587697,0
2096921,2096921,174791,587835,0
2096921,2096921,174519,587635,0
2096921,2096921,174734,587600,0
2096921,2096921,174693,587740,0
2096921,2096921,174426,587748,0
2096921,2096921,174416,587882,0
2096921,2096921,174646,588056,0
2096921,2096921,174739,587747,0
2096921,2096921,174799,587970,0
2096921,2096921,174905,588069,0
2096921,2096921,174956,588104,0
2096921,2096921,174626,588251,0
2096921,2096921,174844,588118,0
2096921,2096921,174554,588174,0
2096921,2096921,174722,587860,0
2096921,2096921,174475,587965,0
2096921,2096921,174715,588232,0
2096921,2096921,174747,588060,0
2096921,2096921,174848,588165,0
2096921,2096921,174983,588451,0
2096921,2096921,174844,588035,0
2096921,2096921,174544,588165,0
2096921,2096921,174568,588144,0
2096921,2096921,174618,588140,0
2096921,2096921,174626,587672,0
2096921,2096921,174625,587608,0
2096921,2096921,174541,587774,0
2096921,2096921,174502,587984,0
2096921,2096921,174762,587947,0
2096921,2096921,174503,587932,0
2096921,2096921,174695,587873,0
2096921,2096921,174843,587465,0
2096921,2096921,174419,587159,0
2096921,2096921,174479,587456,0
2096921,2096921,174390,587220,0
2096921,2096921,174458,587330,0
2096921,2096921,174290,587630,0
2096921,2096921,174234,587521,0
2096921,2096921,174442,587210,0
2096921,2096921,174754,587508,0
2096921,2096921,174380,587380,0
2096921,2096921,174596,587291,0
2096921,2096921,174348,587342,0
2096921,2096921,174267,587181,0
2096921,2096921,174489,587103,0
2096921,2096921,174194,586825,0
2096921,2096921,174501,587024,0
2096921,2096921,174563,587040,0
2096921,2096921,174483,587234,0
2096921,2096921,174156,587154,0
2096921,2096921,174856,587330,0
2096921,2096921,174504,586962,0
2096921,2096921,174389,586891,0
2096921,2096921,174369,586972,0
2096921,2096921,174246,586722,0
2096921,2096921,174356,586830,0
2096921,2096921,174243,587040,0
2096921,2096921,174315,587106,0
2096921,2096921,174600,587109,0
2096921,2096921,174308,587300,0
2096921,2096921,174245,587149,0
2096921,2096921,174629,587312,0
2096921,2096921,174455,587445,0
2096921,2096921,174347,587334,0
2096921,2096921,174689,587510,0
2096921,2096921,174317,587271,0
2096921,2096921,174420,587696,0
2096921,2096921,174355,587949,0
2096921,2096921,174322,587824,0
2096921,2096921,174493,587691,0
2096921,2096921,174559,587911,0
2096921,2096921,174726,587687,0
2096921,2096921,175032,587599,0
2096921,2096921,174954,588098,0
2096921,2096921,174921,587783,0
2096921,2096921,175214,588127,0
2096921,2096921,174929,587830,0
2096921,2096921,174941,588432,0
2096921,2096921,175281,588717,0
2096921,2096921,175156,588848,0
2096921,2096921,175126,588866,0
2096921,2096921,175073,589051,0
2096921,2096921,175147,588610,0
2096921,2096921,175225,589198,0
2096921,2096921,175446,589305,0
2096921,2096921,175481,589415,0
2096921,2096921,175427,589684,0
2096921,2096921,175425,589334,0
2096921,2096921,175627,590013,0
2096921,2096921,175709,589981,0
2096921,2096921,175911,589873,0
2096921,2096921,175720,589892,0
2096921,2096921,175734,589886,0
2096921,2096921,175531,590281,0
2096921,2096921,175579,590192,0
2096921,2096921,175491,590169,0
2096921,2096921,175680,590358,0
2096921,2096921,175991,590577,0
2096921,2096921,176105,590834,0
2096921,2096921,175841,590874,0
2096921,2096921,176146,591268,0
2096921,2096921,175921,591028,0
2096921,2096921,176316,590690,0
2096921,2096921,176232,591084,0
2096921,2096921,176130,591135,0
2096921,2096921,176144,591171,0
2096921,2096921,176059,591028,0
2096921,2096921,176303,591367,0
2096921,2096921,176523,591841,0
2096921,2096921,176580,592097,0
2096921,2096921,176501,592211,0
2096921,2096921,176231,591964,0
2096921,2096921,176592,591750,0
2096921,2096921,176633,592359,0
2096921,2096921,176624,592555,0
2096921,2096921,176451,592271,0
2096921,2096921,176634,592581,0
2096921,2096921,176755,592589,0
2096921,2096921,176649,593111,0
2096921,2096921,176791,592950,0
2096921,2096921,176728,593069,0
2096921,2096921,176889,592887,0
2096921,2096921,176962,592864,0
2096921,2096921,176703,593561,0
2096921,2096921,176990,593550,0
2096921,2096921,176945,593507,0
2096921,2096921,176972,593404,0
2096921,2096921,177567,593795,0
2096921,2096921,177345,593883,0
2096921,2096921,177300,593894,0
2096921,2096921,177353,593793,0
2096921,2096921,177458,594207,0
2096921,2096921,177434,594179,0
2096921,2096921,177511,594573,0
2096921,2096921,177504,594361,0
2096921,2096921,177772,594585,0
2096921,2096921,177489,594759,0
2096921,2096921,177652,594631,0
2096921,2096921,177688,594897,0
2096921,2096921,177829,595029,0
2096921,2096921,177475,595124,0
2096921,2096921,177307,595086,0
2096921,2096921,177806,595024,0
2096921,2096921,178035,595232,0
2096921,2096921,177736,595392,0
2096921,2096921,177861,595445,0
2096921,2096921,178009,595737,0
2096921,2096921,178124,595495,0
2096921,2096921,178156,596036,0
2096921,2096921,178011,595956,0
2096921,2096921,177897,596235,0
2096921,2096921,178054,596180,0
2096921,2096921,178044,596002,0
2096921,2096921,178229,596524,0
2096921,2096921,178338,596444,0
2096921,2096921,178279,596429,0
2096921,2096921,178158,596646,0
2096921,2096921,178410,596514,0
2096921,2096921,178463,596872,0
2096921,2096921,178624,597069,0
2096921,2096921,178830,597064,0
2096921,2096921,178467,597167,0
2096921,2096921,178691,597102,0
2096921,2096921,178615,597265,0
2096921,2096921,178775,597369,0
2096921,2096921,178606,597603,0
2096921,2096921,178330,597399,0
2096921,2096921,178850,597341,0
2096921,2096921,178655,597795,0
2096921,2096921,178787,598101,0
2096921,2096921,178857,598119,0
2096921,2096921,178769,598021,0
2096921,2096921,178802,597860,0
2096921,2096921,178970,598306,0
2096921,2096921,179044,598153,0
2096921,2096921,178990,598334,0
2096921,2096921,179065,598635,0
2096921,2096921,179144,598714,0
2096921,2096921,179236,598779,0
2096921,2096921,179137,599044,0
2096921,2096921,179345,599004,0
2096921,2096921,179531,598890,0
2096921,2096921,179289,598919,0
2096921,2096921,179499,599083,0
2096921,2096921,179203,599407,0
2096921,2096921,179287,599378,0
2096921,2096921,179197,599488,0
2096921,2096921,179601,599573,0
2096921,2096921,179476,599876,0
2096921,2096921,179534,599804,0
2096921,2096921,179487,599860,0
2096921,2096921,179393,599784,0
2096921,2096921,179821,599606,0
2096921,2096921,179829,600253,0
2096921,2096921,179678,600290,0
2096921,2096921,179856,600141,0
2096921,2096921,179702,600024,0
2096921,2096921,179739,600061,0
2096921,2096921,179924,600595,0
2096921,2096921,179970,600924,0
2096921,2096921,179829,601011,0
2096921,2096921,180020,600370,0
2096921,2096921,180141,600414,0
2096921,2096921,179902,600746,0
2096921,2096921,180007,600938,0
2096921,2096921,179899,600970,0
2096921,2096921,179770,601253,0
2096921,2096921,180096,600994,0
2096921,2096921,180493,601497,0
2096921,2096921,180438,601550,0
2096921,2096921,180200,601901,0
2096921,2096921,180014,601539,0
2096921,2096921,180445,601320,0
2096921,2096921,180191,601769,0
2096921,2096921,180448,601596,0
2096921,2096921,180156,601880,0
2096921,2096921,179797,601797,0
2096921,2096921,180339,601937,0
2096921,2096921,180208,602337,0
2096921,2096921,180596,602118,0
2096921,2096921,180404,602235,0
2096921,2096921,180353,602506,0
2096921,2096921,180498,602343,0
2096921,2096921,180391,602556,0
2096921,2096921,180394,602301,0
2096921,2096921,180627,602700,0
2096921,2096921,180641,602703,0
2096921,2096921,180668,602665,0
2096921,2096921,180901,603099,0
2096921,2096921,180906,602978,0
2096921,2096921,180616,602978,0
2096921,2096921,180714,602961,0
2096921,2096921,180603,603126,0
2096921,2096921,180587,603351,0
2096921,2096921,180727,602985,0
2096921,2096921,180846,603534,0
2096921,2096921,180870,603472,0
2096921,2096921,180936,603157,0
2096921,2096921,181000,603698,0
2096921,2096921,181116,603787,0
2096921,2096921,181078,603814,0
2096921,2096921,181034,603756,0
2096921,2096921,181003,604038,0
2096921,2096921,181052,604245,0
2096921,2096921,180925,604232,0
2096921,2096921,180962,603995,0
2096921,2096921,181022,604578,0
2096921,2096921,181038,604132,0
2096921,2096921,181137,604653,0
2096921,2096921,181529,604924,0
2096921,2096921,181548,604719,0
2096921,2096921,181404,604746,0
2096921,2096921,181144,604456,0
2096921,2096921,181498,605184,0
2096921,2096921,181264,604879,0
2096921,2096921,181009,604916,0
2096921,2096921,181112,604928,0
2096921,2096921,181313,605000,0
2096921,2096921,181531,605040,0
2096921,2096921,181826,605290,0
2096921,2096921,181726,605456,0
2096921,2096921,181367,605442,0
2096921,2096921,181399,605305,0
2096921,2096921,181463,605755,0
2096921,2096921,181572,605801,0
2096921,2096921,181508,605790,0
2096921,2096921,181673,605697,0
2096921,2096921,181564,605924,0
2096921,2096921,181948,606148,0
2096921,2096921,181712,606241,0
2096921,2096921,181713,606278,0
2096921,2096921,182217,606498,0
2096921,2096921,182085,606139,0
2096921,2096921,181898,606658,0
2096921,2096921,181898,606404,0
2096921,2096921,181887,606868,0
2096921,2096921,181921,606721,0
2096921,2096921,182044,606492,0
2096921,2096921,182078,607145,0
2096921,2096921,182045,607058,0
2096921,2096921,182071,607167,0
2096921,2096921,182181,607077,0
2096921,2096921,182136,606993,0
2096921,2096921,182161,607440,0
2096921,2096921,182106,607098,0
2096921,2096921,181963,607217,0
2096921,2096921,181929,607264,0
2096921,2096921,182242,607169,0
2096921,2096921,182167,607819,0
2096921,2096921,182176,607804,0
2096921,2096921,182206,608084,0
2096921,2096921,182212,607771,0
2096921,2096921,182412,607742,0
2096921,2096921,182168,608018,0
2096921,2096921,182159,607879,0
2096921,2096921,182358,607840,0
2096921,2096921,182320,608307,0
2096921,2096921,182622,607942,0
2096921,2096921,182377,608530,0
2096921,2096921,182628,608470,0
2096921,2096921,182350,608202,0
2096921,2096921,182597,608579,0
2096921,2096921,182508,608426,0
2096921,2096921,182813,608395,0
2096921,2096921,182947,608578,0
2096921,2096921,182912,608638,0
2096921,2096921,182847,608619,0
2096921,2096921,182656,608634,0
2096921,2096921,182693,608982,0
2096921,2096921,182504,609236,0
2096921,2096921,182825,609024,0
2096921,2096921,182784,608998,0
2096921,2096921,182770,609207,0
2096921,2096921,182702,609189,0
2096921,2096921,182973,609342,0
2096921,2096921,182774,609306,0
2096921,2096921,183135,609329,0
2096921,2096921,182758,609485,0
2096921,2096921,182777,609434,0
2096921,2096921,182901,609610,0
2096921,2096921,183035,609446,0
2096921,2096921,182935,609703,0
2096921,2096921,183021,609657,0
2096921,2096921,182998,609724,0
2096921,2096921,182974,609821,0
2096921,2096921,182750,610073,0
2096921,2096921,182897,609818,0
2096921,2096921,183047,610020,0
2096921,2096921,183069,610347,0
2096921,2096921,183001,610300,0
2096921,2096921,183017,610124,0
2096921,2096921,182770,610374,0
2096921,2096921,183145,610378,0
2096921,2096921,183272,610333,0
2096921,2096921,183030,610679,0
2096921,2096921,183124,610537,0
2096921,2096921,182832,610841,0
2096921,2096921,183022,610313,0
2096921,2096921,182750,610430,0
2096921,2096921,182768,610327,0
2096921,2096921,183008,609821,0
2096921,2096921,182877,610252,0
2096921,2096921,182461,610489,0
2096921,2096921,182901,610067,0
2096921,2096921,182758,609957,0
2096921,2096921,182644,609771,0
2096921,2096921,182651,610109,0
2096921,2096921,182624,609743,0
2096921,2096921,182622,609123,0
2096921,2096921,182692,609230,0
2096921,2096921,182472,609040,0
2096921,2096921,182506,608903,0
2096921,2096921,181974,608912,0
2096921,2096921,181967,608214,0
2096921,2096921,181703,608047,0
2096921,2096921,181942,608202,0
2096921,2096921,181896,607910,0
2096921,2096921,181237,607985,0
2096921,2096921,181742,607223,0
2096921,2096921,181459,607097,0
2096921,2096921,181537,607277,0
2096921,2096921,181165,606937,0
2096921,2096921,180364,607187,0
2096921,2096921,180123,604891,0
2096921,2096921,180024,603951,0
2096921,2096921,179918,604186,0
2096921,2096921,179965,604515,0
2096921,2096921,178800,604020,0
2096921,2096921,178517,601216,0
2096921,2096921,178328,600415,0
2096921,2096921,178206,600385,0
2096921,2096921,178201,600209,0
2096921,2096921,177507,600322,0
2096921,2096921,177184,598248,0
2096921,2096921,177418,597386,0
2096921,2096921,177000,597883,0
2096921,2096921,177169,597905,0
2096921,2096921,176266,598023,0
2096921,2096921,176402,596303,0
2096921,2096921,176462,595968,0
2096921,2096921,176321,595994,0
2096921,2096921,176338,595628,0
2096921,2096921,175937,595707,0
2096921,2096921,175417,594557,0
2096921,2096921,175484,594117,0
2096921,2096921,175546,594211,0
2096921,2096921,175427,594350,0
2096921,2096921,175244,594508,0
2096921,2096921,175432,593867,0
2096921,2096921,175382,593422,0
2096921,2096921,175187,593639,0
2096921,2096921,175138,593556,0
2096921,2096921,174919,593655,0
2096921,2096921,175003,592860,0
2096921,2096921,175124,592796,0
2096921,2096921,174946,592931,0
2096921,2096921,175029,593349,0
2096921,2096921,174958,592895,0
2096921,2096921,174966,592578,0
2096921,2096921,175137,592583,0
2096921,2096921,175110,592786,0
2096921,2096921,174860,592715,0
2096921,2096921,175012,592437,0
2096921,2096921,174584,592539,0
2096921,2096921,174698,592764,0
2096921,2096921,174600,592574,0
2096921,2096921,174976,592553,0
2096921,2096921,174891,592896,0
2096921,2096921,174916,593022,0
2096921,2096921,174880,593163,0
2096921,2096921,174858,593219,0
2096921,2096921,174728,593217,0
2096921,2096921,175164,593166,0
2096921,2096921,174919,593712,0
2096921,2096921,175030,593548,0
2096921,2096921,174931,593664,0
2096921,2096921,174902,593589,0
2096921,2096921,175345,593618,0
2096921,2096921,174937,593693,0
2096921,2096921,175277,593968,0
2096921,2096921,175297,594178,0
2096921,2096921,175342,594297,0
2096921,2096921,175400,593976,0
2096921,2096921,175630,594548,0
2096921,2096921,175379,594478,0
2096921,2096921,175356,594744,0
2096921,2096921,175287,594737,0
2096921,2096921,175928,594545,0
2096921,2096921,176041,595375,0
2096921,2096921,175969,595546,0
2096921,2096921,175881,595703,0
2096921,2096921,175959,595625,0
2096921,2096921,176067,595733,0
2096921,2096921,176231,596266,0
2096921,2096921,176263,596339,0
2096921,2096921,176334,596411,0
2096921,2096921,176200,596330,0
2096921,2096921,176416,596331,0
2096921,2096921,176575,597330,0
2096921,2096921,176512,597451,0
2096921,2096921,176780,597591,0
2096921,2096921,176684,597502,0
2096921,2096921,176797,597839,0
2096921,2096921,177060,598364,0
2096921,2096921,176793,598388,0
2096921,2096921,176895,598546,0
2096921,2096921,177083,598571,0
2096921,2096921,177351,598593,0
2096921,2096921,177764,599600,0
2096921,2096921,177538,599623,0
2096921,2096921,177652,599442,0
2096921,2096921,177435,599608,0
2096921,2096921,177570,599330,0
2096921,2096921,177706,600139,0
2096921,2096921,177482,600110,0
2096921,2096921,177697,600182,0
2096921,2096921,177666,600194,0
2096921,2096921,177993,600321,0
2096921,2096921,178173,601016,0
2096921,2096921,178098,601480,0
2096921,2096921,178137,601232,0
2096921,2096921,178153,601459,0
2096921,2096921,178605,601507,0
2096921,2096921,178620,602092,0
2096921,2096921,178555,601910,0
2096921,2096921,178158,602158,0
2096921,2096921,178471,602282,0
2096921,2096921,178973,602425,0
2096921,2096921,178988,603041,0
2096921,2096921,179097,603370,0
2096921,2096921,179074,602967,0
2096921,2096921,178918,603111,0
2096921,2096921,179268,603148,0
2096921,2096921,179545,603853,0
2096921,2096921,179569,604105,0
2096921,2096921,179345,604263,0
2096921,2096921,179255,604213,0
2096921,2096921,179686,604097,0
2096921,2096921,179698,604868,0
2096921,2096921,179708,605161,0
2096921,2096921,179640,605091,0
2096921,2096921,179616,605061,0
2096921,2096921,179929,605397,0
2096921,2096921,179935,606003,0
2096921,2096921,180094,605914,0
2096921,2096921,179981,605784,0
2096921,2096921,180158,606134,0
2096921,2096921,180224,606065,0
2096921,2096921,180426,606867,0
2096921,2096921,180517,606973,0
2096921,2096921,180456,606917,0
2096921,2096921,180283,606566,0
2096921,2096921,180579,606801,0
2096921,2096921,180718,607601,0
2096921,2096921,180675,607754,0
2096921,2096921,180672,607590,0
2096921,2096921,180900,608231,0
2096921,2096921,180995,607803,0
2096921,2096921,181056,608295,0
2096921,2096921,180899,608347,0
2096921,2096921,181027,608350,0
2096921,2096921,181086,608222,0
2096921,2096921,181230,607956,0
2096921,2096921,181062,608591,0
2096921,2096921,181095,608607,0
2096921,2096921,180802,608726,0
2096921,2096921,181173,608768,0
2096921,2096921,181199,608828,0
2096921,2096921,181729,609072,0
2096921,2096921,181220,609258,0
2096921,2096921,181352,609284,0
2096921,2096921,181304,609140,0
2096921,2096921,181428,609343,0
2096921,2096921,181353,609503,0
2096921,2096921,181121,609435,0
2096921,2096921,181150,609427,0
2096921,2096921,181294,609557,0
2096921,2096921,181720,609501,0
2096921,2096921,181464,609269,0
2096921,2096921,181511,609572,0
2096921,2096921,181340,609865,0
2096921,2096921,181465,609760,0
2096921,2096921,181540,609604,0
2096921,2096921,181573,609489,0
2096921,2096921,181159,609562,0
2096921,2096921,181397,609703,0
2096921,2096921,181281,609991,0
2096921,2096921,181446,609758,0
2096921,2096921,181355,609455,0
2096921,2096921,181248,609722,0
2096921,2096921,181362,609679,0
2096921,2096921,181611,609446,0
2096921,2096921,181262,609598,0
2096921,2096921,181273,609583,0
2096921,2096921,181122,609558,0
2096921,2096921,181289,609568,0
2096921,2096921,181159,609809,0
2096921,2096921,181431,609682,0
2096921,2096921,181428,609670,0
2096921,2096921,181191,609517,0
2096921,2096921,181178,609628,0
2096921,2096921,181483,609651,0
2096921,2096921,181324,609845,0
2096921,2096921,181089,609486,0
2096921,2096921,181319,609451,0
2096921,2096921,181299,609421,0
2096921,2096921,181300,609667,0
2096921,2096921,181250,609528,0
2096921,2096921,181522,609529,0
2096921,2096921,181129,609634,0
2096921,2096921,181377,609997,0
2096921,2096921,181140,609849,0
2096921,2096921,181402,609612,0
2096921,2096921,181197,609393,0
2096921,2096921,181400,609459,0
2096921,2096921,181131,609586,0
2096921,2096921,181226,609547,0
2096921,2096921,181137,609689,0
2096921,2096921,181404,609894,0
2096921,2096921,181637,610049,0
2096921,2096921,181757,610260,0
2096921,2096921,181352,610514,0
2096921,2096921,181628,610280,0
2096921,2096921,181494,610556,0
2096921,2096921,181559,610221,0
2096921,2096921,181296,610535,0
2096921,2096921,181279,610380,0
2096921,2096921,181587,610428,0
2096921,2096921,181666,610562,0
2096921,2096921,181627,610562,0
2096921,2096921,181487,610566,0
2096921,2096921,181659,610886,0
2096921,2096921,181761,610783,0
2096921,2096921,182059,611304,0
2096921,2096921,181411,611275,0
2096921,2096921,181912,611286,0
2096921,2096921,181896,611349,0
2096921,2096921,182472,611421,0
2096921,2096921,182458,611705,0
2096921,2096921,182430,612146,0
2096921,2096921,182251,612139,0
2096921,2096921,182350,611798,0
2096921,2096921,182440,611973,0
2096921,2096921,182466,612761,0
2096921,2096921,182432,612726,0
2096921,2096921,182383,612533,0
2096921,2096921,182507,612578,0
2096921,2096921,182574,612708,0
2096921,2096921,182715,613099,0
2096921,2096921,182855,613311,0
2096921,2096921,182843,613607,0
2096921,2096921,182725,612981,0
2096921,2096921,183010,613141,0
2096921,2096921,182897,613757,0
2096921,2096921,183166,613693,0
2096921,2096921,182914,613684,0
2096921,2096921,182974,613678,0
2096921,2096921,183027,613650,0
2096921,2096921,182911,614082,0
2096921,2096921,182910,614058,0
2096921,2096921,183275,614235,0
2096921,2096921,183221,614312,0
2096921,2096921,183196,614093,0
2096921,2096921,183127,614431,0
2096921,2096921,183043,614642,0
2096921,2096921,183391,614410,0
2096921,2096921,183279,614438,0
2096921,2096921,183550,614754,0
2096921,2096921,183647,615302,0
2096921,2096921,183707,615303,0
2096921,2096921,183578,615439,0
2096921,2096921,183329,615397,0
2096921,2096921,183901,615318,0
2096921,2096921,183602,615683,0
2096921,2096921,183460,615680,0
2096921,2096921,183431,615623,0
2096921,2096921,183803,615824,0
2096921,2096921,183896,615623,0
2096921,2096921,183894,616020,0
2096921,2096921,183862,616339,0
2096921,2096921,184061,616253,0
2096921,2096921,184039,616328,0
2096921,2096921,184228,616157,0
2096921,2096921,184224,616498,0
2096921,2096921,184064,616524,0
2096921,2096921,184334,617054,0
2096921,2096921,184202,616846,0
2096921,2096921,184367,616852,0
2096921,2096921,184326,617158,0
2096921,2096921,184496,617228,0
2096921,2096921,184355,617054,0
2096921,2096921,184271,616988,0
2096921,2096921,184684,617373,0
2096921,2096921,184382,617736,0
2096921,2096921,184477,617474,0
2096921,2096921,184639,617155,0
2096921,2096921,184341,617616,0
2096921,2096921,184620,617157,0
2096921,2096921,184603,618064,0
2096921,2096921,184642,617942,0
2096921,2096921,184674,617804,0
2096921,2096921,184899,618033,0
2096921,2096921,184756,617649,0
2096921,2096921,184777,618154,0
2096921,2096921,184813,617945,0
2096921,2096921,184917,618167,0
2096921,2096921,184863,618245,0
2096921,2096921,184992,618278,0
2096921,2096921,184944,618280,0
2096921,2096921,184882,618800,0
2096921,2096921,185077,618567,0
2096921,2096921,185031,618595,0
2096921,2096921,185051,618734,0
2096921,2096921,185015,618779,0
2096921,2096921,185167,618743,0
2096921,2096921,185262,618868,0
2096921,2096921,185233,619176,0
2096921,2096921,185234,618980,0
2096921,2096921,185473,619398,0
2096921,2096921,185318,619266,0
2096921,2096921,185407,619395,0
2096921,2096921,185387,619276,0
2096921,2096921,185554,619545,0
2096921,2096921,185446,619511,0
2096921,2096921,185359,619707,0
2096921,2096921,185325,619769,0
2096921,2096921,185225,619380,0
2096921,2096921,185425,619467,0
2096921,2096921,185431,619784,0
2096921,2096921,185517,619789,0
2096921,2096921,185399,619861,0
2096921,2096921,185364,619880,0
2096921,2096921,185489,619517,0
2096921,2096921,185591,620248,0
2096921,2096921,185505,619976,0
2096921,2096921,185862,620179,0
2096921,2096921,185653,620258,0
2096921,2096921,185837,619844,0
2096921,2096921,185681,620346,0
2096921,2096921,185847,620553,0
2096921,2096921,185830,620090,0
2096921,2096921,185974,620593,0
2096921,2096921,185920,620215,0
2096921,2096921,185851,620536,0
2096921,2096921,185873,620643,0
2096921,2096921,185989,620676,0
2096921,2096921,186069,620720,0
2096921,2096921,186280,620744,0
2096921,2096921,186036,620688,0
2096921,2096921,186345,621052,0
2096921,2096921,186263,621377,0
2096921,2096921,185945,621214,0
2096921,2096921,186258,621215,0
2096921,2096921,186278,621168,0
2096921,2096921,186366,621072,0
2096921,2096921,186227,621082,0
2096921,2096921,186026,621018,0
2096921,2096921,186035,621285,0
2096921,2096921,186352,621555,0
2096921,2096921,186301,621411,0
2096921,2096921,186166,621441,0
2096921,2096921,186165,621426,0
2096921,2096921,186413,621087,0
2096921,2096921,186050,621515,0
2096921,2096921,186200,621609,0
2096921,2096921,186135,621351,0
2096921,2096921,185948,621617,0
2096921,2096921,186349,621555,0
2096921,2096921,186422,621812,0
2096921,2096921,186533,622044,0
2096921,2096921,186242,622153,0
2096921,2096921,186299,621648,0
2096921,2096921,186393,621852,0
2096921,2096921,186071,621685,0
2096921,2096921,186512,621638,0
2096921,2096921,186541,621735,0
2096921,2096921,186573,621760,0
2096921,2096921,186510,621905,0
2096921,2096921,186606,622088,0
2096921,2096921,186681,621996,0
2096921,2096921,186486,622053,0
2096921,2096921,186842,622338,0
2096921,2096921,186683,622233,0
2096921,2096921,186307,622187,0
2096921,2096921,186747,622240,0
2096921,2096921,186738,622101,0
2096921,2096921,186376,622237,0
2096921,2096921,186685,622261,0
2096921,2096921,186582,622265,0
2096921,2096921,186912,622513,0
2096921,2096921,186728,622597,0
2096921,2096921,186678,622380,0
2096921,2096921,186732,622513,0
2096921,2096921,186711,622581,0
2096921,2096921,186600,622478,0
2096921,2096921,186685,622512,0
2096921,2096921,186616,622561,0
2096921,2096921,186537,622497,0
2096921,2096921,186614,622691,0
2096921,2096921,186793,622508,0
2096921,2096921,186785,622556,0
2096921,2096921,186751,622431,0
2096921,2096921,186694,622727,0
2096921,2096921,186596,622807,0
2096921,2096921,186680,622618,0
2096921,2096921,186693,622770,0
2096921,2096921,186903,622931,0
2096921,2096921,186761,623003,0
2096921,2096921,186893,622820,0
2096921,2096921,186570,622936,0
2096921,2096921,187056,622801,0
2096921,2096921,186818,622714,0
2096921,2096921,186684,622863,0
2096921,2096921,186849,622999,0
2096921,2096921,186832,622981,0
2096921,2096921,186663,622896,0
2096921,2096921,186822,622980,0
2096921,2096921,186887,623111,0
2096921,2096921,187059,623124,0
2096921,2096921,187151,623353,0
2096921,2096921,187130,623469,0
2096921,2096921,187193,623165,0
2096921,2096921,186859,623094,0
2096921,2096921,186864,623440,0
2096921,2096921,187164,623553,0
2096921,2096921,186951,623325,0
2096921,2096921,186921,623351,0
2096921,2096921,187085,623557,0
2096921,2096921,186889,623439,0
2096921,2096921,187224,623741,0
2096921,2096921,187223,623639,0
2096921,2096921,186872,623668,0
2096921,2096921,186995,623289,0
2096921,2096921,186769,623422,0
2096921,2096921,186988,623379,0
2096921,2096921,187171,623416,0
2096921,2096921,187217,623594,0
2096921,2096921,187130,623492,0
2096921,2096921,187237,623491,0
2096921,2096921,187250,623553,0
2096921,2096921,186979,623827,0
2096921,2096921,187040,623825,0
2096921,2096921,187153,623519,0
2096921,2096921,187183,623747,0
2096921,2096921,187181,623546,0
2096921,2096921,187121,623592,0
2096921,2096921,187219,623675,0
2096921,2096921,187357,623495,0
2096921,2096921,187624,623910,0
2096921,2096921,187299,623777,0
2096921,2096921,187190,623765,0
2096921,2096921,187262,623742,0
2096921,2096921,187065,624004,0
2096921,2096921,187121,623746,0
2096921,2096921,187264,623783,0
2096921,2096921,186958,623420,0
2096921,2096921,187079,623730,0
2096921,2096921,186976,623799,0
2096921,2096921,187417,623739,0
2096921,2096921,187082,623890,0
2096921,2096921,187309,623794,0
2096921,2096921,187121,623823,0
2096921,2096921,187065,623586,0
2096921,2096921,187181,623637,0
2096921,2096921,186905,623891,0
2096921,2096921,187001,623830,0
2096921,2096921,187160,623469,0
2096921,2096921,187359,623615,0
2096921,2096921,187114,623558,0
2096921,2096921,187210,623617,0
2096921,2096921,187356,623768,0
2096921,2096921,187587,623793,0
2096921,2096921,187397,623600,0
2096921,2096921,187182,623700,0
2096921,2096921,187001,623476,0
2096921,2096921,187068,623402,0
2096921,2096921,187141,623506,0
2096921,2096921,187239,623642,0
2096921,2096921,187333,623279,0
2096921,2096921,187289,623289,0
2096921,2096921,187253,623436,0
2096921,2096921,187287,623665,0
2096921,2096921,187374,623726,0
2096921,2096921,187344,623589,0
2096921,2096921,187205,623419,0
2096921,2096921,187110,623576,0
2096921,2096921,187076,623367,0
2096921,2096921,187240,623103,0
2096921,2096921,187316,623637,0
2096921,2096921,187356,623611,0
2096921,2096921,187043,623452,0
2096921,2096921,186951,623603,0
2096921,2096921,187029,623311,0
2096921,2096921,187393,623400,0
2096921,2096921,187032,623601,0
2096921,2096921,186925,623595,0
2096921,2096921,187222,623399,0
2096921,2096921,186929,623348,0
2096921,2096921,186857,622753,0
2096921,2096921,186903,622824,0
2096921,2096921,186908,622788,0
2096921,2096921,186852,622628,0
2096921,2096921,186627,622627,0
2096921,2096921,186377,622023,0
2096921,2096921,186317,621980,0
2096921,2096921,186550,621749,0
2096921,2096921,186876,621708,0
2096921,2096921,186294,621786,0
2096921,2096921,185915,620925,0
2096921,2096921,186197,620816,0
2096921,2096921,186197,620768,0
2096921,2096921,185920,620786,0
2096921,2096921,185900,620631,0
2096921,2096921,185406,619552,0
2096921,2096921,185543,619305,0
2096921,2096921,185433,619394,0
2096921,2096921,185461,619378,0
2096921,2096921,184892,619378,0
2096921,2096921,184742,618219,0
2096921,2096921,184537,617978,0
2096921,2096921,184624,617617,0
2096921,2096921,184789,617683,0
2096921,2096921,183613,617879,0
2096921,2096921,183382,615048,0
2096921,2096921,182957,614503,0
2096921,2096921,183285,614376,0
2096921,2096921,183356,614455,0
2096921,2096921,181659,614393,0
2096921,2096921,181384,611057,0
2096921,2096921,181527,610161,0
2096921,2096921,181486,610089,0
2096921,2096921,181412,610233,0
2096921,2096921,180123,610040,0
2096921,2096921,179953,607861,0
2096921,2096921,180017,607001,0
2096921,2096921,180085,606975,0
2096921,2096921,180023,607027,0
2096921,2096921,179269,606968,0
2096921,2096921,178892,605499,0
2096921,2096921,178857,604942,0
2096921,2096921,178957,604710,0
2096921,2096921,179010,604848,0
2096921,2096921,178126,604872,0
2096921,2096921,178171,603070,0
2096921,2096921,178256,602955,0
2096921,2096921,178170,602657,0
2096921,2096921,178441,602606,0
2096921,2096921,177658,602733,0
2096921,2096921,177825,601729,0
2096921,2096921,177580,601254,0
2096921,2096921,177638,601224,0
2096921,2096921,177752,601497,0
2096921,2096921,177491,601454,0
2096921,2096921,177209,600864,0
2096921,2096921,177355,600379,0
2096921,2096921,177147,600476,0
2096921,2096921,177072,600443,0
2096921,2096921,176983,600613,0
2096921,2096921,176781,599940,0
2096921,2096921,177041,599608,0
2096921,2096921,176702,600016,0
2096921,2096921,176696,599712,0
2096921,2096921,176936,599542,0
2096921,2096921,176753,599588,0
2096921,2096921,176987,599340,0
2096921,2096921,176760,599330,0
2096921,2096921,176833,599259,0
2096921,2096921,176509,599538,0
2096921,2096921,176883,599065,0
2096921,2096921,176670,599407,0
2096921,2096921,176757,599301,0
2096921,2096921,176791,599173,0
2096921,2096921,176673,599444,0
2096921,2096921,177122,599595,0
2096921,2096921,177157,599389,0
2096921,2096921,176881,599339,0
2096921,2096921,176703,599526,0
2096921,2096921,176799,599351,0
2096921,2096921,176877,599424,0
2096921,2096921,176980,599299,0
2096921,2096921,176703,599229,0
2096921,2096921,176844,599441,0
2096921,2096921,177132,599330,0
2096921,2096921,176741,599493,0
2096921,2096921,176831,599557,0
2096921,2096921,176826,599553,0
2096921,2096921,176924,599247,0
2096921,2096921,177206,599503,0
2096921,2096921,177548,599850,0
2096921,2096921,177390,599954,0
2096921,2096921,177082,599918,0
2096921,2096921,177353,599907,0
2096921,2096921,177334,599983,0
2096921,2096921,177461,600443,0
2096921,2096921,177115,600342,0
2096921,2096921,177457,600450,0
2096921,2096921,177361,600584,0
2096921,2096921,177376,600279,0
2096921,2096921,177771,600747,0
2096921,2096921,177719,600658,0
2096921,2096921,177677,600886,0
2096921,2096921,177526,600924,0
2096921,2096921,177641,600791,0
2096921,2096921,177694,601166,0
2096921,2096921,177453,601370,0
2096921,2096921,177895,601118,0
2096921,2096921,177820,601166,0
2096921,2096921,178037,601283,0
2096921,2096921,178380,601683,0
2096921,2096921,178068,601871,0
2096921,2096921,178232,601897,0
2096921,2096921,177993,601795,0
2096921,2096921,178354,602153,0
2096921,2096921,178333,602118,0
2096921,2096921,178510,602165,0
2096921,2096921,178259,602327,0
2096921,2096921,178253,602411,0
2096921,2096921,178423,602372,0
2096921,2096921,178419,602691,0
2096921,2096921,178608,602739,0
2096921,2096921,178670,602971,0
2096921,2096921,178912,603006,0
2096921,2096921,179341,602493,0
2096921,2096921,178637,603013,0
2096921,2096921,178751,603286,0
2096921,2096921,178769,603304,0
2096921,2096921,178863,603331,0
2096921,2096921,178948,603135,0
2096921,2096921,179232,603412,0
2096921,2096921,179153,604189,0
2096921,2096921,179335,603496,0
2096921,2096921,179192,603767,0
2096921,2096921,179160,603568,0
2096921,2096921,179450,603917,0
2096921,2096921,178868,604032,0
2096921,2096921,179335,604036,0
2096921,2096921,179279,604144,0
2096921,2096921,179873,604035,0
2096921,2096921,179696,604538,0
2096921,2096921,179670,604480,0
2096921,2096921,179773,604510,0
2096921,2096921,179491,604883,0
2096921,2096921,179816,604860,0
2096921,2096921,179846,604850,0
2096921,2096921,179593,604846,0
2096921,2096921,179728,605097,0
2096921,2096921,179656,604854,0
2096921,2096921,179806,604988,0
2096921,2096921,180163,605522,0
2096921,2096921,179983,605605,0
2096921,2096921,179893,605554,0
2096921,2096921,180294,605340,0
2096921,2096921,180397,605361,0
2096921,2096921,180109,605679,0
2096921,2096921,180195,605675,0
2096921,2096921,179938,605636,0
2096921,2096921,179834,605646,0
2096921,2096921,180053,605628,0
2096921,2096921,180342,605994,0
2096921,2096921,180300,605929,0
2096921,2096921,180292,605568,0
2096921,2096921,180140,605657,0
2096921,2096921,180234,605822,0
2096921,2096921,180342,605931,0
2096921,2096921,180031,605724,0
2096921,2096921,179878,605684,0
2096921,2096921,179922,605899,0
2096921,2096921,179949,605553,0
2096921,2096921,180416,605832,0
2096921,2096921,180240,605923,0
2096921,2096921,180378,605722,0
2096921,2096921,180191,605624,0
2096921,2096921,180205,605863,0
2096921,2096921,180102,605578,0
2096921,2096921,180072,605271,0
2096921,2096921,179942,605741,0
2096921,2096921,179943,605473,0
2096921,2096921,180209,605728,0
2096921,2096921,180003,605459,0
2096921,2096921,179960,605219,0
2096921,2096921,180080,605063,0
2096921,2096921,180128,605267,0
2096921,2096921,179917,605209,0
2096921,2096921,179838,604945,0
2096921,2096921,179845,604441,0
2096921,2096921,180043,604578,0
2096921,2096921,180092,604811,0
2096921,2096921,179839,604913,0
2096921,2096921,179639,604505,0
2096921,2096921,179545,604473,0
2096921,2096921,179477,604266,0
2096921,2096921,179568,603831,0
2096921,2096921,179753,604036,0
2096921,2096921,179743,603973,0
2096921,2096921,179542,603698,0
2096921,2096921,179644,603951,0
2096921,2096921,179508,604015,0
2096921,2096921,179511,603783,0
2096921,2096921,179570,603566,0
2096921,2096921,179449,603052,0
2096921,2096921,179341,603274,0
2096921,2096921,179396,603123,0
2096921,2096921,179090,603407,0
2096921,2096921,179094,602777,0
2096921,2096921,178979,602723,0
2096921,2096921,179043,602459,0
2096921,2096921,179235,602523,0
2096921,2096921,179099,602798,0
2096921,2096921,178889,602485,0
2096921,2096921,179175,602224,0
2096921,2096921,179006,602397,0
2096921,2096921,179084,602553,0
2096921,2096921,179193,602442,0
2096921,2096921,178680,602095,0
2096921,2096921,178890,601821,0
2096921,2096921,178821,602060,0
2096921,2096921,178859,601974,0
2096921,2096921,179141,602133,0
2096921,2096921,178920,602085,0
2096921,2096921,179168,601712,0
2096921,2096921,179154,602206,0
2096921,2096921,179252,601706,0
2096921,2096921,179135,601655,0
2096921,2096921,179044,601445,0
2096921,2096921,178949,601599,0
2096921,2096921,178791,601787,0
2096921,2096921,178778,601748,0
2096921,2096921,178791,601921,0
2096921,2096921,178655,601496,0
2096921,2096921,178868,601598,0
2096921,2096921,178826,601696,0
2096921,2096921,178620,601600,0
2096921,2096921,178944,601629,0
2096921,2096921,179108,601969,0
2096921,2096921,179154,601721,0
2096921,2096921,179230,601732,0
2096921,2096921,179135,601930,0
2096921,2096921,179287,601775,0
2096921,2096921,179166,601845,0
2096921,2096921,179180,602095,0
2096921,2096921,179081,602274,0
2096921,2096921,179272,602019,0
2096921,2096921,179209,601868,0
2096921,2096921,179076,602137,0
2096921,2096921,179147,602173,0
2096921,2096921,179253,601942,0
2096921,2096921,179370,602123,0
2096921,2096921,179438,602467,0
