2096921,2096921,305504,450656
2096921,2096921,305601,450972
2096921,2096921,305614,450766
2096921,2096921,305930,450775
2096921,2096921,306318,451078
2096921,2096921,306540,451324
2096921,2096921,306137,451352
2096921,2096921,305970,451392
2096921,2096921,306143,451127
2096921,2096921,306537,451494
2096921,2096921,306580,451270
2096921,2096921,306821,451663
2096921,2096921,306726,451721
2096921,2096921,306683,451600
2096921,2096921,307262,452082
2096921,2096921,307460,452219
2096921,2096921,307425,452113
2096921,2096921,307488,452114
2096921,2096921,307008,452421
2096921,2096921,307835,452751
2096921,2096921,307434,452902
2096921,2096921,307937,452915
2096921,2096921,307804,452922
2096921,2096921,307803,452908
2096921,2096921,308119,453089
2096921,2096921,308431,453398
2096921,2096921,307954,453442
2096921,2096921,307846,453210
2096921,2096921,307903,453204
2096921,2096921,308547,453488
2096921,2096921,308567,453828
2096921,2096921,308764,453785
2096921,2096921,308636,453752
2096921,2096921,308624,453974
2096921,2096921,308641,453885
2096921,2096921,308707,453974
2096921,2096921,308809,454204
2096921,2096921,308598,453989
2096921,2096921,308773,453953
2096921,2096921,308495,454242
2096921,2096921,308738,454462
2096921,2096921,309299,454358
2096921,2096921,308863,454729
2096921,2096921,309300,454542
2096921,2096921,309251,455027
2096921,2096921,309404,454575
2096921,2096921,309310,454994
2096921,2096921,309363,454710
2096921,2096921,309284,454962
2096921,2096921,309009,454769
2096921,2096921,309026,454631
2096921,2096921,309298,454790
2096921,2096921,309195,454846
2096921,2096921,309244,454820
2096921,2096921,309636,454871
2096921,2096921,309630,454807
2096921,2096921,309638,454890
2096921,2096921,309749,454897
2096921,2096921,309703,454559
2096921,2096921,309370,454856
2096921,2096921,309516,455052
2096921,2096921,309341,454855
2096921,2096921,309415,454937
2096921,2096921,309567,455278
2096921,2096921,309749,455123
2096921,2096921,309392,454866
2096921,2096921,309389,454787
2096921,2096921,309252,454783
2096921,2096921,309204,454845
2096921,2096921,309477,454745
2096921,2096921,309363,454770
2096921,2096921,309353,454673
2096921,2096921,309303,454840
2096921,2096921,309361,454726
2096921,2096921,309439,454742
2096921,2096921,309613,454973
2096921,2096921,309355,454932
2096921,2096921,309415,454800
2096921,2096921,309378,454694
2096921,2096921,309104,454711
2096921,2096921,309113,454610
2096921,2096921,309180,454703
2096921,2096921,309455,454546
2096921,2096921,309367,454988
2096921,2096921,309298,455019
2096921,2096921,309383,455067
2096921,2096921,309175,454990
2096921,2096921,309076,454916
2096921,2096921,309119,454853
2096921,2096921,309312,454796
2096921,2096921,309005,454489
2096921,2096921,308952,454909
2096921,2096921,309294,454649
2096921,2096921,309606,454827
2096921,2096921,309636,454774
2096921,2096921,309423,454962
2096921,2096921,309619,455098
2096921,2096921,309319,455057
2096921,2096921,309302,455179
2096921,2096921,309363,455500
2096921,2096921,309443,455002
2096921,2096921,309646,455234
2096921,2096921,309698,455039
2096921,2096921,309730,455307
2096921,2096921,309756,455460
2096921,2096921,309798,455187
2096921,2096921,309755,455407
2096921,2096921,309770,455447
2096921,2096921,309458,455398
2096921,2096921,310255,455532
2096921,2096921,310011,455746
2096921,2096921,309832,455713
2096921,2096921,309966,455811
2096921,2096921,310358,455964
2096921,2096921,310532,456196
2096921,2096921,310488,456298
2096921,2096921,310310,456192
2096921,2096921,310120,456276
2096921,2096921,310327,456266
2096921,2096921,310549,456528
2096921,2096921,310522,456664
2096921,2096921,310692,456717
2096921,2096921,310756,456514
2096921,2096921,310713,456616
2096921,2096921,311128,457045
2096921,2096921,311063,456927
2096921,2096921,310823,456815
2096921,2096921,310684,457118
2096921,2096921,310937,456856
2096921,2096921,311093,456861
2096921,2096921,311827,457023
2096921,2096921,311518,457085
2096921,2096921,311336,457505
2096921,2096921,311476,456984
2096921,2096921,311657,457527
2096921,2096921,311812,457538
2096921,2096921,311719,457552
2096921,2096921,311597,457660
2096921,2096921,311437,457516
2096921,2096921,312035,457620
2096921,2096921,311522,457814
2096921,2096921,311663,457707
2096921,2096921,311711,457644
2096921,2096921,311702,457720
2096921,2096921,312184,457775
2096921,2096921,312030,458168
2096921,2096921,312173,457964
2096921,2096921,312214,458013
2096921,2096921,311914,457900
2096921,2096921,312216,458174
2096921,2096921,312450,458117
2096921,2096921,312214,458445
2096921,2096921,312517,458534
2096921,2096921,312438,458460
2096921,2096921,312902,458668
2096921,2096921,312673,458739
2096921,2096921,312600,458636
2096921,2096921,312482,458637
2096921,2096921,312603,458408
2096921,2096921,312588,458834
2096921,2096921,312681,458828
2096921,2096921,312786,458768
2096921,2096921,313111,458904
2096921,2096921,313004,458717
2096921,2096921,313348,459001
2096921,2096921,313039,459061
2096921,2096921,313395,459094
2096921,2096921,313303,459025
2096921,2096921,313168,459120
2096921,2096921,313074,459281
2096921,2096921,313157,459567
2096921,2096921,313412,459463
2096921,2096921,313603,459326
2096921,2096921,313388,459332
2096921,2096921,313665,459612
2096921,2096921,313588,459597
2096921,2096921,313612,459345
2096921,2096921,313625,459591
2096921,2096921,313529,459375
2096921,2096921,313457,459369
2096921,2096921,313696,459320
2096921,2096921,314128,459824
2096921,2096921,313978,459803
2096921,2096921,313942,459774
2096921,2096921,313786,460070
2096921,2096921,314133,459777
2096921,2096921,314020,459665
2096921,2096921,314021,460133
2096921,2096921,314030,459963
2096921,2096921,314029,459974
2096921,2096921,314129,460179
2096921,2096921,314022,460179
2096921,2096921,314479,460408
2096921,2096921,314509,460284
2096921,2096921,314503,460323
2096921,2096921,314332,460331
2096921,2096921,314241,460394
2096921,2096921,314397,460204
2096921,2096921,314466,459950
2096921,2096921,314617,460353
2096921,2096921,314175,460587
2096921,2096921,314656,460634
2096921,2096921,314564,460573
2096921,2096921,314562,460624
2096921,2096921,314831,460692
2096921,2096921,315036,460801
2096921,2096921,314965,460687
2096921,2096921,314824,460514
2096921,2096921,314752,460850
2096921,2096921,315042,460745
2096921,2096921,314865,460573
2096921,2096921,314844,460895
2096921,2096921,314786,460725
2096921,2096921,314998,460937
2096921,2096921,315345,460883
2096921,2096921,315187,460615
2096921,2096921,315008,460955
2096921,2096921,315117,461186
2096921,2096921,314911,461069
2096921,2096921,314868,461447
2096921,2096921,314783,461126
2096921,2096921,314941,461094
2096921,2096921,314848,461321
2096921,2096921,315390,461182
2096921,2096921,315224,461479
2096921,2096921,315415,461064
2096921,2096921,315487,461067
2096921,2096921,315533,461444
2096921,2096921,315475,461502
2096921,2096921,315490,461512
2096921,2096921,315272,461601
2096921,2096921,315434,461337
2096921,2096921,315377,461545
2096921,2096921,315366,461593
2096921,2096921,315683,461667
2096921,2096921,315830,461623
2096921,2096921,315772,461567
2096921,2096921,315708,461445
2096921,2096921,315283,461362
2096921,2096921,315785,461472
2096921,2096921,315610,461528
2096921,2096921,315681,461519
2096921,2096921,315720,461688
2096921,2096921,315404,461874
2096921,2096921,315866,462026
2096921,2096921,316008,462045
2096921,2096921,316203,461842
2096921,2096921,315961,461968
2096921,2096921,315902,461750
2096921,2096921,316111,461864
2096921,2096921,316156,462004
2096921,2096921,316052,462003
2096921,2096921,315987,461760
2096921,2096921,315908,461853
2096921,2096921,316161,461945
2096921,2096921,315953,461740
2096921,2096921,315857,461930
2096921,2096921,316065,462047
2096921,2096921,315906,461937
2096921,2096921,315993,461938
2096921,2096921,315977,461960
2096921,2096921,316118,462086
2096921,2096921,316342,462093
2096921,2096921,316041,462190
2096921,2096921,316119,462552
2096921,2096921,316374,462377
2096921,2096921,316321,462166
2096921,2096921,316154,462328
2096921,2096921,316176,462224
2096921,2096921,316170,462275
2096921,2096921,316319,462219
2096921,2096921,316293,462389
2096921,2096921,315972,462379
2096921,2096921,316165,462357
2096921,2096921,316086,462420
2096921,2096921,316352,462486
2096921,2096921,316698,462220
2096921,2096921,316416,462569
2096921,2096921,316522,462287
2096921,2096921,316373,462362
2096921,2096921,316461,462481
2096921,2096921,316529,462655
2096921,2096921,316477,462510
2096921,2096921,316548,462372
2096921,2096921,316727,462612
2096921,2096921,316545,462789
2096921,2096921,316629,462541
2096921,2096921,316663,462672
2096921,2096921,316412,462456
2096921,2096921,316514,462554
2096921,2096921,316608,462705
2096921,2096921,316613,462885
2096921,2096921,316482,462912
2096921,2096921,316558,462568
2096921,2096921,316652,462592
2096921,2096921,316855,462862
2096921,2096921,316718,462607
2096921,2096921,316738,462698
2096921,2096921,316761,462656
2096921,2096921,316659,462675
2096921,2096921,316615,462890
2096921,2096921,316880,462823
2096921,2096921,316828,462678
2096921,2096921,316746,462849
2096921,2096921,316858,462973
2096921,2096921,317023,463137
2096921,2096921,316830,463015
2096921,2096921,316697,462749
2096921,2096921,316521,462872
2096921,2096921,316281,462727
2096921,2096921,316628,462814
2096921,2096921,316862,462916
2096921,2096921,316879,463134
2096921,2096921,317040,463069
2096921,2096921,317080,463170
2096921,2096921,316858,463029
2096921,2096921,317199,462909
2096921,2096921,317182,463096
2096921,2096921,317068,463036
2096921,2096921,316839,463122
2096921,2096921,316791,462979
2096921,2096921,316837,462892
2096921,2096921,317148,463068
2096921,2096921,316978,462767
2096921,2096921,317022,462993
2096921,2096921,317018,463305
2096921,2096921,316997,463204
2096921,2096921,316783,463052
2096921,2096921,316877,462965
2096921,2096921,316863,462960
2096921,2096921,316938,463008
2096921,2096921,317171,463170
2096921,2096921,317031,463060
2096921,2096921,316820,463252
2096921,2096921,316920,463229
2096921,2096921,316982,463237
2096921,2096921,316782,463184
2096921,2096921,316812,462863
2096921,2096921,316790,462992
2096921,2096921,316796,462966
2096921,2096921,316921,463005
2096921,2096921,317016,462515
2096921,2096921,317066,462755
2096921,2096921,316864,463069
2096921,2096921,316967,463018
2096921,2096921,317007,463081
2096921,2096921,316855,463077
2096921,2096921,317017,462760
2096921,2096921,317155,463090
2096921,2096921,316783,463103
2096921,2096921,316963,462935
2096921,2096921,316600,463046
2096921,2096921,316862,462790
2096921,2096921,316554,462981
2096921,2096921,316835,462697
2096921,2096921,317042,463009
2096921,2096921,316867,463152
2096921,2096921,316839,463037
2096921,2096921,316689,462827
2096921,2096921,316927,462975
2096921,2096921,316806,462796
2096921,2096921,316876,462732
2096921,2096921,317000,462765
2096921,2096921,316978,462881
2096921,2096921,317012,462846
2096921,2096921,316802,462934
2096921,2096921,316888,462762
2096921,2096921,316701,462645
2096921,2096921,316823,462916
2096921,2096921,316846,462657
2096921,2096921,316843,462530
2096921,2096921,316820,462849
2096921,2096921,316794,462793
2096921,2096921,316623,462876
2096921,2096921,316578,462619
2096921,2096921,316756,462735
2096921,2096921,316756,462576
2096921,2096921,316618,462394
2096921,2096921,316299,462218
2096921,2096921,316153,461887
2096921,2096921,315762,461834
2096921,2096921,316152,461730
2096921,2096921,316234,461930
2096921,2096921,316276,461967
2096921,2096921,315336,461453
2096921,2096921,315231,461424
2096921,2096921,315368,461307
2096921,2096921,315415,461084
2096921,2096921,315333,460750
2096921,2096921,314518,460287
2096921,2096921,314309,460381
2096921,2096921,314638,460251
2096921,2096921,314550,460627
2096921,2096921,314445,460469
2096921,2096921,313847,459791
2096921,2096921,313749,459669
2096921,2096921,313290,459375
2096921,2096921,313684,459410
2096921,2096921,313595,459426
2096921,2096921,312094,457652
2096921,2096921,311725,457277
2096921,2096921,311632,457299
2096921,2096921,311670,457358
2096921,2096921,311866,457236
2096921,2096921,309838,455684
2096921,2096921,309574,455297
2096921,2096921,309249,454908
2096921,2096921,309041,454532
2096921,2096921,309350,454791
2096921,2096921,307759,453398
2096921,2096921,307556,453097
2096921,2096921,307333,452829
2096921,2096921,307740,452832
2096921,2096921,307661,453028
2096921,2096921,306130,452077
2096921,2096921,306107,451701
2096921,2096921,306440,451604
2096921,2096921,306034,451717
2096921,2096921,306047,451697
2096921,2096921,304996,450543
2096921,2096921,304850,450464
2096921,2096921,304826,450334
2096921,2096921,305153,450263
2096921,2096921,304864,450319
2096921,2096921,304423,449989
2096921,2096921,304243,449615
2096921,2096921,304154,449607
2096921,2096921,304119,449775
2096921,2096921,303948,449318
2096921,2096921,303340,449044
2096921,2096921,303401,449058
2096921,2096921,303754,448959
2096921,2096921,303787,449086
2096921,2096921,303595,449222
2096921,2096921,303344,448568
2096921,2096921,303014,448754
2096921,2096921,303348,448468
2096921,2096921,303232,448849
2096921,2096921,303264,448633
2096921,2096921,303299,448342
2096921,2096921,303053,448011
2096921,2096921,303064,448220
2096921,2096921,302890,448574
2096921,2096921,303027,448628
2096921,2096921,303160,448448
2096921,2096921,303282,448604
2096921,2096921,303144,448136
2096921,2096921,302932,448414
2096921,2096921,302860,448531
2096921,2096921,303376,448212
2096921,2096921,303184,448303
2096921,2096921,303162,448408
2096921,2096921,303209,448512
2096921,2096921,303220,448274
2096921,2096921,303227,448533
2096921,2096921,302845,448789
2096921,2096921,303034,448499
2096921,2096921,302822,448363
2096921,2096921,303232,448261
2096921,2096921,303163,448369
2096921,2096921,303144,448311
2096921,2096921,303450,448705
2096921,2096921,303710,448260
2096921,2096921,303292,448602
2096921,2096921,303840,448664
2096921,2096921,303584,448627
2096921,2096921,303612,448637
2096921,2096921,303679,448467
2096921,2096921,303760,448802
2096921,2096921,304228,448989
2096921,2096921,303786,448967
2096921,2096921,303820,448881
2096921,2096921,303645,449174
2096921,2096921,303970,449194
2096921,2096921,304133,449211
2096921,2096921,304253,449021
2096921,2096921,304361,449643
2096921,2096921,304167,449407
2096921,2096921,304228,449017
2096921,2096921,304345,449614
2096921,2096921,304195,449767
2096921,2096921,304382,449682
2096921,2096921,304538,449643
2096921,2096921,304635,449174
2096921,2096921,304740,449840
2096921,2096921,304744,449904
2096921,2096921,304680,449796
2096921,2096921,304865,449792
2096921,2096921,304754,449542
2096921,2096921,305052,449976
2096921,2096921,305081,450316
2096921,2096921,305149,450026
2096921,2096921,305148,450424
2096921,2096921,305043,450230
2096921,2096921,305102,450284
2096921,2096921,305196,450207
2096921,2096921,305346,450323
2096921,2096921,305010,450195
2096921,2096921,305002,450692
2096921,2096921,305337,450519
2096921,2096921,305635,450791
2096921,2096921,305960,450588
2096921,2096921,305936,450842
2096921,2096921,305964,450600
2096921,2096921,306099,451031
2096921,2096921,306261,451010
2096921,2096921,306136,451167
2096921,2096921,306205,450788
2096921,2096921,306165,450885
2096921,2096921,306288,450740
2096921,2096921,306165,451070
2096921,2096921,306321,451321
2096921,2096921,306579,451351
2096921,2096921,306489,451178
2096921,2096921,306825,451680
2096921,2096921,306635,451686
2096921,2096921,306572,451810
2096921,2096921,306737,451496
2096921,2096921,306732,451478
2096921,2096921,306777,451603
2096921,2096921,306871,451696
2096921,2096921,306711,451812
2096921,2096921,306774,451931
2096921,2096921,307076,451853
2096921,2096921,307402,451944
2096921,2096921,306917,452023
2096921,2096921,307132,452370
2096921,2096921,307132,452198
2096921,2096921,307296,452229
2096921,2096921,307299,452119
2096921,2096921,307661,452446
2096921,2096921,307469,452195
2096921,2096921,307582,452416
2096921,2096921,307367,452379
2096921,2096921,307754,452177
2096921,2096921,308117,452449
2096921,2096921,307504,452399
2096921,2096921,307304,452333
2096921,2096921,307401,452228
2096921,2096921,307688,452246
2096921,2096921,307494,452494
2096921,2096921,307418,452388
2096921,2096921,307510,452283
2096921,2096921,307629,452452
2096921,2096921,307894,452301
2096921,2096921,307888,452652
2096921,2096921,307690,452304
2096921,2096921,307642,452165
2096921,2096921,307361,452108
2096921,2096921,307445,452289
2096921,2096921,307156,452085
2096921,2096921,307485,452039
2096921,2096921,307392,451981
2096921,2096921,307586,452289
2096921,2096921,307744,452071
2096921,2096921,307268,452021
2096921,2096921,307555,451785
2096921,2096921,307587,451986
2096921,2096921,307348,451860
2096921,2096921,306989,451577
2096921,2096921,306882,451492
2096921,2096921,307083,451594
2096921,2096921,307179,451415
2096921,2096921,307493,451599
2096921,2096921,307198,451604
2096921,2096921,307120,451644
2096921,2096921,307043,451222
2096921,2096921,307074,451388
2096921,2096921,306796,451467
2096921,2096921,306713,451158
2096921,2096921,306798,451155
2096921,2096921,306769,451139
2096921,2096921,306667,451136
2096921,2096921,306666,450955
2096921,2096921,306243,450871
2096921,2096921,306530,450946
2096921,2096921,306536,450781
2096921,2096921,306465,450709
2096921,2096921,306204,450754
2096921,2096921,306102,450746
2096921,2096921,306201,450597
2096921,2096921,306179,450342
2096921,2096921,306537,450578
2096921,2096921,306474,450614
2096921,2096921,306102,450528
2096921,2096921,306088,450390
2096921,2096921,306155,450584
2096921,2096921,305856,450252
2096921,2096921,305801,450204
2096921,2096921,305904,449901
2096921,2096921,306188,450200
2096921,2096921,306065,450079
2096921,2096921,306092,450021
2096921,2096921,306146,450462
2096921,2096921,305935,450360
2096921,2096921,306086,450395
2096921,2096921,306324,449867
2096921,2096921,306153,449771
2096921,2096921,306050,449968
2096921,2096921,306199,449884
2096921,2096921,306018,450205
2096921,2096921,305897,449949
2096921,2096921,305897,449816
2096921,2096921,305762,449927
2096921,2096921,305893,449736
2096921,2096921,305899,449911
2096921,2096921,305846,449930
2096921,2096921,305807,449966
2096921,2096921,305869,449916
2096921,2096921,305770,449781
2096921,2096921,305866,449803
2096921,2096921,305780,449933
2096921,2096921,306096,450013
2096921,2096921,306030,450042
2096921,2096921,306437,450004
2096921,2096921,306142,450238
2096921,2096921,306106,450366
2096921,2096921,306428,450333
2096921,2096921,306394,450089
2096921,2096921,306674,450062
2096921,2096921,306439,450264
2096921,2096921,306211,450522
2096921,2096921,306385,450415
2096921,2096921,306465,450523
2096921,2096921,306538,450589
2096921,2096921,306672,450399
2096921,2096921,306683,450542
2096921,2096921,306520,450366
2096921,2096921,306328,450340
2096921,2096921,306531,450222
2096921,2096921,306299,450313
2096921,2096921,306603,450584
2096921,2096921,306527,450573
2096921,2096921,306872,450657
2096921,2096921,306843,450717
2096921,2096921,306895,450605
2096921,2096921,306834,450646
2096921,2096921,306736,450634
2096921,2096921,306956,450254
2096921,2096921,306754,450686
2096921,2096921,306750,450586
2096921,2096921,307002,450394
2096921,2096921,307081,450552
2096921,2096921,307037,450823
2096921,2096921,307162,450462
2096921,2096921,307104,450706
2096921,2096921,307329,450758
2096921,2096921,307242,450946
2096921,2096921,307252,450631
2096921,2096921,307323,450905
2096921,2096921,307144,450572
2096921,2096921,306989,450819
2096921,2096921,307071,450589
2096921,2096921,307088,450924
2096921,2096921,307184,451084
2096921,2096921,307582,450975
2096921,2096921,307406,450714
2096921,2096921,307097,450591
2096921,2096921,307319,450788
2096921,2096921,307413,450812
2096921,2096921,307599,450903
2096921,2096921,307561,450863
2096921,2096921,307483,450925
2096921,2096921,307625,450967
2096921,2096921,307803,450886
2096921,2096921,307551,450901
2096921,2096921,307472,450927
2096921,2096921,307492,450787
2096921,2096921,307269,451008
2096921,2096921,307484,450908
2096921,2096921,307606,450876
2096921,2096921,307671,450983
2096921,2096921,307790,451033
2096921,2096921,307769,450988
2096921,2096921,307727,451303
2096921,2096921,307828,451118
2096921,2096921,307800,451124
2096921,2096921,307637,451136
2096921,2096921,307699,451027
2096921,2096921,307616,450856
2096921,2096921,307639,451100
2096921,2096921,307845,450860
2096921,2096921,307899,450982
2096921,2096921,307890,451040
2096921,2096921,307828,451402
2096921,2096921,308283,451223
2096921,2096921,307869,451274
2096921,2096921,308061,451055
2096921,2096921,307832,451001
2096921,2096921,307765,451021
2096921,2096921,307952,451078
2096921,2096921,307851,451134
2096921,2096921,308234,451213
2096921,2096921,308018,451085
2096921,2096921,308061,450976
2096921,2096921,308111,451119
2096921,2096921,308298,451027
2096921,2096921,308152,451305
2096921,2096921,308010,451143
2096921,2096921,307966,451190
2096921,2096921,308270,451041
2096921,2096921,308474,451039
2096921,2096921,308496,451200
2096921,2096921,308162,451069
2096921,2096921,308550,451426
2096921,2096921,308347,451119
2096921,2096921,308312,451449
2096921,2096921,308141,451342
2096921,2096921,308294,451159
2096921,2096921,308029,451079
2096921,2096921,308327,451032
2096921,2096921,308275,451167
2096921,2096921,308401,451067
2096921,2096921,308093,451126
2096921,2096921,308347,451495
2096921,2096921,308325,451218
2096921,2096921,308257,451235
2096921,2096921,307972,450864
2096921,2096921,308397,450893
2096921,2096921,308054,450999
2096921,2096921,308111,451162
2096921,2096921,308312,451084
2096921,2096921,308424,450953
2096921,2096921,308539,451273
2096921,2096921,308345,451163
2096921,2096921,308479,451240
2096921,2096921,308331,451151
2096921,2096921,308286,451263
2096921,2096921,308377,451103
2096921,2096921,308409,451048
2096921,2096921,308199,451181
2096921,2096921,308388,451081
2096921,2096921,308637,451147
2096921,2096921,308566,451305
2096921,2096921,308725,450905
2096921,2096921,308456,451081
2096921,2096921,308239,451028
2096921,2096921,308483,451349
2096921,2096921,308494,451026
2096921,2096921,308426,450781
2096921,2096921,308141,450748
2096921,2096921,308362,450921
2096921,2096921,308296,451192
2096921,2096921,308477,451164
2096921,2096921,308419,451020
2096921,2096921,308490,450688
2096921,2096921,308294,451040
2096921,2096921,308255,451132
2096921,2096921,308146,451083
2096921,2096921,308337,450967
2096921,2096921,308075,450826
2096921,2096921,308297,451081
2096921,2096921,308384,450777
2096921,2096921,308255,451070
2096921,2096921,308262,451262
2096921,2096921,308383,451166
2096921,2096921,308256,450979
2096921,2096921,308378,450576
2096921,2096921,308341,451206
2096921,2096921,308167,450680
2096921,2096921,308424,450540
2096921,2096921,308258,450420
2096921,2096921,308313,451068
2096921,2096921,308483,451102
2096921,2096921,308431,450924
2096921,2096921,308116,450775
2096921,2096921,308086,450793
2096921,2096921,308166,450896
2096921,2096921,308337,450911
2096921,2096921,308589,450829
2096921,2096921,308554,450709
2096921,2096921,308279,450712
2096921,2096921,308364,450692
2096921,2096921,308138,450710
2096921,2096921,308498,450611
2096921,2096921,308590,450840
2096921,2096921,308568,450706
2096921,2096921,308225,450674
2096921,2096921,308226,450882
2096921,2096921,308196,450540
2096921,2096921,308189,450570
2096921,2096921,308245,450646
2096921,2096921,308512,450586
2096921,2096921,308408,450744
2096921,2096921,308623,450571
2096921,2096921,308268,450552
2096921,2096921,308404,450662
2096921,2096921,308252,450633
2096921,2096921,308458,450677
2096921,2096921,308241,450485
2096921,2096921,307924,450480
2096921,2096921,307955,450592
2096921,2096921,308182,450456
2096921,2096921,308342,450601
2096921,2096921,308501,450947
2096921,2096921,308055,450632
2096921,2096921,308208,450617
2096921,2096921,308050,450523
2096921,2096921,308101,450463
2096921,2096921,308316,450150
2096921,2096921,308465,450415
2096921,2096921,308150,450523
2096921,2096921,308363,450243
2096921,2096921,308071,450638
2096921,2096921,308291,450480
2096921,2096921,308359,450558
2096921,2096921,308237,450217
2096921,2096921,308097,450197
2096921,2096921,308207,450112
2096921,2096921,308026,450421
2096921,2096921,308140,450646
2096921,2096921,308197,450502
2096921,2096921,308364,450553
2096921,2096921,308330,450201
2096921,2096921,308457,450434
2096921,2096921,308090,450520
2096921,2096921,308291,450462
2096921,2096921,308385,450424
2096921,2096921,308068,450162
2096921,2096921,308145,450020
2096921,2096921,307818,450131
2096921,2096921,308101,450187
2096921,2096921,308192,450104
2096921,2096921,308329,450163
2096921,2096921,308046,450216
2096921,2096921,308171,450423
2096921,2096921,308165,450139
2096921,2096921,308104,450485
2096921,2096921,308067,450232
2096921,2096921,308010,450078
2096921,2096921,307927,449985
2096921,2096921,308226,450185
2096921,2096921,307895,450207
2096921,2096921,308155,450460
2096921,2096921,308246,450148
2096921,2096921,308325,450198
2096921,2096921,307793,450095
2096921,2096921,307848,449941
2096921,2096921,307917,449661
2096921,2096921,307774,449889
2096921,2096921,307842,450053
2096921,2096921,307951,449911
2096921,2096921,307728,449910
2096921,2096921,307951,449941
2096921,2096921,308090,449877
2096921,2096921,307986,449887
2096921,2096921,307997,449676
2096921,2096921,308124,449607
2096921,2096921,307633,449816
2096921,2096921,307834,449950
2096921,2096921,307701,449764
2096921,2096921,307695,449799
2096921,2096921,307842,450042
2096921,2096921,307980,449751
2096921,2096921,307790,449680
2096921,2096921,307445,449587
2096921,2096921,307722,449642
2096921,2096921,307486,449623
2096921,2096921,307572,449857
2096921,2096921,307967,449741
2096921,2096921,307582,449881
2096921,2096921,307623,449668
2096921,2096921,307912,449633
2096921,2096921,308035,449831
2096921,2096921,307725,449952
2096921,2096921,307313,449419
2096921,2096921,307647,449805
2096921,2096921,308015,449502
2096921,2096921,307719,449724
2096921,2096921,307739,449494
2096921,2096921,307626,449607
2096921,2096921,307722,449240
2096921,2096921,307847,449452
2096921,2096921,307556,449853
2096921,2096921,307258,449261
2096921,2096921,307000,449136
2096921,2096921,306991,449024
2096921,2096921,307120,449003
2096921,2096921,307122,448841
2096921,2096921,306694,448378
2096921,2096921,306728,448374
2096921,2096921,306958,448743
2096921,2096921,306966,448727
2096921,2096921,306771,448848
2096921,2096921,306483,448193
2096921,2096921,306136,447980
2096921,2096921,306209,447929
2096921,2096921,306205,448057
2096921,2096921,306177,447936
2096921,2096921,305470,447320
2096921,2096921,305364,446723
2096921,2096921,305189,446973
2096921,2096921,305527,447232
2096921,2096921,305540,447233
2096921,2096921,304812,446338
2096921,2096921,304677,446309
2096921,2096921,304630,446099
2096921,2096921,304382,446164
2096921,2096921,304354,446364
2096921,2096921,302849,444901
2096921,2096921,302487,444438
2096921,2096921,302742,444263
2096921,2096921,302668,443966
2096921,2096921,302817,444352
2096921,2096921,300925,442504
2096921,2096921,300639,442193
2096921,2096921,300534,441888
2096921,2096921,300239,441710
2096921,2096921,300245,441771
2096921,2096921,298997,440665
2096921,2096921,298531,440155
2096921,2096921,298816,440188
2096921,2096921,298608,440039
2096921,2096921,298711,440120
2096921,2096921,297559,438870
2096921,2096921,297558,438707
2096921,2096921,297178,438695
2096921,2096921,296894,438680
2096921,2096921,296998,438491
2096921,2096921,296317,437734
2096921,2096921,296085,437705
2096921,2096921,296106,437496
2096921,2096921,296311,437825
2096921,2096921,296288,437722
2096921,2096921,295797,437058
2096921,2096921,295738,436882
2096921,2096921,295632,437101
2096921,2096921,295685,437048
2096921,2096921,295369,436887
2096921,2096921,295221,436369
2096921,2096921,294751,436488
2096921,2096921,295049,436495
2096921,2096921,295079,436621
2096921,2096921,295102,436366
2096921,2096921,295116,436467
2096921,2096921,294781,436172
2096921,2096921,294575,436271
2096921,2096921,294539,436017
2096921,2096921,294541,436279
2096921,2096921,294657,436109
2096921,2096921,294552,436066
2096921,2096921,294559,436222
2096921,2096921,294915,436241
2096921,2096921,294883,436242
2096921,2096921,294938,436281
2096921,2096921,294401,435941
2096921,2096921,294576,436251
2096921,2096921,294526,436035
2096921,2096921,294609,435924
2096921,2096921,294789,435885
2096921,2096921,294870,436054
2096921,2096921,294780,436091
2096921,2096921,294832,436156
2096921,2096921,294965,436314
2096921,2096921,295110,436298
2096921,2096921,294933,436288
2096921,2096921,294893,436292
2096921,2096921,294851,436144
2096921,2096921,295196,436242
2096921,2096921,295178,436428
2096921,2096921,295087,436429
2096921,2096921,295047,436368
2096921,2096921,295138,436871
2096921,2096921,295285,436634
2096921,2096921,295531,437027
2096921,2096921,295633,436865
2096921,2096921,295461,436940
2096921,2096921,295444,436859
2096921,2096921,295438,436695
2096921,2096921,295755,437051
2096921,2096921,296098,436968
2096921,2096921,295506,436971
2096921,2096921,295599,437142
2096921,2096921,295604,437295
2096921,2096921,295973,437694
2096921,2096921,296247,437501
2096921,2096921,296358,437654
2096921,2096921,296093,437922
2096921,2096921,296262,437676
2096921,2096921,296741,437905
2096921,2096921,296902,437850
2096921,2096921,296558,437880
2096921,2096921,296585,438059
2096921,2096921,296828,437872
2096921,2096921,296955,438594
2096921,2096921,297209,438662
2096921,2096921,297426,438410
2096921,2096921,296782,438476
2096921,2096921,297114,438297
2096921,2096921,297325,439011
2096921,2096921,297298,438724
2096921,2096921,297460,438855
2096921,2096921,297506,438695
2096921,2096921,297511,439028
2096921,2096921,297682,439387
2096921,2096921,297724,439176
2096921,2096921,297818,439196
2096921,2096921,297763,439268
2096921,2096921,297873,439318
2096921,2096921,298052,439736
2096921,2096921,298242,439584
2096921,2096921,298203,439719
2096921,2096921,298077,439700
2096921,2096921,298122,439994
2096921,2096921,298510,440305
2096921,2096921,298624,440560
2096921,2096921,298577,439950
2096921,2096921,298677,439987
2096921,2096921,298665,440239
2096921,2096921,299077,440573
2096921,2096921,298909,440528
2096921,2096921,299217,440555
2096921,2096921,299274,440789
2096921,2096921,299045,440514
2096921,2096921,299405,440837
2096921,2096921,299884,440896
2096921,2096921,299579,441061
2096921,2096921,299393,440942
2096921,2096921,299240,441018
2096921,2096921,299694,441231
2096921,2096921,299732,441211
2096921,2096921,299883,441285
2096921,2096921,299953,441464
2096921,2096921,300118,441140
2096921,2096921,300262,441632
2096921,2096921,300357,441839
2096921,2096921,300193,441671
2096921,2096921,300322,441585
2096921,2096921,300278,441650
2096921,2096921,300701,441870
2096921,2096921,300440,442133
2096921,2096921,300535,441969
2096921,2096921,300672,441905
2096921,2096921,300771,441952
2096921,2096921,300906,442239
2096921,2096921,300886,442082
2096921,2096921,300878,442420
2096921,2096921,300817,442170
2096921,2096921,300858,442185
2096921,2096921,301011,442365
2096921,2096921,300670,442287
2096921,2096921,300973,442126
2096921,2096921,300852,442474
2096921,2096921,300851,442192
2096921,2096921,301138,442854
2096921,2096921,300983,442614
2096921,2096921,300950,442738
2096921,2096921,300800,442376
2096921,2096921,300738,442418
2096921,2096921,300942,442557
2096921,2096921,300799,442398
2096921,2096921,300999,442791
2096921,2096921,300838,442542
2096921,2096921,300795,442282
2096921,2096921,301141,442664
2096921,2096921,300629,442614
2096921,2096921,300693,442888
2096921,2096921,300883,442460
2096921,2096921,301154,442294
2096921,2096921,300946,442272
2096921,2096921,300847,442391
2096921,2096921,301036,442475
2096921,2096921,300885,442354
2096921,2096921,300779,442540
2096921,2096921,300957,442283
2096921,2096921,300790,442562
2096921,2096921,300485,442541
2096921,2096921,300458,442195
2096921,2096921,300664,442195
2096921,2096921,300620,442111
2096921,2096921,300483,441956
2096921,2096921,300580,442305
2096921,2096921,300755,442183
2096921,2096921,300591,442646
2096921,2096921,300754,442373
2096921,2096921,300336,442216
2096921,2096921,300594,442348
2096921,2096921,300457,441886
2096921,2096921,300416,441952
2096921,2096921,300246,442005
2096921,2096921,300451,441852
2096921,2096921,300532,441910
2096921,2096921,300499,442222
2096921,2096921,300613,442047
2096921,2096921,300312,442060
2096921,2096921,300337,442068
2096921,2096921,300517,441891
2096921,2096921,300244,442023
2096921,2096921,300217,441920
2096921,2096921,300361,442069
2096921,2096921,300296,441895
2096921,2096921,300428,441955
2096921,2096921,300495,441979
2096921,2096921,300446,442032
2096921,2096921,300565,442216
2096921,2096921,300455,442282
2096921,2096921,300539,441988
2096921,2096921,300348,442060
2096921,2096921,300176,441795
2096921,2096921,300398,442243
2096921,2096921,300364,442281
2096921,2096921,300538,442222
2096921,2096921,300602,442146
2096921,2096921,300731,442385
2096921,2096921,301019,442176
2096921,2096921,300995,442298
2096921,2096921,300639,442325
2096921,2096921,300588,442272
2096921,2096921,300504,442257
2096921,2096921,300978,442383
2096921,2096921,300997,442728
2096921,2096921,300980,442792
2096921,2096921,301001,442597
2096921,2096921,300993,442750
2096921,2096921,301239,443257
2096921,2096921,301440,443201
2096921,2096921,301454,443173
2096921,2096921,301404,443174
2096921,2096921,301348,442946
2096921,2096921,301716,443090
2096921,2096921,301693,443300
2096921,2096921,301963,443325
2096921,2096921,301738,443428
2096921,2096921,301907,443209
2096921,2096921,302025,443632
2096921,2096921,302191,443553
2096921,2096921,301928,443660
2096921,2096921,302025,443891
2096921,2096921,302122,443881
2096921,2096921,302204,444079
2096921,2096921,302155,444191
2096921,2096921,302333,443895
2096921,2096921,302254,443697
2096921,2096921,301931,443846
2096921,2096921,302391,444025
2096921,2096921,302338,444043
2096921,2096921,302290,444197
2096921,2096921,302351,444032
2096921,2096921,302419,444146
2096921,2096921,302590,444555
2096921,2096921,302939,444752
2096921,2096921,302846,444693
2096921,2096921,303064,444752
2096921,2096921,303088,444574
2096921,2096921,303167,445060
2096921,2096921,303058,444857
2096921,2096921,303172,444967
2096921,2096921,303338,444888
2096921,2096921,302956,444694
2096921,2096921,303213,444955
2096921,2096921,303348,444995
2096921,2096921,303150,445188
2096921,2096921,303215,445537
2096921,2096921,303230,445384
2096921,2096921,303696,445634
2096921,2096921,303794,445831
2096921,2096921,303513,445589
2096921,2096921,303542,445548
2096921,2096921,303593,445515
2096921,2096921,303642,445624
2096921,2096921,303932,445934
2096921,2096921,303751,445975
2096921,2096921,304225,445937
2096921,2096921,304186,446026
2096921,2096921,304212,446281
2096921,2096921,304451,446040
2096921,2096921,304424,446089
2096921,2096921,304201,446349
2096921,2096921,304328,445838
2096921,2096921,304269,446193
2096921,2096921,304474,446421
2096921,2096921,304742,446369
2096921,2096921,304720,446666
2096921,2096921,304235,446766
2096921,2096921,304425,446611
2096921,2096921,304638,446514
2096921,2096921,304627,446915
2096921,2096921,304553,446973
2096921,2096921,304623,446658
2096921,2096921,304833,446796
2096921,2096921,304833,446742
2096921,2096921,304954,447049
2096921,2096921,305075,447150
2096921,2096921,305102,447124
2096921,2096921,305055,447098
2096921,2096921,305426,447507
2096921,2096921,305183,447276
2096921,2096921,304961,447498
2096921,2096921,305031,447410
2096921,2096921,305340,447544
2096921,2096921,305335,447366
2096921,2096921,305327,447546
2096921,2096921,305420,447388
2096921,2096921,305496,447620
2096921,2096921,305650,448131
2096921,2096921,305978,448085
2096921,2096921,305985,447869
2096921,2096921,305837,448084
2096921,2096921,305526,447909
2096921,2096921,306017,447897
2096921,2096921,305772,447995
2096921,2096921,305982,447996
2096921,2096921,305899,447903
2096921,2096921,306133,447996
2096921,2096921,306311,448535
2096921,2096921,306317,448363
2096921,2096921,306288,448297
2096921,2096921,306027,448280
2096921,2096921,306169,448425
2096921,2096921,306459,448643
2096921,2096921,306491,448701
2096921,2096921,306637,448268
2096921,2096921,306589,448584
2096921,2096921,306667,448735
2096921,2096921,306968,448752
2096921,2096921,307050,448857
2096921,2096921,306611,448809
2096921,2096921,306538,448859
2096921,2096921,306301,448794
2096921,2096921,306690,449132
2096921,2096921,306684,448854
2096921,2096921,307218,449085
2096921,2096921,306917,449208
2096921,2096921,306832,449029
2096921,2096921,307111,449660
2096921,2096921,307171,449420
2096921,2096921,307138,449439
2096921,2096921,307002,449324
2096921,2096921,306946,449506
2096921,2096921,307077,449592
2096921,2096921,307047,449872
2096921,2096921,307171,449764
2096921,2096921,307337,449767
2096921,2096921,307183,449970
2096921,2096921,307247,450133
2096921,2096921,307656,450296
2096921,2096921,307424,450148
2096921,2096921,307380,449739
2096921,2096921,307731,450047
2096921,2096921,307319,450260
2096921,2096921,307539,450105
2096921,2096921,307520,450082
2096921,2096921,307920,450236
2096921,2096921,307879,450305
2096921,2096921,307903,450416
2096921,2096921,307791,450565
2096921,2096921,307926,450582
2096921,2096921,307988,450666
2096921,2096921,307898,450389
2096921,2096921,308067,450452
2096921,2096921,308055,450711
2096921,2096921,308123,450475
2096921,2096921,307970,450450
2096921,2096921,308165,450719
2096921,2096921,308387,450772
2096921,2096921,308416,450764
2096921,2096921,308400,450863
2096921,2096921,308218,450767
2096921,2096921,308125,450925
2096921,2096921,308375,450975
2096921,2096921,308581,451024
2096921,2096921,308357,451085
2096921,2096921,308613,451180
2096921,2096921,308473,451379
2096921,2096921,309022,451373
2096921,2096921,308519,451676
2096921,2096921,308753,451384
2096921,2096921,308456,451405
2096921,2096921,308581,451153
2096921,2096921,308776,451594
2096921,2096921,308685,451381
2096921,2096921,308634,451639
2096921,2096921,308884,451303
2096921,2096921,308879,451521
2096921,2096921,308629,451746
2096921,2096921,308822,451980
2096921,2096921,309002,452197
2096921,2096921,308903,451818
2096921,2096921,308804,451723
2096921,2096921,308930,451775
2096921,2096921,309045,451812
2096921,2096921,309084,452084
2096921,2096921,309087,451911
2096921,2096921,309106,452025
2096921,2096921,309418,452094
2096921,2096921,309218,452745
2096921,2096921,309344,452518
2096921,2096921,309520,452166
2096921,2096921,309201,452234
2096921,2096921,309637,452430
2096921,2096921,309590,452248
2096921,2096921,309810,452727
2096921,2096921,309452,452702
2096921,2096921,309861,452579
2096921,2096921,309569,452944
2096921,2096921,309712,452859
2096921,2096921,309501,452980
2096921,2096921,309752,452703
2096921,2096921,309642,452760
2096921,2096921,309903,452913
2096921,2096921,309886,452531
2096921,2096921,310027,452938
2096921,2096921,310090,453163
2096921,2096921,310140,453079
2096921,2096921,310233,453238
2096921,2096921,310182,453348
2096921,2096921,310001,453112
2096921,2096921,309921,453190
2096921,2096921,310107,453098
2096921,2096921,310179,453305
2096921,2096921,310208,453432
2096921,2096921,310544,453284
2096921,2096921,310483,453780
2096921,2096921,310420,453597
2096921,2096921,310598,453843
2096921,2096921,310696,453581
2096921,2096921,310425,453726
2096921,2096921,310367,453702
2096921,2096921,310577,453683
2096921,2096921,310605,453480
2096921,2096921,310560,454018
2096921,2096921,310606,453527
2096921,2096921,310788,453842
2096921,2096921,310617,453994
2096921,2096921,310834,453852
2096921,2096921,310832,454072
2096921,2096921,310582,453962
2096921,2096921,310744,454054
2096921,2096921,311015,454054
2096921,2096921,310812,453940
2096921,2096921,310842,454331
2096921,2096921,311228,454312
2096921,2096921,310912,454275
2096921,2096921,311016,454181
2096921,2096921,310983,454320
2096921,2096921,310993,454164
2096921,2096921,311295,454469
2096921,2096921,311166,454435
2096921,2096921,311119,454352
2096921,2096921,311136,454522
2096921,2096921,311154,454571
2096921,2096921,311023,454726
2096921,2096921,311277,454551
2096921,2096921,310995,454939
2096921,2096921,311648,454905
2096921,2096921,311422,454994
2096921,2096921,311237,454847
2096921,2096921,311266,454654
2096921,2096921,311228,454915
2096921,2096921,311248,454838
2096921,2096921,311323,455024
2096921,2096921,311551,454954
2096921,2096921,311686,454981
2096921,2096921,311557,454960
2096921,2096921,311651,455224
2096921,2096921,311382,455031
2096921,2096921,311307,454999
2096921,2096921,311387,454691
2096921,2096921,311229,455028
2096921,2096921,311291,454856
2096921,2096921,311592,454907
2096921,2096921,311680,455466
2096921,2096921,311666,455534
2096921,2096921,311675,455615
2096921,2096921,311789,455932
2096921,2096921,311753,455838
2096921,2096921,312189,455399
2096921,2096921,311579,455457
2096921,2096921,311847,455276
2096921,2096921,311980,455473
2096921,2096921,311575,455440
2096921,2096921,311659,455668
2096921,2096921,311910,455575
2096921,2096921,312031,455445
2096921,2096921,311762,455248
2096921,2096921,311371,455600
2096921,2096921,311477,455236
2096921,2096921,311891,455211
2096921,2096921,311590,455304
2096921,2096921,311490,455219
2096921,2096921,311481,455236
2096921,2096921,311428,455257
2096921,2096921,311510,455299
2096921,2096921,311521,455178
2096921,2096921,310751,454667
2096921,2096921,310895,454827
2096921,2096921,310663,454965
2096921,2096921,310769,454500
2096921,2096921,310735,454659
2096921,2096921,310227,454231
2096921,2096921,310190,454286
2096921,2096921,309960,453968
2096921,2096921,309886,454177
2096921,2096921,310193,454154
2096921,2096921,309664,453574
2096921,2096921,309260,453666
2096921,2096921,309296,453398
2096921,2096921,309302,453542
2096921,2096921,309350,453494
2096921,2096921,308141,451886
2096921,2096921,307674,451713
2096921,2096921,307663,451707
2096921,2096921,307700,451584
2096921,2096921,307623,451861
2096921,2096921,306080,450103
2096921,2096921,305604,449528
2096921,2096921,305410,449488
2096921,2096921,305261,449379
2096921,2096921,305322,449520
2096921,2096921,304183,448096
2096921,2096921,303947,448017
2096921,2096921,304087,447929
2096921,2096921,303819,447893
2096921,2096921,303877,447754
2096921,2096921,302826,446919
2096921,2096921,302567,446646
2096921,2096921,302554,446656
2096921,2096921,302438,446636
2096921,2096921,302364,446563
2096921,2096921,302023,445702
2096921,2096921,301736,446003
2096921,2096921,301827,445827
2096921,2096921,301601,446071
2096921,2096921,301873,445888
2096921,2096921,301774,445270
2096921,2096921,301411,445465
2096921,2096921,301104,445380
2096921,2096921,301088,445150
2096921,2096921,301365,445013
2096921,2096921,300838,444901
2096921,2096921,300993,444900
2096921,2096921,300661,444735
2096921,2096921,301003,444719
2096921,2096921,301023,445033
2096921,2096921,300953,445165
2096921,2096921,300787,444884
2096921,2096921,300633,444795
2096921,2096921,300366,445178
2096921,2096921,300683,444899
2096921,2096921,300479,444985
2096921,2096921,300694,445065
2096921,2096921,300531,444959
2096921,2096921,300643,444826
2096921,2096921,300723,444979
2096921,2096921,300883,445249
2096921,2096921,300789,444873
2096921,2096921,300948,444965
2096921,2096921,300602,445064
2096921,2096921,300513,444751
2096921,2096921,300791,445263
2096921,2096921,300979,445188
2096921,2096921,301115,445394
2096921,2096921,301205,445308
2096921,2096921,300820,445181
2096921,2096921,300992,445561
2096921,2096921,301019,445653
2096921,2096921,301245,445305
2096921,2096921,301181,445345
2096921,2096921,301422,445440
2096921,2096921,301311,445801
2096921,2096921,301185,445804
2096921,2096921,301460,445967
2096921,2096921,301479,445906
2096921,2096921,301611,445924
2096921,2096921,301943,446683
2096921,2096921,301794,446631
2096921,2096921,302117,446519
2096921,2096921,301757,446170
2096921,2096921,302026,446380
2096921,2096921,302207,446811
2096921,2096921,302558,446930
2096921,2096921,302134,446863
2096921,2096921,302505,447046
2096921,2096921,302580,447047
2096921,2096921,302896,447576
2096921,2096921,302809,447515
2096921,2096921,302751,447403
2096921,2096921,302918,447567
2096921,2096921,302791,447434
2096921,2096921,303322,447781
2096921,2096921,303452,447823
2096921,2096921,303535,448008
2096921,2096921,303555,448246
2096921,2096921,303433,448378
2096921,2096921,304113,448736
2096921,2096921,304039,448959
2096921,2096921,304131,448959
2096921,2096921,303997,448698
2096921,2096921,303663,448567
2096921,2096921,304163,449022
2096921,2096921,304389,449226
2096921,2096921,304454,449406
2096921,2096921,304231,449202
2096921,2096921,304361,449264
2096921,2096921,305094,449709
2096921,2096921,304653,449944
2096921,2096921,305002,450001
2096921,2096921,304966,449750
2096921,2096921,304741,449660
2096921,2096921,305198,449947
2096921,2096921,305410,450150
2096921,2096921,305356,450257
2096921,2096921,305397,450498
2096921,2096921,305462,450340
2096921,2096921,305935,450724
2096921,2096921,306041,450835
2096921,2096921,306009,451038
2096921,2096921,306005,451113
2096921,2096921,306187,451047
2096921,2096921,306524,451603
2096921,2096921,306593,451480
2096921,2096921,306583,451666
2096921,2096921,306495,451706
2096921,2096921,306603,451497
2096921,2096921,307276,451753
2096921,2096921,307278,451919
2096921,2096921,307193,452309
2096921,2096921,306931,452023
2096921,2096921,306737,451959
2096921,2096921,307390,452511
2096921,2096921,307317,452414
2096921,2096921,307421,452907
2096921,2096921,307434,452893
2096921,2096921,307589,452918
2096921,2096921,308053,453182
2096921,2096921,307918,453096
2096921,2096921,307953,453112
2096921,2096921,307841,452791
2096921,2096921,307777,453041
2096921,2096921,308220,453602
2096921,2096921,308372,453659
2096921,2096921,308610,453572
2096921,2096921,308578,453531
2096921,2096921,308314,453575
2096921,2096921,308525,453905
2096921,2096921,308810,454244
2096921,2096921,308849,453401
2096921,2096921,308793,453986
2096921,2096921,308971,453801
2096921,2096921,309041,453940
2096921,2096921,309023,454111
2096921,2096921,308955,454060
2096921,2096921,308999,454161
2096921,2096921,309144,454366
2096921,2096921,309203,454522
2096921,2096921,309206,454449
2096921,2096921,309211,454291
2096921,2096921,309061,454262
2096921,2096921,309366,454471
2096921,2096921,309281,454666
2096921,2096921,309061,454401
2096921,2096921,309514,454345
2096921,2096921,309143,454625
2096921,2096921,309250,454870
2096921,2096921,309250,454911
2096921,2096921,309360,454833
2096921,2096921,309192,454609
2096921,2096921,309210,454529
2096921,2096921,308973,454491
2096921,2096921,309012,454793
2096921,2096921,309554,454686
2096921,2096921,309633,454580
2096921,2096921,309565,454682
2096921,2096921,309535,454865
2096921,2096921,309511,454915
2096921,2096921,309467,454596
2096921,2096921,309506,454877
2096921,2096921,309230,454408
2096921,2096921,309244,454700
2096921,2096921,309060,454900
2096921,2096921,309107,454403
2096921,2096921,309198,454613
2096921,2096921,309277,454798
2096921,2096921,309201,454791
2096921,2096921,309235,455074
2096921,2096921,309164,454906
2096921,2096921,308984,454532
2096921,2096921,308995,454558
2096921,2096921,308921,454456
2096921,2096921,309132,454389
2096921,2096921,309235,454517
2096921,2096921,308990,454513
2096921,2096921,309249,454797
2096921,2096921,309044,454463
2096921,2096921,309506,454787
2096921,2096921,309275,454742
2096921,2096921,309366,454761
2096921,2096921,309275,454702
2096921,2096921,308834,454511
2096921,2096921,309190,454382
2096921,2096921,309106,454572
2096921,2096921,309044,454520
2096921,2096921,309408,454992
2096921,2096921,309378,454842
2096921,2096921,309355,454980
2096921,2096921,309253,454783
2096921,2096921,309361,455030
2096921,2096921,308947,454969
2096921,2096921,309306,454616
2096921,2096921,309454,454941
2096921,2096921,309418,455273
2096921,2096921,309559,455358
2096921,2096921,309643,455190
2096921,2096921,309331,455255
2096921,2096921,309680,455475
2096921,2096921,309801,455617
2096921,2096921,309654,455664
2096921,2096921,309549,455338
2096921,2096921,309610,455179
2096921,2096921,309780,455531
2096921,2096921,309870,455407
2096921,2096921,310066,455743
2096921,2096921,310072,456066
2096921,2096921,310045,456114
2096921,2096921,310438,456092
2096921,2096921,310595,456278
2096921,2096921,310380,456160
2096921,2096921,310190,456219
2096921,2096921,310241,456069
2096921,2096921,310480,456099
2096921,2096921,310440,456382
2096921,2096921,310803,456533
2096921,2096921,310856,456205
2096921,2096921,310827,456443
2096921,2096921,311025,456628
2096921,2096921,310682,456925
2096921,2096921,311164,456788
2096921,2096921,311015,456639
2096921,2096921,310818,456772
2096921,2096921,311030,457039
2096921,2096921,311223,456934
2096921,2096921,311399,457259
2096921,2096921,311271,457099
2096921,2096921,311416,457379
2096921,2096921,311531,457194
2096921,2096921,311588,457124
2096921,2096921,311721,457379
2096921,2096921,311539,457329
2096921,2096921,311493,457277
2096921,2096921,311774,457502
2096921,2096921,311888,457578
2096921,2096921,311929,457707
2096921,2096921,311723,457788
2096921,2096921,311770,457759
2096921,2096921,311895,458083
2096921,2096921,312019,458026
2096921,2096921,312155,458396
2096921,2096921,311996,457872
2096921,2096921,312030,457845
2096921,2096921,312299,458135
2096921,2096921,312392,458164
2096921,2096921,312333,458377
2096921,2096921,312341,458448
2096921,2096921,312650,458493
2096921,2096921,312846,458696
2096921,2096921,312791,458394
2096921,2096921,312988,458640
2096921,2096921,312828,458564
2096921,2096921,312552,458543
2096921,2096921,313194,458787
2096921,2096921,312858,458730
2096921,2096921,312906,458614
2096921,2096921,313208,458910
2096921,2096921,313076,458807
2096921,2096921,313210,459259
2096921,2096921,313349,458952
2096921,2096921,313075,459205
2096921,2096921,313009,459128
2096921,2096921,313337,459052
2096921,2096921,313369,459438
2096921,2096921,313443,459374
2096921,2096921,313518,459379
2096921,2096921,313340,459377
2096921,2096921,313144,459817
2096921,2096921,313456,459573
2096921,2096921,313772,459293
2096921,2096921,313750,459332
2096921,2096921,313677,459412
2096921,2096921,313413,459587
2096921,2096921,313684,459800
2096921,2096921,314198,459796
2096921,2096921,313816,459691
2096921,2096921,313802,459950
2096921,2096921,313959,459682
2096921,2096921,314138,459829
2096921,2096921,314272,459910
2096921,2096921,313968,460221
2096921,2096921,313686,460288
2096921,2096921,313774,460090
2096921,2096921,314137,460361
2096921,2096921,314365,460148
2096921,2096921,314542,460125
2096921,2096921,314587,460590
2096921,2096921,314141,460668
2096921,2096921,314627,460537
2096921,2096921,314503,460568
2096921,2096921,314577,460625
2096921,2096921,314461,460272
2096921,2096921,314451,460356
2096921,2096921,314676,460516
2096921,2096921,314430,460683
2096921,2096921,314642,460921
2096921,2096921,314701,460789
2096921,2096921,314402,460610
2096921,2096921,314670,461040
2096921,2096921,314917,461308
2096921,2096921,314910,460752
2096921,2096921,314621,460793
2096921,2096921,314659,460778
2096921,2096921,314715,460644
2096921,2096921,314779,460855
2096921,2096921,315052,460695
2096921,2096921,314961,460744
2096921,2096921,315066,460954
2096921,2096921,315237,460932
2096921,2096921,315110,461140
2096921,2096921,314915,461132
2096921,2096921,315392,461107
2096921,2096921,315074,461079
2096921,2096921,315410,461171
2096921,2096921,315571,460819
2096921,2096921,315244,461385
2096921,2096921,315508,461394
2096921,2096921,315543,461187
2096921,2096921,315612,461594
2096921,2096921,315371,461177
2096921,2096921,315351,461255
2096921,2096921,314947,461500
2096921,2096921,315272,461380
2096921,2096921,315254,461322
2096921,2096921,315117,461537
2096921,2096921,315837,461715
2096921,2096921,315532,461584
2096921,2096921,315958,461613
2096921,2096921,315879,461826
2096921,2096921,315948,461602
2096921,2096921,315511,461542
2096921,2096921,315816,461597
2096921,2096921,315488,461806
2096921,2096921,315639,461953
2096921,2096921,315789,461799
2096921,2096921,315650,461714
2096921,2096921,315814,461692
2096921,2096921,315742,461592
2096921,2096921,315629,461908
2096921,2096921,316054,461847
2096921,2096921,315640,461753
2096921,2096921,315764,461876
2096921,2096921,315746,461796
2096921,2096921,315925,461657
2096921,2096921,316100,461967
2096921,2096921,315839,461948
2096921,2096921,315954,462198
2096921,2096921,315795,462309
2096921,2096921,316146,461918
2096921,2096921,315700,462052
2096921,2096921,316041,462073
2096921,2096921,315908,462128
2096921,2096921,315829,461900
2096921,2096921,315889,462093
2096921,2096921,316109,462132
2096921,2096921,316227,462184
2096921,2096921,316126,462444
2096921,2096921,316108,462501
2096921,2096921,316053,462469
2096921,2096921,316084,462305
2096921,2096921,316002,462334
2096921,2096921,315989,462229
2096921,2096921,316051,461993
2096921,2096921,316036,462352
2096921,2096921,316080,462322
2096921,2096921,316516,462326
2096921,2096921,316470,462521
2096921,2096921,316471,462357
2096921,2096921,316487,462487
2096921,2096921,316463,462653
2096921,2096921,316609,462526
2096921,2096921,316270,462464
2096921,2096921,316425,462128
2096921,2096921,316290,462240
2096921,2096921,316472,462283
2096921,2096921,316392,462176
2096921,2096921,316459,462507
2096921,2096921,316596,462593
2096921,2096921,316622,462764
2096921,2096921,316599,462739
2096921,2096921,316534,462721
2096921,2096921,316383,462892
2096921,2096921,316444,462476
2096921,2096921,316565,462604
2096921,2096921,316554,462727
2096921,2096921,316649,462822
2096921,2096921,316552,463014
2096921,2096921,316468,463234
2096921,2096921,316546,463248
2096921,2096921,316573,462812
2096921,2096921,316734,462638
2096921,2096921,316743,462834
2096921,2096921,316410,462576
2096921,2096921,316550,462581
2096921,2096921,316705,462643
2096921,2096921,316697,462755
2096921,2096921,316632,462629
2096921,2096921,316744,462775
2096921,2096921,316756,463270
2096921,2096921,316906,462953
2096921,2096921,317170,462784
2096921,2096921,316859,462880
2096921,2096921,316499,462760
2096921,2096921,316845,463124
2096921,2096921,316919,462839
2096921,2096921,317001,462964
2096921,2096921,316807,462902
2096921,2096921,316797,463098
2096921,2096921,317146,462901
2096921,2096921,316918,463372
2096921,2096921,316763,462914
2096921,2096921,317198,462858
2096921,2096921,316776,462806
2096921,2096921,317011,462798
2096921,2096921,316861,463070
2096921,2096921,316918,463378
2096921,2096921,316950,463220
2096921,2096921,317262,463643
2096921,2096921,317068,463347
2096921,2096921,317004,463368
2096921,2096921,316961,463150
2096921,2096921,316970,462949
2096921,2096921,317300,463316
2096921,2096921,317354,463136
2096921,2096921,317099,462985
2096921,2096921,316939,463060
2096921,2096921,317041,463413
2096921,2096921,316970,462940
2096921,2096921,317050,463255
2096921,2096921,317101,463274
2096921,2096921,316753,463114
2096921,2096921,317057,463284
2096921,2096921,316690,463023
2096921,2096921,316666,463055
2096921,2096921,316807,462957
2096921,2096921,316876,463120
2096921,2096921,316817,463351
2096921,2096921,316962,462999
2096921,2096921,317145,463044
2096921,2096921,317070,463076
2096921,2096921,316886,462932
2096921,2096921,316879,462837
2096921,2096921,316871,463046
2096921,2096921,317027,462618
2096921,2096921,317036,462950
2096921,2096921,317283,462977
2096921,2096921,317101,463152
2096921,2096921,317326,462980
2096921,2096921,317221,462933
2096921,2096921,316915,463090
2096921,2096921,316804,463050
2096921,2096921,317027,462967
2096921,2096921,316787,462835
2096921,2096921,316940,462856
2096921,2096921,317023,462973
2096921,2096921,316703,462784
2096921,2096921,316916,462753
2096921,2096921,316841,462919
2096921,2096921,317484,463231
2096921,2096921,317119,462951
2096921,2096921,316770,463132
2096921,2096921,316891,463023
2096921,2096921,316681,463061
2096921,2096921,316884,462674
2096921,2096921,316997,463112
2096921,2096921,316826,462945
2096921,2096921,317051,462953
2096921,2096921,316956,463037
2096921,2096921,316434,462511
2096921,2096921,316204,462278
2096921,2096921,316541,462131
2096921,2096921,316350,462268
2096921,2096921,316063,462144
2096921,2096921,316040,462055
2096921,2096921,315997,461923
2096921,2096921,316215,462141
2096921,2096921,315995,462183
2096921,2096921,315964,461988
2096921,2096921,315480,461569
2096921,2096921,315439,461229
2096921,2096921,315375,461446
2096921,2096921,315116,461122
2096921,2096921,315491,461358
2096921,2096921,315012,460547
2096921,2096921,314433,460215
2096921,2096921,314696,460583
2096921,2096921,314598,460352
2096921,2096921,314596,460450
2096921,2096921,313920,459644
2096921,2096921,313599,459545
2096921,2096921,313358,459654
2096921,2096921,313518,459562
2096921,2096921,313468,459299
2096921,2096921,311946,457765
2096921,2096921,311933,457379
2096921,2096921,311822,457453
2096921,2096921,311752,457407
2096921,2096921,311465,457451
2096921,2096921,309879,455562
2096921,2096921,309716,455127
2096921,2096921,309264,454860
2096921,2096921,309202,454950
2096921,2096921,309109,455170
2096921,2096921,307927,453703
2096921,2096921,307443,453155
2096921,2096921,307768,453246
2096921,2096921,307458,453051
2096921,2096921,307583,452903
2096921,2096921,306596,452044
2096921,2096921,305924,452062
2096921,2096921,306088,451863
2096921,2096921,306063,451512
2096921,2096921,305785,451734
2096921,2096921,305120,450569
2096921,2096921,304780,450595
2096921,2096921,305068,450503
2096921,2096921,304994,450744
2096921,2096921,305057,450951
2096921,2096921,304535,450105
2096921,2096921,304497,449776
2096921,2096921,304431,449799
2096921,2096921,304490,449650
2096921,2096921,304272,449829
2096921,2096921,303913,449002
2096921,2096921,303461,448864
2096921,2096921,303680,449034
2096921,2096921,303800,449328
2096921,2096921,303611,449353
2096921,2096921,303499,449189
2096921,2096921,303375,448985
2096921,2096921,303197,448643
2096921,2096921,303279,448510
2096921,2096921,303174,448439
2096921,2096921,302987,448400
2096921,2096921,302800,448411
2096921,2096921,303071,448807
2096921,2096921,303120,448769
2096921,2096921,302907,448571
2096921,2096921,303299,448716
2096921,2096921,303211,448496
2096921,2096921,303230,448395
2096921,2096921,303170,448617
2096921,2096921,303203,448413
2096921,2096921,303368,448311
2096921,2096921,303269,448319
2096921,2096921,303125,448533
2096921,2096921,303343,448393
2096921,2096921,303477,448612
2096921,2096921,303520,448778
2096921,2096921,303497,448597
2096921,2096921,303544,448765
2096921,2096921,303282,448558
2096921,2096921,303041,448600
2096921,2096921,303019,448605
2096921,2096921,303111,448533
2096921,2096921,303444,448457
2096921,2096921,303270,448373
2096921,2096921,303221,448635
2096921,2096921,303662,448744
2096921,2096921,303471,449026
2096921,2096921,303348,448514
2096921,2096921,303516,448599
2096921,2096921,303633,448775
2096921,2096921,303679,449204
2096921,2096921,303766,449296
2096921,2096921,303769,449290
2096921,2096921,303907,449382
2096921,2096921,303997,449255
2096921,2096921,304144,449496
2096921,2096921,304238,449482
2096921,2096921,304127,449728
2096921,2096921,304176,449268
2096921,2096921,304157,449308
2096921,2096921,304468,449758
2096921,2096921,304575,449746
2096921,2096921,304663,449762
2096921,2096921,304622,449848
2096921,2096921,304550,450050
2096921,2096921,304765,449964
2096921,2096921,304989,450026
2096921,2096921,305255,450018
2096921,2096921,304763,450113
2096921,2096921,304919,450134
2096921,2096921,305113,450234
2096921,2096921,305240,450113
2096921,2096921,305250,450114
2096921,2096921,305222,450217
2096921,2096921,305273,450575
2096921,2096921,305597,450451
2096921,2096921,305606,450627
2096921,2096921,305583,450460
2096921,2096921,305433,450406
2096921,2096921,305470,450290
2096921,2096921,305783,450460
2096921,2096921,305464,450518
2096921,2096921,305779,450677
2096921,2096921,305856,450993
2096921,2096921,305679,451015
2096921,2096921,305984,451183
2096921,2096921,306060,451106
2096921,2096921,306192,451221
2096921,2096921,306052,451235
2096921,2096921,305996,451130
2096921,2096921,306263,451236
2096921,2096921,306136,451419
2096921,2096921,306614,451094
2096921,2096921,306744,451475
2096921,2096921,306720,451266
2096921,2096921,306760,451799
2096921,2096921,306708,452093
2096921,2096921,306751,452076
2096921,2096921,306626,451897
2096921,2096921,306551,451625
2096921,2096921,306963,451873
2096921,2096921,306992,452051
2096921,2096921,307171,452059
2096921,2096921,307184,452281
2096921,2096921,307306,452418
2096921,2096921,307605,452461
2096921,2096921,307538,452634
2096921,2096921,307521,452478
2096921,2096921,307433,452264
2096921,2096921,307459,451947
2096921,2096921,307346,452546
2096921,2096921,307481,452282
2096921,2096921,307643,452492
2096921,2096921,307779,452639
2096921,2096921,307805,452448
2096921,2096921,307587,452322
2096921,2096921,307642,452487
2096921,2096921,307575,452544
2096921,2096921,307793,452477
2096921,2096921,307819,452306
2096921,2096921,307780,452550
2096921,2096921,307666,452544
2096921,2096921,307731,452625
2096921,2096921,308124,452569
2096921,2096921,308003,452587
2096921,2096921,308052,452637
2096921,2096921,307910,452523
2096921,2096921,307688,452427
2096921,2096921,307775,452721
2096921,2096921,308001,452518
2096921,2096921,307703,452421
2096921,2096921,307690,452177
2096921,2096921,307654,452482
2096921,2096921,307708,452574
2096921,2096921,307957,452618
2096921,2096921,307711,452180
2096921,2096921,307473,452002
2096921,2096921,307562,452098
2096921,2096921,307529,451994
2096921,2096921,307545,451895
2096921,2096921,307147,451786
2096921,2096921,307219,451888
2096921,2096921,307424,451787
2096921,2096921,307344,451737
2096921,2096921,307290,452053
2096921,2096921,307154,451683
2096921,2096921,307444,451620
2096921,2096921,307329,451799
2096921,2096921,307044,451854
2096921,2096921,306838,451593
2096921,2096921,306753,451331
2096921,2096921,306965,451345
2096921,2096921,306906,451406
2096921,2096921,307017,451320
2096921,2096921,306856,451396
2096921,2096921,306648,451128
2096921,2096921,306813,450988
2096921,2096921,306792,451011
2096921,2096921,306452,451095
2096921,2096921,306651,451037
2096921,2096921,306537,450999
2096921,2096921,306382,450574
2096921,2096921,306583,450815
2096921,2096921,306521,450907
2096921,2096921,306551,450928
2096921,2096921,306447,450942
2096921,2096921,306675,450777
2096921,2096921,306239,450694
2096921,2096921,306243,450581
2096921,2096921,306196,450438
2096921,2096921,306036,450477
2096921,2096921,306353,450383
2096921,2096921,306360,450264
2096921,2096921,306029,450605
2096921,2096921,306086,450676
2096921,2096921,306013,450435
2096921,2096921,306331,450497
2096921,2096921,306077,450484
2096921,2096921,306352,450205
2096921,2096921,306277,450325
2096921,2096921,306280,450405
2096921,2096921,306258,450245
2096921,2096921,306192,450288
2096921,2096921,306364,450486
2096921,2096921,306146,450385
2096921,2096921,305877,450471
2096921,2096921,305918,450609
2096921,2096921,306382,450391
2096921,2096921,306065,450368
2096921,2096921,306060,450146
2096921,2096921,306095,450357
2096921,2096921,306312,450390
2096921,2096921,306054,450571
2096921,2096921,306258,450549
2096921,2096921,306350,450322
2096921,2096921,306676,450589
2096921,2096921,306694,450709
2096921,2096921,306405,450736
2096921,2096921,306413,450463
2096921,2096921,306284,450311
2096921,2096921,306290,450438
2096921,2096921,306422,450843
2096921,2096921,306454,450630
2096921,2096921,306502,450792
2096921,2096921,306829,450672
2096921,2096921,306918,450889
2096921,2096921,306750,450770
2096921,2096921,306642,450674
2096921,2096921,306712,450511
2096921,2096921,306914,450493
2096921,2096921,306766,450575
2096921,2096921,306844,450792
2096921,2096921,307166,450862
2096921,2096921,307073,450720
2096921,2096921,307172,451119
2096921,2096921,307146,450882
2096921,2096921,306935,451236
2096921,2096921,306933,451014
2096921,2096921,307079,451024
2096921,2096921,307084,450953
2096921,2096921,307222,451276
2096921,2096921,307515,450810
2096921,2096921,307287,450924
2096921,2096921,307143,451222
2096921,2096921,307343,451124
2096921,2096921,307630,450971
2096921,2096921,307437,451225
2096921,2096921,307357,450932
2096921,2096921,307292,451004
2096921,2096921,306998,451173
2096921,2096921,307326,450990
2096921,2096921,307434,450675
2096921,2096921,307452,450970
2096921,2096921,307621,451241
2096921,2096921,307476,451328
2096921,2096921,307655,451273
2096921,2096921,307450,451346
2096921,2096921,307433,451376
2096921,2096921,307512,451138
2096921,2096921,307663,451082
2096921,2096921,307848,451239
2096921,2096921,307606,451273
2096921,2096921,307615,451149
2096921,2096921,307847,451133
2096921,2096921,307600,451237
2096921,2096921,307771,451394
2096921,2096921,307549,451368
2096921,2096921,307715,451381
2096921,2096921,307492,451456
2096921,2096921,307426,451193
2096921,2096921,307776,451134
2096921,2096921,307899,451294
2096921,2096921,307919,451431
2096921,2096921,307813,451385
2096921,2096921,308000,451230
2096921,2096921,308065,451218
2096921,2096921,308077,451513
2096921,2096921,308058,451411
2096921,2096921,308026,451440
2096921,2096921,307979,451627
2096921,2096921,308017,451548
2096921,2096921,307963,451443
2096921,2096921,307982,451332
2096921,2096921,308044,451589
2096921,2096921,308010,451606
2096921,2096921,308039,451468
2096921,2096921,308234,451346
2096921,2096921,308206,451645
2096921,2096921,307885,451324
2096921,2096921,308105,451221
2096921,2096921,308155,451200
2096921,2096921,307958,451574
2096921,2096921,308078,451746
2096921,2096921,308175,451837
2096921,2096921,308276,451836
2096921,2096921,308378,451520
2096921,2096921,308398,451863
2096921,2096921,308154,451844
2096921,2096921,308042,451587
2096921,2096921,308160,451367
2096921,2096921,308400,451594
2096921,2096921,308367,451451
2096921,2096921,308336,451532
2096921,2096921,308110,451317
2096921,2096921,308187,451808
2096921,2096921,308564,451688
2096921,2096921,308741,451619
2096921,2096921,308257,451629
2096921,2096921,308428,451498
2096921,2096921,308089,451579
2096921,2096921,308294,451363
2096921,2096921,308341,451390
2096921,2096921,308390,451505
2096921,2096921,308271,451338
2096921,2096921,308305,451356
2096921,2096921,308381,451405
2096921,2096921,308421,451622
2096921,2096921,308456,451588
2096921,2096921,308441,451747
2096921,2096921,308517,451607
2096921,2096921,308350,451480
2096921,2096921,308845,451450
2096921,2096921,308491,451792
2096921,2096921,308690,451602
2096921,2096921,308947,451480
2096921,2096921,308959,451647
2096921,2096921,308922,451684
2096921,2096921,308418,451397
2096921,2096921,308399,451364
2096921,2096921,308528,451225
2096921,2096921,308244,451377
2096921,2096921,308548,451392
2096921,2096921,308644,451548
2096921,2096921,308586,451415
2096921,2096921,308241,451768
2096921,2096921,308633,451606
2096921,2096921,308725,451196
2096921,2096921,308332,451166
2096921,2096921,308709,451205
2096921,2096921,308615,451497
2096921,2096921,308582,451085
2096921,2096921,308381,451237
2096921,2096921,308509,451399
2096921,2096921,308370,451397
2096921,2096921,308222,451383
2096921,2096921,308379,451428
2096921,2096921,308628,451476
2096921,2096921,308167,451451
2096921,2096921,308473,451428
2096921,2096921,308470,451136
2096921,2096921,308432,451050
2096921,2096921,308573,451345
2096921,2096921,308607,451735
2096921,2096921,308418,451494
2096921,2096921,308629,451559
2096921,2096921,308711,451364
2096921,2096921,308783,451414
2096921,2096921,308695,451327
2096921,2096921,308579,451397
2096921,2096921,308350,451270
2096921,2096921,308602,451016
2096921,2096921,308441,451135
2096921,2096921,308683,451030
2096921,2096921,308490,451076
2096921,2096921,308666,451127
2096921,2096921,308377,451116
2096921,2096921,308616,451228
2096921,2096921,308224,451200
2096921,2096921,308149,451225
2096921,2096921,308552,451092
2096921,2096921,308404,451128
2096921,2096921,308413,451206
2096921,2096921,308569,451000
2096921,2096921,308522,451513
2096921,2096921,308653,451133
2096921,2096921,308840,451351
2096921,2096921,308606,451279
2096921,2096921,308568,451212
2096921,2096921,308395,451159
2096921,2096921,308364,451208
2096921,2096921,308539,450970
2096921,2096921,308326,450940
2096921,2096921,308438,450506
2096921,2096921,308350,451133
2096921,2096921,308305,450925
2096921,2096921,308525,450885
2096921,2096921,308572,451072
2096921,2096921,308344,450900
2096921,2096921,308360,451001
2096921,2096921,308451,450973
2096921,2096921,308405,450861
2096921,2096921,308592,450954
2096921,2096921,308194,450794
2096921,2096921,308517,450970
2096921,2096921,308702,451004
2096921,2096921,308623,451014
2096921,2096921,308497,450809
2096921,2096921,308452,450634
2096921,2096921,308464,450674
2096921,2096921,308100,450917
2096921,2096921,308036,450544
2096921,2096921,308296,451031
2096921,2096921,308432,450655
2096921,2096921,308499,450590
2096921,2096921,308547,450780
2096921,2096921,308202,450782
2096921,2096921,308451,450859
2096921,2096921,308481,450578
2096921,2096921,308683,450479
2096921,2096921,308348,450613
2096921,2096921,308073,450469
2096921,2096921,308244,450730
2096921,2096921,308559,450440
2096921,2096921,308307,450607
2096921,2096921,308356,450691
2096921,2096921,308105,450683
2096921,2096921,308083,450665
2096921,2096921,308205,450535
2096921,2096921,308107,450370
2096921,2096921,308200,450110
2096921,2096921,308154,450197
2096921,2096921,308354,450398
2096921,2096921,308331,450482
2096921,2096921,308209,451092
2096921,2096921,308321,450323
2096921,2096921,308219,450512
2096921,2096921,308135,450458
2096921,2096921,308281,450334
2096921,2096921,308076,450345
2096921,2096921,308044,450139
2096921,2096921,308063,449997
2096921,2096921,308071,450034
2096921,2096921,308232,450203
2096921,2096921,308264,450439
2096921,2096921,307904,450532
2096921,2096921,308127,450182
2096921,2096921,308155,450379
2096921,2096921,308221,450196
2096921,2096921,308135,450088
2096921,2096921,308276,450006
2096921,2096921,308261,450178
2096921,2096921,308423,450151
2096921,2096921,308373,450541
2096921,2096921,308105,450037
2096921,2096921,308122,450070
2096921,2096921,308307,449925
2096921,2096921,307860,449977
2096921,2096921,307700,450084
2096921,2096921,307703,449754
2096921,2096921,307779,449880
2096921,2096921,307842,449892
2096921,2096921,307780,449821
2096921,2096921,307760,449721
2096921,2096921,307853,449932
2096921,2096921,308068,450001
2096921,2096921,308007,449658
2096921,2096921,307877,449721
2096921,2096921,307873,449921
2096921,2096921,307877,450042
2096921,2096921,307812,449728
2096921,2096921,307696,449870
2096921,2096921,307679,449691
2096921,2096921,307699,449713
2096921,2096921,307689,449808
2096921,2096921,307762,449730
2096921,2096921,307728,449540
2096921,2096921,307752,449810
2096921,2096921,307505,449930
2096921,2096921,307720,449583
2096921,2096921,307650,449701
2096921,2096921,307722,449449
2096921,2096921,307642,449717
2096921,2096921,307655,449547
2096921,2096921,307671,449743
2096921,2096921,308035,449551
2096921,2096921,307588,449111
2096921,2096921,307557,449252
2096921,2096921,307310,449587
2096921,2096921,307138,449099
2096921,2096921,307162,449017
2096921,2096921,306710,448652
2096921,2096921,306794,448919
2096921,2096921,306930,448681
2096921,2096921,306623,448683
2096921,2096921,307047,448692
2096921,2096921,306472,448183
2096921,2096921,306167,448011
2096921,2096921,306188,448039
2096921,2096921,306116,448190
2096921,2096921,306081,448049
2096921,2096921,305601,447369
2096921,2096921,305471,447177
2096921,2096921,305610,447211
2096921,2096921,305872,447390
2096921,2096921,305333,447175
2096921,2096921,304984,446714
2096921,2096921,304899,446474
2096921,2096921,304734,446477
2096921,2096921,304489,446214
2096921,2096921,304260,446349
2096921,2096921,302625,444701
2096921,2096921,302797,444412
2096921,2096921,302726,444341
2096921,2096921,302719,444193
2096921,2096921,302455,444239
2096921,2096921,300957,442683
2096921,2096921,300408,441987
2096921,2096921,300235,442196
2096921,2096921,299931,442106
2096921,2096921,300016,441673
2096921,2096921,298818,440219
2096921,2096921,298794,440036
2096921,2096921,298633,440180
2096921,2096921,298494,440155
2096921,2096921,298679,440253
2096921,2096921,297659,439163
2096921,2096921,297235,438969
2096921,2096921,297264,438991
2096921,2096921,297168,438660
2096921,2096921,297453,438657
2096921,2096921,296488,437708
2096921,2096921,296140,437732
2096921,2096921,296373,437801
2096921,2096921,296261,437733
2096921,2096921,296077,437774
2096921,2096921,295721,437094
2096921,2096921,295515,437134
2096921,2096921,295283,437141
2096921,2096921,295464,436940
2096921,2096921,295492,436659
2096921,2096921,295080,436631
2096921,2096921,295011,436420
2096921,2096921,294957,436438
2096921,2096921,295196,436615
2096921,2096921,295444,436593
2096921,2096921,294990,436410
2096921,2096921,294877,436221
2096921,2096921,294739,436138
2096921,2096921,294802,436276
2096921,2096921,294498,436076
2096921,2096921,294749,436183
2096921,2096921,294455,436258
2096921,2096921,294749,436231
2096921,2096921,294642,436177
2096921,2096921,294663,436016
2096921,2096921,294665,436403
2096921,2096921,294607,436336
2096921,2096921,294462,436007
2096921,2096921,294414,435935
2096921,2096921,294486,435720
2096921,2096921,294783,435754
2096921,2096921,294859,435973
2096921,2096921,294983,436239
2096921,2096921,294872,436175
2096921,2096921,294970,436335
2096921,2096921,294855,436383
2096921,2096921,295093,436413
2096921,2096921,295048,436394
2096921,2096921,294828,436378
2096921,2096921,294733,436438
2096921,2096921,295134,436598
2096921,2096921,294928,436638
2096921,2096921,294956,436566
2096921,2096921,295002,436538
2096921,2096921,295048,436603
2096921,2096921,295444,437039
2096921,2096921,295416,436898
2096921,2096921,295607,437126
2096921,2096921,295704,436980
2096921,2096921,295626,436792
2096921,2096921,295906,437114
2096921,2096921,295910,437223
2096921,2096921,295947,437056
2096921,2096921,295818,437366
2096921,2096921,295769,437526
2096921,2096921,296171,437946
2096921,2096921,296145,437743
2096921,2096921,296088,437727
2096921,2096921,296142,437791
2096921,2096921,296003,437810
2096921,2096921,296653,438102
2096921,2096921,296746,438111
2096921,2096921,297066,438169
2096921,2096921,296649,438205
2096921,2096921,296627,438201
2096921,2096921,297118,438512
2096921,2096921,296942,438383
2096921,2096921,296924,438625
2096921,2096921,296919,438737
2096921,2096921,296914,438528
2096921,2096921,297373,438830
2096921,2096921,297283,438552
2096921,2096921,297202,438784
2096921,2096921,297431,438953
2096921,2096921,297343,439009
2096921,2096921,298040,439370
2096921,2096921,297732,439114
2096921,2096921,297545,439121
2096921,2096921,297641,439114
2096921,2096921,297902,439229
2096921,2096921,298073,439668
2096921,2096921,298126,439508
2096921,2096921,297915,439471
2096921,2096921,297950,440004
2096921,2096921,298292,439703
2096921,2096921,298243,440233
2096921,2096921,298403,440205
2096921,2096921,298692,439994
2096921,2096921,298274,440156
2096921,2096921,298489,440031
2096921,2096921,299083,440540
2096921,2096921,299052,440499
2096921,2096921,298965,440595
2096921,2096921,298719,440414
2096921,2096921,298708,440556
2096921,2096921,299319,440899
2096921,2096921,299593,440782
2096921,2096921,299334,440758
2096921,2096921,299464,440927
2096921,2096921,299528,440786
2096921,2096921,299915,441187
2096921,2096921,299863,441048
2096921,2096921,299968,441329
2096921,2096921,299980,441170
2096921,2096921,299757,441522
2096921,2096921,300266,441833
2096921,2096921,300245,441656
2096921,2096921,300458,441468
2096921,2096921,300222,441395
2096921,2096921,300051,441729
2096921,2096921,300265,441971
2096921,2096921,300615,441999
2096921,2096921,300626,442006
2096921,2096921,300575,442184
2096921,2096921,300556,442253
2096921,2096921,300574,442470
2096921,2096921,300635,442246
2096921,2096921,300544,441959
2096921,2096921,300673,442166
2096921,2096921,300433,442098
2096921,2096921,300775,442365
2096921,2096921,301143,442578
2096921,2096921,301009,442457
2096921,2096921,300750,442418
2096921,2096921,300980,442491
2096921,2096921,301023,442893
2096921,2096921,301270,442979
2096921,2096921,301310,442632
2096921,2096921,301153,442554
2096921,2096921,300701,442397
2096921,2096921,301039,442469
2096921,2096921,300728,442441
2096921,2096921,301057,442200
2096921,2096921,301099,442568
2096921,2096921,300869,442574
2096921,2096921,300822,442539
2096921,2096921,301102,442488
2096921,2096921,300904,442442
2096921,2096921,300976,442414
2096921,2096921,300907,442474
2096921,2096921,300729,442750
2096921,2096921,301158,442237
2096921,2096921,301111,442387
2096921,2096921,300880,442560
2096921,2096921,300784,442744
2096921,2096921,301025,442371
2096921,2096921,300951,442423
2096921,2096921,300766,442130
2096921,2096921,300352,442267
2096921,2096921,300681,442021
2096921,2096921,300848,441874
2096921,2096921,300578,442106
2096921,2096921,300642,442297
2096921,2096921,300729,442477
2096921,2096921,300768,442146
2096921,2096921,300705,442014
2096921,2096921,300588,441876
2096921,2096921,300467,441771
2096921,2096921,300383,441997
2096921,2096921,300377,441980
2096921,2096921,300288,441874
2096921,2096921,300400,441847
2096921,2096921,300449,441979
2096921,2096921,300774,442017
2096921,2096921,300375,442033
2096921,2096921,300557,441923
2096921,2096921,300317,442306
2096921,2096921,300126,441935
2096921,2096921,300328,441656
2096921,2096921,300363,441953
2096921,2096921,300091,441970
2096921,2096921,300136,441740
2096921,2096921,300169,441861
2096921,2096921,300356,442127
2096921,2096921,300286,442093
2096921,2096921,300683,442100
2096921,2096921,300456,441925
2096921,2096921,300457,442216
2096921,2096921,300297,441964
2096921,2096921,300561,441839
2096921,2096921,300556,442077
2096921,2096921,300402,442085
2096921,2096921,300340,442586
2096921,2096921,300690,442355
2096921,2096921,300553,442202
2096921,2096921,300852,442219
2096921,2096921,300770,442183
2096921,2096921,300819,442390
2096921,2096921,300637,442287
2096921,2096921,300456,442124
2096921,2096921,300746,442419
2096921,2096921,301116,442641
2096921,2096921,301211,442585
2096921,2096921,300975,442389
2096921,2096921,301016,442730
2096921,2096921,301137,442749
2096921,2096921,301313,442915
2096921,2096921,301090,442768
2096921,2096921,301309,442801
2096921,2096921,301193,442852
2096921,2096921,301241,442877
2096921,2096921,301529,443105
2096921,2096921,301819,443247
2096921,2096921,301978,443320
2096921,2096921,301773,443543
2096921,2096921,301970,443499
2096921,2096921,302353,443607
2096921,2096921,301789,443444
2096921,2096921,301597,443694
2096921,2096921,301812,443561
2096921,2096921,302076,443643
2096921,2096921,302091,443865
2096921,2096921,302310,443764
2096921,2096921,302093,443783
2096921,2096921,301982,443806
2096921,2096921,302510,443970
2096921,2096921,302679,444213
2096921,2096921,302469,444125
2096921,2096921,302648,444218
2096921,2096921,302091,443886
2096921,2096921,302763,444062
2096921,2096921,302852,444476
2096921,2096921,302898,444640
2096921,2096921,302784,444666
2096921,2096921,302866,444616
2096921,2096921,303014,444432
2096921,2096921,302975,444553
2096921,2096921,302817,444548
2096921,2096921,302823,444626
2096921,2096921,302689,444593
2096921,2096921,302836,444702
2096921,2096921,303154,444963
2096921,2096921,303349,444950
2096921,2096921,303374,444999
2096921,2096921,303386,444967
2096921,2096921,303852,445501
2096921,2096921,303577,445616
2096921,2096921,303555,445323
2096921,2096921,303576,445456
2096921,2096921,303186,445583
2096921,2096921,303897,445532
2096921,2096921,303873,445641
2096921,2096921,304225,445427
2096921,2096921,303981,445833
2096921,2096921,303829,445665
2096921,2096921,303977,446017
2096921,2096921,304122,446094
2096921,2096921,304140,446040
2096921,2096921,303846,445791
2096921,2096921,303798,445820
2096921,2096921,304183,446408
2096921,2096921,304210,446437
2096921,2096921,304139,446152
2096921,2096921,304694,446352
2096921,2096921,304473,446153
2096921,2096921,304846,446583
2096921,2096921,304826,446752
2096921,2096921,304691,446902
2096921,2096921,304614,446741
2096921,2096921,304693,446451
2096921,2096921,305053,446771
2096921,2096921,305099,446913
2096921,2096921,304954,446806
2096921,2096921,305122,446812
2096921,2096921,305092,447089
2096921,2096921,305145,447151
2096921,2096921,305016,447116
2096921,2096921,305177,447021
2096921,2096921,305077,446884
2096921,2096921,305038,447010
2096921,2096921,305302,447325
2096921,2096921,305569,447689
2096921,2096921,305412,447644
2096921,2096921,305706,447623
2096921,2096921,305677,448025
2096921,2096921,305873,447665
2096921,2096921,305550,447696
2096921,2096921,305536,447692
2096921,2096921,305500,447670
2096921,2096921,305493,447638
2096921,2096921,305775,447936
2096921,2096921,305928,448096
2096921,2096921,305917,447853
2096921,2096921,305767,447971
2096921,2096921,305958,447899
2096921,2096921,306072,448166
2096921,2096921,306139,448585
2096921,2096921,306165,448218
2096921,2096921,306334,447919
2096921,2096921,305820,448010
2096921,2096921,306355,448404
2096921,2096921,306301,448461
2096921,2096921,306280,448377
2096921,2096921,306293,448422
2096921,2096921,306389,448531
2096921,2096921,306553,448542
2096921,2096921,306712,448839
2096921,2096921,306434,448933
2096921,2096921,306536,448800
2096921,2096921,306605,448700
2096921,2096921,306899,448900
2096921,2096921,306557,448956
2096921,2096921,306858,449210
2096921,2096921,306865,449164
2096921,2096921,306777,449370
2096921,2096921,306974,449333
2096921,2096921,307205,449226
2096921,2096921,306840,449714
2096921,2096921,306877,449464
2096921,2096921,307097,449475
2096921,2096921,307360,449318
2096921,2096921,307154,449298
2096921,2096921,307208,449805
2096921,2096921,307523,449573
2096921,2096921,307364,449966
2096921,2096921,307936,449816
2096921,2096921,307436,450120
2096921,2096921,307537,449932
2096921,2096921,307552,449780
2096921,2096921,307242,449677
2096921,2096921,307418,450037
2096921,2096921,307610,450143
2096921,2096921,307766,450132
2096921,2096921,307850,450139
2096921,2096921,307843,450293
2096921,2096921,307757,450634
2096921,2096921,307615,450324
2096921,2096921,307948,450199
2096921,2096921,307681,450201
2096921,2096921,307538,450510
2096921,2096921,307745,450422
2096921,2096921,308093,450683
2096921,2096921,308210,450632
2096921,2096921,308203,450477
2096921,2096921,308223,450660
2096921,2096921,308303,451061
2096921,2096921,308426,450674
2096921,2096921,308084,450733
2096921,2096921,308361,450817
2096921,2096921,308372,450772
2096921,2096921,308152,450971
2096921,2096921,308475,451155
2096921,2096921,308398,450987
2096921,2096921,308503,451064
2096921,2096921,308237,450985
2096921,2096921,308586,451403
2096921,2096921,308685,451432
2096921,2096921,308303,451220
2096921,2096921,307953,451295
2096921,2096921,308417,450936
2096921,2096921,308446,451203
2096921,2096921,308554,451317
2096921,2096921,308892,451460
2096921,2096921,309066,451580
2096921,2096921,308933,451801
2096921,2096921,308812,451829
2096921,2096921,308734,451879
2096921,2096921,308774,451638
2096921,2096921,308824,451752
2096921,2096921,309040,451689
2096921,2096921,308969,451912
2096921,2096921,309142,452244
2096921,2096921,309488,452020
2096921,2096921,309405,451973
2096921,2096921,309161,451973
2096921,2096921,309266,452422
2096921,2096921,309243,452507
2096921,2096921,309033,452143
2096921,2096921,309186,451866
2096921,2096921,309225,451913
2096921,2096921,309506,452324
2096921,2096921,309193,452472
2096921,2096921,309375,452483
2096921,2096921,309350,452281
2096921,2096921,309651,452337
2096921,2096921,309764,452563
2096921,2096921,309601,452917
2096921,2096921,309485,452808
2096921,2096921,309689,452669
2096921,2096921,309830,452679
2096921,2096921,309573,452788
2096921,2096921,309954,452783
2096921,2096921,310072,452728
2096921,2096921,309653,452994
2096921,2096921,309539,452914
2096921,2096921,310008,452657
2096921,2096921,309962,453169
2096921,2096921,309880,453244
2096921,2096921,309933,453163
2096921,2096921,310048,453105
2096921,2096921,310207,453372
2096921,2096921,310267,453251
2096921,2096921,310191,453456
2096921,2096921,310369,453373
2096921,2096921,310190,453220
2096921,2096921,310343,453590
2096921,2096921,310387,453763
2096921,2096921,310325,453482
2096921,2096921,310284,453513
2096921,2096921,310472,453221
2096921,2096921,310606,453526
2096921,2096921,310367,453529
2096921,2096921,310585,453833
2096921,2096921,310431,453999
2096921,2096921,310802,453755
2096921,2096921,310880,454191
2096921,2096921,310656,454224
2096921,2096921,310689,454136
2096921,2096921,310392,453947
2096921,2096921,310618,454052
2096921,2096921,310846,453967
2096921,2096921,310732,453996
2096921,2096921,310778,454167
2096921,2096921,310825,454393
2096921,2096921,310921,454120
2096921,2096921,310925,454314
2096921,2096921,310882,454111
2096921,2096921,310882,454297
2096921,2096921,310885,454141
2096921,2096921,310689,454011
2096921,2096921,310903,454285
2096921,2096921,311114,454377
2096921,2096921,311416,454332
2096921,2096921,311036,454825
2096921,2096921,311168,454231
2096921,2096921,311477,454836
2096921,2096921,311460,454406
2096921,2096921,311074,454756
2096921,2096921,311006,454465
2096921,2096921,311269,454388
2096921,2096921,311584,454781
2096921,2096921,311527,454628
2096921,2096921,311456,454604
2096921,2096921,311439,454611
2096921,2096921,311336,454921
2096921,2096921,311443,454922
2096921,2096921,311295,454796
2096921,2096921,311241,454560
2096921,2096921,311226,454651
2096921,2096921,311308,454674
2096921,2096921,311181,454772
2096921,2096921,311478,454648
2096921,2096921,311210,454977
2096921,2096921,311428,454946
2096921,2096921,311292,455076
2096921,2096921,311419,455275
2096921,2096921,311361,455094
2096921,2096921,311469,455114
2096921,2096921,311139,454955
2096921,2096921,311554,454906
2096921,2096921,311477,455112
2096921,2096921,311619,455086
2096921,2096921,311649,455415
2096921,2096921,311568,455318
2096921,2096921,311422,455621
2096921,2096921,311542,455497
2096921,2096921,311647,455360
2096921,2096921,311395,455388
2096921,2096921,311723,455250
2096921,2096921,311454,454807
2096921,2096921,310880,454784
2096921,2096921,311194,454887
2096921,2096921,311250,454990
2096921,2096921,311286,454883
2096921,2096921,311294,454901
2096921,2096921,310897,454580
2096921,2096921,310625,454360
2096921,2096921,310620,454275
2096921,2096921,310422,454478
2096921,2096921,310277,454352
2096921,2096921,309942,453771
2096921,2096921,310216,454216
2096921,2096921,309966,454087
2096921,2096921,310119,453584
2096921,2096921,310317,453891
2096921,2096921,309582,453067
2096921,2096921,309257,452925
2096921,2096921,309092,453024
2096921,2096921,309517,453214
2096921,2096921,309358,453187
2096921,2096921,307980,451805
2096921,2096921,307569,451535
2096921,2096921,307574,451376
2096921,2096921,307249,451205
2096921,2096921,307401,451508
2096921,2096921,305689,449555
2096921,2096921,305401,449082
2096921,2096921,304981,449303
2096921,2096921,305301,448886
2096921,2096921,305087,449151
2096921,2096921,303918,447823
2096921,2096921,303525,447308
2096921,2096921,303917,447332
2096921,2096921,303721,447533
2096921,2096921,303756,447740
2096921,2096921,302493,446710
2096921,2096921,302457,446525
2096921,2096921,302529,446538
2096921,2096921,302168,446343
2096921,2096921,302618,446061
2096921,2096921,301636,445655
2096921,2096921,301763,445574
2096921,2096921,301461,445558
2096921,2096921,301784,445537
2096921,2096921,301676,445448
2096921,2096921,300936,445015
2096921,2096921,300953,444918
2096921,2096921,300833,445239
2096921,2096921,301034,444836
2096921,2096921,300895,444994
2096921,2096921,300533,444787
2096921,2096921,300480,444475
2096921,2096921,300731,444548
2096921,2096921,300719,444765
2096921,2096921,300630,444527
2096921,2096921,300192,444409
2096921,2096921,300195,444287
2096921,2096921,300701,444697
2096921,2096921,300646,444421
2096921,2096921,300562,444412
2096921,2096921,300404,444535
2096921,2096921,300830,444424
2096921,2096921,300369,444471
2096921,2096921,300530,444574
2096921,2096921,300345,444788
2096921,2096921,300800,444901
2096921,2096921,300683,444512
2096921,2096921,300562,444603
2096921,2096921,300541,444489
2096921,2096921,300440,444721
2096921,2096921,300802,444738
2096921,2096921,300832,445048
2096921,2096921,300768,445180
2096921,2096921,300884,445197
2096921,2096921,300620,444977
2096921,2096921,301028,445263
2096921,2096921,301062,445369
2096921,2096921,301162,445447
2096921,2096921,300934,445345
2096921,2096921,300830,445054
2096921,2096921,301311,445571
2096921,2096921,301401,445482
2096921,2096921,301361,445623
2096921,2096921,301280,445548
2096921,2096921,301343,445833
2096921,2096921,301717,446252
2096921,2096921,301708,445981
2096921,2096921,301904,446161
2096921,2096921,301718,446125
2096921,2096921,301678,446148
2096921,2096921,302164,446610
2096921,2096921,302174,446301
2096921,2096921,302174,446604
2096921,2096921,302352,446445
2096921,2096921,301915,446641
2096921,2096921,302403,447024
2096921,2096921,302766,447025
2096921,2096921,302574,447204
2096921,2096921,302684,447229
2096921,2096921,302758,447238
2096921,2096921,303052,447702
2096921,2096921,303142,447737
2096921,2096921,303333,447859
2096921,2096921,303320,447783
2096921,2096921,303345,448169
2096921,2096921,304003,448267
2096921,2096921,303930,448519
2096921,2096921,303654,448364
2096921,2096921,303551,448344
2096921,2096921,303527,448258
2096921,2096921,304198,448977
2096921,2096921,304174,448897
2096921,2096921,304271,449088
2096921,2096921,304307,448945
2096921,2096921,304247,449042
2096921,2096921,304824,449446
2096921,2096921,304589,449395
2096921,2096921,304713,449605
2096921,2096921,304963,449564
2096921,2096921,304844,449224
2096921,2096921,305111,449934
2096921,2096921,305111,449958
2096921,2096921,305459,450030
2096921,2096921,305356,450221
2096921,2096921,305567,450219
2096921,2096921,305941,450440
2096921,2096921,305860,450457
2096921,2096921,305831,450638
2096921,2096921,305906,450352
2096921,2096921,305882,450265
2096921,2096921,305941,451039
2096921,2096921,306372,451052
2096921,2096921,306524,450923
2096921,2096921,306445,451255
2096921,2096921,306499,451238
2096921,2096921,307125,451740
2096921,2096921,306836,451974
2096921,2096921,307059,451876
2096921,2096921,307103,451744
2096921,2096921,307032,451825
2096921,2096921,307394,452269
2096921,2096921,307438,452539
2096921,2096921,307621,452410
2096921,2096921,307323,452450
2096921,2096921,307305,452336
2096921,2096921,307853,452893
2096921,2096921,307459,453085
2096921,2096921,307816,452862
2096921,2096921,307902,452746
2096921,2096921,307745,452536
2096921,2096921,307993,453137
2096921,2096921,308500,453357
2096921,2096921,308291,453564
2096921,2096921,308170,453243
2096921,2096921,308161,453447
2096921,2096921,308722,453600
2096921,2096921,308514,453765
2096921,2096921,308477,453729
2096921,2096921,308415,453822
2096921,2096921,308711,453598
2096921,2096921,308462,453775
2096921,2096921,308742,453949
2096921,2096921,308834,453950
2096921,2096921,309147,453907
2096921,2096921,308863,454002
2096921,2096921,308886,454368
2096921,2096921,309093,454147
2096921,2096921,309110,454281
2096921,2096921,308906,454349
2096921,2096921,308862,454493
2096921,2096921,308887,454583
2096921,2096921,308887,454334
2096921,2096921,309042,454438
2096921,2096921,309238,454639
2096921,2096921,309043,454226
2096921,2096921,309153,454404
2096921,2096921,309358,454682
2096921,2096921,309143,454622
2096921,2096921,309178,454401
2096921,2096921,309253,454304
2096921,2096921,309129,454504
2096921,2096921,309093,454518
2096921,2096921,309174,454372
2096921,2096921,309148,454465
2096921,2096921,309320,454501
2096921,2096921,309251,454330
2096921,2096921,308891,454488
2096921,2096921,309065,454536
2096921,2096921,308860,454394
2096921,2096921,308991,454180
2096921,2096921,308926,454403
2096921,2096921,308684,454565
2096921,2096921,309043,454496
2096921,2096921,309312,454620
2096921,2096921,309002,454540
2096921,2096921,309092,454570
2096921,2096921,309194,454314
2096921,2096921,309006,454280
2096921,2096921,308729,454165
2096921,2096921,308842,454265
2096921,2096921,308939,454389
2096921,2096921,308733,454389
2096921,2096921,308980,454384
2096921,2096921,309012,454343
2096921,2096921,308820,454255
2096921,2096921,308992,454501
2096921,2096921,309077,454581
2096921,2096921,309019,454391
2096921,2096921,308812,454295
2096921,2096921,308605,454504
2096921,2096921,308927,454422
2096921,2096921,308840,454524
2096921,2096921,309296,454452
2096921,2096921,309026,454568
2096921,2096921,309131,454559
2096921,2096921,309091,454766
2096921,2096921,309456,454757
2096921,2096921,309024,454787
2096921,2096921,308917,454352
2096921,2096921,309051,454617
2096921,2096921,309132,454599
2096921,2096921,309056,455091
2096921,2096921,309685,455092
2096921,2096921,309374,454725
2096921,2096921,309415,454871
2096921,2096921,309684,455059
2096921,2096921,309541,455183
2096921,2096921,309215,455066
2096921,2096921,309240,454945
2096921,2096921,309437,455320
2096921,2096921,309758,455509
2096921,2096921,309835,455326
2096921,2096921,310054,455367
2096921,2096921,310043,455615
2096921,2096921,309763,455429
2096921,2096921,310282,455940
2096921,2096921,310230,455910
2096921,2096921,310145,455831
2096921,2096921,310043,455713
2096921,2096921,310293,455774
2096921,2096921,310346,455821
2096921,2096921,310588,456128
2096921,2096921,310796,456343
2096921,2096921,310803,456492
2096921,2096921,310740,456486
2096921,2096921,310917,456780
2096921,2096921,310773,456747
2096921,2096921,311000,456819
2096921,2096921,310996,456536
2096921,2096921,310705,456654
2096921,2096921,310952,456876
2096921,2096921,310757,457101
2096921,2096921,311091,457039
2096921,2096921,311341,457301
2096921,2096921,311226,456805
2096921,2096921,311417,457247
2096921,2096921,311119,457257
2096921,2096921,311425,457122
2096921,2096921,311461,457158
2096921,2096921,311769,457293
2096921,2096921,311659,457451
2096921,2096921,311854,457488
2096921,2096921,311929,457728
2096921,2096921,311717,457716
2096921,2096921,311844,457626
2096921,2096921,312222,457950
2096921,2096921,312189,457800
2096921,2096921,312144,457619
2096921,2096921,312144,457771
2096921,2096921,312058,458040
2096921,2096921,312083,458346
2096921,2096921,312146,458338
2096921,2096921,312471,458228
2096921,2096921,312374,458162
2096921,2096921,312173,458104
2096921,2096921,312734,458112
2096921,2096921,312710,458593
2096921,2096921,312538,458494
2096921,2096921,312443,458416
2096921,2096921,312540,458254
2096921,2096921,312551,458603
2096921,2096921,312934,458346
2096921,2096921,312701,458734
2096921,2096921,313093,458802
2096921,2096921,313093,458785
2096921,2096921,313309,459054
2096921,2096921,313193,458986
2096921,2096921,312989,459177
2096921,2096921,313242,459237
2096921,2096921,313049,459129
2096921,2096921,313093,458711
2096921,2096921,313141,459352
2096921,2096921,313042,459090
2096921,2096921,313119,459222
2096921,2096921,313500,459246
2096921,2096921,313475,459484
2096921,2096921,313163,459640
2096921,2096921,313327,459439
2096921,2096921,313540,459459
2096921,2096921,313584,459571
2096921,2096921,314022,459673
2096921,2096921,313691,459607
2096921,2096921,313769,459753
2096921,2096921,313873,459842
2096921,2096921,313831,460102
2096921,2096921,313858,460074
2096921,2096921,314147,460218
2096921,2096921,314248,460166
2096921,2096921,313746,460327
2096921,2096921,314073,460176
2096921,2096921,313959,460200
2096921,2096921,314234,460451
2096921,2096921,314193,460258
2096921,2096921,314197,460411
2096921,2096921,313950,460207
2096921,2096921,314177,460322
2096921,2096921,314252,460326
2096921,2096921,314524,460434
2096921,2096921,314507,460422
2096921,2096921,314337,460318
2096921,2096921,314600,460446
2096921,2096921,314780,461040
2096921,2096921,314795,460570
2096921,2096921,314502,460323
2096921,2096921,314434,460848
2096921,2096921,314830,460834
2096921,2096921,314831,460845
2096921,2096921,314613,460977
2096921,2096921,314279,460749
2096921,2096921,314424,460852
2096921,2096921,314854,460820
2096921,2096921,314920,461019
2096921,2096921,314888,460921
2096921,2096921,314990,460791
2096921,2096921,314588,460887
2096921,2096921,315122,461073
2096921,2096921,314934,461039
2096921,2096921,314976,460841
2096921,2096921,314924,461026
2096921,2096921,315165,460833
2096921,2096921,315347,460899
2096921,2096921,315169,461421
2096921,2096921,315042,461410
2096921,2096921,315447,461128
2096921,2096921,315404,461295
2096921,2096921,315209,461212
2096921,2096921,315512,461205
2096921,2096921,315502,461383
2096921,2096921,315135,461476
2096921,2096921,315580,461328
2096921,2096921,315417,461483
2096921,2096921,315434,461523
2096921,2096921,315615,461648
2096921,2096921,315255,461685
2096921,2096921,315565,461629
2096921,2096921,315772,461433
2096921,2096921,315503,461509
2096921,2096921,315402,461582
2096921,2096921,315385,461549
2096921,2096921,315875,461500
2096921,2096921,315974,461798
2096921,2096921,316211,461794
2096921,2096921,316178,461797
2096921,2096921,316192,461506
2096921,2096921,316039,461833
2096921,2096921,315560,461661
2096921,2096921,315731,461991
2096921,2096921,315840,461913
2096921,2096921,315716,462012
2096921,2096921,315711,461884
2096921,2096921,315789,461998
2096921,2096921,316058,461935
2096921,2096921,316130,462026
2096921,2096921,316136,462095
2096921,2096921,316049,462039
2096921,2096921,316090,462042
2096921,2096921,316008,461947
2096921,2096921,316008,462063
2096921,2096921,316202,462024
2096921,2096921,315949,461766
2096921,2096921,315845,462044
2096921,2096921,315919,462152
2096921,2096921,316274,462129
2096921,2096921,316053,462008
2096921,2096921,316211,462159
2096921,2096921,316179,462064
2096921,2096921,316145,461926
2096921,2096921,316195,461999
2096921,2096921,315873,461867
2096921,2096921,315929,462019
2096921,2096921,316068,461906
2096921,2096921,316120,462414
2096921,2096921,316241,462103
2096921,2096921,316198,462448
2096921,2096921,316212,462362
2096921,2096921,316588,462342
2096921,2096921,316338,462396
2096921,2096921,316302,462411
2096921,2096921,316323,462559
2096921,2096921,316199,462482
2096921,2096921,316413,462327
2096921,2096921,316309,462548
2096921,2096921,316268,462605
2096921,2096921,316350,462435
2096921,2096921,316302,462653
2096921,2096921,316313,462579
2096921,2096921,316590,462425
2096921,2096921,316545,462445
2096921,2096921,316546,462715
2096921,2096921,316382,462788
2096921,2096921,316267,462422
2096921,2096921,316642,462400
2096921,2096921,316767,462333
2096921,2096921,316579,462653
2096921,2096921,316653,462831
2096921,2096921,316784,462851
2096921,2096921,316909,462786
2096921,2096921,316638,462684
2096921,2096921,316653,462881
2096921,2096921,316553,462582
2096921,2096921,316352,462588
2096921,2096921,316551,462613
2096921,2096921,316780,462564
2096921,2096921,316541,462380
2096921,2096921,316521,462701
2096921,2096921,316855,462799
2096921,2096921,316994,463034
2096921,2096921,316914,462635
2096921,2096921,316521,462570
2096921,2096921,316831,463033
2096921,2096921,316889,462969
2096921,2096921,317136,462773
2096921,2096921,317011,462708
2096921,2096921,316965,462764
2096921,2096921,317045,463080
2096921,2096921,316676,463147
2096921,2096921,316806,462907
2096921,2096921,316523,462860
2096921,2096921,316591,462782
2096921,2096921,316684,462690
2096921,2096921,316813,463265
2096921,2096921,317057,463070
2096921,2096921,317170,463055
2096921,2096921,317252,463030
2096921,2096921,317215,463060
2096921,2096921,317016,463142
2096921,2096921,317148,463473
2096921,2096921,316949,463103
2096921,2096921,316992,462996
2096921,2096921,316935,463172
2096921,2096921,316728,463105
2096921,2096921,316772,462953
2096921,2096921,317001,463206
2096921,2096921,316991,463059
2096921,2096921,316759,462993
2096921,2096921,316915,463152
2096921,2096921,316611,463182
2096921,2096921,317106,463011
2096921,2096921,316946,462934
2096921,2096921,317218,463152
2096921,2096921,317250,463094
2096921,2096921,316889,463174
2096921,2096921,316959,463097
2096921,2096921,316767,463197
2096921,2096921,317047,463122
2096921,2096921,317235,463119
2096921,2096921,316948,462999
2096921,2096921,316968,462922
2096921,2096921,317014,463021
2096921,2096921,316732,463078
2096921,2096921,316961,463215
2096921,2096921,316745,463120
2096921,2096921,316784,462998
2096921,2096921,316932,463063
2096921,2096921,317005,463427
2096921,2096921,317094,463094
2096921,2096921,316987,463124
2096921,2096921,317094,463253
2096921,2096921,317015,462922
2096921,2096921,316790,463236
2096921,2096921,316884,462797
2096921,2096921,316906,463049
2096921,2096921,317181,463010
2096921,2096921,316944,463179
2096921,2096921,316916,462701
2096921,2096921,316776,463033
2096921,2096921,316460,462591
2096921,2096921,316731,463065
2096921,2096921,316885,463094
2096921,2096921,316654,463174
2096921,2096921,316938,462842
2096921,2096921,317164,462833
2096921,2096921,317097,463021
2096921,2096921,317191,463142
2096921,2096921,316890,462885
2096921,2096921,316622,462721
2096921,2096921,316647,462653
2096921,2096921,316543,462769
2096921,2096921,316479,462267
2096921,2096921,316090,462521
2096921,2096921,316212,462244
2096921,2096921,315974,462321
2096921,2096921,315804,462109
2096921,2096921,316096,462045
2096921,2096921,316206,462081
2096921,2096921,315503,461715
2096921,2096921,315559,461438
2096921,2096921,315333,461387
2096921,2096921,315339,461165
2096921,2096921,315370,461375
2096921,2096921,314692,460534
2096921,2096921,314626,461000
2096921,2096921,314712,460639
2096921,2096921,314783,460583
2096921,2096921,314473,460799
2096921,2096921,314135,460094
2096921,2096921,313838,459707
2096921,2096921,313776,459639
2096921,2096921,313621,459604
2096921,2096921,313670,459776
2096921,2096921,312036,458266
2096921,2096921,311775,457377
2096921,2096921,311775,457749
2096921,2096921,311789,457943
2096921,2096921,312011,457725
2096921,2096921,310085,455742
2096921,2096921,309423,455203
2096921,2096921,309344,454789
2096921,2096921,309300,454827
2096921,2096921,309299,454905
2096921,2096921,307692,453454
2096921,2096921,307351,453221
2096921,2096921,307628,453306
2096921,2096921,307753,453328
2096921,2096921,307638,453430
2096921,2096921,306650,452409
2096921,2096921,306197,452165
2096921,2096921,306108,451776
2096921,2096921,306156,451912
2096921,2096921,305964,451722
2096921,2096921,305244,450939
2096921,2096921,305266,450733
2096921,2096921,305319,450694
2096921,2096921,305223,450697
2096921,2096921,305103,450733
2096921,2096921,304519,450160
2096921,2096921,304353,449985
2096921,2096921,304491,449862
2096921,2096921,304113,449880
2096921,2096921,304063,449667
2096921,2096921,303893,449177
2096921,2096921,303650,449221
2096921,2096921,303965,449293
2096921,2096921,303698,449229
2096921,2096921,303735,449290
2096921,2096921,303502,449194
2096921,2096921,303435,448968
2096921,2096921,303381,449014
2096921,2096921,303406,448730
2096921,2096921,303162,448789
2096921,2096921,303139,448746
2096921,2096921,303254,448882
2096921,2096921,303311,448868
2096921,2096921,303015,448838
2096921,2096921,303297,448695
2096921,2096921,303238,448924
2096921,2096921,303445,448889
2096921,2096921,303451,448751
2096921,2096921,303232,448374
2096921,2096921,303187,448769
2096921,2096921,303255,448422
2096921,2096921,303226,448541
2096921,2096921,303333,448769
2096921,2096921,303333,448574
2096921,2096921,303100,448864
2096921,2096921,303390,448785
2096921,2096921,303299,448457
2096921,2096921,303039,448679
2096921,2096921,303296,448432
2096921,2096921,303479,448528
2096921,2096921,303642,448741
2096921,2096921,303513,448621
2096921,2096921,303440,448715
2096921,2096921,303310,448922
2096921,2096921,303698,448870
2096921,2096921,303969,448997
2096921,2096921,303785,449099
2096921,2096921,303538,448935
2096921,2096921,303720,448928
2096921,2096921,303823,449006
2096921,2096921,303868,449332
2096921,2096921,303680,449170
2096921,2096921,303889,449190
2096921,2096921,303890,449258
2096921,2096921,303911,449165
2096921,2096921,304505,449593
2096921,2096921,304261,449545
2096921,2096921,304494,449136
2096921,2096921,304247,449526
2096921,2096921,304309,449593
2096921,2096921,304534,449897
2096921,2096921,304783,450162
2096921,2096921,304935,450060
2096921,2096921,304810,450133
2096921,2096921,304834,449896
2096921,2096921,305196,450386
2096921,2096921,305123,450439
2096921,2096921,304917,450232
2096921,2096921,304843,450426
2096921,2096921,305045,449900
2096921,2096921,305145,450220
2096921,2096921,305421,450496
2096921,2096921,305382,450601
2096921,2096921,305374,450813
2096921,2096921,305362,450511
2096921,2096921,305791,450735
2096921,2096921,305641,450884
2096921,2096921,305454,450640
2096921,2096921,305460,450801
2096921,2096921,305740,450732
2096921,2096921,305739,450906
2096921,2096921,306057,450896
2096921,2096921,305731,451000
2096921,2096921,305848,451040
2096921,2096921,305947,451210
2096921,2096921,306033,451363
2096921,2096921,306494,451338
2096921,2096921,306412,451260
2096921,2096921,305945,451293
2096921,2096921,306109,451427
2096921,2096921,306331,451778
2096921,2096921,306563,451599
2096921,2096921,306812,451594
2096921,2096921,306575,451685
2096921,2096921,306536,451679
2096921,2096921,306846,452017
2096921,2096921,306796,452107
2096921,2096921,306915,451925
2096921,2096921,306935,451868
2096921,2096921,307114,451993
2096921,2096921,307206,452164
2096921,2096921,307198,452337
2096921,2096921,307415,452386
2096921,2096921,307309,452571
2096921,2096921,307443,452432
2096921,2096921,307357,452748
2096921,2096921,307518,452424
2096921,2096921,307474,452149
2096921,2096921,307549,452318
2096921,2096921,307480,452354
2096921,2096921,307393,452545
2096921,2096921,307484,452907
2096921,2096921,307926,452656
2096921,2096921,307809,452689
2096921,2096921,307976,452588
2096921,2096921,307827,452702
2096921,2096921,307610,452631
2096921,2096921,307801,452606
2096921,2096921,307762,452573
2096921,2096921,307737,452622
2096921,2096921,307987,452596
2096921,2096921,307965,452528
2096921,2096921,308123,452698
2096921,2096921,308013,452520
2096921,2096921,308035,452626
2096921,2096921,308122,452976
2096921,2096921,308090,452645
2096921,2096921,307776,452655
2096921,2096921,307813,452744
2096921,2096921,307683,452604
2096921,2096921,307656,452691
2096921,2096921,307661,452562
2096921,2096921,307667,452727
2096921,2096921,307939,452548
2096921,2096921,307924,452444
2096921,2096921,307959,452460
2096921,2096921,308014,452533
2096921,2096921,307697,452422
2096921,2096921,307888,452467
2096921,2096921,307684,452418
2096921,2096921,307579,452054
2096921,2096921,307795,452179
2096921,2096921,307514,452266
2096921,2096921,307876,452130
2096921,2096921,307787,452056
2096921,2096921,307203,451962
2096921,2096921,307212,451904
2096921,2096921,307049,451644
2096921,2096921,307069,451975
2096921,2096921,307113,451876
2096921,2096921,306929,451462
2096921,2096921,306974,451480
2096921,2096921,307111,451517
2096921,2096921,307120,451456
2096921,2096921,307230,451685
2096921,2096921,306781,451381
2096921,2096921,306391,451220
2096921,2096921,306669,451254
2096921,2096921,306757,451307
2096921,2096921,306606,451242
2096921,2096921,306700,451043
2096921,2096921,306693,450966
2096921,2096921,306655,451089
2096921,2096921,306640,451180
2096921,2096921,306533,450883
2096921,2096921,306541,450667
2096921,2096921,306265,450882
2096921,2096921,306320,450577
2096921,2096921,306152,450840
2096921,2096921,306157,450621
2096921,2096921,306437,450471
2096921,2096921,306383,450320
2096921,2096921,306340,450685
2096921,2096921,306393,450526
2096921,2096921,306335,450603
2096921,2096921,306346,450441
2096921,2096921,305873,450451
2096921,2096921,306279,450465
2096921,2096921,306263,450520
2096921,2096921,306517,450600
2096921,2096921,306208,450510
2096921,2096921,306087,450258
2096921,2096921,306286,450304
2096921,2096921,306370,450172
2096921,2096921,306285,450374
2096921,2096921,306034,450293
2096921,2096921,306383,450386
2096921,2096921,306059,450225
2096921,2096921,306116,450294
2096921,2096921,305795,450446
2096921,2096921,306524,450246
2096921,2096921,306523,450044
2096921,2096921,306529,450462
2096921,2096921,306320,450846
2096921,2096921,306399,450936
2096921,2096921,306759,450904
2096921,2096921,306915,450912
2096921,2096921,306869,450720
2096921,2096921,306665,450933
2096921,2096921,306766,450443
2096921,2096921,306688,450748
2096921,2096921,306946,450546
2096921,2096921,306937,450827
2096921,2096921,306754,450778
2096921,2096921,306971,450819
2096921,2096921,306759,451105
2096921,2096921,307040,450952
2096921,2096921,306729,450832
2096921,2096921,307040,450476
2096921,2096921,306792,450780
2096921,2096921,306939,450922
2096921,2096921,307017,451323
2096921,2096921,307335,451204
2096921,2096921,307184,451105
2096921,2096921,306892,451153
2096921,2096921,307280,451342
2096921,2096921,307167,451249
2096921,2096921,306995,450849
2096921,2096921,307103,450969
2096921,2096921,306974,451247
2096921,2096921,307222,450956
2096921,2096921,307332,451087
2096921,2096921,307457,451120
2096921,2096921,307454,451312
2096921,2096921,307306,451157
2096921,2096921,307383,451229
2096921,2096921,307313,450748
2096921,2096921,307335,450779
2096921,2096921,307341,451004
2096921,2096921,307429,450838
2096921,2096921,307330,451141
2096921,2096921,307463,451261
2096921,2096921,307616,451255
2096921,2096921,307730,451191
2096921,2096921,307962,451333
2096921,2096921,307984,451382
2096921,2096921,307515,451333
2096921,2096921,307547,451344
2096921,2096921,307415,451144
2096921,2096921,307571,451049
2096921,2096921,307729,451253
2096921,2096921,307851,451397
2096921,2096921,307742,451329
2096921,2096921,307750,451361
2096921,2096921,307662,451604
2096921,2096921,307792,451306
2096921,2096921,307628,451279
2096921,2096921,307638,451151
2096921,2096921,307929,451340
2096921,2096921,307890,451394
2096921,2096921,307702,451373
2096921,2096921,308050,451315
2096921,2096921,307999,451638
2096921,2096921,308152,451532
2096921,2096921,308308,451510
2096921,2096921,308046,451724
2096921,2096921,308169,452067
2096921,2096921,308276,451721
2096921,2096921,308063,451708
2096921,2096921,308000,451843
2096921,2096921,308266,451425
2096921,2096921,308399,451619
2096921,2096921,308239,451712
2096921,2096921,308417,451616
2096921,2096921,308273,451963
2096921,2096921,308206,451761
2096921,2096921,308462,452117
2096921,2096921,308088,452067
2096921,2096921,308258,451828
2096921,2096921,308133,451375
2096921,2096921,308197,451684
2096921,2096921,308507,451723
2096921,2096921,308490,451951
2096921,2096921,308388,451910
2096921,2096921,308688,451819
2096921,2096921,308338,452134
2096921,2096921,308450,451843
2096921,2096921,308524,451679
2096921,2096921,308366,451737
2096921,2096921,308240,451572
2096921,2096921,308316,451698
2096921,2096921,308486,451416
2096921,2096921,308594,451797
2096921,2096921,308451,451912
2096921,2096921,308464,452180
2096921,2096921,308679,451900
2096921,2096921,308731,451982
2096921,2096921,308798,451650
2096921,2096921,308586,451702
2096921,2096921,308494,451731
2096921,2096921,308773,451812
2096921,2096921,308561,451949
2096921,2096921,308803,451881
2096921,2096921,308599,452118
2096921,2096921,308564,451975
2096921,2096921,308790,451965
2096921,2096921,308702,451759
2096921,2096921,308664,451757
2096921,2096921,308473,451632
2096921,2096921,308554,451724
2096921,2096921,308743,451529
2096921,2096921,308582,451709
2096921,2096921,308519,451408
2096921,2096921,308406,451738
2096921,2096921,308448,451787
2096921,2096921,308444,451616
2096921,2096921,308527,451741
2096921,2096921,308899,451989
2096921,2096921,308472,451765
2096921,2096921,308793,451855
2096921,2096921,308601,451842
2096921,2096921,308832,451777
2096921,2096921,308542,452095
2096921,2096921,308884,451988
2096921,2096921,308846,451922
2096921,2096921,308942,451778
2096921,2096921,308862,451433
2096921,2096921,309012,451324
2096921,2096921,308650,451420
2096921,2096921,308783,451563
2096921,2096921,308583,451435
2096921,2096921,308775,451606
2096921,2096921,309020,451786
2096921,2096921,309011,451682
2096921,2096921,308819,451907
2096921,2096921,308737,451944
2096921,2096921,308918,451840
2096921,2096921,308825,451556
2096921,2096921,308633,451640
2096921,2096921,308713,451420
2096921,2096921,308568,451402
2096921,2096921,308649,451552
2096921,2096921,308808,451577
2096921,2096921,309060,451520
2096921,2096921,308848,451651
2096921,2096921,308807,451522
2096921,2096921,308663,451568
2096921,2096921,308823,451551
2096921,2096921,308802,451573
2096921,2096921,308810,451272
2096921,2096921,308853,451261
2096921,2096921,308589,451007
2096921,2096921,308660,451373
2096921,2096921,308729,451296
2096921,2096921,308716,451315
2096921,2096921,308790,451074
2096921,2096921,308766,451154
2096921,2096921,308640,451383
2096921,2096921,308703,451429
2096921,2096921,308549,451468
2096921,2096921,308776,451566
2096921,2096921,308872,451448
2096921,2096921,308818,451440
2096921,2096921,308709,451457
2096921,2096921,308860,451608
2096921,2096921,308740,451237
2096921,2096921,308614,451323
2096921,2096921,308645,451192
2096921,2096921,308449,451000
2096921,2096921,308552,451139
2096921,2096921,308681,451277
2096921,2096921,308660,451133
2096921,2096921,308999,451473
2096921,2096921,308788,451243
2096921,2096921,308895,451185
2096921,2096921,308577,451081
2096921,2096921,308730,451102
2096921,2096921,308613,451317
2096921,2096921,308795,451195
2096921,2096921,308450,451127
2096921,2096921,308375,450952
2096921,2096921,308308,450993
2096921,2096921,308641,451383
2096921,2096921,308728,451180
2096921,2096921,308633,451040
2096921,2096921,308323,451160
2096921,2096921,308375,451049
2096921,2096921,308520,451195
2096921,2096921,308359,450695
2096921,2096921,308513,450816
2096921,2096921,308585,451003
2096921,2096921,308496,450929
2096921,2096921,308873,450872
2096921,2096921,308663,451044
2096921,2096921,308553,450845
2096921,2096921,308446,451236
2096921,2096921,308514,450660
2096921,2096921,308721,451069
2096921,2096921,308379,450974
2096921,2096921,308512,450888
2096921,2096921,308532,450574
2096921,2096921,308323,450777
2096921,2096921,308272,450848
2096921,2096921,308399,451221
2096921,2096921,308407,450832
2096921,2096921,308355,450759
2096921,2096921,308417,450527
2096921,2096921,308520,450730
2096921,2096921,308453,450755
2096921,2096921,308373,450839
2096921,2096921,308392,450460
2096921,2096921,308472,450804
2096921,2096921,308445,450647
2096921,2096921,308665,450608
2096921,2096921,308781,450642
2096921,2096921,308418,450674
2096921,2096921,308349,450515
2096921,2096921,308088,450503
2096921,2096921,308247,450430
2096921,2096921,308032,450433
2096921,2096921,308165,450406
2096921,2096921,308388,450622
2096921,2096921,308249,450525
2096921,2096921,308396,450476
2096921,2096921,308213,450510
2096921,2096921,308214,450540
2096921,2096921,308249,450533
2096921,2096921,308131,450583
2096921,2096921,308157,450496
2096921,2096921,307945,450620
2096921,2096921,308089,450262
2096921,2096921,308332,450170
2096921,2096921,308338,450480
2096921,2096921,308370,450307
2096921,2096921,308203,450814
2096921,2096921,307918,450434
2096921,2096921,308253,450296
2096921,2096921,308084,450248
2096921,2096921,308000,450388
2096921,2096921,307828,450350
2096921,2096921,307829,450469
2096921,2096921,308053,450076
2096921,2096921,308306,450127
2096921,2096921,308427,450024
2096921,2096921,308155,450066
2096921,2096921,308034,450334
2096921,2096921,308080,450350
2096921,2096921,307868,450082
2096921,2096921,307710,450140
2096921,2096921,307852,450033
2096921,2096921,307997,450033
2096921,2096921,308015,449841
2096921,2096921,308060,449855
2096921,2096921,308040,449976
2096921,2096921,308266,450122
2096921,2096921,307956,449921
2096921,2096921,307991,449997
2096921,2096921,307963,450085
2096921,2096921,307931,449543
2096921,2096921,307696,449932
2096921,2096921,307770,449960
2096921,2096921,307685,449799
2096921,2096921,307776,450059
2096921,2096921,307802,449986
2096921,2096921,307842,449950
2096921,2096921,307545,449413
2096921,2096921,307433,449051
2096921,2096921,307287,449074
2096921,2096921,307216,449168
2096921,2096921,307229,449289
2096921,2096921,307080,449056
2096921,2096921,306580,448836
2096921,2096921,306913,449244
2096921,2096921,306906,449122
2096921,2096921,307068,449164
2096921,2096921,306754,448394
2096921,2096921,306439,448450
2096921,2096921,306457,448312
2096921,2096921,306385,448568
2096921,2096921,306419,448387
2096921,2096921,305809,447318
2096921,2096921,305529,447505
2096921,2096921,305428,447066
2096921,2096921,305375,447286
2096921,2096921,305792,447192
2096921,2096921,304791,446871
2096921,2096921,304722,446512
2096921,2096921,304824,446434
2096921,2096921,304566,446731
2096921,2096921,304575,446326
2096921,2096921,303197,444746
2096921,2096921,303049,444621
2096921,2096921,302492,444420
2096921,2096921,302828,444655
2096921,2096921,302763,444571
2096921,2096921,300695,442598
2096921,2096921,300480,442245
2096921,2096921,300371,441943
2096921,2096921,300046,441853
2096921,2096921,300529,441931
2096921,2096921,299184,440697
2096921,2096921,298794,440413
2096921,2096921,298821,440519
2096921,2096921,298778,440575
2096921,2096921,298818,440208
2096921,2096921,297901,439300
2096921,2096921,297370,438663
2096921,2096921,297349,438609
2096921,2096921,297128,438567
2096921,2096921,297064,438666
2096921,2096921,296567,438101
2096921,2096921,296285,438023
2096921,2096921,296544,437615
2096921,2096921,296626,438199
2096921,2096921,296483,438029
2096921,2096921,295840,437444
2096921,2096921,295819,437236
2096921,2096921,295544,436973
2096921,2096921,295529,437068
2096921,2096921,295531,436774
2096921,2096921,295008,436621
2096921,2096921,295145,436446
2096921,2096921,295243,436396
2096921,2096921,295078,436558
2096921,2096921,295178,436476
2096921,2096921,294879,436428
2096921,2096921,294693,436516
2096921,2096921,294671,436143
2096921,2096921,294399,436226
2096921,2096921,294513,436011
2096921,2096921,294570,436057
2096921,2096921,294522,435938
2096921,2096921,294665,435941
2096921,2096921,294445,435886
2096921,2096921,294515,436151
2096921,2096921,294578,436276
2096921,2096921,294625,436190
2096921,2096921,294539,435777
2096921,2096921,294572,436036
2096921,2096921,294501,435718
2096921,2096921,294629,436258
2096921,2096921,294647,436195
2096921,2096921,294814,436033
2096921,2096921,294852,436094
2096921,2096921,294875,436455
2096921,2096921,294842,436709
2096921,2096921,295005,436296
2096921,2096921,294596,436193
2096921,2096921,294743,436357
2096921,2096921,294553,436352
2096921,2096921,294832,436335
2096921,2096921,294859,436552
2096921,2096921,295398,436536
2096921,2096921,295149,436754
2096921,2096921,295097,436507
2096921,2096921,295388,436777
2096921,2096921,295363,436933
2096921,2096921,295312,436829
2096921,2096921,295415,436751
2096921,2096921,295101,436520
2096921,2096921,295537,437278
2096921,2096921,295711,437268
2096921,2096921,295928,437240
2096921,2096921,295884,437372
2096921,2096921,295706,437306
2096921,2096921,296132,437367
2096921,2096921,295904,437278
2096921,2096921,296111,437649
2096921,2096921,296091,437490
2096921,2096921,296205,437665
2096921,2096921,296631,437724
2096921,2096921,296781,438196
2096921,2096921,296506,438241
2096921,2096921,296463,438267
2096921,2096921,296701,437926
2096921,2096921,296961,438356
2096921,2096921,296839,438611
2096921,2096921,296941,438495
2096921,2096921,296899,438424
2096921,2096921,296782,438579
2096921,2096921,297437,438725
2096921,2096921,297550,438992
2096921,2096921,297405,439070
2096921,2096921,297476,438622
2096921,2096921,297411,439050
2096921,2096921,297838,439450
2096921,2096921,298090,439169
2096921,2096921,298112,439104
2096921,2096921,298016,439244
2096921,2096921,297957,439172
2096921,2096921,298127,439535
