2096921,2096921, 310420, 454917
2096921,2096921, 310531, 454891
2096921,2096921, 310556, 455150
2096921,2096921, 310335, 455098
2096921,2096921, 310629, 455120
2096921,2096921, 310895, 455750
2096921,2096921, 310959, 455527
2096921,2096921, 311012, 455695
2096921,2096921, 311173, 455689
2096921,2096921, 311385, 455745
2096921,2096921, 311185, 456003
2096921,2096921, 311263, 456337
2096921,2096921, 311227, 455752
2096921,2096921, 311122, 455969
2096921,2096921, 311266, 455662
2096921,2096921, 311428, 456075
2096921,2096921, 311234, 456076
2096921,2096921, 311549, 456543
2096921,2096921, 311597, 456302
2096921,2096921, 311907, 456410
2096921,2096921, 311784, 456826
2096921,2096921, 311736, 456731
2096921,2096921, 311672, 456716
2096921,2096921, 311565, 456775
2096921,2096921, 311743, 456704
2096921,2096921, 311955, 457057
2096921,2096921, 311939, 457101
2096921,2096921, 312201, 457117
2096921,2096921, 311923, 457099
2096921,2096921, 312169, 457077
2096921,2096921, 312139, 457522
2096921,2096921, 312541, 457608
2096921,2096921, 312429, 457411
2096921,2096921, 312418, 457674
2096921,2096921, 312325, 457745
2096921,2096921, 312598, 458027
2096921,2096921, 312924, 458155
2096921,2096921, 312967, 457940
2096921,2096921, 312794, 457933
2096921,2096921, 312813, 458172
2096921,2096921, 312757, 458416
2096921,2096921, 312794, 458241
2096921,2096921, 312864, 458308
2096921,2096921, 312781, 458062
2096921,2096921, 312736, 458421
2096921,2096921, 312978, 458578
2096921,2096921, 313057, 458838
2096921,2096921, 312897, 458837
2096921,2096921, 313106, 458893
2096921,2096921, 313362, 459094
2096921,2096921, 313678, 459370
2096921,2096921, 313367, 459192
2096921,2096921, 313281, 459062
2096921,2096921, 313451, 458928
2096921,2096921, 313576, 459285
2096921,2096921, 313538, 459122
2096921,2096921, 313383, 459111
2096921,2096921, 313308, 459255
2096921,2096921, 313562, 459469
2096921,2096921, 313703, 459433
2096921,2096921, 313791, 459604
2096921,2096921, 313783, 459911
2096921,2096921, 313741, 459656
2096921,2096921, 313810, 459757
2096921,2096921, 314142, 459605
2096921,2096921, 313614, 459671
2096921,2096921, 314079, 459961
2096921,2096921, 314113, 460002
2096921,2096921, 313936, 460086
2096921,2096921, 313902, 460026
2096921,2096921, 314230, 460125
2096921,2096921, 314097, 460476
2096921,2096921, 314336, 460207
2096921,2096921, 314188, 460192
2096921,2096921, 314250, 460367
2096921,2096921, 314209, 460210
2096921,2096921, 314335, 460217
2096921,2096921, 314365, 460363
2096921,2096921, 314419, 460648
2096921,2096921, 314486, 460916
2096921,2096921, 314587, 460787
2096921,2096921, 314528, 460562
2096921,2096921, 314450, 460417
2096921,2096921, 314541, 460665
2096921,2096921, 314873, 460787
2096921,2096921, 314835, 461083
2096921,2096921, 314816, 461097
2096921,2096921, 314968, 460972
2096921,2096921, 314862, 461138
2096921,2096921, 314962, 461132
2096921,2096921, 314762, 461207
2096921,2096921, 314765, 461356
2096921,2096921, 314714, 461219
2096921,2096921, 314774, 461332
2096921,2096921, 314917, 461064
2096921,2096921, 315238, 461222
2096921,2096921, 315187, 461427
2096921,2096921, 315148, 461646
2096921,2096921, 315142, 461391
2096921,2096921, 315358, 461581
2096921,2096921, 315135, 461836
2096921,2096921, 315137, 461694
2096921,2096921, 315070, 461563
2096921,2096921, 315162, 461524
2096921,2096921, 315063, 461384
2096921,2096921, 315198, 461427
2096921,2096921, 314728, 461568
2096921,2096921, 315130, 461870
2096921,2096921, 315200, 461621
2096921,2096921, 315520, 461702
2096921,2096921, 315285, 461889
2096921,2096921, 315593, 461869
2096921,2096921, 315488, 462054
2096921,2096921, 315605, 461974
2096921,2096921, 315776, 461961
2096921,2096921, 315521, 461886
2096921,2096921, 315691, 462151
2096921,2096921, 315597, 462213
2096921,2096921, 315583, 462328
2096921,2096921, 315669, 462326
2096921,2096921, 315641, 462071
2096921,2096921, 315721, 462083
2096921,2096921, 315288, 462204
2096921,2096921, 315714, 462134
2096921,2096921, 315742, 461950
2096921,2096921, 315499, 462442
2096921,2096921, 315746, 462254
2096921,2096921, 316022, 462576
2096921,2096921, 315993, 462538
2096921,2096921, 315755, 462452
2096921,2096921, 315804, 462675
2096921,2096921, 315749, 462284
2096921,2096921, 315714, 462384
2096921,2096921, 315668, 462325
2096921,2096921, 315475, 462437
2096921,2096921, 315616, 462233
2096921,2096921, 315924, 462649
2096921,2096921, 315900, 462565
2096921,2096921, 316199, 462617
2096921,2096921, 316214, 462767
2096921,2096921, 315804, 462840
2096921,2096921, 315817, 462681
2096921,2096921, 316058, 462509
2096921,2096921, 315976, 462522
2096921,2096921, 315912, 462723
2096921,2096921, 316063, 462655
2096921,2096921, 315635, 462782
2096921,2096921, 316077, 462890
2096921,2096921, 316137, 462758
2096921,2096921, 316410, 462567
2096921,2096921, 316134, 462902
2096921,2096921, 316229, 463003
2096921,2096921, 316242, 462815
2096921,2096921, 316062, 462940
2096921,2096921, 315876, 463121
2096921,2096921, 316180, 463096
2096921,2096921, 316359, 463213
2096921,2096921, 316180, 463053
2096921,2096921, 316304, 462863
2096921,2096921, 316206, 462935
2096921,2096921, 316390, 462872
2096921,2096921, 316130, 462994
2096921,2096921, 316216, 462815
2096921,2096921, 316411, 462939
2096921,2096921, 316356, 462876
2096921,2096921, 316333, 463249
2096921,2096921, 316285, 463222
2096921,2096921, 316304, 463258
2096921,2096921, 316509, 463341
2096921,2096921, 316473, 463394
2096921,2096921, 316425, 463412
2096921,2096921, 316615, 463387
2096921,2096921, 316446, 463106
2096921,2096921, 316306, 463065
2096921,2096921, 316225, 463094
2096921,2096921, 316223, 463260
2096921,2096921, 316375, 463327
2096921,2096921, 316623, 463366
2096921,2096921, 316655, 463225
2096921,2096921, 316547, 463234
2096921,2096921, 316402, 463220
2096921,2096921, 316711, 463197
2096921,2096921, 316570, 463392
2096921,2096921, 316582, 463579
2096921,2096921, 316141, 463424
2096921,2096921, 316144, 463152
2096921,2096921, 316421, 463215
2096921,2096921, 316521, 463366
2096921,2096921, 316656, 463389
2096921,2096921, 316441, 463409
2096921,2096921, 316281, 463013
2096921,2096921, 316068, 463522
2096921,2096921, 316257, 463341
2096921,2096921, 316359, 463243
2096921,2096921, 316300, 463333
2096921,2096921, 316630, 463291
2096921,2096921, 316305, 463159
2096921,2096921, 316287, 463358
2096921,2096921, 316592, 463493
2096921,2096921, 316622, 463628
2096921,2096921, 316208, 463561
2096921,2096921, 316185, 463471
2096921,2096921, 316475, 463364
2096921,2096921, 316304, 463108
2096921,2096921, 316326, 463296
2096921,2096921, 316530, 463421
2096921,2096921, 316601, 463709
2096921,2096921, 316785, 463581
2096921,2096921, 316560, 463520
2096921,2096921, 316692, 463317
2096921,2096921, 316677, 463235
2096921,2096921, 316482, 463419
2096921,2096921, 316196, 463327
2096921,2096921, 316214, 463197
2096921,2096921, 316601, 463172
2096921,2096921, 316467, 463367
2096921,2096921, 316209, 463430
2096921,2096921, 316430, 463562
2096921,2096921, 316483, 463722
2096921,2096921, 316596, 463697
2096921,2096921, 316537, 463517
2096921,2096921, 316641, 463544
2096921,2096921, 316555, 463367
2096921,2096921, 316178, 463315
2096921,2096921, 316194, 463448
2096921,2096921, 316675, 463165
2096921,2096921, 316574, 463293
2096921,2096921, 316394, 463325
2096921,2096921, 316632, 463759
2096921,2096921, 316140, 463298
2096921,2096921, 316189, 462889
2096921,2096921, 316255, 462539
2096921,2096921, 316200, 462538
2096921,2096921, 316026, 462605
2096921,2096921, 315685, 462700
2096921,2096921, 315744, 462419
2096921,2096921, 315591, 462528
2096921,2096921, 315847, 462453
2096921,2096921, 315769, 462332
2096921,2096921, 315359, 462233
2096921,2096921, 315302, 461372
2096921,2096921, 315440, 461396
2096921,2096921, 315090, 461252
2096921,2096921, 315214, 461383
2096921,2096921, 314496, 461210
2096921,2096921, 314360, 460426
2096921,2096921, 314274, 460190
2096921,2096921, 314291, 460542
2096921,2096921, 314164, 460781
2096921,2096921, 313637, 460438
2096921,2096921, 313597, 459544
2096921,2096921, 313121, 459003
2096921,2096921, 313724, 458928
2096921,2096921, 313363, 458880
2096921,2096921, 312230, 459085
2096921,2096921, 311587, 457016
2096921,2096921, 311465, 456736
2096921,2096921, 311639, 456522
2096921,2096921, 311550, 456585
2096921,2096921, 311605, 456553
2096921,2096921, 309813, 453971
2096921,2096921, 309175, 453351
2096921,2096921, 308870, 453398
2096921,2096921, 309018, 453252
2096921,2096921, 307756, 453393
2096921,2096921, 307548, 451542
2096921,2096921, 307229, 451100
2096921,2096921, 307268, 451125
2096921,2096921, 307281, 450862
2096921,2096921, 306499, 451184
2096921,2096921, 306098, 449519
2096921,2096921, 305936, 449238
2096921,2096921, 306147, 448919
2096921,2096921, 305848, 449250
2096921,2096921, 305215, 448837
2096921,2096921, 305108, 448274
2096921,2096921, 305065, 447779
2096921,2096921, 304966, 447805
2096921,2096921, 305097, 447848
2096921,2096921, 304626, 447612
2096921,2096921, 304652, 446721
2096921,2096921, 304145, 446689
2096921,2096921, 304303, 446970
2096921,2096921, 304116, 446629
2096921,2096921, 303632, 446669
2096921,2096921, 303781, 446264
2096921,2096921, 303907, 446134
2096921,2096921, 303841, 446142
2096921,2096921, 303912, 445907
2096921,2096921, 303887, 446263
2096921,2096921, 303755, 445815
2096921,2096921, 303555, 445651
2096921,2096921, 303257, 445420
2096921,2096921, 303457, 445630
2096921,2096921, 303550, 445574
2096921,2096921, 303566, 445312
2096921,2096921, 303601, 445329
2096921,2096921, 303471, 445275
2096921,2096921, 303360, 445596
2096921,2096921, 303394, 445443
2096921,2096921, 303426, 445418
2096921,2096921, 303394, 445408
2096921,2096921, 303036, 445405
2096921,2096921, 303375, 445437
2096921,2096921, 303335, 445218
2096921,2096921, 303483, 445599
2096921,2096921, 303465, 445390
2096921,2096921, 303642, 445901
2096921,2096921, 303590, 445904
2096921,2096921, 303636, 445539
2096921,2096921, 303590, 445718
2096921,2096921, 303524, 445754
2096921,2096921, 303590, 445982
2096921,2096921, 303702, 445604
2096921,2096921, 303684, 445647
2096921,2096921, 303675, 445812
2096921,2096921, 303809, 445796
2096921,2096921, 303699, 445820
2096921,2096921, 303819, 446112
2096921,2096921, 304150, 445864
2096921,2096921, 304434, 446440
2096921,2096921, 304280, 446468
2096921,2096921, 304019, 446656
2096921,2096921, 304134, 446401
2096921,2096921, 304239, 446786
2096921,2096921, 304432, 447108
2096921,2096921, 304388, 446769
2096921,2096921, 304364, 446874
2096921,2096921, 304265, 446975
2096921,2096921, 304724, 447126
2096921,2096921, 304761, 447623
2096921,2096921, 304848, 447573
2096921,2096921, 305112, 447543
2096921,2096921, 304825, 447725
2096921,2096921, 305072, 447729
2096921,2096921, 305327, 447792
2096921,2096921, 305132, 447897
2096921,2096921, 305057, 447893
2096921,2096921, 305348, 447914
2096921,2096921, 305505, 448234
2096921,2096921, 305629, 448427
2096921,2096921, 305426, 448601
2096921,2096921, 305581, 448500
2096921,2096921, 305794, 448535
2096921,2096921, 305973, 448695
2096921,2096921, 305884, 448681
2096921,2096921, 306044, 448723
2096921,2096921, 306044, 448887
2096921,2096921, 305832, 449206
2096921,2096921, 306213, 449251
2096921,2096921, 306022, 449462
2096921,2096921, 305865, 449280
2096921,2096921, 306034, 449663
2096921,2096921, 306171, 449269
2096921,2096921, 306473, 449601
2096921,2096921, 306684, 450058
2096921,2096921, 306540, 450181
2096921,2096921, 306527, 449985
2096921,2096921, 306536, 449710
2096921,2096921, 306916, 449991
2096921,2096921, 307167, 450257
2096921,2096921, 307125, 450732
2096921,2096921, 307012, 450321
2096921,2096921, 307273, 450516
2096921,2096921, 307153, 450280
2096921,2096921, 307561, 450744
2096921,2096921, 307367, 451003
2096921,2096921, 307524, 451105
2096921,2096921, 307525, 451122
2096921,2096921, 307627, 451161
2096921,2096921, 307713, 451431
2096921,2096921, 307829, 451604
2096921,2096921, 307797, 451484
2096921,2096921, 307453, 451441
2096921,2096921, 307812, 451344
2096921,2096921, 308006, 451638
2096921,2096921, 307933, 451830
2096921,2096921, 308358, 451961
2096921,2096921, 308121, 451897
2096921,2096921, 308349, 452176
2096921,2096921, 308393, 452452
2096921,2096921, 308344, 452482
2096921,2096921, 308503, 452243
2096921,2096921, 308273, 452280
2096921,2096921, 308182, 452228
2096921,2096921, 308595, 452404
2096921,2096921, 308556, 452591
2096921,2096921, 308808, 452809
2096921,2096921, 308549, 452626
2096921,2096921, 308664, 452881
2096921,2096921, 309018, 452781
2096921,2096921, 308788, 452853
2096921,2096921, 308538, 452853
2096921,2096921, 308737, 452896
2096921,2096921, 308732, 452716
2096921,2096921, 308672, 452830
2096921,2096921, 308705, 452941
2096921,2096921, 308682, 452839
2096921,2096921, 308832, 452930
2096921,2096921, 309031, 452855
2096921,2096921, 308857, 453128
2096921,2096921, 309062, 452834
2096921,2096921, 308735, 453036
2096921,2096921, 308745, 452640
2096921,2096921, 308490, 452811
2096921,2096921, 308527, 452908
2096921,2096921, 308682, 453078
2096921,2096921, 308640, 452774
2096921,2096921, 308959, 453049
2096921,2096921, 309028, 453135
2096921,2096921, 308945, 452908
2096921,2096921, 308888, 452578
2096921,2096921, 308691, 452838
2096921,2096921, 308775, 452708
2096921,2096921, 308598, 452847
2096921,2096921, 308519, 452123
2096921,2096921, 308379, 452570
2096921,2096921, 308616, 452382
2096921,2096921, 308470, 452725
2096921,2096921, 308364, 452459
2096921,2096921, 308064, 452176
2096921,2096921, 308701, 452081
2096921,2096921, 308367, 452250
2096921,2096921, 308327, 451887
2096921,2096921, 308239, 452054
2096921,2096921, 308053, 452037
2096921,2096921, 308029, 452075
2096921,2096921, 308171, 451935
2096921,2096921, 308359, 451970
2096921,2096921, 307967, 451983
2096921,2096921, 308243, 451583
2096921,2096921, 308154, 451650
2096921,2096921, 307846, 451505
2096921,2096921, 307782, 451520
2096921,2096921, 307609, 451408
2096921,2096921, 307778, 451431
2096921,2096921, 307938, 451248
2096921,2096921, 307856, 451179
2096921,2096921, 307964, 451328
2096921,2096921, 307871, 451604
2096921,2096921, 307682, 451356
2096921,2096921, 307698, 451252
2096921,2096921, 307610, 451246
2096921,2096921, 307469, 451215
2096921,2096921, 307528, 451292
2096921,2096921, 307467, 450987
2096921,2096921, 307504, 450965
2096921,2096921, 307492, 451084
2096921,2096921, 307531, 451049
2096921,2096921, 307545, 450954
2096921,2096921, 307418, 450843
2096921,2096921, 307297, 451102
2096921,2096921, 307300, 450828
2096921,2096921, 307280, 451010
2096921,2096921, 307272, 451024
2096921,2096921, 307296, 450972
2096921,2096921, 307508, 451081
2096921,2096921, 307554, 451112
2096921,2096921, 307616, 451006
2096921,2096921, 307896, 451010
2096921,2096921, 307569, 451134
2096921,2096921, 307520, 451205
2096921,2096921, 307508, 451102
2096921,2096921, 307125, 450565
2096921,2096921, 307546, 450599
2096921,2096921, 307986, 451089
2096921,2096921, 307854, 451257
2096921,2096921, 307667, 451252
2096921,2096921, 307774, 451361
2096921,2096921, 308016, 451498
2096921,2096921, 307909, 451863
2096921,2096921, 307832, 451851
2096921,2096921, 307679, 451668
2096921,2096921, 307940, 451196
2096921,2096921, 308015, 451433
2096921,2096921, 307989, 451625
2096921,2096921, 307932, 451680
2096921,2096921, 308082, 451888
2096921,2096921, 308214, 451850
2096921,2096921, 308532, 451696
2096921,2096921, 308458, 451944
2096921,2096921, 308213, 451900
2096921,2096921, 308427, 452074
2096921,2096921, 308067, 451956
2096921,2096921, 308336, 451970
2096921,2096921, 308340, 452080
2096921,2096921, 308429, 452239
2096921,2096921, 308752, 452115
2096921,2096921, 308793, 452455
2096921,2096921, 308599, 452237
2096921,2096921, 308793, 452528
2096921,2096921, 308683, 452075
2096921,2096921, 308708, 452217
2096921,2096921, 308368, 452093
2096921,2096921, 308448, 452103
2096921,2096921, 308752, 452399
2096921,2096921, 308943, 452544
2096921,2096921, 308690, 452350
2096921,2096921, 308576, 452457
2096921,2096921, 308737, 452648
2096921,2096921, 308701, 452617
2096921,2096921, 308879, 452795
2096921,2096921, 308685, 452816
2096921,2096921, 308764, 452584
2096921,2096921, 308819, 452354
2096921,2096921, 308965, 452742
2096921,2096921, 308958, 452832
2096921,2096921, 308835, 452889
2096921,2096921, 308934, 453019
2096921,2096921, 309007, 452798
2096921,2096921, 309077, 452843
2096921,2096921, 309023, 453118
2096921,2096921, 309067, 452899
2096921,2096921, 309026, 452875
2096921,2096921, 309258, 452818
2096921,2096921, 309223, 453058
2096921,2096921, 309484, 453362
2096921,2096921, 309289, 453221
2096921,2096921, 309333, 453407
2096921,2096921, 309366, 453217
2096921,2096921, 309225, 453568
2096921,2096921, 309315, 453694
2096921,2096921, 309176, 453287
2096921,2096921, 309240, 453156
2096921,2096921, 309320, 453418
2096921,2096921, 309485, 453485
2096921,2096921, 309671, 453608
2096921,2096921, 309419, 453427
2096921,2096921, 309348, 453391
2096921,2096921, 309584, 453303
2096921,2096921, 309543, 453607
2096921,2096921, 309600, 453581
2096921,2096921, 309347, 453616
2096921,2096921, 309535, 453509
2096921,2096921, 309441, 453550
2096921,2096921, 309490, 453569
2096921,2096921, 309544, 453641
2096921,2096921, 310040, 453881
2096921,2096921, 309658, 453905
2096921,2096921, 309807, 453953
2096921,2096921, 309978, 453785
2096921,2096921, 309334, 453760
2096921,2096921, 309564, 453740
2096921,2096921, 309711, 453565
2096921,2096921, 310012, 453526
2096921,2096921, 309824, 453813
2096921,2096921, 309914, 453754
2096921,2096921, 309732, 453786
2096921,2096921, 309850, 453945
2096921,2096921, 310134, 454126
2096921,2096921, 310135, 453842
2096921,2096921, 309950, 454099
2096921,2096921, 309789, 453880
2096921,2096921, 309898, 453897
2096921,2096921, 309942, 453741
2096921,2096921, 309964, 453869
2096921,2096921, 309833, 453939
2096921,2096921, 309968, 454140
2096921,2096921, 309963, 454256
2096921,2096921, 310367, 453999
2096921,2096921, 309868, 453943
2096921,2096921, 309921, 454215
2096921,2096921, 309789, 453865
2096921,2096921, 309837, 453960
2096921,2096921, 309845, 453973
2096921,2096921, 309859, 453883
2096921,2096921, 310094, 454177
2096921,2096921, 310215, 454068
2096921,2096921, 309967, 454227
2096921,2096921, 310060, 454127
2096921,2096921, 309646, 454336
2096921,2096921, 309820, 454482
2096921,2096921, 309726, 454153
2096921,2096921, 309577, 453909
2096921,2096921, 310050, 454302
2096921,2096921, 310083, 454153
2096921,2096921, 310065, 454306
2096921,2096921, 310259, 454398
2096921,2096921, 310026, 454367
2096921,2096921, 309884, 454140
2096921,2096921, 309857, 454180
2096921,2096921, 309947, 454429
2096921,2096921, 310020, 454263
2096921,2096921, 310320, 454191
2096921,2096921, 310080, 454291
2096921,2096921, 310391, 454330
2096921,2096921, 309935, 454259
2096921,2096921, 310181, 454291
2096921,2096921, 310124, 454372
2096921,2096921, 310027, 454491
2096921,2096921, 310103, 454395
2096921,2096921, 310033, 454204
2096921,2096921, 310122, 454178
2096921,2096921, 309778, 454243
2096921,2096921, 309963, 454303
2096921,2096921, 309820, 454141
2096921,2096921, 310108, 454094
2096921,2096921, 310003, 454227
2096921,2096921, 310291, 454381
2096921,2096921, 310364, 454386
2096921,2096921, 310160, 454530
2096921,2096921, 310084, 453999
2096921,2096921, 309953, 454095
2096921,2096921, 309930, 454069
2096921,2096921, 309955, 454075
2096921,2096921, 309943, 453933
2096921,2096921, 310081, 454162
2096921,2096921, 310199, 454203
2096921,2096921, 310147, 454296
2096921,2096921, 310057, 454250
2096921,2096921, 310108, 454180
2096921,2096921, 309914, 454063
2096921,2096921, 310091, 454289
2096921,2096921, 310045, 454103
2096921,2096921, 310113, 454395
2096921,2096921, 310077, 454145
2096921,2096921, 310166, 454215
2096921,2096921, 310052, 454112
2096921,2096921, 309963, 454312
2096921,2096921, 310123, 454241
2096921,2096921, 310122, 453958
2096921,2096921, 309933, 454285
2096921,2096921, 309706, 453767
2096921,2096921, 309772, 453862
2096921,2096921, 309810, 453748
2096921,2096921, 309593, 453893
2096921,2096921, 310028, 453668
2096921,2096921, 310145, 453837
2096921,2096921, 309792, 453901
2096921,2096921, 309761, 453695
2096921,2096921, 309684, 453635
2096921,2096921, 309835, 453832
2096921,2096921, 309881, 453796
2096921,2096921, 309719, 453964
2096921,2096921, 309940, 453633
2096921,2096921, 309727, 453570
2096921,2096921, 309828, 453785
2096921,2096921, 309760, 453643
2096921,2096921, 309775, 453377
2096921,2096921, 309792, 453873
2096921,2096921, 309762, 453837
2096921,2096921, 309908, 453795
2096921,2096921, 309562, 453594
2096921,2096921, 309628, 453369
2096921,2096921, 309730, 453645
2096921,2096921, 309657, 453616
2096921,2096921, 309671, 453591
2096921,2096921, 309758, 453468
2096921,2096921, 309847, 453567
2096921,2096921, 309692, 453512
2096921,2096921, 309789, 453453
2096921,2096921, 309602, 453757
2096921,2096921, 309561, 453254
2096921,2096921, 309668, 453507
2096921,2096921, 309628, 453428
2096921,2096921, 309669, 453282
2096921,2096921, 309631, 453239
2096921,2096921, 309816, 453263
2096921,2096921, 309496, 453380
2096921,2096921, 309640, 453613
2096921,2096921, 309513, 453647
2096921,2096921, 309839, 453238
2096921,2096921, 309610, 453120
2096921,2096921, 309513, 453492
2096921,2096921, 309442, 453671
2096921,2096921, 309691, 453466
2096921,2096921, 309555, 453607
2096921,2096921, 309543, 453484
2096921,2096921, 309544, 453408
2096921,2096921, 309503, 453282
2096921,2096921, 309492, 453296
2096921,2096921, 309416, 452990
2096921,2096921, 309455, 452989
2096921,2096921, 309353, 453158
2096921,2096921, 309437, 453403
2096921,2096921, 309285, 453105
2096921,2096921, 309372, 453058
2096921,2096921, 309537, 453202
2096921,2096921, 309430, 453238
2096921,2096921, 309483, 453265
2096921,2096921, 309592, 453184
2096921,2096921, 309514, 453130
2096921,2096921, 309346, 453071
2096921,2096921, 309198, 453112
2096921,2096921, 309113, 452955
2096921,2096921, 309219, 452836
2096921,2096921, 309128, 452879
2096921,2096921, 309275, 452961
2096921,2096921, 309266, 453081
2096921,2096921, 309452, 453081
2096921,2096921, 309388, 453260
2096921,2096921, 309441, 452818
2096921,2096921, 309335, 452750
2096921,2096921, 309151, 452648
2096921,2096921, 308888, 452534
2096921,2096921, 309080, 452706
2096921,2096921, 309304, 452431
2096921,2096921, 309079, 452856
2096921,2096921, 309150, 452422
2096921,2096921, 309008, 452420
2096921,2096921, 308786, 452559
2096921,2096921, 308695, 452348
2096921,2096921, 308826, 452405
2096921,2096921, 309041, 452386
2096921,2096921, 308965, 452500
2096921,2096921, 309068, 452391
2096921,2096921, 308922, 452439
2096921,2096921, 308690, 452426
2096921,2096921, 308978, 452371
2096921,2096921, 309081, 452431
2096921,2096921, 308878, 452045
2096921,2096921, 308833, 452473
2096921,2096921, 308598, 452273
2096921,2096921, 308841, 452156
2096921,2096921, 308923, 452195
2096921,2096921, 308909, 452161
2096921,2096921, 308475, 452100
2096921,2096921, 308598, 452066
2096921,2096921, 308656, 452000
2096921,2096921, 308391, 451968
2096921,2096921, 308388, 451803
2096921,2096921, 308691, 451995
2096921,2096921, 308477, 451957
2096921,2096921, 308617, 451891
2096921,2096921, 308353, 451617
2096921,2096921, 308263, 451735
2096921,2096921, 308549, 451513
2096921,2096921, 308691, 451859
2096921,2096921, 308567, 451893
2096921,2096921, 308251, 451804
2096921,2096921, 307852, 451354
2096921,2096921, 307995, 450827
2096921,2096921, 307890, 451102
2096921,2096921, 307799, 450884
2096921,2096921, 307632, 451142
2096921,2096921, 307253, 450607
2096921,2096921, 307648, 450560
2096921,2096921, 307837, 450631
2096921,2096921, 307917, 450521
2096921,2096921, 307013, 450649
2096921,2096921, 306706, 449758
2096921,2096921, 306541, 449652
2096921,2096921, 306708, 449233
2096921,2096921, 306743, 449481
2096921,2096921, 306053, 449377
2096921,2096921, 305965, 448973
2096921,2096921, 306065, 448669
2096921,2096921, 306217, 448392
2096921,2096921, 306055, 448194
2096921,2096921, 305585, 448433
2096921,2096921, 305310, 447653
2096921,2096921, 304983, 447165
2096921,2096921, 304995, 446896
2096921,2096921, 305139, 446772
2096921,2096921, 303349, 446776
2096921,2096921, 303121, 444972
2096921,2096921, 303190, 444738
2096921,2096921, 303101, 444483
2096921,2096921, 303079, 444521
2096921,2096921, 301333, 444532
2096921,2096921, 300821, 442123
2096921,2096921, 300593, 441401
2096921,2096921, 300663, 440952
2096921,2096921, 300752, 441054
2096921,2096921, 300728, 441099
2096921,2096921, 299059, 439536
2096921,2096921, 298989, 438881
2096921,2096921, 299186, 438623
2096921,2096921, 299186, 438603
2096921,2096921, 298293, 438867
2096921,2096921, 297923, 437509
2096921,2096921, 297664, 436962
2096921,2096921, 297389, 436887
2096921,2096921, 297503, 436888
2096921,2096921, 296655, 436668
2096921,2096921, 296334, 435597
2096921,2096921, 296566, 435324
2096921,2096921, 296390, 435529
2096921,2096921, 296558, 435232
2096921,2096921, 295895, 435268
2096921,2096921, 295749, 434544
2096921,2096921, 295627, 434428
2096921,2096921, 295936, 434247
2096921,2096921, 295857, 434282
2096921,2096921, 295424, 434175
2096921,2096921, 295169, 433726
2096921,2096921, 295313, 433717
2096921,2096921, 295152, 433665
2096921,2096921, 295084, 433609
2096921,2096921, 294874, 433940
2096921,2096921, 294984, 433433
2096921,2096921, 294870, 433378
2096921,2096921, 294829, 433066
2096921,2096921, 294722, 433194
2096921,2096921, 294532, 433153
2096921,2096921, 294562, 432818
2096921,2096921, 294754, 432904
2096921,2096921, 294799, 432941
2096921,2096921, 294703, 433185
2096921,2096921, 294466, 433025
2096921,2096921, 294356, 432800
2096921,2096921, 294342, 432885
2096921,2096921, 294506, 432981
2096921,2096921, 294469, 432793
2096921,2096921, 294605, 432986
2096921,2096921, 294949, 433036
2096921,2096921, 294792, 432846
2096921,2096921, 294946, 432918
2096921,2096921, 295057, 433119
2096921,2096921, 294917, 433004
2096921,2096921, 295210, 432972
2096921,2096921, 295065, 433171
2096921,2096921, 294747, 433166
2096921,2096921, 294999, 433057
2096921,2096921, 294830, 433121
2096921,2096921, 295061, 433139
2096921,2096921, 294928, 433221
2096921,2096921, 294944, 433257
2096921,2096921, 295040, 433311
2096921,2096921, 295136, 433135
2096921,2096921, 295403, 433393
2096921,2096921, 294980, 433509
2096921,2096921, 295044, 433500
2096921,2096921, 295212, 433589
2096921,2096921, 295505, 433982
2096921,2096921, 295496, 433823
2096921,2096921, 295574, 433661
2096921,2096921, 295642, 433993
2096921,2096921, 295603, 434247
2096921,2096921, 295934, 434418
2096921,2096921, 295895, 434620
2096921,2096921, 296103, 434635
2096921,2096921, 295866, 434552
2096921,2096921, 295750, 434448
2096921,2096921, 296192, 434538
2096921,2096921, 296301, 434789
2096921,2096921, 296366, 434941
2096921,2096921, 296259, 435078
2096921,2096921, 296512, 435125
2096921,2096921, 296822, 435128
2096921,2096921, 296665, 435716
2096921,2096921, 296622, 435579
2096921,2096921, 296626, 435593
2096921,2096921, 296576, 435464
2096921,2096921, 296728, 435588
2096921,2096921, 296902, 435564
2096921,2096921, 297084, 435985
2096921,2096921, 297013, 436187
2096921,2096921, 296974, 436334
2096921,2096921, 297428, 436174
2096921,2096921, 297202, 436716
2096921,2096921, 297380, 436743
2096921,2096921, 297303, 436728
2096921,2096921, 297152, 436361
2096921,2096921, 297609, 436346
2096921,2096921, 297860, 436632
2096921,2096921, 297687, 437125
2096921,2096921, 297793, 436656
2096921,2096921, 297931, 436826
2096921,2096921, 297811, 437032
2096921,2096921, 298189, 437580
2096921,2096921, 297744, 437631
2096921,2096921, 297970, 437721
2096921,2096921, 298444, 437587
2096921,2096921, 298475, 437455
2096921,2096921, 298397, 437985
2096921,2096921, 298881, 438165
2096921,2096921, 298448, 438168
2096921,2096921, 298485, 438396
2096921,2096921, 299055, 438342
2096921,2096921, 299082, 438588
2096921,2096921, 298564, 438574
2096921,2096921, 298890, 438447
2096921,2096921, 298838, 438803
2096921,2096921, 299114, 438413
2096921,2096921, 299168, 438903
2096921,2096921, 299289, 439134
2096921,2096921, 299566, 439329
2096921,2096921, 299538, 439334
2096921,2096921, 299699, 439299
2096921,2096921, 299917, 439881
2096921,2096921, 299813, 439753
2096921,2096921, 299786, 439702
2096921,2096921, 299424, 439298
2096921,2096921, 299962, 439632
2096921,2096921, 300001, 440015
2096921,2096921, 299869, 439925
2096921,2096921, 300035, 440206
2096921,2096921, 300108, 440218
2096921,2096921, 300114, 440127
2096921,2096921, 300292, 440546
2096921,2096921, 300165, 440306
2096921,2096921, 299964, 440328
2096921,2096921, 299943, 440595
2096921,2096921, 300561, 440424
2096921,2096921, 300402, 440830
2096921,2096921, 300341, 440643
2096921,2096921, 300249, 440874
2096921,2096921, 300368, 440697
2096921,2096921, 300278, 440473
2096921,2096921, 300431, 440759
2096921,2096921, 300224, 440585
2096921,2096921, 300371, 440766
2096921,2096921, 300212, 440802
2096921,2096921, 300311, 440698
2096921,2096921, 300482, 440624
2096921,2096921, 300602, 440633
2096921,2096921, 300575, 440464
2096921,2096921, 300639, 440431
2096921,2096921, 300516, 440831
2096921,2096921, 300463, 440657
2096921,2096921, 300334, 440645
2096921,2096921, 300095, 440650
2096921,2096921, 300158, 440574
2096921,2096921, 300231, 440547
2096921,2096921, 300269, 440605
2096921,2096921, 300356, 440565
2096921,2096921, 300346, 440483
2096921,2096921, 300432, 440271
2096921,2096921, 300449, 440817
2096921,2096921, 300218, 440270
2096921,2096921, 300347, 440454
2096921,2096921, 300047, 440443
2096921,2096921, 300150, 440246
2096921,2096921, 299915, 440373
2096921,2096921, 299799, 440294
2096921,2096921, 300166, 440193
2096921,2096921, 300038, 440239
2096921,2096921, 299983, 440367
2096921,2096921, 300044, 440417
2096921,2096921, 300058, 440067
2096921,2096921, 299997, 440322
2096921,2096921, 299962, 440179
2096921,2096921, 300200, 440080
2096921,2096921, 299832, 439977
2096921,2096921, 299823, 439605
2096921,2096921, 299722, 439974
2096921,2096921, 300019, 439770
2096921,2096921, 299911, 440142
2096921,2096921, 299826, 440008
2096921,2096921, 299897, 440035
2096921,2096921, 299888, 439666
2096921,2096921, 299933, 439797
2096921,2096921, 299579, 439771
2096921,2096921, 299643, 439721
2096921,2096921, 299927, 439861
2096921,2096921, 299850, 439789
2096921,2096921, 299620, 439847
2096921,2096921, 299824, 440036
2096921,2096921, 299807, 440011
2096921,2096921, 300266, 439915
2096921,2096921, 299897, 439967
2096921,2096921, 299981, 439941
2096921,2096921, 299766, 440085
2096921,2096921, 300131, 440091
2096921,2096921, 300007, 439885
2096921,2096921, 300205, 440288
2096921,2096921, 299834, 440256
2096921,2096921, 299860, 440247
2096921,2096921, 299978, 440007
2096921,2096921, 300210, 440168
2096921,2096921, 300231, 440168
2096921,2096921, 300192, 439950
2096921,2096921, 299873, 440268
2096921,2096921, 300394, 440240
2096921,2096921, 300395, 440602
2096921,2096921, 300413, 440573
2096921,2096921, 300480, 440608
2096921,2096921, 300656, 440624
2096921,2096921, 300760, 440802
2096921,2096921, 300996, 441059
2096921,2096921, 300935, 441052
2096921,2096921, 300590, 441044
2096921,2096921, 300678, 441223
2096921,2096921, 300935, 440900
2096921,2096921, 301146, 441368
2096921,2096921, 300945, 441335
2096921,2096921, 301090, 441431
2096921,2096921, 301381, 441241
2096921,2096921, 301364, 441358
2096921,2096921, 301357, 441817
2096921,2096921, 301027, 441734
2096921,2096921, 300935, 441970
2096921,2096921, 301112, 441994
2096921,2096921, 301601, 441708
2096921,2096921, 301581, 442019
2096921,2096921, 301230, 442384
2096921,2096921, 301332, 442380
2096921,2096921, 301159, 442102
2096921,2096921, 301495, 442011
2096921,2096921, 301748, 442172
2096921,2096921, 301606, 442335
2096921,2096921, 301469, 442414
2096921,2096921, 301706, 442356
2096921,2096921, 301604, 442597
2096921,2096921, 302181, 442643
2096921,2096921, 301679, 442569
2096921,2096921, 301872, 442612
2096921,2096921, 302229, 442842
2096921,2096921, 302319, 442580
2096921,2096921, 301986, 442599
2096921,2096921, 302229, 443122
2096921,2096921, 301997, 443149
2096921,2096921, 302307, 442893
2096921,2096921, 302365, 442994
2096921,2096921, 302516, 443384
2096921,2096921, 302440, 443189
2096921,2096921, 302618, 443175
2096921,2096921, 302737, 443216
2096921,2096921, 302723, 443584
2096921,2096921, 302689, 443600
2096921,2096921, 302379, 443707
2096921,2096921, 302541, 443672
2096921,2096921, 302563, 443681
2096921,2096921, 302695, 443701
2096921,2096921, 302750, 444351
2096921,2096921, 302833, 444054
2096921,2096921, 303050, 443991
2096921,2096921, 303027, 444034
2096921,2096921, 303069, 444071
2096921,2096921, 303110, 444422
2096921,2096921, 302796, 444321
2096921,2096921, 303143, 444540
2096921,2096921, 303191, 444129
2096921,2096921, 303224, 444232
2096921,2096921, 302998, 444343
2096921,2096921, 303419, 444582
2096921,2096921, 303357, 444403
2096921,2096921, 303164, 444646
2096921,2096921, 303490, 444636
2096921,2096921, 303629, 445008
2096921,2096921, 303596, 444938
2096921,2096921, 303611, 445128
2096921,2096921, 303227, 444745
2096921,2096921, 303580, 444817
2096921,2096921, 303632, 445099
2096921,2096921, 303815, 445110
2096921,2096921, 303897, 445192
2096921,2096921, 303823, 445117
2096921,2096921, 304030, 445272
2096921,2096921, 303928, 445147
2096921,2096921, 303791, 445263
2096921,2096921, 304034, 445497
2096921,2096921, 303823, 445420
2096921,2096921, 304323, 445399
2096921,2096921, 304101, 445708
2096921,2096921, 304117, 445877
2096921,2096921, 303897, 445892
2096921,2096921, 304174, 446164
2096921,2096921, 304507, 445675
2096921,2096921, 304200, 446137
2096921,2096921, 304400, 446059
2096921,2096921, 304293, 446248
2096921,2096921, 303923, 445884
2096921,2096921, 304304, 445760
2096921,2096921, 304512, 446007
2096921,2096921, 304416, 446103
2096921,2096921, 304272, 446133
2096921,2096921, 304506, 446701
2096921,2096921, 304613, 446348
2096921,2096921, 304554, 446361
2096921,2096921, 304655, 446464
2096921,2096921, 304503, 446102
2096921,2096921, 304469, 446128
2096921,2096921, 304710, 446254
2096921,2096921, 304760, 446805
2096921,2096921, 304834, 446784
2096921,2096921, 304745, 446872
2096921,2096921, 304749, 446613
2096921,2096921, 305324, 446733
2096921,2096921, 305224, 446866
2096921,2096921, 305107, 446930
2096921,2096921, 304896, 446714
2096921,2096921, 305037, 447180
2096921,2096921, 305014, 446800
2096921,2096921, 305224, 447114
2096921,2096921, 305234, 447111
2096921,2096921, 305174, 447298
2096921,2096921, 305346, 447626
2096921,2096921, 305323, 447274
2096921,2096921, 305429, 447302
2096921,2096921, 305082, 447246
2096921,2096921, 305063, 447433
2096921,2096921, 305368, 447285
2096921,2096921, 305530, 447521
2096921,2096921, 305608, 447672
2096921,2096921, 305942, 447666
2096921,2096921, 305591, 447745
2096921,2096921, 305743, 447891
2096921,2096921, 305697, 447920
2096921,2096921, 305964, 447971
2096921,2096921, 305731, 448025
2096921,2096921, 305700, 447754
2096921,2096921, 305751, 447895
2096921,2096921, 305857, 447653
2096921,2096921, 305740, 447969
2096921,2096921, 305855, 447985
2096921,2096921, 306080, 448175
2096921,2096921, 305969, 448073
2096921,2096921, 306040, 448373
2096921,2096921, 306183, 448293
2096921,2096921, 306094, 448394
2096921,2096921, 306192, 448462
2096921,2096921, 305982, 448168
2096921,2096921, 306174, 448445
2096921,2096921, 306102, 448608
2096921,2096921, 306076, 448506
2096921,2096921, 306184, 448574
2096921,2096921, 306140, 448864
2096921,2096921, 306211, 448546
2096921,2096921, 306388, 448436
2096921,2096921, 306133, 448355
2096921,2096921, 306411, 448646
2096921,2096921, 305889, 448634
2096921,2096921, 306115, 448636
2096921,2096921, 306313, 448835
2096921,2096921, 306340, 448870
2096921,2096921, 306721, 449078
2096921,2096921, 306584, 448885
2096921,2096921, 306507, 448825
2096921,2096921, 306446, 449184
2096921,2096921, 306446, 449334
2096921,2096921, 306329, 449019
2096921,2096921, 306737, 449088
2096921,2096921, 306621, 448887
2096921,2096921, 306575, 448882
2096921,2096921, 306604, 449180
2096921,2096921, 306694, 449580
2096921,2096921, 306978, 449328
2096921,2096921, 306999, 449249
2096921,2096921, 306866, 449270
2096921,2096921, 306651, 449189
2096921,2096921, 306513, 449367
2096921,2096921, 306931, 449395
2096921,2096921, 306898, 449489
2096921,2096921, 306773, 449432
2096921,2096921, 307094, 449610
2096921,2096921, 307159, 449757
2096921,2096921, 307201, 449486
2096921,2096921, 306995, 449869
2096921,2096921, 307202, 449959
2096921,2096921, 306838, 449969
2096921,2096921, 307127, 449740
2096921,2096921, 307153, 449581
2096921,2096921, 307154, 449672
2096921,2096921, 307159, 449846
2096921,2096921, 307521, 449913
2096921,2096921, 307349, 450112
2096921,2096921, 307460, 450265
2096921,2096921, 307405, 450080
2096921,2096921, 307496, 450184
2096921,2096921, 307215, 450195
2096921,2096921, 307233, 449904
2096921,2096921, 307329, 450420
2096921,2096921, 307733, 450342
2096921,2096921, 307408, 450610
2096921,2096921, 307729, 450624
2096921,2096921, 307665, 450816
2096921,2096921, 307528, 450637
2096921,2096921, 307453, 450562
2096921,2096921, 307717, 450471
2096921,2096921, 307667, 450537
2096921,2096921, 307582, 450476
2096921,2096921, 307630, 450553
2096921,2096921, 307459, 450288
2096921,2096921, 307663, 450763
2096921,2096921, 307990, 450937
2096921,2096921, 308131, 451081
2096921,2096921, 308121, 450754
2096921,2096921, 308050, 450866
2096921,2096921, 307949, 450953
2096921,2096921, 308046, 450641
2096921,2096921, 307953, 450940
2096921,2096921, 307760, 450930
2096921,2096921, 307666, 451095
2096921,2096921, 307988, 451069
2096921,2096921, 308264, 451201
2096921,2096921, 308197, 451204
2096921,2096921, 308139, 451399
2096921,2096921, 308320, 451462
2096921,2096921, 308214, 451507
2096921,2096921, 308238, 451261
2096921,2096921, 307847, 451491
2096921,2096921, 308208, 451431
2096921,2096921, 308073, 451382
2096921,2096921, 308128, 451396
2096921,2096921, 308330, 451362
2096921,2096921, 308389, 451450
2096921,2096921, 308086, 451591
2096921,2096921, 308322, 451637
2096921,2096921, 308508, 451692
2096921,2096921, 308433, 451611
2096921,2096921, 308339, 451730
2096921,2096921, 308396, 451834
2096921,2096921, 308292, 451733
2096921,2096921, 308467, 451699
2096921,2096921, 308384, 451557
2096921,2096921, 308609, 451622
2096921,2096921, 308475, 451646
2096921,2096921, 308473, 451495
2096921,2096921, 308468, 452040
2096921,2096921, 308630, 452042
2096921,2096921, 308605, 451940
2096921,2096921, 308720, 451637
2096921,2096921, 308866, 451829
2096921,2096921, 308767, 451784
2096921,2096921, 308706, 451925
2096921,2096921, 308764, 452301
2096921,2096921, 308888, 452142
2096921,2096921, 308646, 451887
2096921,2096921, 308911, 452332
2096921,2096921, 308844, 452078
2096921,2096921, 308539, 451623
2096921,2096921, 308852, 451964
2096921,2096921, 308579, 452281
2096921,2096921, 308845, 452265
2096921,2096921, 308849, 452371
2096921,2096921, 308870, 452352
2096921,2096921, 308994, 452321
2096921,2096921, 308692, 452748
2096921,2096921, 309018, 452508
2096921,2096921, 308773, 452258
2096921,2096921, 309023, 452032
2096921,2096921, 309040, 452374
2096921,2096921, 308962, 452432
2096921,2096921, 309067, 452374
2096921,2096921, 308896, 452522
2096921,2096921, 309126, 452370
2096921,2096921, 309180, 452775
2096921,2096921, 308785, 452694
2096921,2096921, 308872, 452289
2096921,2096921, 308581, 452229
2096921,2096921, 308687, 452042
2096921,2096921, 308446, 452156
2096921,2096921, 308491, 451883
2096921,2096921, 308467, 452038
2096921,2096921, 308669, 452135
2096921,2096921, 308717, 452015
2096921,2096921, 308652, 452045
2096921,2096921, 308093, 451914
2096921,2096921, 308248, 451206
2096921,2096921, 308030, 451206
2096921,2096921, 308008, 451156
2096921,2096921, 307787, 451260
2096921,2096921, 307548, 451175
2096921,2096921, 307367, 450740
2096921,2096921, 307641, 450386
2096921,2096921, 307483, 450174
2096921,2096921, 307376, 450172
2096921,2096921, 307064, 450157
2096921,2096921, 306821, 449678
2096921,2096921, 306826, 449449
2096921,2096921, 306594, 449372
2096921,2096921, 306829, 449466
2096921,2096921, 305590, 449151
2096921,2096921, 305004, 447664
2096921,2096921, 305048, 447145
2096921,2096921, 304998, 447125
2096921,2096921, 304851, 446971
2096921,2096921, 303277, 447201
2096921,2096921, 302845, 444890
2096921,2096921, 302555, 444228
2096921,2096921, 302659, 443905
2096921,2096921, 302559, 443800
2096921,2096921, 301347, 443787
2096921,2096921, 301011, 442248
2096921,2096921, 300775, 441902
2096921,2096921, 300959, 441822
2096921,2096921, 301003, 441899
2096921,2096921, 301192, 441962
2096921,2096921, 299971, 440577
2096921,2096921, 299863, 439803
2096921,2096921, 299881, 440030
2096921,2096921, 299866, 440105
2096921,2096921, 299289, 440000
2096921,2096921, 299156, 439390
2096921,2096921, 298817, 439446
2096921,2096921, 299085, 439471
2096921,2096921, 299062, 439137
2096921,2096921, 298549, 438583
2096921,2096921, 298235, 438251
2096921,2096921, 298313, 438329
2096921,2096921, 298408, 438275
2096921,2096921, 298494, 438234
2096921,2096921, 298061, 438052
2096921,2096921, 297902, 437577
2096921,2096921, 298059, 437773
2096921,2096921, 297863, 437623
2096921,2096921, 298021, 437699
2096921,2096921, 297977, 437799
2096921,2096921, 297588, 437636
2096921,2096921, 297452, 437398
2096921,2096921, 297700, 436907
2096921,2096921, 297822, 437126
2096921,2096921, 297753, 437045
2096921,2096921, 297780, 437070
2096921,2096921, 297802, 437488
2096921,2096921, 297645, 437389
2096921,2096921, 297830, 437535
2096921,2096921, 297956, 437509
2096921,2096921, 298001, 437568
2096921,2096921, 298135, 437306
2096921,2096921, 298062, 437068
2096921,2096921, 298337, 437490
2096921,2096921, 297980, 437299
2096921,2096921, 298450, 437881
2096921,2096921, 298451, 438077
2096921,2096921, 298179, 438229
2096921,2096921, 298437, 438218
2096921,2096921, 298272, 438093
2096921,2096921, 298808, 438310
2096921,2096921, 298424, 438304
2096921,2096921, 298747, 438203
2096921,2096921, 298376, 438284
2096921,2096921, 298433, 438094
2096921,2096921, 298636, 438712
2096921,2096921, 298816, 438960
2096921,2096921, 298663, 438621
2096921,2096921, 298704, 438838
2096921,2096921, 299301, 438852
2096921,2096921, 299232, 439596
2096921,2096921, 299294, 439254
2096921,2096921, 299410, 439742
2096921,2096921, 299145, 439367
2096921,2096921, 299555, 439218
2096921,2096921, 299556, 440067
2096921,2096921, 300082, 440142
2096921,2096921, 299859, 440115
2096921,2096921, 299646, 440069
2096921,2096921, 299931, 440067
2096921,2096921, 299937, 440691
2096921,2096921, 300149, 440570
2096921,2096921, 300123, 440344
2096921,2096921, 299895, 440690
2096921,2096921, 300442, 440715
2096921,2096921, 300454, 441487
2096921,2096921, 301030, 441370
2096921,2096921, 300905, 441624
2096921,2096921, 300737, 441409
2096921,2096921, 301124, 441382
2096921,2096921, 301213, 442021
2096921,2096921, 301301, 442176
2096921,2096921, 301158, 442340
2096921,2096921, 301113, 442438
2096921,2096921, 301270, 442417
2096921,2096921, 301637, 442618
2096921,2096921, 302230, 442813
2096921,2096921, 301656, 443081
2096921,2096921, 301824, 442914
2096921,2096921, 302282, 442965
2096921,2096921, 302243, 443765
2096921,2096921, 302190, 443575
2096921,2096921, 302133, 443401
2096921,2096921, 302293, 443508
2096921,2096921, 302378, 443619
2096921,2096921, 302902, 444212
2096921,2096921, 303048, 444342
2096921,2096921, 302911, 444373
2096921,2096921, 302708, 444302
2096921,2096921, 303246, 444302
2096921,2096921, 303407, 444906
2096921,2096921, 303478, 445185
2096921,2096921, 303444, 445349
2096921,2096921, 303465, 445087
2096921,2096921, 303623, 445082
2096921,2096921, 303845, 445448
2096921,2096921, 303764, 445495
2096921,2096921, 303866, 445667
2096921,2096921, 303781, 446178
2096921,2096921, 304297, 445823
2096921,2096921, 304379, 446076
2096921,2096921, 304148, 446387
2096921,2096921, 304611, 446525
2096921,2096921, 304385, 446291
2096921,2096921, 304729, 446735
2096921,2096921, 304833, 446948
2096921,2096921, 304789, 447438
2096921,2096921, 305105, 447338
2096921,2096921, 305029, 447624
2096921,2096921, 305255, 447289
2096921,2096921, 305322, 447688
2096921,2096921, 305493, 447958
2096921,2096921, 305379, 447861
2096921,2096921, 305187, 448088
2096921,2096921, 305514, 447933
2096921,2096921, 305846, 448553
2096921,2096921, 305924, 448433
2096921,2096921, 305872, 448402
2096921,2096921, 306109, 448378
2096921,2096921, 306209, 448629
2096921,2096921, 306375, 449028
2096921,2096921, 306308, 448681
2096921,2096921, 305960, 449020
2096921,2096921, 306030, 449131
2096921,2096921, 306502, 449105
2096921,2096921, 306369, 449260
2096921,2096921, 306444, 449470
2096921,2096921, 306385, 449393
2096921,2096921, 306683, 449327
2096921,2096921, 306635, 449547
2096921,2096921, 306410, 449540
2096921,2096921, 306354, 449582
2096921,2096921, 306873, 449557
2096921,2096921, 306637, 449563
2096921,2096921, 306883, 449694
2096921,2096921, 306641, 449883
2096921,2096921, 306835, 450151
2096921,2096921, 306497, 449974
2096921,2096921, 306744, 450063
2096921,2096921, 306891, 449886
2096921,2096921, 307076, 449951
2096921,2096921, 307128, 450171
2096921,2096921, 306785, 450228
2096921,2096921, 306776, 450339
2096921,2096921, 306674, 450087
2096921,2096921, 306676, 450040
2096921,2096921, 306855, 450077
2096921,2096921, 306985, 450317
2096921,2096921, 306793, 450213
2096921,2096921, 307042, 450075
2096921,2096921, 306796, 449831
2096921,2096921, 306789, 449840
2096921,2096921, 306703, 449875
2096921,2096921, 306609, 449679
2096921,2096921, 306869, 449959
2096921,2096921, 306858, 450058
2096921,2096921, 306986, 450274
2096921,2096921, 307120, 450433
2096921,2096921, 307053, 450103
2096921,2096921, 306907, 450061
2096921,2096921, 306811, 449869
2096921,2096921, 306787, 449952
2096921,2096921, 306621, 449694
2096921,2096921, 306599, 449900
2096921,2096921, 306433, 449910
2096921,2096921, 306867, 450085
2096921,2096921, 306867, 449869
2096921,2096921, 306996, 450187
2096921,2096921, 306909, 450247
2096921,2096921, 307083, 450149
2096921,2096921, 306925, 450181
2096921,2096921, 306914, 450146
2096921,2096921, 307015, 449846
2096921,2096921, 306993, 449876
2096921,2096921, 306722, 450028
2096921,2096921, 306876, 450082
2096921,2096921, 306818, 450248
2096921,2096921, 307009, 450104
2096921,2096921, 307017, 450157
2096921,2096921, 307365, 450186
2096921,2096921, 307285, 450494
2096921,2096921, 307324, 450542
2096921,2096921, 307268, 450157
2096921,2096921, 307374, 450161
2096921,2096921, 307220, 450046
2096921,2096921, 307233, 450681
2096921,2096921, 307331, 450635
2096921,2096921, 307404, 450859
2096921,2096921, 307569, 450850
2096921,2096921, 307668, 450615
2096921,2096921, 307616, 451076
2096921,2096921, 307422, 450897
2096921,2096921, 307577, 450996
2096921,2096921, 307661, 451398
2096921,2096921, 307743, 451130
2096921,2096921, 307816, 451436
2096921,2096921, 308108, 451859
2096921,2096921, 308034, 451494
2096921,2096921, 308078, 451469
2096921,2096921, 308539, 451645
2096921,2096921, 308443, 452079
2096921,2096921, 308569, 451915
2096921,2096921, 308530, 452384
2096921,2096921, 308508, 452127
2096921,2096921, 308644, 452137
2096921,2096921, 308812, 452641
2096921,2096921, 308857, 452791
2096921,2096921, 308860, 452722
2096921,2096921, 308667, 452613
2096921,2096921, 308760, 452776
2096921,2096921, 309184, 453129
2096921,2096921, 309387, 453065
2096921,2096921, 308953, 453250
2096921,2096921, 309046, 453136
2096921,2096921, 309508, 453233
2096921,2096921, 309669, 453556
2096921,2096921, 309607, 453750
2096921,2096921, 309735, 454169
2096921,2096921, 309538, 454016
2096921,2096921, 309858, 453777
2096921,2096921, 309833, 453836
2096921,2096921, 309526, 454179
2096921,2096921, 309665, 454067
2096921,2096921, 309803, 454104
2096921,2096921, 310131, 454306
2096921,2096921, 310051, 454447
2096921,2096921, 310047, 454584
2096921,2096921, 310407, 454631
2096921,2096921, 310389, 454522
2096921,2096921, 310381, 454702
2096921,2096921, 310486, 455172
2096921,2096921, 310516, 454905
2096921,2096921, 310315, 454947
2096921,2096921, 310254, 454994
2096921,2096921, 310637, 454961
2096921,2096921, 310747, 455571
2096921,2096921, 310865, 455417
2096921,2096921, 310811, 455588
2096921,2096921, 310676, 455321
2096921,2096921, 311169, 455512
2096921,2096921, 310929, 455825
2096921,2096921, 311124, 455684
2096921,2096921, 311022, 455764
2096921,2096921, 310964, 455936
2096921,2096921, 311181, 455862
2096921,2096921, 311255, 456319
2096921,2096921, 311366, 456330
2096921,2096921, 311670, 456611
2096921,2096921, 311421, 456614
2096921,2096921, 311606, 456611
2096921,2096921, 311950, 456570
2096921,2096921, 311759, 456653
2096921,2096921, 311593, 456643
2096921,2096921, 311465, 456544
2096921,2096921, 311777, 456280
2096921,2096921, 311898, 457064
2096921,2096921, 311849, 457142
2096921,2096921, 312051, 457356
2096921,2096921, 311575, 457068
2096921,2096921, 312094, 456982
2096921,2096921, 312506, 457337
2096921,2096921, 312236, 457164
2096921,2096921, 312371, 457059
2096921,2096921, 312401, 457400
2096921,2096921, 312264, 457590
2096921,2096921, 312416, 457585
2096921,2096921, 312389, 458087
2096921,2096921, 312692, 457913
2096921,2096921, 312543, 457845
2096921,2096921, 312756, 457691
2096921,2096921, 312889, 458248
2096921,2096921, 312844, 458285
2096921,2096921, 312770, 458428
2096921,2096921, 312980, 458099
2096921,2096921, 313077, 458088
2096921,2096921, 313091, 458396
2096921,2096921, 313127, 458817
2096921,2096921, 313039, 458752
2096921,2096921, 313272, 458739
2096921,2096921, 313491, 458770
2096921,2096921, 313415, 458950
2096921,2096921, 313271, 458920
2096921,2096921, 313168, 458940
2096921,2096921, 313314, 458800
2096921,2096921, 313438, 458866
2096921,2096921, 313354, 459214
2096921,2096921, 313668, 459381
2096921,2096921, 313692, 459455
2096921,2096921, 313581, 459507
2096921,2096921, 313598, 459432
2096921,2096921, 313815, 459562
2096921,2096921, 313747, 459414
2096921,2096921, 314041, 459649
2096921,2096921, 313633, 459826
2096921,2096921, 313950, 459828
2096921,2096921, 314078, 459926
2096921,2096921, 313951, 459958
2096921,2096921, 314148, 459931
2096921,2096921, 314373, 459906
2096921,2096921, 314263, 460144
2096921,2096921, 314517, 460122
2096921,2096921, 314227, 460045
2096921,2096921, 314316, 460324
2096921,2096921, 314288, 460348
2096921,2096921, 314318, 459900
2096921,2096921, 314295, 460209
2096921,2096921, 314234, 460553
2096921,2096921, 314157, 460337
2096921,2096921, 314402, 460500
2096921,2096921, 314568, 460364
2096921,2096921, 314650, 460888
2096921,2096921, 314507, 460736
2096921,2096921, 314729, 460870
2096921,2096921, 314493, 460716
2096921,2096921, 314765, 460850
2096921,2096921, 314862, 461040
2096921,2096921, 314861, 460844
2096921,2096921, 314742, 461114
2096921,2096921, 315000, 461109
2096921,2096921, 314859, 461190
2096921,2096921, 314911, 461399
2096921,2096921, 314668, 461072
2096921,2096921, 314719, 460828
2096921,2096921, 315029, 461079
2096921,2096921, 314974, 461154
2096921,2096921, 315051, 461360
2096921,2096921, 315014, 461480
2096921,2096921, 315300, 461348
2096921,2096921, 315169, 461418
2096921,2096921, 315230, 461070
2096921,2096921, 315031, 461616
2096921,2096921, 315158, 461494
2096921,2096921, 315327, 461466
2096921,2096921, 314930, 461453
2096921,2096921, 315301, 461395
2096921,2096921, 315140, 461861
2096921,2096921, 315367, 461909
2096921,2096921, 315120, 461720
2096921,2096921, 315631, 461610
2096921,2096921, 315342, 461931
2096921,2096921, 315350, 461952
2096921,2096921, 315390, 462040
2096921,2096921, 315668, 461638
2096921,2096921, 315517, 462077
2096921,2096921, 315462, 461833
2096921,2096921, 315561, 462065
2096921,2096921, 315308, 462040
2096921,2096921, 315329, 462040
2096921,2096921, 315565, 462065
2096921,2096921, 315909, 461906
2096921,2096921, 315380, 461987
2096921,2096921, 315643, 461978
2096921,2096921, 315380, 461921
2096921,2096921, 315767, 461947
2096921,2096921, 315743, 462045
2096921,2096921, 315883, 462569
2096921,2096921, 316046, 462857
2096921,2096921, 315871, 462488
2096921,2096921, 315507, 462233
2096921,2096921, 315910, 462428
2096921,2096921, 315942, 462538
2096921,2096921, 315866, 462467
2096921,2096921, 315683, 462171
2096921,2096921, 315742, 462378
2096921,2096921, 315805, 462373
2096921,2096921, 315700, 462666
2096921,2096921, 315984, 462852
2096921,2096921, 315961, 462639
2096921,2096921, 315938, 462769
2096921,2096921, 315854, 462496
2096921,2096921, 315953, 462610
2096921,2096921, 315843, 462857
2096921,2096921, 316060, 462855
2096921,2096921, 316073, 462789
2096921,2096921, 315835, 462743
2096921,2096921, 316061, 462574
2096921,2096921, 316172, 462926
2096921,2096921, 316194, 462643
2096921,2096921, 316017, 463055
2096921,2096921, 316125, 462673
2096921,2096921, 316179, 462866
2096921,2096921, 316131, 463033
2096921,2096921, 316188, 462928
2096921,2096921, 315966, 462912
2096921,2096921, 315977, 463029
2096921,2096921, 316177, 463000
2096921,2096921, 316552, 463093
2096921,2096921, 316260, 462999
2096921,2096921, 316274, 463174
2096921,2096921, 316264, 462782
2096921,2096921, 316489, 462858
2096921,2096921, 316267, 462667
2096921,2096921, 316278, 463043
2096921,2096921, 316237, 462914
2096921,2096921, 316641, 463218
2096921,2096921, 316290, 463040
2096921,2096921, 316279, 463134
2096921,2096921, 316310, 463402
2096921,2096921, 316160, 463351
2096921,2096921, 316441, 463223
2096921,2096921, 316435, 463231
2096921,2096921, 316071, 463253
2096921,2096921, 316573, 463200
2096921,2096921, 316192, 463114
2096921,2096921, 316414, 462934
2096921,2096921, 316226, 463218
2096921,2096921, 316546, 463299
2096921,2096921, 316613, 463599
2096921,2096921, 316367, 463454
2096921,2096921, 316498, 463292
2096921,2096921, 316349, 463700
2096921,2096921, 316527, 463565
2096921,2096921, 316515, 463509
2096921,2096921, 316243, 463480
2096921,2096921, 316158, 463423
2096921,2096921, 316360, 463493
2096921,2096921, 316170, 463674
2096921,2096921, 316651, 463804
2096921,2096921, 316524, 463499
2096921,2096921, 316492, 463350
2096921,2096921, 316687, 463304
2096921,2096921, 316472, 463387
2096921,2096921, 316473, 463256
2096921,2096921, 316176, 463701
2096921,2096921, 316502, 463455
2096921,2096921, 316341, 463320
2096921,2096921, 316499, 463360
2096921,2096921, 316519, 463578
2096921,2096921, 316425, 463325
2096921,2096921, 316464, 463556
2096921,2096921, 316538, 463380
2096921,2096921, 316507, 463353
2096921,2096921, 316249, 463336
2096921,2096921, 316250, 463475
2096921,2096921, 316500, 463247
2096921,2096921, 316665, 463360
2096921,2096921, 316907, 463404
2096921,2096921, 316852, 463477
2096921,2096921, 316706, 463556
2096921,2096921, 316856, 463448
2096921,2096921, 316574, 463462
2096921,2096921, 316319, 463681
2096921,2096921, 316348, 463098
2096921,2096921, 316467, 463595
2096921,2096921, 316541, 463619
2096921,2096921, 316446, 463548
2096921,2096921, 316376, 463678
2096921,2096921, 316526, 463437
2096921,2096921, 316438, 463653
2096921,2096921, 316533, 463599
2096921,2096921, 316654, 463728
2096921,2096921, 316587, 463344
2096921,2096921, 316415, 463332
2096921,2096921, 316519, 463473
2096921,2096921, 316486, 463481
2096921,2096921, 316505, 463322
2096921,2096921, 316653, 463530
2096921,2096921, 316530, 463525
2096921,2096921, 316509, 463475
2096921,2096921, 316089, 463244
2096921,2096921, 316131, 462861
2096921,2096921, 315919, 462850
2096921,2096921, 315953, 462839
2096921,2096921, 315937, 463086
2096921,2096921, 315650, 462923
2096921,2096921, 315884, 462280
2096921,2096921, 315956, 462394
2096921,2096921, 315844, 462519
2096921,2096921, 315777, 462453
2096921,2096921, 315172, 462267
2096921,2096921, 315115, 461759
2096921,2096921, 315193, 461262
2096921,2096921, 315321, 461411
2096921,2096921, 315067, 461165
2096921,2096921, 314182, 461329
2096921,2096921, 314314, 460370
2096921,2096921, 314084, 460370
2096921,2096921, 314293, 460036
2096921,2096921, 314373, 460444
2096921,2096921, 313594, 460293
2096921,2096921, 313460, 459795
2096921,2096921, 313483, 459187
2096921,2096921, 313470, 459174
2096921,2096921, 313324, 458918
2096921,2096921, 311855, 459173
2096921,2096921, 311456, 457332
2096921,2096921, 311619, 456937
2096921,2096921, 311725, 456834
2096921,2096921, 311947, 456854
2096921,2096921, 309782, 456912
2096921,2096921, 309280, 454286
2096921,2096921, 309092, 453283
2096921,2096921, 309232, 453166
2096921,2096921, 309127, 453077
2096921,2096921, 307732, 453303
2096921,2096921, 307750, 451371
2096921,2096921, 307703, 451016
2096921,2096921, 307338, 451320
2096921,2096921, 307385, 450889
2096921,2096921, 306333, 450810
2096921,2096921, 306237, 449465
2096921,2096921, 305990, 449274
2096921,2096921, 305712, 449067
2096921,2096921, 305803, 449119
2096921,2096921, 305838, 449174
2096921,2096921, 305171, 448032
2096921,2096921, 305011, 447938
2096921,2096921, 305036, 448201
2096921,2096921, 304978, 447733
2096921,2096921, 304550, 447637
2096921,2096921, 304316, 447064
2096921,2096921, 304466, 446802
2096921,2096921, 304207, 446827
2096921,2096921, 304410, 447225
2096921,2096921, 303547, 446945
2096921,2096921, 303754, 446370
2096921,2096921, 304244, 446280
2096921,2096921, 304250, 446295
2096921,2096921, 303964, 446408
2096921,2096921, 303702, 446266
2096921,2096921, 303921, 445813
2096921,2096921, 303608, 445721
2096921,2096921, 303536, 445549
2096921,2096921, 303594, 445684
2096921,2096921, 303369, 445697
2096921,2096921, 303466, 445779
2096921,2096921, 303597, 445686
2096921,2096921, 303825, 445609
2096921,2096921, 303764, 445684
2096921,2096921, 303558, 445902
2096921,2096921, 303349, 445529
2096921,2096921, 303375, 445526
2096921,2096921, 303373, 445362
2096921,2096921, 303253, 445514
2096921,2096921, 303298, 445386
2096921,2096921, 303587, 445663
2096921,2096921, 303804, 445761
2096921,2096921, 303707, 445772
2096921,2096921, 303589, 446097
2096921,2096921, 303871, 445883
2096921,2096921, 303893, 446119
2096921,2096921, 303497, 445948
2096921,2096921, 303785, 445959
2096921,2096921, 303531, 445914
2096921,2096921, 303815, 445937
2096921,2096921, 303593, 445764
2096921,2096921, 303621, 445796
2096921,2096921, 303812, 446064
2096921,2096921, 303760, 446237
2096921,2096921, 304060, 446286
2096921,2096921, 303971, 446551
2096921,2096921, 303829, 446431
2096921,2096921, 303945, 446361
2096921,2096921, 303972, 446847
2096921,2096921, 304590, 446600
2096921,2096921, 304504, 447086
2096921,2096921, 304590, 447058
2096921,2096921, 304830, 447372
2096921,2096921, 304839, 447027
2096921,2096921, 304962, 447048
2096921,2096921, 304862, 447458
2096921,2096921, 304782, 447494
2096921,2096921, 304543, 447500
2096921,2096921, 304791, 447604
2096921,2096921, 305234, 447479
2096921,2096921, 305378, 448028
2096921,2096921, 305465, 448206
2096921,2096921, 305361, 448072
2096921,2096921, 305330, 448224
2096921,2096921, 305693, 448144
2096921,2096921, 305424, 448499
2096921,2096921, 305621, 448545
2096921,2096921, 305665, 448406
2096921,2096921, 305599, 448311
2096921,2096921, 305998, 448710
2096921,2096921, 305941, 448952
2096921,2096921, 306018, 449160
2096921,2096921, 306008, 449334
2096921,2096921, 306056, 449475
2096921,2096921, 306361, 449483
2096921,2096921, 306348, 449726
2096921,2096921, 306271, 449455
2096921,2096921, 306199, 449614
2096921,2096921, 306006, 449439
2096921,2096921, 306653, 449309
2096921,2096921, 306461, 449877
2096921,2096921, 307138, 449964
2096921,2096921, 306815, 449909
2096921,2096921, 306935, 450286
2096921,2096921, 307010, 450195
2096921,2096921, 306873, 450488
2096921,2096921, 307187, 450883
2096921,2096921, 307211, 450394
2096921,2096921, 307197, 450598
2096921,2096921, 307095, 450601
2096921,2096921, 307459, 450860
2096921,2096921, 307577, 451138
2096921,2096921, 307698, 451191
2096921,2096921, 307498, 451349
2096921,2096921, 307694, 451127
2096921,2096921, 307858, 451333
2096921,2096921, 307783, 451587
2096921,2096921, 307644, 451743
2096921,2096921, 307944, 451604
2096921,2096921, 308232, 451535
2096921,2096921, 308173, 452058
2096921,2096921, 308108, 452092
2096921,2096921, 308406, 452212
2096921,2096921, 308552, 452010
2096921,2096921, 308485, 452260
2096921,2096921, 308544, 452440
2096921,2096921, 308563, 452839
2096921,2096921, 308332, 452700
2096921,2096921, 308424, 452254
2096921,2096921, 308666, 452412
2096921,2096921, 308728, 452982
2096921,2096921, 308372, 453056
2096921,2096921, 308920, 452779
2096921,2096921, 308637, 452789
2096921,2096921, 308763, 452886
2096921,2096921, 308861, 453292
2096921,2096921, 308961, 453011
2096921,2096921, 308904, 452771
2096921,2096921, 308822, 453241
2096921,2096921, 308873, 453041
2096921,2096921, 308907, 453145
2096921,2096921, 309028, 453183
2096921,2096921, 309268, 453507
2096921,2096921, 309082, 453355
2096921,2096921, 308910, 453041
2096921,2096921, 308942, 453098
2096921,2096921, 309183, 453169
2096921,2096921, 309083, 453314
2096921,2096921, 309030, 453242
2096921,2096921, 308728, 453118
2096921,2096921, 309008, 453156
2096921,2096921, 308856, 453277
2096921,2096921, 308956, 453207
2096921,2096921, 308994, 453364
2096921,2096921, 309085, 453171
2096921,2096921, 308991, 453034
2096921,2096921, 308799, 452774
2096921,2096921, 309099, 453065
2096921,2096921, 308899, 452939
2096921,2096921, 308921, 453085
2096921,2096921, 308888, 453006
2096921,2096921, 308917, 452867
2096921,2096921, 308678, 453058
2096921,2096921, 308845, 452809
2096921,2096921, 308462, 452924
2096921,2096921, 308551, 452641
2096921,2096921, 308594, 452599
2096921,2096921, 308558, 452516
2096921,2096921, 308728, 452728
2096921,2096921, 308463, 452440
2096921,2096921, 308376, 452303
2096921,2096921, 308490, 452363
2096921,2096921, 308412, 452169
2096921,2096921, 308532, 452255
2096921,2096921, 308191, 451947
2096921,2096921, 308061, 452073
2096921,2096921, 307938, 451667
2096921,2096921, 307950, 451715
2096921,2096921, 307899, 451995
2096921,2096921, 307724, 451714
2096921,2096921, 308003, 451686
2096921,2096921, 308196, 451662
2096921,2096921, 308212, 451938
2096921,2096921, 308299, 452027
2096921,2096921, 308054, 452003
2096921,2096921, 307947, 451716
2096921,2096921, 307798, 451638
2096921,2096921, 307834, 451320
2096921,2096921, 307896, 451573
2096921,2096921, 307827, 451847
2096921,2096921, 307877, 451543
2096921,2096921, 308077, 451564
2096921,2096921, 307783, 451570
2096921,2096921, 307620, 451428
2096921,2096921, 307655, 451457
2096921,2096921, 307783, 451191
2096921,2096921, 307781, 451448
2096921,2096921, 307744, 451428
2096921,2096921, 307660, 451531
2096921,2096921, 307654, 451201
2096921,2096921, 307554, 451358
2096921,2096921, 307730, 451467
2096921,2096921, 307836, 451508
2096921,2096921, 307759, 451183
2096921,2096921, 308001, 451208
2096921,2096921, 307808, 451294
2096921,2096921, 307805, 451329
2096921,2096921, 307534, 451173
2096921,2096921, 307315, 451176
2096921,2096921, 307893, 451413
2096921,2096921, 307926, 451583
2096921,2096921, 308000, 451669
2096921,2096921, 307919, 452009
2096921,2096921, 308111, 451717
2096921,2096921, 308306, 451712
2096921,2096921, 308197, 452062
2096921,2096921, 308293, 451992
2096921,2096921, 308121, 452178
2096921,2096921, 307887, 452098
2096921,2096921, 308262, 452005
2096921,2096921, 308564, 452017
2096921,2096921, 308587, 452447
2096921,2096921, 308505, 452192
2096921,2096921, 308477, 452242
2096921,2096921, 308641, 452147
2096921,2096921, 308664, 452285
2096921,2096921, 308732, 452454
2096921,2096921, 308402, 452614
2096921,2096921, 308597, 452593
2096921,2096921, 308794, 452171
2096921,2096921, 308817, 452692
2096921,2096921, 308792, 452761
2096921,2096921, 308817, 452772
2096921,2096921, 308563, 452597
2096921,2096921, 309128, 452904
2096921,2096921, 308968, 452971
2096921,2096921, 308829, 452880
2096921,2096921, 308656, 452835
2096921,2096921, 308858, 452511
2096921,2096921, 308953, 452493
2096921,2096921, 308873, 452981
2096921,2096921, 309014, 452861
2096921,2096921, 309030, 452725
2096921,2096921, 309117, 452660
2096921,2096921, 309061, 452690
2096921,2096921, 309124, 452895
2096921,2096921, 308946, 453031
2096921,2096921, 309092, 452955
2096921,2096921, 309509, 452934
2096921,2096921, 309392, 452846
2096921,2096921, 309430, 453220
2096921,2096921, 309303, 453317
2096921,2096921, 309186, 453375
2096921,2096921, 309245, 453245
2096921,2096921, 309446, 453399
2096921,2096921, 309464, 453498
2096921,2096921, 309464, 453594
2096921,2096921, 309452, 453255
2096921,2096921, 309518, 453262
2096921,2096921, 309674, 453468
2096921,2096921, 309541, 453467
2096921,2096921, 309724, 453553
2096921,2096921, 309332, 453777
2096921,2096921, 309795, 453771
2096921,2096921, 309913, 453455
2096921,2096921, 309510, 453803
2096921,2096921, 309474, 454029
2096921,2096921, 309499, 453657
2096921,2096921, 309526, 453443
2096921,2096921, 309825, 453696
2096921,2096921, 309625, 453857
2096921,2096921, 309743, 453921
2096921,2096921, 309605, 453723
2096921,2096921, 309791, 453710
2096921,2096921, 309711, 453839
2096921,2096921, 309832, 454092
2096921,2096921, 309965, 453802
2096921,2096921, 309756, 454044
2096921,2096921, 309739, 454004
2096921,2096921, 309926, 453879
2096921,2096921, 309985, 454227
2096921,2096921, 309962, 454329
2096921,2096921, 310018, 454391
2096921,2096921, 309911, 454164
2096921,2096921, 310081, 454388
2096921,2096921, 309825, 454008
2096921,2096921, 309713, 453944
2096921,2096921, 309955, 453970
2096921,2096921, 310042, 454355
2096921,2096921, 310078, 454199
2096921,2096921, 310054, 454284
2096921,2096921, 309872, 454045
2096921,2096921, 310136, 454301
2096921,2096921, 310316, 454268
2096921,2096921, 310374, 454577
2096921,2096921, 310053, 454460
2096921,2096921, 310071, 454383
2096921,2096921, 309985, 454085
2096921,2096921, 310047, 454263
2096921,2096921, 310064, 454282
2096921,2096921, 310168, 454485
2096921,2096921, 310091, 454257
2096921,2096921, 310027, 454262
2096921,2096921, 309979, 454234
2096921,2096921, 310299, 454567
2096921,2096921, 309998, 454326
2096921,2096921, 310142, 454545
2096921,2096921, 310097, 454533
2096921,2096921, 310225, 454701
2096921,2096921, 310373, 454600
2096921,2096921, 310437, 454494
2096921,2096921, 310232, 454691
2096921,2096921, 310455, 454707
2096921,2096921, 310376, 454484
2096921,2096921, 310361, 454608
2096921,2096921, 310271, 454443
2096921,2096921, 310108, 454585
2096921,2096921, 310185, 454384
2096921,2096921, 310112, 454618
2096921,2096921, 310203, 454640
2096921,2096921, 310282, 454599
2096921,2096921, 310047, 454508
2096921,2096921, 310319, 454362
2096921,2096921, 310557, 454381
2096921,2096921, 310156, 454634
2096921,2096921, 310396, 454491
2096921,2096921, 310516, 454308
2096921,2096921, 310197, 454529
2096921,2096921, 310082, 454551
2096921,2096921, 310500, 454600
2096921,2096921, 310168, 454819
2096921,2096921, 310377, 454537
2096921,2096921, 310442, 454643
2096921,2096921, 310286, 454917
2096921,2096921, 310228, 454675
2096921,2096921, 310235, 454470
2096921,2096921, 310172, 454277
2096921,2096921, 310257, 454582
2096921,2096921, 310500, 454518
2096921,2096921, 310478, 454889
2096921,2096921, 310475, 454766
2096921,2096921, 310698, 454625
2096921,2096921, 310483, 454651
2096921,2096921, 310594, 454787
2096921,2096921, 310455, 454652
2096921,2096921, 310469, 454636
2096921,2096921, 310342, 454534
2096921,2096921, 310529, 454604
2096921,2096921, 310196, 454588
2096921,2096921, 310217, 454506
2096921,2096921, 310386, 454721
2096921,2096921, 310448, 454473
2096921,2096921, 310342, 454545
2096921,2096921, 310431, 454562
2096921,2096921, 310598, 455118
2096921,2096921, 310294, 454800
2096921,2096921, 310172, 454508
2096921,2096921, 310586, 454232
2096921,2096921, 310164, 454471
2096921,2096921, 310286, 454541
2096921,2096921, 310479, 454534
2096921,2096921, 310404, 454349
2096921,2096921, 310205, 454292
2096921,2096921, 310181, 454357
2096921,2096921, 310201, 454536
2096921,2096921, 310090, 454195
2096921,2096921, 310035, 454421
2096921,2096921, 310307, 454384
2096921,2096921, 310355, 454230
2096921,2096921, 310198, 454337
2096921,2096921, 310416, 454123
2096921,2096921, 310567, 454444
2096921,2096921, 309938, 454674
2096921,2096921, 310029, 454461
2096921,2096921, 310076, 454326
2096921,2096921, 309909, 454213
2096921,2096921, 310020, 454414
2096921,2096921, 309921, 454233
2096921,2096921, 309838, 454192
2096921,2096921, 310114, 453884
2096921,2096921, 309864, 454018
2096921,2096921, 310149, 454087
2096921,2096921, 309895, 454076
2096921,2096921, 310137, 454318
2096921,2096921, 310357, 454220
2096921,2096921, 310194, 454139
2096921,2096921, 310028, 454147
2096921,2096921, 310079, 453935
2096921,2096921, 310015, 453873
2096921,2096921, 310292, 453796
2096921,2096921, 309842, 454013
2096921,2096921, 310116, 454163
2096921,2096921, 310113, 453956
2096921,2096921, 310207, 454232
2096921,2096921, 310018, 454156
2096921,2096921, 309951, 454142
2096921,2096921, 309817, 453881
2096921,2096921, 309707, 453757
2096921,2096921, 309844, 453696
2096921,2096921, 309698, 453768
2096921,2096921, 309867, 453805
2096921,2096921, 309909, 454010
2096921,2096921, 310184, 453961
2096921,2096921, 309889, 454090
2096921,2096921, 309688, 453984
2096921,2096921, 309852, 454076
2096921,2096921, 309980, 454011
2096921,2096921, 310132, 453780
2096921,2096921, 310042, 453874
2096921,2096921, 309651, 453737
2096921,2096921, 309924, 453699
2096921,2096921, 309721, 453693
2096921,2096921, 309901, 453543
2096921,2096921, 309685, 453864
2096921,2096921, 309679, 453464
2096921,2096921, 309840, 453710
2096921,2096921, 309651, 453886
2096921,2096921, 309800, 453680
2096921,2096921, 309772, 453733
2096921,2096921, 309851, 453885
2096921,2096921, 309929, 453358
2096921,2096921, 309865, 453413
2096921,2096921, 309867, 453509
2096921,2096921, 309777, 453392
2096921,2096921, 309657, 453159
2096921,2096921, 309798, 453634
2096921,2096921, 309655, 453635
2096921,2096921, 309453, 453439
2096921,2096921, 309647, 453185
2096921,2096921, 309668, 453224
2096921,2096921, 309600, 453133
2096921,2096921, 309716, 453296
2096921,2096921, 309507, 453283
2096921,2096921, 309518, 453289
2096921,2096921, 309680, 453436
2096921,2096921, 309417, 453083
2096921,2096921, 309304, 453116
2096921,2096921, 309189, 452920
2096921,2096921, 309511, 452852
2096921,2096921, 309339, 452850
2096921,2096921, 309122, 452642
2096921,2096921, 309377, 452976
2096921,2096921, 309355, 452992
2096921,2096921, 309381, 453164
2096921,2096921, 308955, 453303
2096921,2096921, 309031, 452972
2096921,2096921, 309168, 452901
2096921,2096921, 309309, 452755
2096921,2096921, 309061, 452637
2096921,2096921, 309007, 452758
2096921,2096921, 308985, 452601
2096921,2096921, 308997, 452583
2096921,2096921, 309049, 452712
2096921,2096921, 309014, 452669
2096921,2096921, 308885, 452355
2096921,2096921, 308890, 452373
2096921,2096921, 308899, 452382
2096921,2096921, 309011, 452159
2096921,2096921, 308840, 452229
2096921,2096921, 308800, 452648
2096921,2096921, 308808, 452370
2096921,2096921, 308870, 452211
2096921,2096921, 308665, 452415
2096921,2096921, 308971, 452311
2096921,2096921, 308963, 452499
2096921,2096921, 308819, 452306
2096921,2096921, 308683, 452025
2096921,2096921, 308538, 451981
2096921,2096921, 308635, 452224
2096921,2096921, 308657, 452135
2096921,2096921, 308564, 451854
2096921,2096921, 308754, 452180
2096921,2096921, 308891, 452056
2096921,2096921, 309076, 452470
2096921,2096921, 308353, 452305
2096921,2096921, 308255, 451430
2096921,2096921, 308275, 451707
2096921,2096921, 307983, 451516
2096921,2096921, 307947, 451239
2096921,2096921, 307833, 451380
2096921,2096921, 307859, 451152
2096921,2096921, 307724, 450634
2096921,2096921, 307843, 450795
2096921,2096921, 307793, 450962
2096921,2096921, 307216, 450675
2096921,2096921, 306946, 449890
2096921,2096921, 306662, 449600
2096921,2096921, 307319, 449531
2096921,2096921, 306938, 449666
2096921,2096921, 306375, 449419
2096921,2096921, 306053, 448762
2096921,2096921, 306448, 448785
2096921,2096921, 306242, 448561
2096921,2096921, 306366, 448748
2096921,2096921, 305661, 448643
2096921,2096921, 305339, 447798
2096921,2096921, 305243, 447641
2096921,2096921, 305198, 447142
2096921,2096921, 305120, 447226
2096921,2096921, 303598, 447389
2096921,2096921, 303473, 445220
2096921,2096921, 303359, 444755
2096921,2096921, 303396, 444843
2096921,2096921, 303340, 444662
2096921,2096921, 301758, 444490
2096921,2096921, 301369, 442196
2096921,2096921, 300933, 441196
2096921,2096921, 300854, 441173
2096921,2096921, 300746, 441231
2096921,2096921, 299606, 441186
2096921,2096921, 299194, 439399
2096921,2096921, 299191, 439311
2096921,2096921, 299218, 439244
2096921,2096921, 299203, 439179
2096921,2096921, 298026, 439248
2096921,2096921, 298052, 437579
2096921,2096921, 297658, 437082
2096921,2096921, 297643, 437052
2096921,2096921, 297743, 436882
2096921,2096921, 296882, 436951
2096921,2096921, 296875, 435523
2096921,2096921, 296754, 435255
2096921,2096921, 296744, 435494
2096921,2096921, 296798, 435674
2096921,2096921, 296712, 435732
2096921,2096921, 295917, 434857
2096921,2096921, 295883, 434565
2096921,2096921, 295536, 434347
2096921,2096921, 295638, 434550
2096921,2096921, 295546, 434515
2096921,2096921, 295317, 434031
2096921,2096921, 295177, 433823
2096921,2096921, 295475, 433987
2096921,2096921, 295551, 433833
2096921,2096921, 295013, 433837
2096921,2096921, 294917, 433507
2096921,2096921, 294900, 433461
2096921,2096921, 295110, 433254
2096921,2096921, 295158, 433387
2096921,2096921, 294684, 433304
2096921,2096921, 294760, 432967
2096921,2096921, 295053, 433120
2096921,2096921, 294723, 432983
2096921,2096921, 294779, 433105
2096921,2096921, 294795, 433090
2096921,2096921, 294902, 432733
2096921,2096921, 294612, 433127
2096921,2096921, 294692, 432841
2096921,2096921, 294622, 433121
2096921,2096921, 294986, 432820
2096921,2096921, 295031, 433082
2096921,2096921, 295049, 432898
2096921,2096921, 295083, 433141
2096921,2096921, 294910, 433381
2096921,2096921, 294887, 433228
2096921,2096921, 294825, 433517
2096921,2096921, 294512, 433374
2096921,2096921, 295064, 432899
2096921,2096921, 295133, 432973
2096921,2096921, 294943, 432869
2096921,2096921, 294898, 433195
2096921,2096921, 294965, 433293
2096921,2096921, 295087, 433291
2096921,2096921, 295063, 433111
2096921,2096921, 295450, 433484
2096921,2096921, 295413, 433855
2096921,2096921, 295416, 433702
2096921,2096921, 295510, 433832
2096921,2096921, 295312, 433811
2096921,2096921, 295310, 433964
2096921,2096921, 295637, 434294
2096921,2096921, 296007, 434353
2096921,2096921, 296087, 434346
2096921,2096921, 295626, 434206
2096921,2096921, 296283, 434355
2096921,2096921, 295888, 434588
2096921,2096921, 296001, 434551
2096921,2096921, 295918, 434531
2096921,2096921, 295922, 434500
2096921,2096921, 296239, 434408
2096921,2096921, 296303, 434923
2096921,2096921, 296354, 435134
2096921,2096921, 296471, 435044
2096921,2096921, 296269, 435010
2096921,2096921, 296646, 435381
2096921,2096921, 296658, 435529
2096921,2096921, 296779, 435351
2096921,2096921, 296474, 435401
2096921,2096921, 296780, 435512
2096921,2096921, 296921, 435625
2096921,2096921, 297361, 436004
2096921,2096921, 297469, 436258
2096921,2096921, 297080, 436367
2096921,2096921, 297289, 436384
2096921,2096921, 297678, 436247
2096921,2096921, 297198, 436544
2096921,2096921, 297512, 436693
2096921,2096921, 297407, 436424
2096921,2096921, 297215, 436676
2096921,2096921, 297616, 436568
2096921,2096921, 297801, 436814
2096921,2096921, 297884, 437065
2096921,2096921, 297932, 436941
2096921,2096921, 298082, 437364
2096921,2096921, 298010, 437004
2096921,2096921, 298078, 437593
2096921,2096921, 297998, 437497
2096921,2096921, 298107, 437790
2096921,2096921, 298498, 437520
2096921,2096921, 298431, 437843
2096921,2096921, 298454, 438139
2096921,2096921, 298633, 438192
2096921,2096921, 298771, 438364
2096921,2096921, 298604, 438254
2096921,2096921, 298924, 438363
2096921,2096921, 299060, 438575
2096921,2096921, 298595, 438683
2096921,2096921, 299103, 438526
2096921,2096921, 298841, 438654
2096921,2096921, 299188, 438604
2096921,2096921, 299499, 439006
2096921,2096921, 299243, 439185
2096921,2096921, 299370, 439414
2096921,2096921, 299290, 439313
2096921,2096921, 299509, 439465
2096921,2096921, 299812, 439609
2096921,2096921, 299362, 439538
2096921,2096921, 299329, 439770
2096921,2096921, 299387, 439536
2096921,2096921, 299802, 439480
2096921,2096921, 300044, 439840
2096921,2096921, 300307, 439865
2096921,2096921, 300212, 440087
2096921,2096921, 299830, 440188
2096921,2096921, 300186, 440035
2096921,2096921, 300171, 440104
2096921,2096921, 300096, 440180
2096921,2096921, 299944, 440509
2096921,2096921, 300121, 440216
2096921,2096921, 300248, 440557
2096921,2096921, 300470, 440710
2096921,2096921, 300468, 440610
2096921,2096921, 300487, 440889
2096921,2096921, 300442, 440566
2096921,2096921, 300621, 440563
2096921,2096921, 300391, 440802
2096921,2096921, 300583, 440836
2096921,2096921, 300457, 440653
2096921,2096921, 300586, 440697
2096921,2096921, 300675, 440500
2096921,2096921, 300720, 440435
2096921,2096921, 300375, 440678
2096921,2096921, 300398, 440907
2096921,2096921, 300376, 440618
2096921,2096921, 300523, 440811
2096921,2096921, 300400, 440866
2096921,2096921, 300694, 440831
2096921,2096921, 300539, 440918
2096921,2096921, 300471, 440543
2096921,2096921, 300374, 440602
2096921,2096921, 300475, 440533
2096921,2096921, 300650, 440755
2096921,2096921, 300577, 440734
2096921,2096921, 300429, 440729
2096921,2096921, 300438, 440703
2096921,2096921, 299967, 440471
2096921,2096921, 300204, 440376
2096921,2096921, 300231, 440191
2096921,2096921, 300261, 440202
2096921,2096921, 300218, 440207
2096921,2096921, 300218, 439839
2096921,2096921, 300075, 440094
2096921,2096921, 300040, 440386
2096921,2096921, 300082, 440250
2096921,2096921, 299938, 440217
2096921,2096921, 299791, 439895
2096921,2096921, 299878, 440276
2096921,2096921, 300016, 440133
2096921,2096921, 299635, 439817
2096921,2096921, 299749, 439922
2096921,2096921, 299576, 439837
2096921,2096921, 299586, 439985
2096921,2096921, 299782, 440095
2096921,2096921, 299971, 440148
2096921,2096921, 299833, 439790
2096921,2096921, 299644, 440011
2096921,2096921, 299589, 439681
2096921,2096921, 299842, 439939
2096921,2096921, 299766, 439863
2096921,2096921, 299988, 439817
2096921,2096921, 300101, 440031
2096921,2096921, 299996, 440135
2096921,2096921, 300057, 440049
2096921,2096921, 300308, 439919
2096921,2096921, 300113, 439721
2096921,2096921, 299999, 440016
2096921,2096921, 299853, 439915
2096921,2096921, 300017, 439720
2096921,2096921, 300085, 439605
2096921,2096921, 299971, 439881
2096921,2096921, 300250, 439952
2096921,2096921, 300236, 439796
2096921,2096921, 300091, 440107
2096921,2096921, 300261, 439919
2096921,2096921, 300189, 440050
2096921,2096921, 300381, 440054
2096921,2096921, 300057, 440464
2096921,2096921, 300125, 440297
2096921,2096921, 300015, 440250
2096921,2096921, 300338, 440169
2096921,2096921, 300430, 440646
2096921,2096921, 300757, 440819
2096921,2096921, 300472, 441127
2096921,2096921, 300432, 441101
2096921,2096921, 300597, 440993
2096921,2096921, 301110, 441241
2096921,2096921, 300903, 441213
2096921,2096921, 300690, 441112
2096921,2096921, 300664, 440895
2096921,2096921, 301085, 441107
2096921,2096921, 301110, 441176
2096921,2096921, 301344, 441281
2096921,2096921, 301172, 441406
2096921,2096921, 301035, 441498
2096921,2096921, 301166, 441425
2096921,2096921, 301389, 441728
2096921,2096921, 301344, 442053
2096921,2096921, 301321, 442021
2096921,2096921, 301293, 442031
2096921,2096921, 301523, 441658
2096921,2096921, 301451, 442100
2096921,2096921, 301490, 442422
2096921,2096921, 301680, 442360
2096921,2096921, 301848, 442106
2096921,2096921, 301568, 442120
2096921,2096921, 301608, 442389
2096921,2096921, 301729, 442462
2096921,2096921, 301685, 442151
2096921,2096921, 301758, 442421
2096921,2096921, 302258, 442659
2096921,2096921, 302200, 442589
2096921,2096921, 302294, 442533
2096921,2096921, 302060, 442732
2096921,2096921, 302171, 442717
2096921,2096921, 302393, 442723
2096921,2096921, 302065, 443075
2096921,2096921, 302208, 443188
2096921,2096921, 302012, 443019
2096921,2096921, 302067, 442915
2096921,2096921, 302369, 443005
2096921,2096921, 302775, 443439
2096921,2096921, 302528, 443432
2096921,2096921, 302478, 443339
2096921,2096921, 302313, 443341
2096921,2096921, 302614, 443700
2096921,2096921, 302708, 443549
2096921,2096921, 302686, 443563
2096921,2096921, 302970, 443627
2096921,2096921, 302980, 443685
2096921,2096921, 302937, 443493
2096921,2096921, 303257, 443832
2096921,2096921, 303137, 444008
2096921,2096921, 303402, 444027
2096921,2096921, 302895, 444273
2096921,2096921, 303211, 444309
2096921,2096921, 303067, 444336
2096921,2096921, 302739, 444379
2096921,2096921, 303027, 444522
2096921,2096921, 303210, 444594
2096921,2096921, 303322, 444540
2096921,2096921, 303266, 444542
2096921,2096921, 303140, 444740
2096921,2096921, 303408, 444792
2096921,2096921, 302980, 444709
2096921,2096921, 303509, 444778
2096921,2096921, 303503, 445053
2096921,2096921, 303316, 444752
2096921,2096921, 303343, 444783
2096921,2096921, 303355, 444998
2096921,2096921, 303879, 444896
2096921,2096921, 303655, 445460
2096921,2096921, 303715, 445122
2096921,2096921, 303698, 445422
2096921,2096921, 303621, 445243
2096921,2096921, 304055, 445243
2096921,2096921, 303807, 445488
2096921,2096921, 303805, 445175
2096921,2096921, 303851, 445328
2096921,2096921, 304077, 445092
2096921,2096921, 304023, 445450
2096921,2096921, 303869, 445867
2096921,2096921, 304015, 446219
2096921,2096921, 304285, 446006
2096921,2096921, 304600, 446026
2096921,2096921, 304424, 445831
2096921,2096921, 304473, 445922
2096921,2096921, 304282, 445856
2096921,2096921, 304337, 445868
2096921,2096921, 304323, 445590
2096921,2096921, 304508, 445800
2096921,2096921, 304358, 446182
2096921,2096921, 304622, 446040
2096921,2096921, 304753, 446215
2096921,2096921, 304630, 446348
2096921,2096921, 304681, 446089
2096921,2096921, 304804, 446165
2096921,2096921, 304514, 446264
2096921,2096921, 304572, 446640
2096921,2096921, 304525, 446358
2096921,2096921, 304682, 446702
2096921,2096921, 304774, 446682
2096921,2096921, 304721, 446768
2096921,2096921, 304614, 446996
2096921,2096921, 304492, 446807
2096921,2096921, 305174, 446816
2096921,2096921, 304951, 446906
2096921,2096921, 305078, 447120
2096921,2096921, 305125, 446691
2096921,2096921, 305004, 446948
2096921,2096921, 305075, 446843
2096921,2096921, 305522, 447273
2096921,2096921, 305120, 447106
2096921,2096921, 305345, 447345
2096921,2096921, 305084, 447429
2096921,2096921, 305083, 447281
2096921,2096921, 305177, 447458
2096921,2096921, 305146, 447542
2096921,2096921, 305256, 447534
2096921,2096921, 305186, 447613
2096921,2096921, 305586, 447337
2096921,2096921, 305839, 447444
2096921,2096921, 305720, 447490
2096921,2096921, 305657, 447552
2096921,2096921, 305609, 447358
2096921,2096921, 305713, 447208
2096921,2096921, 305560, 447625
2096921,2096921, 305802, 447884
2096921,2096921, 305435, 447499
2096921,2096921, 305712, 447853
2096921,2096921, 305438, 447846
2096921,2096921, 305722, 447913
2096921,2096921, 305803, 448188
2096921,2096921, 305902, 448171
2096921,2096921, 305920, 448285
2096921,2096921, 305892, 448007
2096921,2096921, 305671, 448364
2096921,2096921, 305803, 448127
2096921,2096921, 305760, 448218
2096921,2096921, 305769, 448273
2096921,2096921, 305840, 448097
2096921,2096921, 306289, 448376
2096921,2096921, 306091, 448436
2096921,2096921, 306102, 448495
2096921,2096921, 305910, 448436
2096921,2096921, 306075, 448298
2096921,2096921, 306256, 448378
2096921,2096921, 306172, 448416
2096921,2096921, 306332, 448829
2096921,2096921, 306312, 448603
2096921,2096921, 306389, 448636
2096921,2096921, 306268, 448686
2096921,2096921, 306385, 449022
2096921,2096921, 306369, 448880
2096921,2096921, 306337, 448794
2096921,2096921, 306286, 448710
2096921,2096921, 306260, 448866
2096921,2096921, 306684, 448869
2096921,2096921, 306384, 449194
2096921,2096921, 306369, 449071
2096921,2096921, 306558, 448911
2096921,2096921, 306515, 449165
2096921,2096921, 306735, 449338
2096921,2096921, 307082, 449040
2096921,2096921, 306687, 449046
2096921,2096921, 306755, 449102
2096921,2096921, 306757, 449053
2096921,2096921, 306912, 449156
2096921,2096921, 306768, 449314
2096921,2096921, 306507, 449085
2096921,2096921, 306701, 449335
2096921,2096921, 306942, 449207
2096921,2096921, 307206, 449188
2096921,2096921, 306942, 449176
2096921,2096921, 306955, 449249
2096921,2096921, 306835, 449565
2096921,2096921, 306865, 449563
2096921,2096921, 307179, 449788
2096921,2096921, 307178, 449563
2096921,2096921, 306914, 449461
2096921,2096921, 307122, 449420
2096921,2096921, 307245, 449894
2096921,2096921, 307449, 449880
2096921,2096921, 307132, 449618
2096921,2096921, 307323, 450205
2096921,2096921, 307118, 449763
2096921,2096921, 307081, 450070
2096921,2096921, 307186, 449961
2096921,2096921, 307406, 450118
2096921,2096921, 307489, 449848
2096921,2096921, 307241, 450040
2096921,2096921, 307426, 450230
2096921,2096921, 307612, 449991
2096921,2096921, 307699, 450245
2096921,2096921, 307436, 450279
2096921,2096921, 307307, 450232
2096921,2096921, 307583, 450148
2096921,2096921, 307565, 450652
2096921,2096921, 307090, 450245
2096921,2096921, 307470, 450419
2096921,2096921, 307303, 450143
2096921,2096921, 307694, 450525
2096921,2096921, 307647, 450603
2096921,2096921, 307532, 450853
2096921,2096921, 307629, 450564
2096921,2096921, 307793, 450531
2096921,2096921, 307654, 450484
2096921,2096921, 307762, 450443
2096921,2096921, 307839, 450629
2096921,2096921, 307963, 450911
2096921,2096921, 307862, 450660
2096921,2096921, 308026, 451184
2096921,2096921, 307980, 450956
2096921,2096921, 308092, 451289
2096921,2096921, 308231, 451000
2096921,2096921, 307962, 450955
2096921,2096921, 308111, 451076
2096921,2096921, 307914, 451014
2096921,2096921, 308136, 451025
2096921,2096921, 307888, 451211
2096921,2096921, 308203, 451034
2096921,2096921, 308168, 451169
2096921,2096921, 308158, 451328
2096921,2096921, 308156, 451241
2096921,2096921, 308165, 451181
2096921,2096921, 308085, 451221
2096921,2096921, 308136, 451391
2096921,2096921, 308279, 451331
2096921,2096921, 308201, 451266
2096921,2096921, 308285, 451222
2096921,2096921, 308052, 451213
2096921,2096921, 308093, 451288
2096921,2096921, 308265, 451442
2096921,2096921, 308502, 451470
2096921,2096921, 308297, 451819
2096921,2096921, 308196, 451549
2096921,2096921, 308469, 451657
2096921,2096921, 308584, 451723
2096921,2096921, 308412, 451687
2096921,2096921, 308334, 451581
2096921,2096921, 308669, 451635
2096921,2096921, 308436, 451664
2096921,2096921, 308536, 451953
2096921,2096921, 308560, 451685
2096921,2096921, 308507, 451812
2096921,2096921, 308509, 451937
2096921,2096921, 308458, 451797
2096921,2096921, 308395, 451738
2096921,2096921, 308436, 452218
2096921,2096921, 308672, 451724
2096921,2096921, 308691, 452065
2096921,2096921, 308599, 451961
2096921,2096921, 308552, 451973
2096921,2096921, 308698, 451947
2096921,2096921, 308705, 451839
2096921,2096921, 308735, 452221
2096921,2096921, 308444, 452309
2096921,2096921, 308784, 452289
2096921,2096921, 308697, 452369
2096921,2096921, 308870, 452115
2096921,2096921, 309004, 452328
2096921,2096921, 308946, 452263
2096921,2096921, 308823, 452514
2096921,2096921, 308728, 452477
2096921,2096921, 308925, 452341
2096921,2096921, 308530, 452281
2096921,2096921, 308594, 452022
2096921,2096921, 308504, 451853
2096921,2096921, 308581, 451763
2096921,2096921, 308581, 451989
2096921,2096921, 308460, 451825
2096921,2096921, 308276, 451725
2096921,2096921, 308261, 451973
2096921,2096921, 308406, 451698
2096921,2096921, 308374, 451795
2096921,2096921, 307904, 451703
2096921,2096921, 308024, 451263
2096921,2096921, 307686, 450738
2096921,2096921, 307765, 450962
2096921,2096921, 307770, 450786
2096921,2096921, 307318, 450581
2096921,2096921, 307449, 450106
2096921,2096921, 307200, 449837
2096921,2096921, 307323, 450137
2096921,2096921, 307255, 449747
2096921,2096921, 306569, 450269
2096921,2096921, 306437, 448997
2096921,2096921, 306561, 448987
2096921,2096921, 306223, 448935
2096921,2096921, 306401, 449348
2096921,2096921, 305085, 448832
2096921,2096921, 304775, 447051
2096921,2096921, 304643, 446717
2096921,2096921, 304809, 446860
2096921,2096921, 304950, 446660
2096921,2096921, 302971, 446747
2096921,2096921, 302844, 444121
2096921,2096921, 302652, 443493
2096921,2096921, 302526, 443479
2096921,2096921, 302489, 443398
2096921,2096921, 301298, 443323
2096921,2096921, 301109, 441853
2096921,2096921, 300812, 441794
2096921,2096921, 301008, 441562
2096921,2096921, 300932, 441522
2096921,2096921, 300023, 441722
2096921,2096921, 299575, 440332
2096921,2096921, 299640, 439947
2096921,2096921, 299560, 439883
2096921,2096921, 299661, 439292
2096921,2096921, 298873, 439918
2096921,2096921, 298939, 438843
2096921,2096921, 298734, 438441
2096921,2096921, 298588, 438412
2096921,2096921, 298640, 438529
2096921,2096921, 297928, 438619
2096921,2096921, 298158, 438054
2096921,2096921, 298176, 437756
2096921,2096921, 298074, 437749
2096921,2096921, 298194, 437716
2096921,2096921, 297809, 437802
2096921,2096921, 297879, 437434
2096921,2096921, 297524, 437439
2096921,2096921, 297914, 437307
2096921,2096921, 297624, 437339
2096921,2096921, 297370, 437356
2096921,2096921, 297610, 437286
2096921,2096921, 297380, 437043
2096921,2096921, 297602, 437156
2096921,2096921, 297695, 437169
2096921,2096921, 297529, 437092
2096921,2096921, 297584, 437121
2096921,2096921, 297939, 437285
2096921,2096921, 297587, 437143
2096921,2096921, 297855, 437243
2096921,2096921, 297478, 436796
2096921,2096921, 297454, 437238
2096921,2096921, 297505, 437160
2096921,2096921, 297256, 437424
2096921,2096921, 297683, 437019
2096921,2096921, 297676, 437341
2096921,2096921, 298081, 437837
2096921,2096921, 298135, 437889
2096921,2096921, 298331, 437880
2096921,2096921, 298269, 437665
2096921,2096921, 298127, 437575
2096921,2096921, 298076, 437963
2096921,2096921, 298138, 437986
2096921,2096921, 298314, 437576
2096921,2096921, 298156, 437808
2096921,2096921, 298441, 437935
2096921,2096921, 298508, 438200
2096921,2096921, 298571, 438291
2096921,2096921, 298655, 438388
2096921,2096921, 298610, 438459
2096921,2096921, 299069, 438145
2096921,2096921, 298960, 438787
2096921,2096921, 298559, 439024
2096921,2096921, 298892, 438999
2096921,2096921, 298700, 438977
2096921,2096921, 299391, 438865
2096921,2096921, 299288, 439700
2096921,2096921, 299439, 439756
2096921,2096921, 299545, 439990
2096921,2096921, 299617, 439860
2096921,2096921, 299944, 439713
2096921,2096921, 299890, 440083
2096921,2096921, 299937, 440129
2096921,2096921, 299936, 440368
2096921,2096921, 299811, 440511
2096921,2096921, 300479, 440354
2096921,2096921, 300752, 441129
2096921,2096921, 300769, 441353
2096921,2096921, 300505, 441239
2096921,2096921, 300740, 441037
2096921,2096921, 300826, 441163
2096921,2096921, 301110, 441740
2096921,2096921, 301119, 441690
2096921,2096921, 301031, 441680
2096921,2096921, 300783, 441666
2096921,2096921, 301368, 441771
2096921,2096921, 301688, 442204
2096921,2096921, 301309, 442759
2096921,2096921, 301315, 442757
2096921,2096921, 301437, 442659
2096921,2096921, 301983, 442703
2096921,2096921, 301992, 443000
2096921,2096921, 302070, 443303
2096921,2096921, 302016, 443131
2096921,2096921, 302002, 443058
2096921,2096921, 302313, 443232
2096921,2096921, 302405, 443812
2096921,2096921, 302572, 444100
2096921,2096921, 302711, 444112
2096921,2096921, 302540, 443905
2096921,2096921, 302884, 444043
2096921,2096921, 302914, 444541
2096921,2096921, 302863, 444748
2096921,2096921, 303018, 444668
2096921,2096921, 303195, 444669
2096921,2096921, 303705, 444390
2096921,2096921, 303763, 445113
2096921,2096921, 303705, 445285
2096921,2096921, 303799, 445676
2096921,2096921, 303427, 445672
2096921,2096921, 303964, 445580
2096921,2096921, 304288, 446075
2096921,2096921, 304267, 446216
2096921,2096921, 304211, 446071
2096921,2096921, 304418, 446163
2096921,2096921, 304646, 446208
2096921,2096921, 304528, 446850
2096921,2096921, 304551, 446766
2096921,2096921, 304699, 447231
2096921,2096921, 304584, 447021
2096921,2096921, 305083, 446825
2096921,2096921, 304833, 447448
2096921,2096921, 305004, 447375
2096921,2096921, 305175, 447307
2096921,2096921, 305124, 447573
2096921,2096921, 305518, 447540
2096921,2096921, 305523, 447960
2096921,2096921, 305658, 448156
2096921,2096921, 305665, 448228
2096921,2096921, 305599, 448397
2096921,2096921, 305942, 448190
2096921,2096921, 306027, 448338
2096921,2096921, 305816, 448634
2096921,2096921, 305466, 448750
2096921,2096921, 305691, 448234
2096921,2096921, 306076, 448266
2096921,2096921, 305938, 449072
2096921,2096921, 306218, 449286
2096921,2096921, 306282, 448763
2096921,2096921, 306434, 449055
2096921,2096921, 306413, 449132
2096921,2096921, 306417, 449426
2096921,2096921, 306570, 449253
2096921,2096921, 306417, 449311
2096921,2096921, 306067, 449205
2096921,2096921, 306540, 449318
2096921,2096921, 306516, 449798
2096921,2096921, 306875, 449492
2096921,2096921, 306548, 449651
2096921,2096921, 306658, 449656
2096921,2096921, 306514, 449509
2096921,2096921, 306438, 449735
2096921,2096921, 306525, 449718
2096921,2096921, 306528, 449435
2096921,2096921, 306471, 449777
2096921,2096921, 306496, 449313
2096921,2096921, 306636, 449755
2096921,2096921, 306666, 449381
2096921,2096921, 306687, 449600
2096921,2096921, 306594, 449453
2096921,2096921, 306369, 450045
2096921,2096921, 306683, 450010
2096921,2096921, 306382, 449716
2096921,2096921, 306473, 449533
2096921,2096921, 306575, 449541
2096921,2096921, 306389, 449542
2096921,2096921, 306620, 449600
2096921,2096921, 306742, 449385
2096921,2096921, 306513, 449598
2096921,2096921, 306597, 449605
2096921,2096921, 306733, 449580
2096921,2096921, 306550, 449335
2096921,2096921, 306552, 449570
2096921,2096921, 306383, 449430
2096921,2096921, 306565, 449467
2096921,2096921, 306602, 449935
2096921,2096921, 306737, 449539
2096921,2096921, 306530, 449712
2096921,2096921, 306567, 449576
2096921,2096921, 306795, 449779
2096921,2096921, 306728, 449642
2096921,2096921, 306527, 449854
2096921,2096921, 306465, 449832
2096921,2096921, 306545, 449524
2096921,2096921, 306257, 449751
2096921,2096921, 306428, 449688
2096921,2096921, 306805, 449929
2096921,2096921, 306735, 449932
2096921,2096921, 306992, 450105
2096921,2096921, 306852, 449692
2096921,2096921, 307028, 449883
2096921,2096921, 306720, 450093
2096921,2096921, 306743, 449967
2096921,2096921, 306798, 450165
2096921,2096921, 306863, 450148
2096921,2096921, 307103, 450146
2096921,2096921, 307149, 450388
2096921,2096921, 307060, 450633
2096921,2096921, 307024, 450369
2096921,2096921, 307208, 450424
2096921,2096921, 307416, 450381
2096921,2096921, 307026, 450683
2096921,2096921, 307054, 450366
2096921,2096921, 307139, 450387
2096921,2096921, 307232, 450612
2096921,2096921, 307653, 450493
2096921,2096921, 307481, 451081
2096921,2096921, 307625, 451344
2096921,2096921, 307730, 451490
2096921,2096921, 307580, 451483
2096921,2096921, 308058, 451171
2096921,2096921, 308136, 451761
2096921,2096921, 307993, 451634
2096921,2096921, 308221, 451746
2096921,2096921, 307938, 451704
2096921,2096921, 308370, 451635
2096921,2096921, 308622, 452247
2096921,2096921, 308382, 452284
2096921,2096921, 308561, 452378
2096921,2096921, 308745, 452477
2096921,2096921, 308937, 452250
2096921,2096921, 308473, 453045
2096921,2096921, 308651, 453055
2096921,2096921, 308869, 452811
2096921,2096921, 308946, 452802
2096921,2096921, 309094, 452838
2096921,2096921, 309162, 453282
2096921,2096921, 309548, 453073
2096921,2096921, 309251, 453348
2096921,2096921, 309299, 453304
2096921,2096921, 309480, 453446
2096921,2096921, 309625, 453590
2096921,2096921, 309275, 453545
2096921,2096921, 309583, 453607
2096921,2096921, 309664, 453642
2096921,2096921, 309823, 453847
2096921,2096921, 309784, 454326
2096921,2096921, 310022, 454391
2096921,2096921, 309705, 454294
2096921,2096921, 309951, 454308
2096921,2096921, 310113, 454461
2096921,2096921, 310424, 454559
2096921,2096921, 310099, 454564
2096921,2096921, 310324, 454557
2096921,2096921, 310247, 454674
2096921,2096921, 310542, 454321
2096921,2096921, 310545, 454804
2096921,2096921, 310773, 455094
2096921,2096921, 310583, 455319
2096921,2096921, 310554, 454990
2096921,2096921, 310841, 455208
2096921,2096921, 310754, 455356
2096921,2096921, 310865, 455546
2096921,2096921, 310827, 455599
2096921,2096921, 310825, 455338
2096921,2096921, 310993, 455532
2096921,2096921, 311367, 456063
2096921,2096921, 311418, 456157
2096921,2096921, 311329, 456094
2096921,2096921, 311205, 456037
2096921,2096921, 311589, 456009
2096921,2096921, 311674, 455954
2096921,2096921, 311524, 456518
2096921,2096921, 311480, 456241
2096921,2096921, 311278, 456283
2096921,2096921, 311601, 456550
2096921,2096921, 311985, 457062
2096921,2096921, 311798, 456868
2096921,2096921, 311827, 456746
2096921,2096921, 311663, 457122
2096921,2096921, 311874, 456851
2096921,2096921, 311963, 456981
2096921,2096921, 312336, 457058
2096921,2096921, 312286, 457485
2096921,2096921, 312331, 457106
2096921,2096921, 312442, 457025
2096921,2096921, 312607, 457775
2096921,2096921, 312390, 457901
2096921,2096921, 312575, 457735
2096921,2096921, 312434, 457828
2096921,2096921, 312639, 457463
2096921,2096921, 312452, 457847
2096921,2096921, 312593, 457932
2096921,2096921, 312462, 457788
2096921,2096921, 312517, 457842
2096921,2096921, 312928, 457783
2096921,2096921, 312915, 458534
2096921,2096921, 312957, 458661
2096921,2096921, 312888, 458554
2096921,2096921, 313210, 458479
2096921,2096921, 313098, 458725
2096921,2096921, 313053, 458902
2096921,2096921, 313225, 458858
2096921,2096921, 313120, 458803
2096921,2096921, 313154, 458547
2096921,2096921, 313603, 458854
2096921,2096921, 313545, 458995
2096921,2096921, 313306, 459381
2096921,2096921, 313246, 459290
2096921,2096921, 313426, 459240
2096921,2096921, 313327, 459173
2096921,2096921, 313546, 459685
2096921,2096921, 313448, 459240
2096921,2096921, 313584, 459247
2096921,2096921, 313611, 459510
2096921,2096921, 313671, 459501
2096921,2096921, 313839, 459703
2096921,2096921, 313852, 459823
2096921,2096921, 314036, 459810
2096921,2096921, 314158, 459957
2096921,2096921, 314067, 459686
2096921,2096921, 314141, 460132
2096921,2096921, 313970, 459904
2096921,2096921, 313939, 459890
2096921,2096921, 313894, 460027
2096921,2096921, 314185, 459983
2096921,2096921, 314075, 460505
2096921,2096921, 314288, 460414
2096921,2096921, 314145, 460371
2096921,2096921, 314291, 460253
2096921,2096921, 314196, 460162
2096921,2096921, 314732, 460347
2096921,2096921, 314478, 460383
2096921,2096921, 314500, 460364
2096921,2096921, 314612, 460513
2096921,2096921, 314606, 460830
2096921,2096921, 314606, 460740
2096921,2096921, 314721, 460977
2096921,2096921, 314637, 461138
2096921,2096921, 314764, 461241
2096921,2096921, 314725, 460784
2096921,2096921, 314764, 460733
2096921,2096921, 314641, 460890
2096921,2096921, 314681, 460821
2096921,2096921, 314900, 460926
2096921,2096921, 314702, 461224
2096921,2096921, 314857, 461231
2096921,2096921, 315073, 461036
2096921,2096921, 315080, 461378
2096921,2096921, 314975, 461279
2096921,2096921, 315162, 461321
2096921,2096921, 315200, 461653
2096921,2096921, 315134, 461326
2096921,2096921, 315021, 461576
2096921,2096921, 315302, 461774
2096921,2096921, 315293, 461213
2096921,2096921, 314962, 461799
2096921,2096921, 315086, 461885
2096921,2096921, 315383, 461740
2096921,2096921, 315222, 462137
2096921,2096921, 315463, 461997
2096921,2096921, 315274, 461760
2096921,2096921, 315361, 461670
2096921,2096921, 315487, 461874
2096921,2096921, 315325, 462062
2096921,2096921, 315454, 461993
2096921,2096921, 315472, 461969
2096921,2096921, 315454, 462110
2096921,2096921, 315495, 462225
2096921,2096921, 315722, 462050
2096921,2096921, 315742, 462055
2096921,2096921, 315309, 462232
2096921,2096921, 315408, 461924
2096921,2096921, 315316, 462014
2096921,2096921, 315427, 462263
2096921,2096921, 315445, 462389
2096921,2096921, 316060, 462369
2096921,2096921, 315799, 462517
2096921,2096921, 315921, 462389
2096921,2096921, 315715, 462065
2096921,2096921, 315959, 462373
2096921,2096921, 315803, 462575
2096921,2096921, 315873, 462467
2096921,2096921, 315613, 462588
2096921,2096921, 315834, 462572
2096921,2096921, 315881, 462464
2096921,2096921, 315798, 462519
2096921,2096921, 315676, 462496
2096921,2096921, 316136, 462706
2096921,2096921, 315976, 462793
2096921,2096921, 315901, 462448
2096921,2096921, 316019, 462587
2096921,2096921, 315639, 462420
2096921,2096921, 315726, 462587
2096921,2096921, 315853, 462464
2096921,2096921, 315905, 462584
2096921,2096921, 316048, 463013
2096921,2096921, 316241, 462942
2096921,2096921, 316379, 462771
2096921,2096921, 316216, 463010
2096921,2096921, 316292, 463072
2096921,2096921, 316217, 463188
2096921,2096921, 316078, 462772
2096921,2096921, 316114, 462846
2096921,2096921, 315971, 462856
2096921,2096921, 316194, 462800
2096921,2096921, 316163, 462632
2096921,2096921, 316136, 463047
2096921,2096921, 316425, 462825
2096921,2096921, 316297, 463163
2096921,2096921, 316228, 463089
2096921,2096921, 316372, 463060
2096921,2096921, 316130, 462663
2096921,2096921, 316228, 462717
2096921,2096921, 316237, 463098
2096921,2096921, 316695, 463163
2096921,2096921, 316426, 463232
2096921,2096921, 316485, 463533
2096921,2096921, 316468, 463306
2096921,2096921, 316376, 463403
2096921,2096921, 316442, 463069
2096921,2096921, 316446, 462988
2096921,2096921, 316322, 463123
2096921,2096921, 316403, 462979
2096921,2096921, 316283, 462986
2096921,2096921, 316413, 462970
2096921,2096921, 316640, 463340
2096921,2096921, 316668, 463077
2096921,2096921, 316496, 463378
2096921,2096921, 316723, 463246
2096921,2096921, 316804, 463284
2096921,2096921, 316449, 463795
2096921,2096921, 316305, 463517
2096921,2096921, 316223, 463561
2096921,2096921, 316402, 463345
2096921,2096921, 316436, 463356
2096921,2096921, 316430, 463301
2096921,2096921, 316285, 463301
2096921,2096921, 316721, 463291
2096921,2096921, 316642, 463388
2096921,2096921, 316519, 463407
2096921,2096921, 316100, 463581
2096921,2096921, 316402, 463753
2096921,2096921, 316392, 463149
2096921,2096921, 316403, 462850
2096921,2096921, 316560, 463208
2096921,2096921, 316540, 463340
2096921,2096921, 316435, 463294
2096921,2096921, 316621, 463471
2096921,2096921, 316351, 463474
2096921,2096921, 316308, 463559
2096921,2096921, 316638, 463219
2096921,2096921, 316373, 463539
2096921,2096921, 316349, 463313
2096921,2096921, 316231, 463301
2096921,2096921, 316173, 463250
2096921,2096921, 316574, 463435
2096921,2096921, 316683, 463573
2096921,2096921, 316765, 463374
2096921,2096921, 316538, 463374
2096921,2096921, 316858, 463353
2096921,2096921, 316551, 463349
2096921,2096921, 316401, 463417
2096921,2096921, 316580, 463435
2096921,2096921, 316651, 463413
2096921,2096921, 316460, 463473
2096921,2096921, 316454, 463536
2096921,2096921, 316479, 463496
2096921,2096921, 316864, 463303
2096921,2096921, 316625, 463660
2096921,2096921, 316462, 463300
2096921,2096921, 316462, 463141
2096921,2096921, 316478, 463154
2096921,2096921, 316032, 463312
2096921,2096921, 316465, 463306
2096921,2096921, 316293, 463155
2096921,2096921, 316373, 463457
2096921,2096921, 316691, 463873
2096921,2096921, 316531, 463419
2096921,2096921, 316650, 463532
2096921,2096921, 316192, 463461
2096921,2096921, 316032, 462988
2096921,2096921, 315784, 462526
2096921,2096921, 316179, 462547
2096921,2096921, 316076, 462528
2096921,2096921, 315759, 462703
2096921,2096921, 315778, 462306
2096921,2096921, 315778, 462346
2096921,2096921, 315593, 462123
2096921,2096921, 315666, 462488
2096921,2096921, 315157, 462245
2096921,2096921, 315178, 461673
2096921,2096921, 315087, 461184
2096921,2096921, 315028, 461596
2096921,2096921, 315121, 461541
2096921,2096921, 314384, 461388
2096921,2096921, 314406, 460682
2096921,2096921, 314366, 460449
2096921,2096921, 314464, 460513
2096921,2096921, 314528, 460745
2096921,2096921, 313652, 460517
2096921,2096921, 313673, 459324
2096921,2096921, 313443, 459090
2096921,2096921, 313725, 459237
2096921,2096921, 313440, 459043
2096921,2096921, 312085, 459196
2096921,2096921, 311752, 456929
2096921,2096921, 311627, 456848
2096921,2096921, 312026, 456758
2096921,2096921, 311861, 456787
2096921,2096921, 309895, 456480
2096921,2096921, 309278, 453893
2096921,2096921, 309084, 453112
2096921,2096921, 309089, 453098
2096921,2096921, 308970, 453262
2096921,2096921, 307860, 453295
2096921,2096921, 307488, 451562
2096921,2096921, 307333, 451385
2096921,2096921, 307246, 451396
2096921,2096921, 307671, 451016
2096921,2096921, 306353, 450961
2096921,2096921, 305906, 449557
2096921,2096921, 305691, 449234
2096921,2096921, 305678, 449006
2096921,2096921, 306306, 449183
2096921,2096921, 305326, 449000
2096921,2096921, 305317, 448002
2096921,2096921, 305132, 447850
2096921,2096921, 304874, 447918
2096921,2096921, 305165, 447652
2096921,2096921, 304567, 448238
2096921,2096921, 304231, 447055
2096921,2096921, 304425, 446810
2096921,2096921, 304370, 446474
2096921,2096921, 304302, 446761
2096921,2096921, 304350, 446779
2096921,2096921, 303852, 446225
2096921,2096921, 303795, 446077
2096921,2096921, 303641, 446361
2096921,2096921, 303952, 446048
2096921,2096921, 303809, 446216
2096921,2096921, 303541, 445621
2096921,2096921, 303526, 445273
2096921,2096921, 303300, 445558
2096921,2096921, 303604, 445730
2096921,2096921, 303658, 445798
2096921,2096921, 303566, 445481
2096921,2096921, 303304, 445802
2096921,2096921, 303736, 445568
2096921,2096921, 303630, 445732
2096921,2096921, 303510, 445326
2096921,2096921, 303394, 445565
2096921,2096921, 303465, 445329
2096921,2096921, 303326, 445470
2096921,2096921, 303512, 445627
2096921,2096921, 303755, 445606
2096921,2096921, 303919, 445945
2096921,2096921, 303814, 445799
2096921,2096921, 303758, 445956
2096921,2096921, 303822, 446001
2096921,2096921, 303666, 445915
2096921,2096921, 303564, 445985
2096921,2096921, 303485, 445943
2096921,2096921, 303709, 445713
2096921,2096921, 303739, 445726
2096921,2096921, 303809, 446100
2096921,2096921, 304099, 446087
2096921,2096921, 303825, 446205
2096921,2096921, 303966, 446259
2096921,2096921, 303561, 446281
2096921,2096921, 303832, 446394
2096921,2096921, 304007, 446486
2096921,2096921, 304188, 446590
2096921,2096921, 304201, 446520
2096921,2096921, 304207, 446538
2096921,2096921, 304329, 446450
2096921,2096921, 304353, 447079
2096921,2096921, 304583, 447185
2096921,2096921, 304395, 447183
2096921,2096921, 304345, 447157
2096921,2096921, 304741, 447000
2096921,2096921, 304863, 447262
2096921,2096921, 304800, 447362
2096921,2096921, 304903, 447675
2096921,2096921, 305113, 447591
2096921,2096921, 305528, 447743
2096921,2096921, 305493, 448212
2096921,2096921, 305592, 448302
2096921,2096921, 305276, 448344
2096921,2096921, 305405, 448172
2096921,2096921, 305684, 448176
2096921,2096921, 305495, 448465
2096921,2096921, 305516, 448533
2096921,2096921, 305245, 448740
2096921,2096921, 305653, 448641
2096921,2096921, 306021, 448827
2096921,2096921, 306147, 449039
2096921,2096921, 306026, 449218
2096921,2096921, 306164, 449226
2096921,2096921, 306204, 449146
2096921,2096921, 306200, 449477
2096921,2096921, 306414, 449499
2096921,2096921, 306477, 449469
2096921,2096921, 306426, 449377
2096921,2096921, 306452, 449260
2096921,2096921, 306865, 449295
2096921,2096921, 307032, 450051
2096921,2096921, 307166, 450406
2096921,2096921, 306672, 450308
2096921,2096921, 306656, 450405
2096921,2096921, 307015, 450254
2096921,2096921, 306993, 450425
2096921,2096921, 306817, 450707
2096921,2096921, 307131, 450564
2096921,2096921, 307130, 450166
2096921,2096921, 307426, 450506
2096921,2096921, 307658, 450902
2096921,2096921, 307728, 451189
2096921,2096921, 307820, 451284
2096921,2096921, 307556, 451312
2096921,2096921, 307868, 451176
2096921,2096921, 307595, 451638
2096921,2096921, 307835, 452047
2096921,2096921, 308064, 451633
2096921,2096921, 308127, 451705
2096921,2096921, 308214, 451721
2096921,2096921, 308475, 452158
2096921,2096921, 308115, 452301
2096921,2096921, 308317, 452312
2096921,2096921, 308373, 452253
2096921,2096921, 308701, 452270
2096921,2096921, 308590, 452369
2096921,2096921, 308383, 452716
2096921,2096921, 308514, 452262
2096921,2096921, 308620, 452556
2096921,2096921, 308890, 452511
2096921,2096921, 308893, 453050
2096921,2096921, 308918, 453257
2096921,2096921, 308926, 453190
2096921,2096921, 309031, 453251
2096921,2096921, 309419, 453050
2096921,2096921, 309063, 452939
2096921,2096921, 309167, 453202
2096921,2096921, 308784, 452956
2096921,2096921, 308902, 453114
2096921,2096921, 309040, 453079
2096921,2096921, 309292, 452986
2096921,2096921, 309087, 453211
2096921,2096921, 309177, 453278
2096921,2096921, 309421, 453011
2096921,2096921, 309486, 453290
2096921,2096921, 309076, 453566
2096921,2096921, 309180, 453439
2096921,2096921, 309016, 453540
2096921,2096921, 309030, 453217
2096921,2096921, 309095, 453355
2096921,2096921, 308978, 453275
2096921,2096921, 309289, 453406
2096921,2096921, 309318, 453132
2096921,2096921, 309286, 453181
2096921,2096921, 309215, 453168
2096921,2096921, 308977, 453091
2096921,2096921, 309072, 452887
2096921,2096921, 309158, 452878
2096921,2096921, 309149, 452815
2096921,2096921, 309049, 453132
2096921,2096921, 309155, 452891
2096921,2096921, 308880, 452891
2096921,2096921, 308755, 453087
2096921,2096921, 308918, 452848
2096921,2096921, 308795, 453001
2096921,2096921, 308829, 452680
2096921,2096921, 308688, 452765
2096921,2096921, 308837, 452447
2096921,2096921, 308764, 452536
2096921,2096921, 308517, 452310
2096921,2096921, 308422, 452144
2096921,2096921, 308654, 452159
2096921,2096921, 308737, 452505
2096921,2096921, 308798, 452550
2096921,2096921, 308293, 452587
2096921,2096921, 308263, 452168
2096921,2096921, 308061, 452140
2096921,2096921, 308090, 451945
2096921,2096921, 308244, 451856
2096921,2096921, 308109, 452540
2096921,2096921, 307991, 451975
2096921,2096921, 308211, 451896
2096921,2096921, 308094, 452066
2096921,2096921, 308006, 451672
2096921,2096921, 308025, 451808
2096921,2096921, 307731, 451749
2096921,2096921, 307880, 451449
2096921,2096921, 307877, 451550
2096921,2096921, 307981, 451741
2096921,2096921, 308102, 451769
2096921,2096921, 307732, 451596
2096921,2096921, 307861, 451729
2096921,2096921, 308183, 451851
2096921,2096921, 308099, 451553
2096921,2096921, 307979, 451836
2096921,2096921, 307759, 451571
2096921,2096921, 307984, 451550
2096921,2096921, 308123, 451294
2096921,2096921, 307918, 451536
2096921,2096921, 307793, 451495
2096921,2096921, 307873, 451599
2096921,2096921, 308203, 451608
2096921,2096921, 308160, 451682
2096921,2096921, 307848, 451674
2096921,2096921, 307851, 451458
2096921,2096921, 307590, 451408
2096921,2096921, 307705, 451398
2096921,2096921, 307764, 451795
2096921,2096921, 307841, 451679
2096921,2096921, 308099, 451535
2096921,2096921, 308311, 451961
2096921,2096921, 308124, 451822
2096921,2096921, 308170, 452218
2096921,2096921, 308050, 452182
2096921,2096921, 308298, 452031
2096921,2096921, 308327, 451890
2096921,2096921, 308238, 452033
2096921,2096921, 308270, 451988
2096921,2096921, 308424, 452177
2096921,2096921, 308550, 452254
2096921,2096921, 308819, 452112
2096921,2096921, 308531, 452429
2096921,2096921, 308542, 452436
2096921,2096921, 308409, 452403
2096921,2096921, 308888, 452499
2096921,2096921, 308986, 452691
2096921,2096921, 308651, 452647
2096921,2096921, 308819, 452450
2096921,2096921, 308899, 452764
2096921,2096921, 308849, 452802
2096921,2096921, 309033, 452969
2096921,2096921, 308814, 453203
2096921,2096921, 308952, 452875
2096921,2096921, 308977, 453170
2096921,2096921, 309225, 452978
2096921,2096921, 308991, 452851
2096921,2096921, 308992, 452809
2096921,2096921, 308835, 453051
2096921,2096921, 309010, 452859
2096921,2096921, 308992, 453026
2096921,2096921, 309096, 453154
2096921,2096921, 309161, 453508
2096921,2096921, 309125, 453149
2096921,2096921, 309268, 453337
2096921,2096921, 309526, 453195
2096921,2096921, 309213, 453190
2096921,2096921, 309032, 453394
2096921,2096921, 309128, 453084
2096921,2096921, 309003, 453011
2096921,2096921, 309224, 453695
2096921,2096921, 309439, 453653
2096921,2096921, 309653, 453822
2096921,2096921, 309328, 453726
2096921,2096921, 309340, 453614
2096921,2096921, 309421, 453688
2096921,2096921, 309585, 453607
2096921,2096921, 309634, 453828
2096921,2096921, 309664, 453546
2096921,2096921, 309456, 453703
2096921,2096921, 309952, 453695
2096921,2096921, 309881, 453856
2096921,2096921, 309947, 454107
2096921,2096921, 309526, 453888
2096921,2096921, 309887, 453958
2096921,2096921, 309818, 453931
2096921,2096921, 309811, 453835
2096921,2096921, 309654, 453713
2096921,2096921, 309567, 453961
2096921,2096921, 309726, 454136
2096921,2096921, 309895, 453952
2096921,2096921, 309882, 454063
2096921,2096921, 309984, 454269
2096921,2096921, 309924, 454047
2096921,2096921, 310095, 454432
2096921,2096921, 310120, 454252
2096921,2096921, 309826, 454292
2096921,2096921, 310107, 454419
2096921,2096921, 310071, 454264
2096921,2096921, 309812, 454228
2096921,2096921, 310198, 454148
2096921,2096921, 310153, 454346
2096921,2096921, 310231, 454418
2096921,2096921, 310412, 454540
2096921,2096921, 310055, 454314
2096921,2096921, 310233, 454387
2096921,2096921, 310097, 454551
2096921,2096921, 310243, 454620
2096921,2096921, 310021, 454747
2096921,2096921, 310232, 454711
2096921,2096921, 310583, 454572
2096921,2096921, 310347, 454638
2096921,2096921, 310423, 454781
2096921,2096921, 310264, 454523
2096921,2096921, 310230, 454381
2096921,2096921, 310351, 454640
2096921,2096921, 309994, 454607
2096921,2096921, 310393, 454906
2096921,2096921, 310287, 454567
2096921,2096921, 310284, 454678
2096921,2096921, 310481, 454788
2096921,2096921, 310563, 454753
2096921,2096921, 310448, 454933
2096921,2096921, 310552, 455092
2096921,2096921, 310597, 454955
2096921,2096921, 310379, 454878
2096921,2096921, 310463, 454957
2096921,2096921, 310462, 454686
2096921,2096921, 310501, 454960
2096921,2096921, 310588, 455026
2096921,2096921, 310336, 454661
2096921,2096921, 310545, 454991
2096921,2096921, 310429, 454854
2096921,2096921, 310522, 454743
2096921,2096921, 310528, 454989
2096921,2096921, 310689, 454907
2096921,2096921, 310624, 454910
2096921,2096921, 310477, 455051
2096921,2096921, 310340, 454931
2096921,2096921, 310188, 454939
2096921,2096921, 310370, 455001
2096921,2096921, 310594, 454978
2096921,2096921, 310640, 454903
2096921,2096921, 310525, 454998
2096921,2096921, 310560, 454826
2096921,2096921, 310330, 454991
2096921,2096921, 310330, 454860
2096921,2096921, 310269, 454940
2096921,2096921, 310220, 455133
2096921,2096921, 310613, 455281
2096921,2096921, 310610, 454518
2096921,2096921, 310390, 454715
2096921,2096921, 310558, 454862
2096921,2096921, 310695, 455201
2096921,2096921, 310616, 455098
2096921,2096921, 310430, 454897
2096921,2096921, 310442, 454761
2096921,2096921, 310282, 454800
2096921,2096921, 310593, 454874
2096921,2096921, 310641, 454815
2096921,2096921, 310663, 454777
2096921,2096921, 310643, 454927
2096921,2096921, 310733, 455129
2096921,2096921, 310695, 455160
2096921,2096921, 310789, 454856
2096921,2096921, 310340, 454744
2096921,2096921, 310141, 455018
2096921,2096921, 310580, 454901
2096921,2096921, 310346, 454662
2096921,2096921, 310378, 454709
2096921,2096921, 310601, 455095
2096921,2096921, 310701, 455159
2096921,2096921, 310644, 455279
2096921,2096921, 310768, 454867
2096921,2096921, 310721, 454786
2096921,2096921, 310647, 454779
2096921,2096921, 310746, 454939
2096921,2096921, 310817, 454440
2096921,2096921, 310413, 454733
2096921,2096921, 310429, 454592
2096921,2096921, 310360, 454778
2096921,2096921, 310530, 454763
2096921,2096921, 310713, 454891
2096921,2096921, 310714, 455025
2096921,2096921, 310542, 454529
2096921,2096921, 310335, 454842
2096921,2096921, 310414, 454614
2096921,2096921, 310461, 454624
2096921,2096921, 310244, 454723
2096921,2096921, 310214, 454873
2096921,2096921, 310497, 454964
2096921,2096921, 310613, 454843
2096921,2096921, 310541, 454700
2096921,2096921, 310500, 454655
2096921,2096921, 310389, 454582
2096921,2096921, 310340, 454453
2096921,2096921, 310339, 454378
2096921,2096921, 310225, 454444
2096921,2096921, 310152, 454500
2096921,2096921, 310336, 454797
2096921,2096921, 310439, 454928
2096921,2096921, 310531, 454688
