2096921,2096921, 294065, 431175
2096921,2096921, 294141, 431240
2096921,2096921, 294425, 431294
2096921,2096921, 294403, 431474
2096921,2096921, 294286, 431703
2096921,2096921, 294215, 431875
2096921,2096921, 294554, 431705
2096921,2096921, 294356, 431519
2096921,2096921, 294558, 431687
2096921,2096921, 294356, 431766
2096921,2096921, 294452, 431889
2096921,2096921, 294801, 431667
2096921,2096921, 294428, 431815
2096921,2096921, 294591, 432063
2096921,2096921, 294273, 431925
2096921,2096921, 294237, 431825
2096921,2096921, 294539, 431839
2096921,2096921, 294410, 432519
2096921,2096921, 294488, 432039
2096921,2096921, 294584, 432257
2096921,2096921, 294537, 432211
2096921,2096921, 294954, 432263
2096921,2096921, 295152, 432964
2096921,2096921, 295336, 433025
2096921,2096921, 295395, 433172
2096921,2096921, 295352, 432883
2096921,2096921, 295638, 432951
2096921,2096921, 295611, 433308
2096921,2096921, 295464, 433564
2096921,2096921, 295604, 433528
2096921,2096921, 295662, 433353
2096921,2096921, 296041, 433506
2096921,2096921, 296057, 434054
2096921,2096921, 296079, 434314
2096921,2096921, 296176, 434232
2096921,2096921, 296175, 434538
2096921,2096921, 296455, 434255
2096921,2096921, 296313, 434560
2096921,2096921, 296580, 434639
2096921,2096921, 296308, 434605
2096921,2096921, 296043, 434278
2096921,2096921, 296729, 434707
2096921,2096921, 296772, 434863
2096921,2096921, 296856, 435052
2096921,2096921, 296809, 435137
2096921,2096921, 296883, 435168
2096921,2096921, 296910, 435249
2096921,2096921, 297175, 435628
2096921,2096921, 296973, 435636
2096921,2096921, 297036, 435509
2096921,2096921, 297181, 435821
2096921,2096921, 297505, 435790
2096921,2096921, 297542, 436029
2096921,2096921, 297464, 436251
2096921,2096921, 297567, 436246
2096921,2096921, 297541, 436477
2096921,2096921, 297836, 436382
2096921,2096921, 297947, 436739
2096921,2096921, 297862, 436967
2096921,2096921, 298118, 437012
2096921,2096921, 297903, 437075
2096921,2096921, 298155, 436712
2096921,2096921, 298264, 437203
2096921,2096921, 298379, 437457
2096921,2096921, 298409, 437574
2096921,2096921, 298424, 437519
2096921,2096921, 298703, 437211
2096921,2096921, 298633, 437817
2096921,2096921, 298862, 438189
2096921,2096921, 298903, 437848
2096921,2096921, 298861, 437967
2096921,2096921, 299071, 437869
2096921,2096921, 299486, 438199
2096921,2096921, 299438, 438679
2096921,2096921, 299486, 438734
2096921,2096921, 299199, 438945
2096921,2096921, 299248, 438533
2096921,2096921, 299558, 438842
2096921,2096921, 299483, 438805
2096921,2096921, 299513, 438955
2096921,2096921, 299586, 438868
2096921,2096921, 299779, 439098
2096921,2096921, 299891, 439406
2096921,2096921, 299967, 439484
2096921,2096921, 299924, 439624
2096921,2096921, 299916, 439826
2096921,2096921, 299976, 439746
2096921,2096921, 300187, 439772
2096921,2096921, 300344, 439582
2096921,2096921, 300194, 439734
2096921,2096921, 299976, 439820
2096921,2096921, 300231, 439948
2096921,2096921, 300280, 440079
2096921,2096921, 300671, 440170
2096921,2096921, 300437, 440410
2096921,2096921, 300365, 440179
2096921,2096921, 300192, 440176
2096921,2096921, 300217, 440263
2096921,2096921, 300261, 440329
2096921,2096921, 300040, 440241
2096921,2096921, 300304, 440278
2096921,2096921, 300442, 440315
2096921,2096921, 300114, 440159
2096921,2096921, 300348, 440421
2096921,2096921, 300296, 440335
2096921,2096921, 300724, 440519
2096921,2096921, 300238, 440374
2096921,2096921, 300332, 440342
2096921,2096921, 300370, 440609
2096921,2096921, 300198, 439976
2096921,2096921, 300303, 440235
2096921,2096921, 300392, 440216
2096921,2096921, 300195, 440231
2096921,2096921, 300051, 440134
2096921,2096921, 299995, 440386
2096921,2096921, 300345, 440080
2096921,2096921, 300126, 440116
2096921,2096921, 299952, 440112
2096921,2096921, 300002, 439981
2096921,2096921, 300028, 439772
2096921,2096921, 299830, 439855
2096921,2096921, 300126, 440020
2096921,2096921, 300195, 439985
2096921,2096921, 300029, 440004
2096921,2096921, 299885, 439805
2096921,2096921, 299967, 439692
2096921,2096921, 299953, 439645
2096921,2096921, 299547, 439564
2096921,2096921, 299734, 439535
2096921,2096921, 299879, 439449
2096921,2096921, 299764, 439496
2096921,2096921, 299613, 439697
2096921,2096921, 299711, 439753
2096921,2096921, 299737, 439453
2096921,2096921, 299866, 439667
2096921,2096921, 299799, 439467
2096921,2096921, 299556, 439620
2096921,2096921, 299559, 439373
2096921,2096921, 299475, 439357
2096921,2096921, 300085, 439340
2096921,2096921, 299781, 439327
2096921,2096921, 299567, 439182
2096921,2096921, 299780, 439407
2096921,2096921, 299866, 439473
2096921,2096921, 299730, 439325
2096921,2096921, 299681, 439388
2096921,2096921, 299756, 439469
2096921,2096921, 299831, 439474
2096921,2096921, 299857, 439154
2096921,2096921, 300013, 439301
2096921,2096921, 299677, 439435
2096921,2096921, 299603, 439675
2096921,2096921, 299847, 439805
2096921,2096921, 299892, 439755
2096921,2096921, 300062, 439800
2096921,2096921, 299875, 439787
2096921,2096921, 299920, 439736
2096921,2096921, 299768, 439694
2096921,2096921, 300068, 439560
2096921,2096921, 299884, 439478
2096921,2096921, 299823, 439928
2096921,2096921, 300184, 439792
2096921,2096921, 300354, 439964
2096921,2096921, 300270, 439912
2096921,2096921, 300551, 440073
2096921,2096921, 300399, 440063
2096921,2096921, 300549, 440218
2096921,2096921, 300548, 440553
2096921,2096921, 300778, 440670
2096921,2096921, 300548, 440524
2096921,2096921, 300700, 440454
2096921,2096921, 300918, 440571
2096921,2096921, 301095, 440831
2096921,2096921, 300843, 441008
2096921,2096921, 300699, 440796
2096921,2096921, 300801, 441177
2096921,2096921, 300960, 441041
2096921,2096921, 300992, 441436
2096921,2096921, 301134, 441403
2096921,2096921, 301338, 441394
2096921,2096921, 301098, 441356
2096921,2096921, 301439, 441486
2096921,2096921, 301670, 441799
2096921,2096921, 301635, 442099
2096921,2096921, 301696, 441870
2096921,2096921, 301568, 441907
2096921,2096921, 301621, 441909
2096921,2096921, 301625, 441994
2096921,2096921, 301286, 442014
2096921,2096921, 301430, 441991
2096921,2096921, 301416, 442066
2096921,2096921, 301963, 442061
2096921,2096921, 301929, 442035
2096921,2096921, 301899, 442269
2096921,2096921, 302052, 442708
2096921,2096921, 302142, 442618
2096921,2096921, 302306, 442643
2096921,2096921, 302307, 442671
2096921,2096921, 302186, 443036
2096921,2096921, 302126, 443029
2096921,2096921, 301836, 442977
2096921,2096921, 302407, 442876
2096921,2096921, 302389, 443155
2096921,2096921, 302375, 443554
2096921,2096921, 302355, 443224
2096921,2096921, 302507, 443209
2096921,2096921, 302718, 443594
2096921,2096921, 302624, 443617
2096921,2096921, 302572, 443405
2096921,2096921, 302657, 443596
2096921,2096921, 302723, 443825
2096921,2096921, 303037, 443782
2096921,2096921, 303031, 443781
2096921,2096921, 303010, 443928
2096921,2096921, 302945, 444133
2096921,2096921, 302847, 444086
2096921,2096921, 302802, 444231
2096921,2096921, 303138, 444195
2096921,2096921, 303115, 444395
2096921,2096921, 303369, 444242
2096921,2096921, 303210, 444337
2096921,2096921, 303471, 444268
2096921,2096921, 303564, 444808
2096921,2096921, 303640, 444904
2096921,2096921, 303583, 445003
2096921,2096921, 303850, 444757
2096921,2096921, 303615, 444770
2096921,2096921, 303565, 444986
2096921,2096921, 303486, 445155
2096921,2096921, 303806, 445127
2096921,2096921, 303407, 445350
2096921,2096921, 303740, 445258
2096921,2096921, 303836, 445713
2096921,2096921, 304224, 445755
2096921,2096921, 304183, 445643
2096921,2096921, 304140, 445716
2096921,2096921, 304469, 445652
2096921,2096921, 304100, 445461
2096921,2096921, 304341, 445979
2096921,2096921, 304373, 445750
2096921,2096921, 304370, 445370
2096921,2096921, 304460, 446019
2096921,2096921, 304396, 446184
2096921,2096921, 304286, 446291
2096921,2096921, 304527, 446377
2096921,2096921, 304590, 446636
2096921,2096921, 304864, 446564
2096921,2096921, 304419, 446474
2096921,2096921, 304680, 446536
2096921,2096921, 304599, 446539
2096921,2096921, 304724, 446423
2096921,2096921, 305099, 446519
2096921,2096921, 305148, 446816
2096921,2096921, 304694, 446931
2096921,2096921, 304892, 446796
2096921,2096921, 305070, 446833
2096921,2096921, 304780, 447033
2096921,2096921, 304700, 447129
2096921,2096921, 304869, 446730
2096921,2096921, 305089, 447059
2096921,2096921, 305238, 446978
2096921,2096921, 305283, 447115
2096921,2096921, 305449, 447398
2096921,2096921, 305413, 447662
2096921,2096921, 305323, 447651
2096921,2096921, 305462, 447560
2096921,2096921, 305595, 447569
2096921,2096921, 305435, 447715
2096921,2096921, 305352, 447924
2096921,2096921, 305561, 447771
2096921,2096921, 305551, 448010
2096921,2096921, 305695, 448001
2096921,2096921, 305879, 447883
2096921,2096921, 305632, 447979
2096921,2096921, 305845, 448170
2096921,2096921, 305883, 448181
2096921,2096921, 305942, 448289
2096921,2096921, 306036, 448444
2096921,2096921, 306079, 448369
2096921,2096921, 306015, 448423
2096921,2096921, 305969, 448642
2096921,2096921, 306101, 448513
2096921,2096921, 306257, 448540
2096921,2096921, 306480, 448899
2096921,2096921, 306521, 448822
2096921,2096921, 306324, 448535
2096921,2096921, 306294, 448670
2096921,2096921, 306352, 448927
2096921,2096921, 306156, 448846
2096921,2096921, 306406, 448992
2096921,2096921, 306303, 449016
2096921,2096921, 306776, 448939
2096921,2096921, 306678, 449335
2096921,2096921, 306861, 449430
2096921,2096921, 306921, 449095
2096921,2096921, 306728, 449077
2096921,2096921, 306644, 449261
2096921,2096921, 306672, 449355
2096921,2096921, 306675, 449439
2096921,2096921, 306640, 449328
2096921,2096921, 306404, 449313
2096921,2096921, 306929, 449334
2096921,2096921, 306906, 449818
2096921,2096921, 307022, 450066
2096921,2096921, 306859, 450043
2096921,2096921, 307104, 449567
2096921,2096921, 306930, 449951
2096921,2096921, 307239, 449947
2096921,2096921, 307028, 449898
2096921,2096921, 307174, 449610
2096921,2096921, 307109, 449814
2096921,2096921, 307347, 449990
2096921,2096921, 307246, 450137
2096921,2096921, 307459, 450400
2096921,2096921, 307487, 450286
2096921,2096921, 307616, 450246
2096921,2096921, 307515, 450450
2096921,2096921, 307644, 450169
2096921,2096921, 307352, 450594
2096921,2096921, 307347, 450115
2096921,2096921, 307634, 450354
2096921,2096921, 307746, 450612
2096921,2096921, 307919, 450705
2096921,2096921, 307589, 450795
2096921,2096921, 307797, 450829
2096921,2096921, 307591, 450896
2096921,2096921, 307717, 450801
2096921,2096921, 307926, 450719
2096921,2096921, 308008, 450918
2096921,2096921, 307911, 450924
2096921,2096921, 307944, 450872
2096921,2096921, 307987, 451078
2096921,2096921, 308136, 451430
2096921,2096921, 307990, 451273
2096921,2096921, 307996, 451341
2096921,2096921, 307928, 451494
2096921,2096921, 308157, 451374
2096921,2096921, 308219, 451591
2096921,2096921, 307990, 451714
2096921,2096921, 307898, 451496
2096921,2096921, 308209, 451413
2096921,2096921, 308530, 451107
2096921,2096921, 308537, 451430
2096921,2096921, 308479, 451706
2096921,2096921, 308300, 451838
2096921,2096921, 308513, 452034
2096921,2096921, 308614, 451815
2096921,2096921, 308631, 451877
2096921,2096921, 308268, 451566
2096921,2096921, 308298, 451751
2096921,2096921, 308634, 451909
2096921,2096921, 308803, 452007
2096921,2096921, 308771, 452209
2096921,2096921, 308518, 452323
2096921,2096921, 308818, 452659
2096921,2096921, 308916, 452759
2096921,2096921, 308703, 452498
2096921,2096921, 308802, 452563
2096921,2096921, 308879, 452532
2096921,2096921, 308972, 452678
2096921,2096921, 308757, 452471
2096921,2096921, 309001, 452594
2096921,2096921, 309025, 452508
2096921,2096921, 309130, 452849
2096921,2096921, 309156, 452763
2096921,2096921, 309392, 452823
2096921,2096921, 309597, 452873
2096921,2096921, 309199, 453018
2096921,2096921, 309029, 452978
2096921,2096921, 309312, 453263
2096921,2096921, 309313, 453058
2096921,2096921, 309365, 453183
2096921,2096921, 309093, 453159
2096921,2096921, 309215, 453377
2096921,2096921, 309201, 453430
2096921,2096921, 309238, 453184
2096921,2096921, 309560, 453263
2096921,2096921, 309792, 453436
2096921,2096921, 309575, 453290
2096921,2096921, 309220, 453324
2096921,2096921, 309374, 453388
2096921,2096921, 309504, 453514
2096921,2096921, 309540, 453543
2096921,2096921, 309620, 453731
2096921,2096921, 309787, 453713
2096921,2096921, 309735, 453541
2096921,2096921, 309900, 453562
2096921,2096921, 309694, 453562
2096921,2096921, 309719, 454078
2096921,2096921, 309882, 453328
2096921,2096921, 309982, 453736
2096921,2096921, 309975, 453692
2096921,2096921, 309962, 454101
2096921,2096921, 310088, 453899
2096921,2096921, 309886, 454162
2096921,2096921, 309969, 454060
2096921,2096921, 310100, 453636
2096921,2096921, 309928, 454024
2096921,2096921, 309588, 454003
2096921,2096921, 309823, 453948
2096921,2096921, 309659, 454009
2096921,2096921, 309967, 453941
2096921,2096921, 309870, 454169
2096921,2096921, 310087, 454352
2096921,2096921, 310255, 454596
2096921,2096921, 310167, 454300
2096921,2096921, 310182, 454514
2096921,2096921, 310291, 454298
2096921,2096921, 310025, 454409
2096921,2096921, 310250, 454133
2096921,2096921, 310243, 454162
2096921,2096921, 309970, 453939
2096921,2096921, 310228, 454566
2096921,2096921, 310222, 454580
2096921,2096921, 310476, 454593
2096921,2096921, 310357, 454620
2096921,2096921, 310565, 454684
2096921,2096921, 310563, 454904
2096921,2096921, 310535, 454840
2096921,2096921, 310549, 454618
2096921,2096921, 310385, 454685
2096921,2096921, 310325, 454829
2096921,2096921, 310350, 455242
2096921,2096921, 310474, 455326
2096921,2096921, 310822, 455178
2096921,2096921, 310479, 454869
2096921,2096921, 310286, 454675
2096921,2096921, 310258, 454675
2096921,2096921, 310253, 454459
2096921,2096921, 310366, 454552
2096921,2096921, 310143, 454316
2096921,2096921, 310039, 454606
2096921,2096921, 309858, 454391
2096921,2096921, 310194, 454398
2096921,2096921, 310235, 454320
2096921,2096921, 310180, 454013
2096921,2096921, 309847, 454169
2096921,2096921, 309379, 453779
2096921,2096921, 309412, 453501
2096921,2096921, 309772, 453524
2096921,2096921, 309417, 453429
2096921,2096921, 309070, 453720
2096921,2096921, 309056, 453108
2096921,2096921, 309191, 452852
2096921,2096921, 308748, 452690
2096921,2096921, 308835, 452764
2096921,2096921, 308302, 452434
2096921,2096921, 308388, 451596
2096921,2096921, 308359, 451439
2096921,2096921, 308166, 451443
2096921,2096921, 308165, 451569
2096921,2096921, 306696, 451807
2096921,2096921, 306513, 449695
2096921,2096921, 306343, 449449
2096921,2096921, 306517, 449360
2096921,2096921, 306567, 449065
2096921,2096921, 304910, 449086
2096921,2096921, 304167, 446555
2096921,2096921, 304227, 445933
2096921,2096921, 304145, 445760
2096921,2096921, 304025, 445575
2096921,2096921, 303056, 445860
2096921,2096921, 302953, 444322
2096921,2096921, 302837, 443836
2096921,2096921, 302828, 443747
2096921,2096921, 302978, 443689
2096921,2096921, 301598, 443816
2096921,2096921, 301461, 442035
2096921,2096921, 301349, 441768
2096921,2096921, 301583, 441778
2096921,2096921, 301147, 441935
2096921,2096921, 300803, 441976
2096921,2096921, 300679, 441105
2096921,2096921, 300650, 440988
2096921,2096921, 300639, 440836
2096921,2096921, 300447, 440588
2096921,2096921, 300080, 440542
2096921,2096921, 299984, 439902
2096921,2096921, 299801, 439557
2096921,2096921, 299741, 439768
2096921,2096921, 299745, 439869
2096921,2096921, 299549, 439969
2096921,2096921, 299518, 439588
2096921,2096921, 299685, 439179
2096921,2096921, 299706, 439276
2096921,2096921, 299610, 439167
2096921,2096921, 299375, 439658
2096921,2096921, 299492, 439033
2096921,2096921, 299337, 438917
2096921,2096921, 299319, 439001
2096921,2096921, 299459, 438851
2096921,2096921, 299372, 438945
2096921,2096921, 299596, 438714
2096921,2096921, 299279, 438839
2096921,2096921, 299420, 439036
2096921,2096921, 299726, 438977
2096921,2096921, 299641, 439218
2096921,2096921, 299327, 439180
2096921,2096921, 299303, 439180
2096921,2096921, 299272, 438994
2096921,2096921, 299618, 439052
2096921,2096921, 299594, 439112
2096921,2096921, 299857, 439402
2096921,2096921, 299815, 439466
2096921,2096921, 299815, 439395
2096921,2096921, 299745, 439350
2096921,2096921, 300015, 439219
2096921,2096921, 299857, 439761
2096921,2096921, 300016, 439818
2096921,2096921, 299794, 440078
2096921,2096921, 299924, 439915
2096921,2096921, 300137, 440144
2096921,2096921, 300318, 440397
2096921,2096921, 300422, 440332
2096921,2096921, 300529, 440388
2096921,2096921, 300317, 440457
2096921,2096921, 300586, 440140
2096921,2096921, 300393, 440616
2096921,2096921, 300511, 441023
2096921,2096921, 300704, 440787
2096921,2096921, 300895, 440885
2096921,2096921, 301092, 441103
2096921,2096921, 301087, 441572
2096921,2096921, 301077, 441979
2096921,2096921, 301412, 441801
2096921,2096921, 301168, 441688
2096921,2096921, 301882, 441949
2096921,2096921, 301727, 442199
2096921,2096921, 301665, 442404
2096921,2096921, 301568, 442606
2096921,2096921, 301481, 442455
2096921,2096921, 302145, 442503
2096921,2096921, 302163, 443153
2096921,2096921, 302334, 443208
2096921,2096921, 302525, 443210
2096921,2096921, 302665, 443223
2096921,2096921, 302810, 442897
2096921,2096921, 303017, 443834
2096921,2096921, 302748, 443730
2096921,2096921, 302848, 444175
2096921,2096921, 302716, 443877
2096921,2096921, 303416, 443976
2096921,2096921, 303411, 444503
2096921,2096921, 303649, 444730
2096921,2096921, 303328, 444874
2096921,2096921, 303262, 444346
2096921,2096921, 303487, 444433
2096921,2096921, 303971, 445302
2096921,2096921, 303787, 445302
2096921,2096921, 303907, 445016
2096921,2096921, 303934, 445127
2096921,2096921, 304173, 445242
2096921,2096921, 304261, 446173
2096921,2096921, 304363, 446417
2096921,2096921, 304340, 446052
2096921,2096921, 304439, 446087
2096921,2096921, 304460, 446153
2096921,2096921, 304965, 446633
2096921,2096921, 304562, 446845
2096921,2096921, 304807, 446770
2096921,2096921, 304627, 446620
2096921,2096921, 305320, 446760
2096921,2096921, 305252, 447604
2096921,2096921, 305548, 447460
2096921,2096921, 305709, 447686
2096921,2096921, 305611, 447530
2096921,2096921, 305954, 447576
2096921,2096921, 305615, 448006
2096921,2096921, 305890, 448462
2096921,2096921, 305915, 448527
2096921,2096921, 305955, 448585
2096921,2096921, 306131, 448568
2096921,2096921, 306345, 448985
2096921,2096921, 306273, 449151
2096921,2096921, 306592, 449224
2096921,2096921, 306637, 449082
2096921,2096921, 306700, 449396
2096921,2096921, 306685, 449495
2096921,2096921, 306988, 449719
2096921,2096921, 307011, 449584
2096921,2096921, 307113, 449753
2096921,2096921, 307391, 449687
2096921,2096921, 307073, 450104
2096921,2096921, 307334, 450276
2096921,2096921, 307380, 450259
2096921,2096921, 307242, 450436
2096921,2096921, 307525, 450281
2096921,2096921, 307361, 450792
2096921,2096921, 307608, 450745
2096921,2096921, 307230, 450562
2096921,2096921, 307442, 450810
2096921,2096921, 307968, 450831
2096921,2096921, 307850, 450915
2096921,2096921, 307884, 451177
2096921,2096921, 308119, 451225
2096921,2096921, 307793, 451032
2096921,2096921, 308134, 451211
2096921,2096921, 307909, 451529
2096921,2096921, 307901, 451534
2096921,2096921, 307890, 451785
2096921,2096921, 308066, 451608
2096921,2096921, 308016, 451286
2096921,2096921, 308206, 451735
2096921,2096921, 308347, 451897
2096921,2096921, 308242, 451735
2096921,2096921, 308218, 451918
2096921,2096921, 308442, 451620
2096921,2096921, 308397, 451389
2096921,2096921, 308092, 451730
2096921,2096921, 308219, 451655
2096921,2096921, 308158, 451564
2096921,2096921, 308081, 451650
2096921,2096921, 308105, 451579
2096921,2096921, 308146, 451804
2096921,2096921, 308270, 451568
2096921,2096921, 308329, 451577
2096921,2096921, 308351, 451703
2096921,2096921, 308490, 451494
2096921,2096921, 308229, 451708
2096921,2096921, 307935, 451679
2096921,2096921, 307968, 451628
2096921,2096921, 308016, 451425
2096921,2096921, 308072, 451588
2096921,2096921, 307993, 451533
2096921,2096921, 308001, 451756
2096921,2096921, 308088, 451451
2096921,2096921, 308048, 451648
2096921,2096921, 308214, 451366
2096921,2096921, 308153, 451388
2096921,2096921, 308114, 451547
2096921,2096921, 308155, 451508
2096921,2096921, 307972, 451508
2096921,2096921, 308244, 451530
2096921,2096921, 308404, 451547
2096921,2096921, 308294, 451630
2096921,2096921, 308363, 451495
2096921,2096921, 308278, 451649
2096921,2096921, 308231, 451449
2096921,2096921, 308044, 451337
2096921,2096921, 307950, 451758
2096921,2096921, 307820, 451618
2096921,2096921, 308220, 451617
2096921,2096921, 308266, 451666
2096921,2096921, 308429, 451883
2096921,2096921, 308404, 451664
2096921,2096921, 308135, 451843
2096921,2096921, 308564, 451595
2096921,2096921, 308218, 451678
2096921,2096921, 308040, 451894
2096921,2096921, 308264, 451917
2096921,2096921, 308168, 451751
2096921,2096921, 308350, 451735
2096921,2096921, 308492, 452106
2096921,2096921, 308783, 452000
2096921,2096921, 308702, 452008
2096921,2096921, 308272, 451949
2096921,2096921, 308743, 452279
2096921,2096921, 308894, 452238
2096921,2096921, 308633, 452477
2096921,2096921, 308379, 452095
2096921,2096921, 308505, 452305
2096921,2096921, 308831, 452310
2096921,2096921, 309048, 452765
2096921,2096921, 309026, 452981
2096921,2096921, 309053, 453096
2096921,2096921, 309303, 452938
2096921,2096921, 309486, 452865
2096921,2096921, 309424, 453063
2096921,2096921, 309439, 453550
2096921,2096921, 309499, 453440
2096921,2096921, 309456, 453492
2096921,2096921, 309904, 453202
2096921,2096921, 309884, 453887
2096921,2096921, 309933, 453989
2096921,2096921, 309777, 454010
2096921,2096921, 309567, 453955
2096921,2096921, 310253, 454026
2096921,2096921, 310029, 454324
2096921,2096921, 310380, 454623
2096921,2096921, 310073, 454605
2096921,2096921, 310460, 454523
2096921,2096921, 310249, 454228
2096921,2096921, 310518, 454647
2096921,2096921, 310563, 454909
2096921,2096921, 310367, 455043
2096921,2096921, 310572, 454944
2096921,2096921, 310493, 454686
2096921,2096921, 310387, 454910
2096921,2096921, 310572, 455181
2096921,2096921, 310379, 455278
2096921,2096921, 310395, 455097
2096921,2096921, 310636, 455052
2096921,2096921, 310789, 455532
2096921,2096921, 310917, 455786
2096921,2096921, 311281, 455727
2096921,2096921, 311240, 455322
2096921,2096921, 311177, 455611
2096921,2096921, 311227, 456041
2096921,2096921, 311254, 455991
2096921,2096921, 311456, 456003
2096921,2096921, 311129, 455827
2096921,2096921, 311842, 455964
2096921,2096921, 311746, 456466
2096921,2096921, 311773, 456652
2096921,2096921, 311779, 456406
2096921,2096921, 311849, 456739
2096921,2096921, 311836, 456500
2096921,2096921, 311855, 457012
2096921,2096921, 311776, 456989
2096921,2096921, 311910, 456974
2096921,2096921, 311811, 456708
2096921,2096921, 312078, 456816
2096921,2096921, 311933, 457151
2096921,2096921, 312213, 457204
2096921,2096921, 312155, 457107
2096921,2096921, 312113, 457195
2096921,2096921, 312316, 457042
2096921,2096921, 312435, 457424
2096921,2096921, 312113, 457627
2096921,2096921, 312295, 457413
2096921,2096921, 312186, 457434
2096921,2096921, 313068, 457629
2096921,2096921, 312732, 457901
2096921,2096921, 312757, 457892
2096921,2096921, 312791, 458039
2096921,2096921, 312952, 457894
2096921,2096921, 312897, 457852
2096921,2096921, 312728, 458223
2096921,2096921, 312629, 458192
2096921,2096921, 312779, 458493
2096921,2096921, 312503, 458513
2096921,2096921, 312802, 458663
2096921,2096921, 312863, 458750
2096921,2096921, 313161, 458622
2096921,2096921, 313178, 458653
2096921,2096921, 313261, 458450
2096921,2096921, 313265, 458515
2096921,2096921, 313510, 459013
2096921,2096921, 313245, 458764
2096921,2096921, 313134, 458971
2096921,2096921, 313177, 459125
2096921,2096921, 313570, 459159
2096921,2096921, 313772, 459398
2096921,2096921, 313654, 459283
2096921,2096921, 313721, 459466
2096921,2096921, 313476, 459466
2096921,2096921, 313799, 459573
2096921,2096921, 313561, 459329
2096921,2096921, 313759, 459452
2096921,2096921, 313825, 459768
2096921,2096921, 313498, 459656
2096921,2096921, 313711, 459655
2096921,2096921, 314055, 459570
2096921,2096921, 313998, 459891
2096921,2096921, 314090, 459908
2096921,2096921, 313899, 459839
2096921,2096921, 314016, 460048
2096921,2096921, 314455, 460127
2096921,2096921, 314217, 460171
2096921,2096921, 314003, 460039
2096921,2096921, 314178, 460148
2096921,2096921, 314292, 460238
2096921,2096921, 314382, 460417
2096921,2096921, 314332, 460416
2096921,2096921, 314520, 460160
2096921,2096921, 314173, 460333
2096921,2096921, 314449, 460587
2096921,2096921, 314171, 460467
2096921,2096921, 314274, 460381
2096921,2096921, 314367, 460572
2096921,2096921, 314454, 460799
2096921,2096921, 314708, 460724
2096921,2096921, 314774, 460868
2096921,2096921, 314694, 460844
2096921,2096921, 314752, 460755
2096921,2096921, 314642, 460888
2096921,2096921, 314858, 460883
2096921,2096921, 314357, 460682
2096921,2096921, 314731, 461116
2096921,2096921, 314696, 460953
2096921,2096921, 314651, 460789
2096921,2096921, 314856, 460992
2096921,2096921, 314942, 461308
2096921,2096921, 314991, 461323
2096921,2096921, 315175, 461450
2096921,2096921, 314794, 461257
2096921,2096921, 314873, 461288
2096921,2096921, 315014, 461272
2096921,2096921, 315057, 461478
2096921,2096921, 314649, 461211
2096921,2096921, 314777, 461345
2096921,2096921, 314935, 461594
2096921,2096921, 315078, 461544
2096921,2096921, 315216, 461589
2096921,2096921, 315185, 461331
2096921,2096921, 315356, 461392
2096921,2096921, 315615, 461385
2096921,2096921, 315317, 461773
2096921,2096921, 315185, 461335
2096921,2096921, 315063, 461486
2096921,2096921, 315470, 461543
2096921,2096921, 315499, 461613
2096921,2096921, 315011, 461592
2096921,2096921, 315202, 461917
2096921,2096921, 315339, 461683
2096921,2096921, 315398, 461887
2096921,2096921, 315678, 461579
2096921,2096921, 315363, 461763
2096921,2096921, 315060, 461594
2096921,2096921, 315106, 461930
2096921,2096921, 315343, 462041
2096921,2096921, 315597, 462010
2096921,2096921, 315599, 461818
2096921,2096921, 315665, 462201
2096921,2096921, 315733, 462190
2096921,2096921, 315394, 462267
2096921,2096921, 315529, 462245
2096921,2096921, 315674, 461944
2096921,2096921, 315584, 462162
2096921,2096921, 315372, 462325
2096921,2096921, 315383, 462304
2096921,2096921, 315883, 462226
2096921,2096921, 315628, 462145
2096921,2096921, 315701, 462469
2096921,2096921, 315609, 462109
2096921,2096921, 315640, 462437
2096921,2096921, 315744, 462383
2096921,2096921, 315698, 462336
2096921,2096921, 315515, 462378
2096921,2096921, 315498, 462482
2096921,2096921, 315635, 462120
2096921,2096921, 315646, 462186
2096921,2096921, 315845, 462698
2096921,2096921, 315919, 462731
2096921,2096921, 315668, 462816
2096921,2096921, 315642, 462829
2096921,2096921, 315790, 462661
2096921,2096921, 315738, 462506
2096921,2096921, 315742, 462928
2096921,2096921, 315892, 462427
2096921,2096921, 316025, 462848
2096921,2096921, 315882, 462840
2096921,2096921, 316044, 463034
2096921,2096921, 315809, 462889
2096921,2096921, 315992, 462963
2096921,2096921, 315994, 462542
2096921,2096921, 315970, 462640
2096921,2096921, 315726, 462543
2096921,2096921, 315821, 463019
2096921,2096921, 315800, 462854
2096921,2096921, 315873, 462823
2096921,2096921, 315893, 462455
2096921,2096921, 316063, 462927
2096921,2096921, 315961, 462956
2096921,2096921, 316139, 463278
2096921,2096921, 315992, 463288
2096921,2096921, 316083, 463189
2096921,2096921, 315967, 463220
2096921,2096921, 315965, 463035
2096921,2096921, 316209, 462960
2096921,2096921, 316244, 463127
2096921,2096921, 316211, 462641
2096921,2096921, 316259, 462820
2096921,2096921, 316317, 463123
2096921,2096921, 316392, 463562
2096921,2096921, 316274, 463502
2096921,2096921, 316025, 463124
2096921,2096921, 316226, 463217
2096921,2096921, 316090, 463355
2096921,2096921, 316082, 463409
2096921,2096921, 316050, 463169
2096921,2096921, 316191, 463111
2096921,2096921, 316374, 463201
2096921,2096921, 316448, 463213
2096921,2096921, 316616, 463355
2096921,2096921, 316368, 463080
2096921,2096921, 316163, 463461
2096921,2096921, 316284, 463454
2096921,2096921, 316243, 463313
2096921,2096921, 316120, 463210
2096921,2096921, 316128, 463200
2096921,2096921, 316365, 463169
2096921,2096921, 316463, 463415
2096921,2096921, 316452, 463578
2096921,2096921, 316430, 463316
2096921,2096921, 316333, 463472
2096921,2096921, 316399, 463616
2096921,2096921, 316473, 463237
2096921,2096921, 316592, 463196
2096921,2096921, 316310, 463212
2096921,2096921, 316072, 463402
2096921,2096921, 316312, 463476
2096921,2096921, 316495, 463373
2096921,2096921, 316329, 463187
2096921,2096921, 316291, 463409
2096921,2096921, 316488, 463420
2096921,2096921, 316556, 463419
2096921,2096921, 316169, 463380
2096921,2096921, 316378, 463292
2096921,2096921, 316317, 463514
2096921,2096921, 316319, 463102
2096921,2096921, 316125, 463196
2096921,2096921, 316481, 463419
2096921,2096921, 316466, 463251
2096921,2096921, 316292, 463270
2096921,2096921, 316237, 463375
2096921,2096921, 316346, 463396
2096921,2096921, 316471, 463080
2096921,2096921, 316277, 463155
2096921,2096921, 316538, 463195
2096921,2096921, 316326, 463023
2096921,2096921, 316166, 463632
2096921,2096921, 316085, 463533
2096921,2096921, 316643, 463195
2096921,2096921, 316433, 463523
2096921,2096921, 316554, 463378
2096921,2096921, 316314, 463313
2096921,2096921, 316247, 463344
2096921,2096921, 316166, 463318
2096921,2096921, 316196, 462976
2096921,2096921, 316387, 463299
2096921,2096921, 316316, 462951
2096921,2096921, 316448, 463278
2096921,2096921, 316316, 463623
2096921,2096921, 316296, 463720
2096921,2096921, 316158, 463273
2096921,2096921, 315754, 463427
2096921,2096921, 315897, 462656
2096921,2096921, 315645, 462771
2096921,2096921, 315850, 462596
2096921,2096921, 316015, 462857
2096921,2096921, 315750, 462795
2096921,2096921, 315725, 462340
2096921,2096921, 315761, 462279
2096921,2096921, 315353, 462194
2096921,2096921, 315581, 462185
2096921,2096921, 314932, 462218
2096921,2096921, 314898, 461423
2096921,2096921, 315084, 461254
2096921,2096921, 314889, 461062
2096921,2096921, 314777, 460988
2096921,2096921, 314246, 461162
2096921,2096921, 314255, 460131
2096921,2096921, 314162, 460183
2096921,2096921, 314328, 460210
2096921,2096921, 314121, 460335
2096921,2096921, 313352, 460267
2096921,2096921, 313431, 458819
2096921,2096921, 313227, 458750
2096921,2096921, 313082, 458504
2096921,2096921, 313216, 458523
2096921,2096921, 311433, 458839
2096921,2096921, 311689, 456581
2096921,2096921, 311215, 455938
2096921,2096921, 311431, 456247
2096921,2096921, 311409, 456103
2096921,2096921, 309351, 455991
2096921,2096921, 308824, 453203
2096921,2096921, 308743, 452686
2096921,2096921, 308724, 452810
2096921,2096921, 309136, 452617
2096921,2096921, 307358, 452765
2096921,2096921, 307241, 450736
2096921,2096921, 306994, 450049
2096921,2096921, 307157, 450085
2096921,2096921, 306954, 449706
2096921,2096921, 305791, 449734
2096921,2096921, 305698, 448359
2096921,2096921, 305582, 448194
2096921,2096921, 305589, 448050
2096921,2096921, 305729, 448147
2096921,2096921, 304976, 447964
2096921,2096921, 304747, 447004
2096921,2096921, 304644, 446788
2096921,2096921, 304489, 446528
2096921,2096921, 304527, 446706
2096921,2096921, 303852, 446781
2096921,2096921, 303679, 445694
2096921,2096921, 303857, 445383
2096921,2096921, 303738, 445467
2096921,2096921, 304058, 445467
2096921,2096921, 303700, 445768
2096921,2096921, 303360, 444858
2096921,2096921, 303392, 444710
2096921,2096921, 303184, 444523
2096921,2096921, 303198, 444953
2096921,2096921, 303016, 444928
2096921,2096921, 302888, 444329
2096921,2096921, 302990, 443994
2096921,2096921, 302476, 444230
2096921,2096921, 302775, 444294
2096921,2096921, 303201, 444218
2096921,2096921, 302613, 443945
2096921,2096921, 302959, 444032
2096921,2096921, 302772, 443966
2096921,2096921, 303018, 443987
2096921,2096921, 302980, 444000
2096921,2096921, 302785, 443759
2096921,2096921, 302573, 444063
2096921,2096921, 302855, 443915
2096921,2096921, 302758, 443950
2096921,2096921, 302818, 443886
2096921,2096921, 302911, 444145
2096921,2096921, 303057, 444548
2096921,2096921, 303026, 444296
2096921,2096921, 302862, 444134
2096921,2096921, 302904, 444163
2096921,2096921, 302930, 444175
2096921,2096921, 302616, 444224
2096921,2096921, 302876, 444081
2096921,2096921, 303079, 444062
2096921,2096921, 302870, 443940
2096921,2096921, 303110, 444424
2096921,2096921, 303333, 444325
2096921,2096921, 303167, 444266
2096921,2096921, 303140, 444605
2096921,2096921, 303058, 444184
2096921,2096921, 303112, 444593
2096921,2096921, 303431, 444812
2096921,2096921, 303521, 444769
2096921,2096921, 303440, 444819
2096921,2096921, 303659, 444534
2096921,2096921, 303705, 445065
2096921,2096921, 303621, 445101
2096921,2096921, 303727, 445274
2096921,2096921, 303582, 445566
2096921,2096921, 303722, 445247
2096921,2096921, 303749, 445453
2096921,2096921, 303773, 445529
2096921,2096921, 303883, 445759
2096921,2096921, 304059, 445691
2096921,2096921, 304510, 445860
2096921,2096921, 304360, 446079
2096921,2096921, 304563, 446208
2096921,2096921, 304463, 445931
2096921,2096921, 304321, 445930
2096921,2096921, 304461, 446004
2096921,2096921, 304483, 446512
2096921,2096921, 304760, 446906
2096921,2096921, 304800, 446703
2096921,2096921, 304748, 446528
2096921,2096921, 304560, 446637
2096921,2096921, 304949, 446980
2096921,2096921, 304805, 447282
2096921,2096921, 304972, 447187
2096921,2096921, 305102, 446971
2096921,2096921, 305343, 447028
2096921,2096921, 305164, 447305
2096921,2096921, 305342, 447273
2096921,2096921, 305297, 447542
2096921,2096921, 305270, 447354
2096921,2096921, 305491, 447378
2096921,2096921, 305802, 447744
2096921,2096921, 305712, 447903
2096921,2096921, 305729, 447969
2096921,2096921, 305594, 448200
2096921,2096921, 305714, 448408
2096921,2096921, 305566, 448504
2096921,2096921, 306080, 448302
2096921,2096921, 305835, 448627
2096921,2096921, 305738, 448200
2096921,2096921, 306177, 448677
2096921,2096921, 306334, 449059
2096921,2096921, 306422, 449055
2096921,2096921, 306627, 449019
2096921,2096921, 306558, 449232
2096921,2096921, 306575, 448932
2096921,2096921, 306375, 449345
2096921,2096921, 306498, 449542
2096921,2096921, 306573, 449423
2096921,2096921, 306564, 449486
2096921,2096921, 306762, 449688
2096921,2096921, 307378, 450154
2096921,2096921, 307197, 450324
2096921,2096921, 307113, 450025
2096921,2096921, 307127, 450083
2096921,2096921, 307013, 449801
2096921,2096921, 307165, 450422
2096921,2096921, 307346, 450225
2096921,2096921, 307503, 450018
2096921,2096921, 307365, 450277
2096921,2096921, 307384, 450243
2096921,2096921, 307495, 450638
2096921,2096921, 307474, 450736
2096921,2096921, 307330, 450621
2096921,2096921, 307673, 450816
2096921,2096921, 307699, 450581
2096921,2096921, 307787, 450840
2096921,2096921, 307462, 450899
2096921,2096921, 307469, 450882
2096921,2096921, 307373, 450905
2096921,2096921, 307894, 450884
2096921,2096921, 307633, 450836
2096921,2096921, 307640, 451075
2096921,2096921, 307797, 450617
2096921,2096921, 307900, 450761
2096921,2096921, 307677, 451049
2096921,2096921, 307726, 451008
2096921,2096921, 307672, 450929
2096921,2096921, 307594, 451160
2096921,2096921, 307898, 450915
2096921,2096921, 307577, 450802
2096921,2096921, 307600, 450967
2096921,2096921, 307769, 451034
2096921,2096921, 307360, 450951
2096921,2096921, 307673, 451017
2096921,2096921, 307416, 450757
2096921,2096921, 307474, 450587
2096921,2096921, 307410, 450304
2096921,2096921, 307520, 450553
2096921,2096921, 307455, 450492
2096921,2096921, 307509, 450656
2096921,2096921, 307595, 450393
2096921,2096921, 307722, 450218
2096921,2096921, 307413, 450658
2096921,2096921, 307288, 450474
2096921,2096921, 307225, 450656
2096921,2096921, 306892, 450331
2096921,2096921, 307070, 449874
2096921,2096921, 307135, 449617
2096921,2096921, 306988, 449996
2096921,2096921, 307128, 450006
2096921,2096921, 306933, 449960
2096921,2096921, 306726, 449700
2096921,2096921, 306807, 449892
2096921,2096921, 307024, 449769
2096921,2096921, 306689, 449648
2096921,2096921, 306512, 449218
2096921,2096921, 306393, 449090
2096921,2096921, 306316, 449258
2096921,2096921, 306328, 449242
2096921,2096921, 306141, 449185
2096921,2096921, 306466, 448957
2096921,2096921, 306312, 449179
2096921,2096921, 306231, 449115
2096921,2096921, 306634, 448842
2096921,2096921, 306227, 449192
2096921,2096921, 306073, 448628
2096921,2096921, 306081, 448852
2096921,2096921, 305931, 448781
2096921,2096921, 306224, 448427
2096921,2096921, 306266, 448906
2096921,2096921, 306278, 448581
2096921,2096921, 306359, 448493
2096921,2096921, 306053, 448528
2096921,2096921, 306136, 448880
2096921,2096921, 305894, 448393
2096921,2096921, 305979, 448175
2096921,2096921, 305808, 448550
2096921,2096921, 305871, 448641
2096921,2096921, 306112, 448738
2096921,2096921, 305909, 448690
2096921,2096921, 306118, 448426
2096921,2096921, 306201, 448566
2096921,2096921, 305883, 448466
2096921,2096921, 306110, 448619
2096921,2096921, 306205, 448191
2096921,2096921, 305918, 448238
2096921,2096921, 305899, 448238
2096921,2096921, 305945, 448341
2096921,2096921, 305900, 448327
2096921,2096921, 306408, 448541
2096921,2096921, 306262, 448772
2096921,2096921, 306084, 449182
2096921,2096921, 306401, 448882
2096921,2096921, 306318, 449153
2096921,2096921, 306259, 448743
2096921,2096921, 306170, 449070
2096921,2096921, 306227, 448986
2096921,2096921, 306428, 449014
2096921,2096921, 306360, 449001
2096921,2096921, 306410, 449077
2096921,2096921, 306656, 449188
2096921,2096921, 306978, 449244
2096921,2096921, 307121, 449364
2096921,2096921, 306883, 449283
2096921,2096921, 306777, 449529
2096921,2096921, 306701, 449793
2096921,2096921, 306599, 449793
2096921,2096921, 306570, 449723
2096921,2096921, 306483, 449793
2096921,2096921, 306980, 449700
2096921,2096921, 306758, 449822
2096921,2096921, 307119, 449669
2096921,2096921, 306785, 450021
2096921,2096921, 307232, 450059
2096921,2096921, 307162, 449925
2096921,2096921, 307164, 449993
2096921,2096921, 306723, 449990
2096921,2096921, 307020, 449651
2096921,2096921, 307029, 449915
2096921,2096921, 307227, 450108
2096921,2096921, 307265, 449822
2096921,2096921, 307143, 449997
2096921,2096921, 307223, 450029
2096921,2096921, 306941, 450055
2096921,2096921, 307228, 449867
2096921,2096921, 306893, 450298
2096921,2096921, 307244, 450152
2096921,2096921, 307348, 450093
2096921,2096921, 307229, 450373
2096921,2096921, 307568, 450074
2096921,2096921, 307717, 450388
2096921,2096921, 307672, 450091
2096921,2096921, 307439, 450461
2096921,2096921, 307244, 450331
2096921,2096921, 307395, 450219
2096921,2096921, 307451, 450317
2096921,2096921, 307166, 450420
2096921,2096921, 307467, 450574
2096921,2096921, 307563, 450511
2096921,2096921, 307505, 450637
2096921,2096921, 307350, 450758
2096921,2096921, 307579, 450857
2096921,2096921, 307686, 450651
2096921,2096921, 307573, 450684
2096921,2096921, 307587, 450676
2096921,2096921, 307554, 450715
2096921,2096921, 307551, 450878
2096921,2096921, 307631, 450769
2096921,2096921, 307701, 450762
2096921,2096921, 307474, 450964
2096921,2096921, 308133, 451121
2096921,2096921, 307921, 450899
2096921,2096921, 307833, 451082
2096921,2096921, 307654, 451105
2096921,2096921, 307940, 450983
2096921,2096921, 307913, 451048
2096921,2096921, 307800, 450993
2096921,2096921, 307888, 451016
2096921,2096921, 308162, 451039
2096921,2096921, 307980, 451173
2096921,2096921, 308046, 451254
2096921,2096921, 307655, 451258
2096921,2096921, 308289, 451200
2096921,2096921, 307901, 451293
2096921,2096921, 307957, 451390
2096921,2096921, 307900, 451473
2096921,2096921, 307743, 451634
2096921,2096921, 307865, 451227
2096921,2096921, 307859, 451133
2096921,2096921, 307993, 451329
2096921,2096921, 307930, 451619
2096921,2096921, 308478, 451778
2096921,2096921, 308253, 451738
2096921,2096921, 308330, 451785
2096921,2096921, 308231, 451698
2096921,2096921, 308110, 451539
2096921,2096921, 307692, 451649
2096921,2096921, 307997, 451589
2096921,2096921, 307949, 451569
2096921,2096921, 308376, 451620
2096921,2096921, 308314, 451411
2096921,2096921, 308285, 451530
2096921,2096921, 307971, 451794
2096921,2096921, 308029, 451718
2096921,2096921, 308222, 451792
2096921,2096921, 308142, 451534
2096921,2096921, 308171, 451620
2096921,2096921, 308230, 451840
2096921,2096921, 308197, 451638
2096921,2096921, 308133, 451691
2096921,2096921, 308589, 451794
2096921,2096921, 308598, 451758
2096921,2096921, 308254, 452134
2096921,2096921, 308309, 451708
2096921,2096921, 308378, 451769
2096921,2096921, 308347, 451546
2096921,2096921, 308102, 451480
2096921,2096921, 308338, 451845
2096921,2096921, 308208, 451606
2096921,2096921, 308505, 451708
2096921,2096921, 308328, 451893
2096921,2096921, 308610, 451726
2096921,2096921, 308618, 451767
2096921,2096921, 308449, 451846
2096921,2096921, 308296, 451653
2096921,2096921, 308353, 451888
2096921,2096921, 308157, 451872
2096921,2096921, 308417, 451705
2096921,2096921, 308375, 451983
2096921,2096921, 308482, 452130
2096921,2096921, 308580, 452055
2096921,2096921, 308463, 452050
2096921,2096921, 308416, 451736
2096921,2096921, 308551, 451889
2096921,2096921, 308614, 452005
2096921,2096921, 308261, 451834
2096921,2096921, 308475, 451620
2096921,2096921, 308340, 451656
2096921,2096921, 308385, 451689
2096921,2096921, 308308, 451756
2096921,2096921, 308422, 451906
2096921,2096921, 308637, 452051
2096921,2096921, 308513, 452027
2096921,2096921, 308538, 452016
2096921,2096921, 308429, 452054
2096921,2096921, 308319, 451817
2096921,2096921, 308124, 451880
2096921,2096921, 308289, 451798
2096921,2096921, 308602, 451716
2096921,2096921, 308158, 451755
2096921,2096921, 308296, 451770
2096921,2096921, 308157, 451827
2096921,2096921, 308280, 451507
2096921,2096921, 308260, 451768
2096921,2096921, 308275, 451924
2096921,2096921, 308065, 452068
2096921,2096921, 308466, 451906
2096921,2096921, 308206, 452041
2096921,2096921, 308293, 451886
2096921,2096921, 308303, 451513
2096921,2096921, 308486, 451906
2096921,2096921, 308381, 451411
2096921,2096921, 308513, 451854
2096921,2096921, 308295, 451603
2096921,2096921, 308257, 451925
2096921,2096921, 308179, 451800
2096921,2096921, 308259, 451717
2096921,2096921, 308266, 451748
2096921,2096921, 308279, 451699
2096921,2096921, 308425, 451531
2096921,2096921, 308356, 451640
2096921,2096921, 308500, 452100
2096921,2096921, 308566, 452054
2096921,2096921, 308370, 451803
2096921,2096921, 308168, 451840
2096921,2096921, 308205, 451557
2096921,2096921, 308330, 451399
2096921,2096921, 308252, 451451
2096921,2096921, 308368, 451378
2096921,2096921, 308192, 451583
2096921,2096921, 308331, 451606
2096921,2096921, 308378, 451522
2096921,2096921, 308532, 451681
2096921,2096921, 308448, 451676
2096921,2096921, 308364, 451423
2096921,2096921, 307905, 451740
2096921,2096921, 308199, 451622
2096921,2096921, 308272, 451568
2096921,2096921, 308180, 451495
2096921,2096921, 308473, 451432
2096921,2096921, 308109, 451446
2096921,2096921, 308389, 451378
2096921,2096921, 308242, 451403
2096921,2096921, 308362, 451356
2096921,2096921, 308388, 451611
2096921,2096921, 308447, 451376
2096921,2096921, 308030, 451570
2096921,2096921, 308229, 451539
2096921,2096921, 308308, 451565
2096921,2096921, 308126, 451456
2096921,2096921, 307827, 451499
2096921,2096921, 308238, 451453
2096921,2096921, 307614, 451522
2096921,2096921, 307828, 451498
2096921,2096921, 307999, 451733
2096921,2096921, 308024, 451654
2096921,2096921, 307624, 451175
2096921,2096921, 307730, 451243
2096921,2096921, 308217, 451312
2096921,2096921, 308326, 451252
2096921,2096921, 307939, 451676
2096921,2096921, 308246, 451659
2096921,2096921, 308273, 451444
2096921,2096921, 308320, 451329
2096921,2096921, 308180, 451424
2096921,2096921, 307882, 451160
2096921,2096921, 308077, 451158
2096921,2096921, 307915, 451334
2096921,2096921, 307889, 451258
2096921,2096921, 307898, 450957
2096921,2096921, 307878, 451282
2096921,2096921, 308082, 451272
2096921,2096921, 308105, 451445
2096921,2096921, 308025, 451414
2096921,2096921, 308074, 451544
2096921,2096921, 308006, 451168
2096921,2096921, 307826, 451073
2096921,2096921, 308136, 451135
2096921,2096921, 307964, 451077
2096921,2096921, 307900, 450857
2096921,2096921, 307920, 451118
2096921,2096921, 307832, 451011
2096921,2096921, 307904, 451089
2096921,2096921, 308077, 451317
2096921,2096921, 307706, 451222
2096921,2096921, 307900, 451124
2096921,2096921, 307778, 451041
2096921,2096921, 307672, 450867
2096921,2096921, 307703, 451154
2096921,2096921, 307608, 450798
2096921,2096921, 307767, 450921
2096921,2096921, 307791, 450989
2096921,2096921, 307741, 450920
2096921,2096921, 307629, 450808
2096921,2096921, 307522, 450760
2096921,2096921, 307459, 450729
2096921,2096921, 307538, 450497
2096921,2096921, 307837, 450537
2096921,2096921, 307673, 450715
2096921,2096921, 307842, 450770
2096921,2096921, 307714, 450608
2096921,2096921, 307462, 450555
2096921,2096921, 307677, 450425
2096921,2096921, 307324, 450420
2096921,2096921, 307529, 450526
2096921,2096921, 307359, 450480
2096921,2096921, 307458, 450340
2096921,2096921, 307631, 450461
2096921,2096921, 307319, 450474
2096921,2096921, 307423, 450914
2096921,2096921, 307736, 450864
2096921,2096921, 307543, 450608
2096921,2096921, 307607, 450468
2096921,2096921, 307415, 450419
2096921,2096921, 307326, 450405
2096921,2096921, 307598, 450540
2096921,2096921, 307639, 450341
2096921,2096921, 307015, 450423
2096921,2096921, 307532, 450358
2096921,2096921, 307372, 450429
2096921,2096921, 307232, 450452
2096921,2096921, 307384, 450561
2096921,2096921, 307316, 450583
2096921,2096921, 307351, 450514
2096921,2096921, 306901, 450544
2096921,2096921, 306547, 449830
2096921,2096921, 306682, 449697
2096921,2096921, 306566, 449530
2096921,2096921, 307028, 449634
2096921,2096921, 306651, 449369
2096921,2096921, 306879, 448824
2096921,2096921, 306719, 449126
2096921,2096921, 306678, 449200
2096921,2096921, 306759, 448936
2096921,2096921, 305998, 449162
2096921,2096921, 305830, 448134
2096921,2096921, 305786, 448164
2096921,2096921, 305713, 448049
2096921,2096921, 305577, 447853
2096921,2096921, 305146, 448079
2096921,2096921, 304702, 447218
2096921,2096921, 304988, 447259
2096921,2096921, 305090, 447143
2096921,2096921, 304829, 446984
2096921,2096921, 304042, 447136
2096921,2096921, 304050, 446164
2096921,2096921, 304078, 445907
2096921,2096921, 304186, 445695
2096921,2096921, 304261, 445721
2096921,2096921, 302766, 445593
2096921,2096921, 302461, 443319
2096921,2096921, 302233, 443249
2096921,2096921, 302354, 443038
2096921,2096921, 302198, 442925
2096921,2096921, 300560, 442575
2096921,2096921, 300137, 440103
2096921,2096921, 299924, 439587
2096921,2096921, 299785, 439552
2096921,2096921, 299720, 439817
2096921,2096921, 298540, 439348
2096921,2096921, 298260, 437751
2096921,2096921, 298209, 437076
2096921,2096921, 298331, 437184
2096921,2096921, 298278, 437342
2096921,2096921, 297321, 437269
2096921,2096921, 296839, 435658
2096921,2096921, 296599, 435367
2096921,2096921, 296662, 435330
2096921,2096921, 296906, 435226
2096921,2096921, 295872, 435112
2096921,2096921, 295705, 434301
2096921,2096921, 295705, 433804
2096921,2096921, 295574, 433721
2096921,2096921, 295861, 433500
2096921,2096921, 295387, 433743
2096921,2096921, 294772, 433148
2096921,2096921, 295025, 432850
2096921,2096921, 294950, 432702
2096921,2096921, 294959, 432637
2096921,2096921, 294809, 432596
2096921,2096921, 294684, 432049
2096921,2096921, 294559, 432253
2096921,2096921, 294789, 432042
2096921,2096921, 294504, 432255
2096921,2096921, 294515, 432223
2096921,2096921, 293842, 431760
2096921,2096921, 294353, 431333
2096921,2096921, 294018, 431350
2096921,2096921, 294197, 431348
2096921,2096921, 294087, 431609
2096921,2096921, 294006, 431376
2096921,2096921, 294084, 431397
2096921,2096921, 293903, 431319
2096921,2096921, 294041, 431371
2096921,2096921, 294009, 431340
2096921,2096921, 294010, 431421
2096921,2096921, 294005, 431256
2096921,2096921, 294143, 431383
2096921,2096921, 294023, 431153
2096921,2096921, 294042, 431324
2096921,2096921, 294545, 431481
2096921,2096921, 294376, 431845
2096921,2096921, 294290, 431477
2096921,2096921, 294354, 431367
2096921,2096921, 294291, 431409
2096921,2096921, 294298, 431461
2096921,2096921, 294204, 431416
2096921,2096921, 293942, 431774
2096921,2096921, 294397, 431436
2096921,2096921, 294288, 431695
2096921,2096921, 294419, 431745
2096921,2096921, 294697, 432064
2096921,2096921, 294444, 431672
2096921,2096921, 294646, 431755
2096921,2096921, 294673, 431800
2096921,2096921, 294609, 432137
2096921,2096921, 294693, 432208
2096921,2096921, 294810, 432355
2096921,2096921, 294933, 432162
2096921,2096921, 295036, 432048
2096921,2096921, 295160, 432693
2096921,2096921, 295127, 432982
2096921,2096921, 295422, 432761
2096921,2096921, 295276, 432885
2096921,2096921, 295230, 432773
2096921,2096921, 295455, 433292
2096921,2096921, 295615, 433387
2096921,2096921, 295493, 433614
2096921,2096921, 295520, 433367
2096921,2096921, 295968, 433483
2096921,2096921, 295906, 434084
2096921,2096921, 296182, 434153
2096921,2096921, 295971, 433921
2096921,2096921, 295757, 434109
2096921,2096921, 296245, 434173
2096921,2096921, 296402, 434763
2096921,2096921, 296267, 434299
2096921,2096921, 296311, 434544
2096921,2096921, 296068, 434400
2096921,2096921, 296707, 434629
2096921,2096921, 296896, 434915
2096921,2096921, 296962, 435134
2096921,2096921, 296906, 435334
2096921,2096921, 296783, 435307
2096921,2096921, 296955, 435225
2096921,2096921, 297191, 435633
2096921,2096921, 296946, 435619
2096921,2096921, 297181, 435475
2096921,2096921, 297013, 435865
2096921,2096921, 297305, 435670
2096921,2096921, 297704, 436260
2096921,2096921, 297524, 436163
2096921,2096921, 297230, 436225
2096921,2096921, 297440, 436041
2096921,2096921, 297542, 436186
2096921,2096921, 297977, 436915
2096921,2096921, 297903, 436758
2096921,2096921, 297968, 436674
2096921,2096921, 297829, 436608
2096921,2096921, 298408, 436847
2096921,2096921, 298220, 437187
2096921,2096921, 298325, 437589
2096921,2096921, 298337, 437648
2096921,2096921, 298455, 437477
2096921,2096921, 298688, 437441
2096921,2096921, 298719, 437828
2096921,2096921, 298716, 437911
2096921,2096921, 298417, 438038
2096921,2096921, 298999, 438026
2096921,2096921, 299344, 438194
2096921,2096921, 299403, 438584
2096921,2096921, 299287, 438789
2096921,2096921, 299451, 438896
2096921,2096921, 299369, 438699
2096921,2096921, 299489, 438537
2096921,2096921, 299551, 438987
2096921,2096921, 299456, 439044
2096921,2096921, 299547, 438976
2096921,2096921, 299542, 438767
2096921,2096921, 299674, 439075
2096921,2096921, 299694, 439556
2096921,2096921, 299651, 439928
2096921,2096921, 299715, 439436
2096921,2096921, 299856, 439670
2096921,2096921, 299941, 439792
2096921,2096921, 299841, 439696
2096921,2096921, 300206, 439697
2096921,2096921, 299780, 439846
2096921,2096921, 299930, 440033
2096921,2096921, 300324, 439918
2096921,2096921, 300282, 440253
2096921,2096921, 300202, 440323
2096921,2096921, 300424, 440466
2096921,2096921, 300321, 440213
2096921,2096921, 300211, 439746
2096921,2096921, 300344, 440299
2096921,2096921, 300041, 440100
2096921,2096921, 300206, 439967
2096921,2096921, 300217, 440380
2096921,2096921, 300332, 440434
2096921,2096921, 300375, 440593
2096921,2096921, 300583, 440564
2096921,2096921, 300590, 440431
2096921,2096921, 300395, 440303
2096921,2096921, 300450, 440320
2096921,2096921, 300331, 440239
2096921,2096921, 300414, 440176
2096921,2096921, 300426, 440184
2096921,2096921, 300437, 440326
2096921,2096921, 300523, 440494
2096921,2096921, 300320, 440466
2096921,2096921, 300626, 440113
2096921,2096921, 300568, 440090
2096921,2096921, 300192, 440116
2096921,2096921, 299977, 440392
2096921,2096921, 300362, 440110
2096921,2096921, 300029, 439866
2096921,2096921, 300100, 439795
2096921,2096921, 300011, 439934
2096921,2096921, 300037, 439622
2096921,2096921, 300172, 439713
2096921,2096921, 300092, 439805
2096921,2096921, 299994, 439852
2096921,2096921, 299869, 440151
2096921,2096921, 299620, 439953
2096921,2096921, 299557, 439741
2096921,2096921, 299645, 439672
2096921,2096921, 299876, 439383
2096921,2096921, 300064, 439388
2096921,2096921, 299910, 439826
2096921,2096921, 299709, 439475
2096921,2096921, 299740, 439111
2096921,2096921, 299681, 439482
2096921,2096921, 299584, 439217
2096921,2096921, 299671, 439637
2096921,2096921, 299608, 439360
2096921,2096921, 299594, 439214
2096921,2096921, 299532, 439197
2096921,2096921, 299600, 439296
2096921,2096921, 299831, 439237
2096921,2096921, 299763, 439509
2096921,2096921, 299739, 439361
2096921,2096921, 299681, 439344
2096921,2096921, 299741, 439383
2096921,2096921, 299771, 439380
2096921,2096921, 300156, 439413
2096921,2096921, 299950, 439526
2096921,2096921, 299835, 439371
2096921,2096921, 299765, 439456
2096921,2096921, 299510, 439630
2096921,2096921, 300353, 439731
2096921,2096921, 300115, 439806
2096921,2096921, 299859, 439766
2096921,2096921, 300042, 439621
2096921,2096921, 299782, 439407
2096921,2096921, 299899, 439559
2096921,2096921, 299761, 439517
2096921,2096921, 299955, 439662
2096921,2096921, 299720, 439680
2096921,2096921, 300254, 439792
2096921,2096921, 300361, 440285
2096921,2096921, 300456, 440097
2096921,2096921, 300614, 440148
2096921,2096921, 300227, 440338
2096921,2096921, 300560, 440412
2096921,2096921, 300580, 440645
2096921,2096921, 300610, 440661
2096921,2096921, 300380, 440402
2096921,2096921, 300473, 440632
2096921,2096921, 300750, 440176
2096921,2096921, 300878, 440896
2096921,2096921, 301053, 441209
2096921,2096921, 300926, 440817
2096921,2096921, 301077, 441173
2096921,2096921, 300882, 441034
2096921,2096921, 301058, 441472
2096921,2096921, 301286, 441317
2096921,2096921, 301242, 441567
2096921,2096921, 301179, 441194
2096921,2096921, 301553, 441055
2096921,2096921, 301467, 441592
2096921,2096921, 301586, 441927
2096921,2096921, 301312, 441784
2096921,2096921, 301284, 442041
2096921,2096921, 301444, 441954
2096921,2096921, 301546, 442356
2096921,2096921, 301687, 442146
2096921,2096921, 301552, 442109
2096921,2096921, 301411, 442082
2096921,2096921, 301913, 442229
2096921,2096921, 301977, 442469
2096921,2096921, 301924, 442475
2096921,2096921, 301711, 442202
2096921,2096921, 301741, 442504
2096921,2096921, 302074, 442257
2096921,2096921, 301972, 442693
2096921,2096921, 301984, 442691
2096921,2096921, 302044, 442789
2096921,2096921, 302153, 442665
2096921,2096921, 302567, 442942
2096921,2096921, 302691, 443083
2096921,2096921, 302608, 443179
2096921,2096921, 302352, 443128
2096921,2096921, 302553, 443397
2096921,2096921, 302616, 443245
2096921,2096921, 302813, 443362
2096921,2096921, 302660, 443546
2096921,2096921, 302664, 443568
2096921,2096921, 302715, 443741
2096921,2096921, 302866, 443524
2096921,2096921, 303004, 444199
2096921,2096921, 303045, 444006
2096921,2096921, 303096, 444104
2096921,2096921, 303283, 444290
2096921,2096921, 303235, 443864
2096921,2096921, 303307, 444157
2096921,2096921, 303183, 444416
2096921,2096921, 303228, 444416
2096921,2096921, 303258, 444327
2096921,2096921, 303360, 444106
2096921,2096921, 303375, 444506
2096921,2096921, 303444, 444551
2096921,2096921, 303361, 444713
2096921,2096921, 303416, 444513
2096921,2096921, 303343, 444650
2096921,2096921, 303514, 445031
2096921,2096921, 303740, 445005
2096921,2096921, 303816, 444731
2096921,2096921, 303625, 445161
2096921,2096921, 303612, 445046
2096921,2096921, 304204, 445596
2096921,2096921, 303981, 445460
2096921,2096921, 304330, 445471
2096921,2096921, 304024, 445519
2096921,2096921, 304141, 445263
2096921,2096921, 304473, 445595
2096921,2096921, 304217, 445658
2096921,2096921, 303991, 445746
2096921,2096921, 304269, 445658
2096921,2096921, 304364, 445820
2096921,2096921, 304623, 445983
2096921,2096921, 304575, 445923
2096921,2096921, 304669, 445887
2096921,2096921, 304528, 446237
2096921,2096921, 304578, 445980
2096921,2096921, 304522, 446207
2096921,2096921, 304744, 446232
2096921,2096921, 304416, 446084
2096921,2096921, 304423, 446589
2096921,2096921, 304674, 446303
2096921,2096921, 305023, 446654
2096921,2096921, 304867, 446989
2096921,2096921, 304891, 446783
2096921,2096921, 304739, 446710
2096921,2096921, 305050, 446611
2096921,2096921, 304926, 446918
2096921,2096921, 304969, 447277
2096921,2096921, 305007, 447113
2096921,2096921, 304968, 447156
2096921,2096921, 305241, 446872
2096921,2096921, 305217, 447476
2096921,2096921, 305083, 447506
2096921,2096921, 305393, 447492
2096921,2096921, 305409, 447330
2096921,2096921, 305461, 447588
2096921,2096921, 305141, 447663
2096921,2096921, 305407, 447532
2096921,2096921, 305354, 447638
2096921,2096921, 305361, 447922
2096921,2096921, 305619, 447669
2096921,2096921, 305533, 447746
2096921,2096921, 305649, 448184
2096921,2096921, 306081, 448072
2096921,2096921, 305718, 447936
2096921,2096921, 305765, 448073
2096921,2096921, 305869, 448345
2096921,2096921, 305972, 448180
2096921,2096921, 305812, 448358
2096921,2096921, 305889, 448255
2096921,2096921, 306086, 448328
2096921,2096921, 306065, 448649
2096921,2096921, 305957, 448540
2096921,2096921, 306191, 448574
2096921,2096921, 306306, 448323
2096921,2096921, 306159, 448479
2096921,2096921, 306230, 448718
2096921,2096921, 306483, 448936
2096921,2096921, 306501, 448629
2096921,2096921, 306484, 448765
2096921,2096921, 306632, 448807
2096921,2096921, 306430, 449185
2096921,2096921, 306349, 449446
2096921,2096921, 306832, 448915
2096921,2096921, 306571, 449139
2096921,2096921, 306488, 449126
2096921,2096921, 306584, 449315
2096921,2096921, 306528, 449383
2096921,2096921, 306620, 449246
2096921,2096921, 306607, 449304
2096921,2096921, 307187, 449440
2096921,2096921, 306926, 449491
2096921,2096921, 307053, 449802
2096921,2096921, 306912, 449526
2096921,2096921, 307183, 449600
2096921,2096921, 306968, 449569
2096921,2096921, 307077, 449531
2096921,2096921, 306928, 449655
2096921,2096921, 307065, 449485
2096921,2096921, 306741, 449823
2096921,2096921, 307229, 449624
2096921,2096921, 307205, 450146
2096921,2096921, 307056, 450061
2096921,2096921, 307144, 450308
2096921,2096921, 307285, 450498
2096921,2096921, 307419, 450060
2096921,2096921, 307453, 450260
2096921,2096921, 307322, 450484
2096921,2096921, 307325, 450501
2096921,2096921, 307291, 450656
2096921,2096921, 307672, 450236
2096921,2096921, 307699, 450563
2096921,2096921, 307485, 450643
2096921,2096921, 307821, 450842
2096921,2096921, 307710, 450703
2096921,2096921, 307697, 450776
2096921,2096921, 307836, 450575
2096921,2096921, 307705, 450672
2096921,2096921, 307717, 450524
2096921,2096921, 307633, 450871
2096921,2096921, 307689, 450643
2096921,2096921, 307983, 450890
2096921,2096921, 307850, 450939
2096921,2096921, 307971, 451116
2096921,2096921, 308120, 451052
2096921,2096921, 307919, 450929
2096921,2096921, 308040, 451271
2096921,2096921, 308223, 451246
2096921,2096921, 308016, 451365
2096921,2096921, 308297, 451223
2096921,2096921, 308458, 451375
2096921,2096921, 308711, 451443
2096921,2096921, 308372, 451517
2096921,2096921, 308076, 451422
2096921,2096921, 308057, 451366
2096921,2096921, 308277, 451504
2096921,2096921, 308106, 451767
2096921,2096921, 308379, 451661
2096921,2096921, 308364, 451741
2096921,2096921, 308483, 451629
2096921,2096921, 308551, 451849
2096921,2096921, 308644, 451897
2096921,2096921, 308492, 452258
2096921,2096921, 308629, 452282
2096921,2096921, 308773, 452110
2096921,2096921, 308751, 452307
2096921,2096921, 308754, 452194
2096921,2096921, 308837, 452222
2096921,2096921, 308487, 452149
2096921,2096921, 308627, 452144
2096921,2096921, 308990, 452453
2096921,2096921, 308971, 452378
2096921,2096921, 309107, 452526
2096921,2096921, 309072, 452535
2096921,2096921, 308878, 452747
2096921,2096921, 309030, 452431
2096921,2096921, 308972, 452481
2096921,2096921, 308882, 452682
2096921,2096921, 308687, 452848
2096921,2096921, 309141, 452757
2096921,2096921, 309010, 452812
2096921,2096921, 308918, 452787
2096921,2096921, 309158, 453159
2096921,2096921, 309259, 453062
2096921,2096921, 309293, 452728
2096921,2096921, 309161, 452928
2096921,2096921, 309246, 452997
2096921,2096921, 309213, 452942
2096921,2096921, 309474, 453135
2096921,2096921, 309471, 453173
2096921,2096921, 309445, 453101
2096921,2096921, 309594, 453165
2096921,2096921, 309386, 453005
2096921,2096921, 309357, 453455
2096921,2096921, 309555, 453534
2096921,2096921, 309129, 453253
2096921,2096921, 309391, 453294
2096921,2096921, 309338, 453664
2096921,2096921, 309420, 453173
2096921,2096921, 309429, 453066
2096921,2096921, 309749, 453125
2096921,2096921, 309618, 453644
2096921,2096921, 309760, 453623
2096921,2096921, 309846, 453540
2096921,2096921, 309703, 453483
2096921,2096921, 310035, 453483
2096921,2096921, 309758, 453744
2096921,2096921, 310002, 453842
2096921,2096921, 310012, 453675
2096921,2096921, 309976, 453791
2096921,2096921, 310108, 453731
2096921,2096921, 310066, 453940
2096921,2096921, 310179, 454300
2096921,2096921, 309893, 454298
2096921,2096921, 310000, 454024
2096921,2096921, 309975, 453983
2096921,2096921, 309759, 453987
2096921,2096921, 309787, 453984
2096921,2096921, 309847, 454142
2096921,2096921, 309789, 453911
2096921,2096921, 309986, 454247
2096921,2096921, 310081, 454327
2096921,2096921, 310292, 454631
2096921,2096921, 310264, 454498
2096921,2096921, 310371, 454439
2096921,2096921, 310146, 454579
2096921,2096921, 310387, 454249
2096921,2096921, 310276, 454167
2096921,2096921, 310066, 454420
2096921,2096921, 310150, 454243
2096921,2096921, 310208, 454560
2096921,2096921, 310422, 454466
2096921,2096921, 310562, 454378
2096921,2096921, 310264, 454406
2096921,2096921, 310243, 454767
2096921,2096921, 310310, 454585
2096921,2096921, 310143, 454285
2096921,2096921, 310335, 454316
2096921,2096921, 310005, 454165
2096921,2096921, 310258, 454397
2096921,2096921, 310124, 454626
2096921,2096921, 309791, 454386
2096921,2096921, 309907, 454140
2096921,2096921, 310171, 454214
2096921,2096921, 310186, 454213
2096921,2096921, 309562, 454461
2096921,2096921, 309249, 453346
2096921,2096921, 309387, 453249
2096921,2096921, 309454, 453125
2096921,2096921, 309703, 453270
2096921,2096921, 308991, 453493
2096921,2096921, 308785, 452541
2096921,2096921, 309092, 452536
2096921,2096921, 308997, 452432
2096921,2096921, 308876, 452421
2096921,2096921, 308293, 452662
2096921,2096921, 308029, 451450
2096921,2096921, 308139, 451070
2096921,2096921, 307952, 451091
2096921,2096921, 308189, 451168
2096921,2096921, 306745, 451328
2096921,2096921, 306123, 449321
2096921,2096921, 306109, 448976
2096921,2096921, 306264, 448626
2096921,2096921, 306170, 449099
2096921,2096921, 304168, 448722
2096921,2096921, 303702, 446114
2096921,2096921, 303707, 445718
2096921,2096921, 304050, 445374
2096921,2096921, 304386, 445511
2096921,2096921, 303003, 445410
2096921,2096921, 302522, 443716
2096921,2096921, 302535, 443587
2096921,2096921, 302608, 443413
2096921,2096921, 302330, 443255
2096921,2096921, 301242, 442990
2096921,2096921, 301195, 441879
2096921,2096921, 301103, 441666
2096921,2096921, 301103, 441463
2096921,2096921, 301086, 441458
2096921,2096921, 300498, 441552
2096921,2096921, 300580, 440605
2096921,2096921, 300552, 440568
2096921,2096921, 300296, 440502
2096921,2096921, 300339, 440560
2096921,2096921, 299769, 440690
2096921,2096921, 299748, 439918
2096921,2096921, 299694, 439540
2096921,2096921, 299829, 439485
2096921,2096921, 299607, 439258
2096921,2096921, 299365, 439421
2096921,2096921, 299065, 439217
2096921,2096921, 299124, 439210
2096921,2096921, 299311, 439023
2096921,2096921, 299276, 438911
2096921,2096921, 299179, 439174
2096921,2096921, 299099, 438637
2096921,2096921, 299210, 439316
2096921,2096921, 299329, 438801
2096921,2096921, 299185, 438920
2096921,2096921, 299211, 438952
2096921,2096921, 299400, 438896
2096921,2096921, 299201, 438873
2096921,2096921, 299240, 438984
2096921,2096921, 298881, 438993
2096921,2096921, 299005, 438735
2096921,2096921, 299082, 438838
2096921,2096921, 299139, 438737
2096921,2096921, 299378, 438731
2096921,2096921, 299301, 438864
2096921,2096921, 299744, 438756
2096921,2096921, 299613, 439171
2096921,2096921, 299690, 439410
2096921,2096921, 299725, 439130
2096921,2096921, 299419, 439095
2096921,2096921, 299601, 439138
2096921,2096921, 299799, 439394
2096921,2096921, 299662, 439499
2096921,2096921, 299830, 439658
2096921,2096921, 300123, 439643
2096921,2096921, 300087, 439738
2096921,2096921, 299853, 439781
2096921,2096921, 300011, 440081
2096921,2096921, 300042, 440210
2096921,2096921, 299716, 439852
2096921,2096921, 300416, 440123
2096921,2096921, 300448, 440547
2096921,2096921, 300499, 440610
2096921,2096921, 300466, 440741
2096921,2096921, 300495, 440802
2096921,2096921, 300991, 440663
2096921,2096921, 301004, 441196
2096921,2096921, 300655, 441512
2096921,2096921, 300800, 441601
2096921,2096921, 300894, 441342
2096921,2096921, 301621, 441065
2096921,2096921, 301591, 441980
2096921,2096921, 301662, 442098
2096921,2096921, 301718, 442121
2096921,2096921, 301832, 442129
2096921,2096921, 302172, 442012
2096921,2096921, 302422, 442886
2096921,2096921, 302174, 443290
2096921,2096921, 302403, 443045
2096921,2096921, 302076, 443176
2096921,2096921, 302767, 442708
2096921,2096921, 302552, 443287
2096921,2096921, 302455, 443580
2096921,2096921, 302390, 443501
2096921,2096921, 302731, 443452
2096921,2096921, 303328, 443519
2096921,2096921, 303067, 444267
2096921,2096921, 303143, 444671
2096921,2096921, 303377, 444482
2096921,2096921, 303258, 444473
2096921,2096921, 303236, 444334
2096921,2096921, 303573, 444882
2096921,2096921, 303586, 445100
2096921,2096921, 303520, 445016
2096921,2096921, 303256, 444737
2096921,2096921, 303881, 445038
2096921,2096921, 304303, 445650
2096921,2096921, 304370, 445568
2096921,2096921, 304210, 445759
2096921,2096921, 304192, 445935
2096921,2096921, 304501, 445888
2096921,2096921, 304540, 446542
2096921,2096921, 304659, 446531
2096921,2096921, 304519, 446755
2096921,2096921, 304695, 446580
2096921,2096921, 305177, 446755
2096921,2096921, 305256, 447315
2096921,2096921, 304985, 447357
2096921,2096921, 305182, 447253
2096921,2096921, 305083, 447082
2096921,2096921, 305613, 447069
2096921,2096921, 305868, 448091
2096921,2096921, 305781, 447981
2096921,2096921, 305869, 447884
2096921,2096921, 305868, 448215
2096921,2096921, 306364, 448297
2096921,2096921, 306319, 448892
2096921,2096921, 306605, 449003
2096921,2096921, 306494, 448966
2096921,2096921, 306477, 448649
2096921,2096921, 306408, 448756
2096921,2096921, 306549, 449154
2096921,2096921, 306546, 449241
2096921,2096921, 306413, 449298
2096921,2096921, 306876, 449577
2096921,2096921, 307028, 449638
2096921,2096921, 307235, 450000
2096921,2096921, 307029, 450208
2096921,2096921, 307213, 450224
2096921,2096921, 307230, 450234
2096921,2096921, 307180, 450082
2096921,2096921, 307418, 450418
2096921,2096921, 307320, 450583
2096921,2096921, 307308, 450450
2096921,2096921, 307509, 450567
2096921,2096921, 307522, 450639
2096921,2096921, 307780, 451078
2096921,2096921, 307724, 450825
2096921,2096921, 307693, 451101
2096921,2096921, 307808, 451146
2096921,2096921, 307948, 450996
2096921,2096921, 307851, 450932
2096921,2096921, 308013, 451147
2096921,2096921, 307992, 451519
2096921,2096921, 308070, 451527
2096921,2096921, 308024, 451383
2096921,2096921, 308054, 451459
2096921,2096921, 308000, 451446
2096921,2096921, 308136, 451599
2096921,2096921, 307722, 451532
2096921,2096921, 307790, 451186
2096921,2096921, 307779, 451307
2096921,2096921, 307945, 451642
2096921,2096921, 307810, 451658
2096921,2096921, 308224, 451629
2096921,2096921, 308122, 451684
2096921,2096921, 308317, 451693
2096921,2096921, 308172, 451825
2096921,2096921, 307998, 451633
2096921,2096921, 308348, 451993
2096921,2096921, 308095, 451539
2096921,2096921, 308021, 451345
2096921,2096921, 307995, 451229
2096921,2096921, 308103, 451428
2096921,2096921, 308105, 451191
2096921,2096921, 308039, 451543
2096921,2096921, 308184, 451321
2096921,2096921, 308225, 451488
2096921,2096921, 307981, 451616
2096921,2096921, 308242, 451586
2096921,2096921, 308342, 451440
2096921,2096921, 308170, 451410
2096921,2096921, 307868, 451412
2096921,2096921, 308090, 451459
2096921,2096921, 307939, 451221
2096921,2096921, 307834, 451229
2096921,2096921, 308048, 451157
2096921,2096921, 307882, 451349
2096921,2096921, 307831, 451452
2096921,2096921, 308020, 451361
2096921,2096921, 307864, 451245
2096921,2096921, 308178, 451386
2096921,2096921, 307953, 451381
2096921,2096921, 307723, 451177
2096921,2096921, 307656, 451485
2096921,2096921, 308005, 451494
2096921,2096921, 307947, 451706
2096921,2096921, 308133, 451671
2096921,2096921, 308127, 451478
2096921,2096921, 308033, 451365
2096921,2096921, 308136, 451330
2096921,2096921, 308133, 451546
2096921,2096921, 307888, 451610
2096921,2096921, 308037, 451892
2096921,2096921, 308276, 451778
2096921,2096921, 308362, 451710
2096921,2096921, 308512, 452185
2096921,2096921, 308428, 452002
2096921,2096921, 308385, 452020
2096921,2096921, 308268, 451781
2096921,2096921, 308338, 451835
2096921,2096921, 308582, 451955
2096921,2096921, 308433, 452066
2096921,2096921, 308353, 452258
2096921,2096921, 308461, 452179
2096921,2096921, 308694, 452195
2096921,2096921, 309027, 452452
2096921,2096921, 308805, 453051
2096921,2096921, 308988, 452850
2096921,2096921, 309131, 453097
2096921,2096921, 309264, 452748
2096921,2096921, 309367, 453278
2096921,2096921, 309176, 453253
2096921,2096921, 309360, 453013
2096921,2096921, 309251, 453262
2096921,2096921, 309489, 453255
2096921,2096921, 309493, 453736
2096921,2096921, 309890, 453863
2096921,2096921, 309741, 453908
2096921,2096921, 309753, 453731
2096921,2096921, 309859, 453714
2096921,2096921, 310006, 454220
2096921,2096921, 310225, 454469
2096921,2096921, 310051, 454269
2096921,2096921, 309954, 454444
2096921,2096921, 310208, 454098
2096921,2096921, 310505, 454671
2096921,2096921, 310227, 454694
2096921,2096921, 310445, 454881
2096921,2096921, 310383, 454755
2096921,2096921, 310454, 454762
2096921,2096921, 310619, 454973
2096921,2096921, 310580, 455344
2096921,2096921, 310508, 455144
2096921,2096921, 310596, 455162
2096921,2096921, 310736, 455299
2096921,2096921, 311089, 455638
2096921,2096921, 310921, 455411
2096921,2096921, 310848, 455574
2096921,2096921, 310802, 455244
2096921,2096921, 311193, 455162
2096921,2096921, 311143, 455917
2096921,2096921, 311347, 456173
2096921,2096921, 311240, 455975
2096921,2096921, 311254, 456066
2096921,2096921, 311341, 455923
2096921,2096921, 311859, 456291
2096921,2096921, 311311, 456421
2096921,2096921, 311412, 456584
2096921,2096921, 311741, 456493
2096921,2096921, 311734, 456418
2096921,2096921, 311710, 456698
2096921,2096921, 311623, 456701
2096921,2096921, 311832, 456544
2096921,2096921, 311863, 456805
2096921,2096921, 312270, 457026
2096921,2096921, 312211, 457131
2096921,2096921, 312264, 457516
2096921,2096921, 312250, 457471
2096921,2096921, 312165, 457392
2096921,2096921, 312093, 457133
2096921,2096921, 311992, 457521
2096921,2096921, 312158, 457053
2096921,2096921, 312046, 457176
2096921,2096921, 312479, 457214
2096921,2096921, 312504, 457487
2096921,2096921, 312595, 457834
2096921,2096921, 312732, 457841
2096921,2096921, 312750, 458010
2096921,2096921, 312548, 458303
2096921,2096921, 312638, 457806
2096921,2096921, 312739, 458128
2096921,2096921, 312636, 458394
2096921,2096921, 312948, 458201
2096921,2096921, 312826, 458181
2096921,2096921, 313115, 458166
2096921,2096921, 313104, 458543
2096921,2096921, 313176, 458630
2096921,2096921, 313024, 458799
2096921,2096921, 312915, 458682
2096921,2096921, 313043, 458763
2096921,2096921, 313320, 458961
2096921,2096921, 313052, 459023
2096921,2096921, 313380, 458691
2096921,2096921, 313388, 459090
2096921,2096921, 313871, 459058
2096921,2096921, 313889, 459427
2096921,2096921, 313621, 459364
2096921,2096921, 313439, 459516
2096921,2096921, 313473, 459351
2096921,2096921, 313415, 459154
2096921,2096921, 313569, 459284
2096921,2096921, 313444, 459500
2096921,2096921, 313647, 459337
2096921,2096921, 313444, 459336
2096921,2096921, 313584, 459546
2096921,2096921, 313809, 459820
2096921,2096921, 313683, 459802
2096921,2096921, 313741, 459684
2096921,2096921, 313856, 459808
2096921,2096921, 313861, 459943
2096921,2096921, 313970, 459933
2096921,2096921, 313603, 460189
2096921,2096921, 314038, 460173
2096921,2096921, 313993, 460220
2096921,2096921, 314376, 460065
2096921,2096921, 314236, 460459
2096921,2096921, 314355, 460255
2096921,2096921, 314417, 460060
2096921,2096921, 314302, 460096
2096921,2096921, 314368, 460325
2096921,2096921, 314372, 460381
2096921,2096921, 314169, 460598
2096921,2096921, 314410, 460512
2096921,2096921, 314252, 460757
2096921,2096921, 314703, 460335
2096921,2096921, 314782, 460969
2096921,2096921, 314549, 460871
2096921,2096921, 314677, 460955
2096921,2096921, 314678, 460910
2096921,2096921, 314599, 460780
2096921,2096921, 314582, 461032
2096921,2096921, 314724, 460884
2096921,2096921, 314567, 460994
2096921,2096921, 314851, 461001
2096921,2096921, 315225, 461062
2096921,2096921, 314815, 461347
2096921,2096921, 315017, 460898
2096921,2096921, 315210, 461297
2096921,2096921, 314812, 461500
2096921,2096921, 315091, 461360
2096921,2096921, 314824, 461390
2096921,2096921, 315049, 461230
2096921,2096921, 314876, 461426
2096921,2096921, 315071, 461182
2096921,2096921, 315052, 461366
2096921,2096921, 315237, 461516
2096921,2096921, 314950, 461627
2096921,2096921, 315197, 461603
2096921,2096921, 315048, 461345
2096921,2096921, 315157, 461594
2096921,2096921, 315247, 461564
2096921,2096921, 315153, 461597
2096921,2096921, 315226, 461944
2096921,2096921, 315057, 461331
2096921,2096921, 315264, 461537
2096921,2096921, 315158, 461885
2096921,2096921, 315317, 462280
2096921,2096921, 315205, 462201
2096921,2096921, 315334, 461709
2096921,2096921, 315290, 461508
2096921,2096921, 315291, 461786
2096921,2096921, 315218, 461881
2096921,2096921, 315104, 461952
2096921,2096921, 315112, 461864
2096921,2096921, 315249, 462087
2096921,2096921, 315520, 462192
2096921,2096921, 315714, 462042
2096921,2096921, 315487, 462286
2096921,2096921, 315668, 462041
2096921,2096921, 315578, 462224
2096921,2096921, 315324, 462146
2096921,2096921, 315449, 462077
2096921,2096921, 315607, 462008
2096921,2096921, 315817, 461972
2096921,2096921, 315815, 461957
2096921,2096921, 315584, 462309
2096921,2096921, 315814, 462288
2096921,2096921, 315685, 462613
2096921,2096921, 315801, 462419
2096921,2096921, 315606, 462351
2096921,2096921, 315739, 462468
2096921,2096921, 315697, 462473
2096921,2096921, 315854, 462544
2096921,2096921, 315634, 462368
2096921,2096921, 315880, 462448
2096921,2096921, 315924, 462556
2096921,2096921, 316199, 462811
2096921,2096921, 315799, 462724
2096921,2096921, 315662, 462407
2096921,2096921, 315599, 462558
2096921,2096921, 315870, 462705
2096921,2096921, 315878, 462729
2096921,2096921, 315737, 462635
2096921,2096921, 315966, 462638
2096921,2096921, 315769, 462565
2096921,2096921, 315704, 463086
2096921,2096921, 315929, 463064
2096921,2096921, 315915, 463155
2096921,2096921, 316043, 462968
2096921,2096921, 315956, 462900
2096921,2096921, 315798, 462841
2096921,2096921, 315838, 462797
2096921,2096921, 316090, 462779
2096921,2096921, 315970, 463031
2096921,2096921, 316277, 462634
2096921,2096921, 316290, 462917
2096921,2096921, 316155, 462947
2096921,2096921, 316407, 463055
2096921,2096921, 315994, 462960
2096921,2096921, 316247, 462942
2096921,2096921, 316154, 462839
2096921,2096921, 316027, 462917
2096921,2096921, 315913, 463158
2096921,2096921, 316209, 462915
2096921,2096921, 316280, 462912
2096921,2096921, 316347, 463066
2096921,2096921, 316332, 463136
2096921,2096921, 316352, 463261
2096921,2096921, 316105, 463294
2096921,2096921, 316340, 463360
2096921,2096921, 316143, 463349
2096921,2096921, 316226, 462919
2096921,2096921, 315934, 463213
2096921,2096921, 316306, 463206
2096921,2096921, 316153, 463214
2096921,2096921, 316382, 463471
2096921,2096921, 316175, 463584
2096921,2096921, 316311, 463239
2096921,2096921, 316315, 463184
2096921,2096921, 316536, 463233
2096921,2096921, 316332, 463229
2096921,2096921, 316321, 463128
2096921,2096921, 316332, 463159
2096921,2096921, 316268, 463360
2096921,2096921, 316447, 463493
2096921,2096921, 316695, 463544
2096921,2096921, 316446, 463659
2096921,2096921, 316569, 463468
2096921,2096921, 316506, 463316
2096921,2096921, 316120, 463256
2096921,2096921, 316033, 462993
2096921,2096921, 316225, 462954
2096921,2096921, 316304, 463179
2096921,2096921, 316190, 463388
2096921,2096921, 316157, 463275
2096921,2096921, 316355, 463259
2096921,2096921, 316605, 463374
2096921,2096921, 316228, 463406
2096921,2096921, 316500, 463367
2096921,2096921, 316488, 463376
2096921,2096921, 316510, 463404
2096921,2096921, 316451, 463357
2096921,2096921, 316373, 463494
2096921,2096921, 316313, 463358
2096921,2096921, 316313, 463385
2096921,2096921, 316304, 463499
2096921,2096921, 316408, 463325
2096921,2096921, 316469, 463275
2096921,2096921, 316353, 463521
2096921,2096921, 316139, 463248
2096921,2096921, 316421, 463364
2096921,2096921, 316344, 463110
2096921,2096921, 316145, 463086
2096921,2096921, 316166, 463337
2096921,2096921, 316180, 463300
2096921,2096921, 316310, 463431
2096921,2096921, 316298, 463404
2096921,2096921, 316502, 463429
2096921,2096921, 316317, 463407
2096921,2096921, 316276, 463282
2096921,2096921, 316355, 463168
2096921,2096921, 316126, 463214
2096921,2096921, 316200, 463174
2096921,2096921, 316378, 463341
2096921,2096921, 316547, 463168
2096921,2096921, 316248, 463323
2096921,2096921, 316203, 463290
2096921,2096921, 316384, 463112
2096921,2096921, 316116, 463231
2096921,2096921, 315835, 463253
2096921,2096921, 316001, 462789
2096921,2096921, 315815, 462544
2096921,2096921, 315934, 462595
2096921,2096921, 315869, 462703
2096921,2096921, 315916, 462650
2096921,2096921, 315676, 462473
2096921,2096921, 315645, 462219
2096921,2096921, 315568, 462360
2096921,2096921, 315732, 462524
2096921,2096921, 315050, 462411
2096921,2096921, 314742, 461501
2096921,2096921, 314824, 461256
2096921,2096921, 314700, 461176
2096921,2096921, 314692, 461384
2096921,2096921, 314260, 461353
2096921,2096921, 314337, 460589
2096921,2096921, 314246, 460374
2096921,2096921, 314077, 460487
2096921,2096921, 314029, 460323
2096921,2096921, 313244, 460244
2096921,2096921, 313211, 459189
2096921,2096921, 313325, 459001
2096921,2096921, 313350, 459144
2096921,2096921, 313023, 458678
2096921,2096921, 311771, 458886
2096921,2096921, 311284, 456401
2096921,2096921, 311237, 456037
2096921,2096921, 311335, 455991
2096921,2096921, 310984, 455848
2096921,2096921, 309337, 456024
2096921,2096921, 308726, 453057
2096921,2096921, 309062, 452715
2096921,2096921, 308867, 452728
2096921,2096921, 308565, 452672
2096921,2096921, 307213, 452833
2096921,2096921, 306909, 450609
2096921,2096921, 307136, 450222
2096921,2096921, 307341, 450161
2096921,2096921, 307241, 450103
2096921,2096921, 305726, 449942
2096921,2096921, 305601, 448344
2096921,2096921, 305480, 447861
2096921,2096921, 305500, 447783
2096921,2096921, 305614, 447976
2096921,2096921, 304896, 447744
2096921,2096921, 304639, 446823
2096921,2096921, 304754, 446732
2096921,2096921, 304556, 446590
2096921,2096921, 304601, 446565
2096921,2096921, 304328, 446607
2096921,2096921, 303920, 445742
2096921,2096921, 303542, 445529
2096921,2096921, 303666, 445720
2096921,2096921, 304076, 445666
2096921,2096921, 303544, 445633
2096921,2096921, 303417, 444932
2096921,2096921, 303358, 444694
2096921,2096921, 303474, 445148
2096921,2096921, 303484, 445060
2096921,2096921, 303425, 444823
2096921,2096921, 302868, 444594
2096921,2096921, 303190, 444531
2096921,2096921, 303239, 444490
2096921,2096921, 303331, 444227
2096921,2096921, 302791, 444317
2096921,2096921, 302675, 444182
2096921,2096921, 302767, 443995
2096921,2096921, 302983, 444192
2096921,2096921, 302826, 444131
2096921,2096921, 302649, 444201
2096921,2096921, 302635, 443936
2096921,2096921, 302654, 443990
2096921,2096921, 303056, 444029
2096921,2096921, 302972, 444266
2096921,2096921, 303018, 443871
2096921,2096921, 303058, 444117
2096921,2096921, 303062, 444377
2096921,2096921, 302969, 444241
2096921,2096921, 302579, 444226
2096921,2096921, 302818, 444082
2096921,2096921, 302592, 444293
2096921,2096921, 302952, 444416
2096921,2096921, 303068, 444213
2096921,2096921, 303049, 444274
2096921,2096921, 303249, 444387
2096921,2096921, 302776, 444685
2096921,2096921, 302941, 444624
2096921,2096921, 303016, 444590
2096921,2096921, 303079, 444043
2096921,2096921, 303376, 444280
2096921,2096921, 303316, 444536
2096921,2096921, 303401, 444761
2096921,2096921, 303423, 444643
2096921,2096921, 303519, 444785
2096921,2096921, 303686, 445061
2096921,2096921, 303596, 445598
2096921,2096921, 303753, 445477
2096921,2096921, 303749, 445458
2096921,2096921, 303805, 445291
2096921,2096921, 303945, 445259
2096921,2096921, 304097, 445549
2096921,2096921, 304088, 445740
2096921,2096921, 304109, 445657
2096921,2096921, 304344, 445727
2096921,2096921, 304466, 446126
2096921,2096921, 304634, 446253
2096921,2096921, 304500, 446221
2096921,2096921, 304402, 446430
2096921,2096921, 304661, 446451
2096921,2096921, 304698, 446394
2096921,2096921, 304869, 446529
2096921,2096921, 304913, 446499
2096921,2096921, 304855, 446759
2096921,2096921, 304895, 446912
2096921,2096921, 305319, 446808
2096921,2096921, 305101, 447137
2096921,2096921, 305075, 447468
2096921,2096921, 305235, 447307
2096921,2096921, 304906, 447245
2096921,2096921, 305218, 447046
2096921,2096921, 305346, 447643
2096921,2096921, 305465, 447912
2096921,2096921, 305222, 447738
2096921,2096921, 305551, 447767
2096921,2096921, 305819, 447806
2096921,2096921, 305886, 448119
2096921,2096921, 305936, 448338
2096921,2096921, 306133, 448409
2096921,2096921, 305767, 448460
2096921,2096921, 306148, 448135
2096921,2096921, 306055, 448653
2096921,2096921, 306063, 448751
2096921,2096921, 306209, 448996
2096921,2096921, 306076, 449019
2096921,2096921, 306561, 448937
2096921,2096921, 306517, 449212
2096921,2096921, 306584, 449345
2096921,2096921, 306700, 449389
2096921,2096921, 306559, 449623
2096921,2096921, 306592, 449210
2096921,2096921, 306947, 449649
2096921,2096921, 306865, 449626
2096921,2096921, 306786, 449840
2096921,2096921, 306875, 449848
2096921,2096921, 307190, 449777
2096921,2096921, 307386, 450100
2096921,2096921, 307354, 450239
2096921,2096921, 307246, 450479
2096921,2096921, 307215, 450419
2096921,2096921, 307252, 449984
2096921,2096921, 307409, 450372
2096921,2096921, 307531, 450375
2096921,2096921, 307621, 450731
2096921,2096921, 307352, 450677
2096921,2096921, 307522, 450518
2096921,2096921, 307935, 450610
2096921,2096921, 307846, 450887
2096921,2096921, 307941, 450888
2096921,2096921, 307794, 450818
2096921,2096921, 307760, 450813
2096921,2096921, 307870, 451183
2096921,2096921, 307820, 451070
2096921,2096921, 308037, 451143
2096921,2096921, 308026, 450745
2096921,2096921, 307901, 450971
2096921,2096921, 308026, 451181
2096921,2096921, 308097, 451066
2096921,2096921, 308071, 451168
2096921,2096921, 307975, 451091
2096921,2096921, 307769, 451099
2096921,2096921, 307848, 451242
2096921,2096921, 307949, 451333
2096921,2096921, 307918, 451160
2096921,2096921, 307930, 451427
2096921,2096921, 307445, 451311
2096921,2096921, 307750, 451178
2096921,2096921, 307637, 451194
2096921,2096921, 307829, 451157
2096921,2096921, 308022, 450840
2096921,2096921, 308063, 451144
2096921,2096921, 307625, 450970
2096921,2096921, 307546, 450831
2096921,2096921, 307720, 450780
2096921,2096921, 307831, 450703
2096921,2096921, 307558, 451123
2096921,2096921, 307446, 450764
2096921,2096921, 307590, 450865
2096921,2096921, 307875, 450796
2096921,2096921, 307654, 450785
2096921,2096921, 307326, 450467
2096921,2096921, 307160, 450178
2096921,2096921, 307039, 450356
2096921,2096921, 307282, 450354
2096921,2096921, 307318, 450332
2096921,2096921, 307134, 450344
2096921,2096921, 307109, 450166
2096921,2096921, 307267, 450184
2096921,2096921, 307505, 449936
2096921,2096921, 307322, 449896
2096921,2096921, 306835, 449690
2096921,2096921, 306736, 449726
2096921,2096921, 306954, 449397
2096921,2096921, 306775, 449050
2096921,2096921, 306923, 449482
2096921,2096921, 306576, 449521
2096921,2096921, 306739, 449209
2096921,2096921, 306541, 449297
2096921,2096921, 306706, 449304
2096921,2096921, 306537, 449178
2096921,2096921, 306518, 449323
2096921,2096921, 306320, 448968
2096921,2096921, 306378, 449120
2096921,2096921, 306409, 449035
2096921,2096921, 306453, 449145
2096921,2096921, 306139, 449236
2096921,2096921, 306436, 449007
2096921,2096921, 306089, 449063
2096921,2096921, 306427, 448979
2096921,2096921, 306384, 448915
2096921,2096921, 306321, 449064
2096921,2096921, 306223, 448916
2096921,2096921, 306302, 448446
2096921,2096921, 306344, 448724
2096921,2096921, 306303, 448766
2096921,2096921, 306162, 449058
2096921,2096921, 306311, 448968
2096921,2096921, 306419, 448827
2096921,2096921, 305949, 448984
2096921,2096921, 306262, 448626
2096921,2096921, 306069, 448787
2096921,2096921, 305956, 448788
2096921,2096921, 305969, 448821
2096921,2096921, 306161, 448797
2096921,2096921, 306264, 448792
2096921,2096921, 306715, 449005
2096921,2096921, 306501, 449163
2096921,2096921, 306605, 449376
2096921,2096921, 306506, 449236
2096921,2096921, 306623, 449021
2096921,2096921, 306733, 449021
2096921,2096921, 306654, 449281
2096921,2096921, 306758, 449573
2096921,2096921, 306521, 449594
2096921,2096921, 306472, 449241
2096921,2096921, 307100, 449502
2096921,2096921, 306847, 449710
2096921,2096921, 306979, 449798
2096921,2096921, 306803, 449779
2096921,2096921, 307074, 449570
2096921,2096921, 306896, 449780
2096921,2096921, 307114, 449763
2096921,2096921, 306894, 449577
2096921,2096921, 306793, 449730
2096921,2096921, 306895, 450001
2096921,2096921, 306757, 450241
2096921,2096921, 306896, 450080
2096921,2096921, 306910, 450051
2096921,2096921, 307263, 449856
2096921,2096921, 307238, 450151
2096921,2096921, 306961, 450116
2096921,2096921, 307145, 450266
2096921,2096921, 307060, 450154
2096921,2096921, 307012, 450259
2096921,2096921, 307249, 450256
2096921,2096921, 307127, 450362
2096921,2096921, 307242, 450139
2096921,2096921, 307103, 449992
2096921,2096921, 307284, 450132
2096921,2096921, 307146, 450302
2096921,2096921, 307478, 450265
2096921,2096921, 307512, 450204
2096921,2096921, 307309, 450287
2096921,2096921, 307587, 450432
2096921,2096921, 307746, 450349
2096921,2096921, 307852, 450565
2096921,2096921, 307992, 450719
2096921,2096921, 307610, 450974
2096921,2096921, 307540, 450885
2096921,2096921, 307694, 450631
2096921,2096921, 307631, 451056
2096921,2096921, 307859, 450752
2096921,2096921, 307393, 450944
2096921,2096921, 307442, 450663
2096921,2096921, 307587, 450918
2096921,2096921, 307645, 451058
2096921,2096921, 307929, 451084
2096921,2096921, 308080, 451261
2096921,2096921, 307848, 451094
2096921,2096921, 307713, 451252
2096921,2096921, 308071, 451003
2096921,2096921, 308168, 451186
2096921,2096921, 307921, 451352
2096921,2096921, 307631, 451177
2096921,2096921, 307820, 451023
2096921,2096921, 307919, 451328
2096921,2096921, 308018, 451076
2096921,2096921, 308124, 451325
2096921,2096921, 308195, 451524
2096921,2096921, 307927, 451433
2096921,2096921, 307996, 451386
2096921,2096921, 308101, 451603
2096921,2096921, 308251, 451535
2096921,2096921, 308080, 451445
2096921,2096921, 308176, 451358
2096921,2096921, 308583, 451461
2096921,2096921, 308401, 451604
2096921,2096921, 308310, 451781
2096921,2096921, 308229, 451890
2096921,2096921, 308206, 451673
2096921,2096921, 308378, 451584
2096921,2096921, 308532, 451816
2096921,2096921, 308343, 451804
2096921,2096921, 308330, 452136
2096921,2096921, 308365, 451810
2096921,2096921, 308367, 451654
2096921,2096921, 308657, 452031
2096921,2096921, 308636, 451996
2096921,2096921, 308584, 452215
2096921,2096921, 308532, 451774
2096921,2096921, 308209, 451597
2096921,2096921, 308258, 451952
2096921,2096921, 308379, 452125
2096921,2096921, 308349, 452093
2096921,2096921, 308531, 451689
2096921,2096921, 308535, 451853
2096921,2096921, 308617, 451915
2096921,2096921, 308643, 452045
2096921,2096921, 308375, 451903
2096921,2096921, 308708, 452134
2096921,2096921, 308390, 451770
2096921,2096921, 308750, 451969
2096921,2096921, 308459, 452090
2096921,2096921, 308524, 452159
2096921,2096921, 308483, 452026
2096921,2096921, 308800, 452039
2096921,2096921, 308695, 452339
2096921,2096921, 308752, 452222
2096921,2096921, 308236, 451881
2096921,2096921, 308696, 451987
2096921,2096921, 308499, 451905
2096921,2096921, 308495, 451919
2096921,2096921, 308483, 451920
2096921,2096921, 308731, 452013
2096921,2096921, 308581, 451869
2096921,2096921, 308669, 451946
2096921,2096921, 308630, 452037
2096921,2096921, 308707, 452586
2096921,2096921, 308661, 452497
2096921,2096921, 308811, 452283
2096921,2096921, 308778, 452346
2096921,2096921, 308507, 452164
2096921,2096921, 308673, 452459
2096921,2096921, 308787, 452322
2096921,2096921, 308492, 452505
2096921,2096921, 308699, 452283
2096921,2096921, 308679, 452631
2096921,2096921, 308567, 452375
2096921,2096921, 308760, 452449
2096921,2096921, 308612, 452498
2096921,2096921, 308722, 452243
2096921,2096921, 308622, 452366
2096921,2096921, 308565, 452246
2096921,2096921, 308848, 452335
2096921,2096921, 308867, 452296
2096921,2096921, 308645, 452432
2096921,2096921, 308548, 452694
2096921,2096921, 308492, 452347
2096921,2096921, 308825, 452296
2096921,2096921, 308838, 452056
2096921,2096921, 308943, 452398
2096921,2096921, 308717, 452290
2096921,2096921, 308677, 452426
2096921,2096921, 308696, 452482
2096921,2096921, 308728, 452158
2096921,2096921, 308923, 452406
2096921,2096921, 308945, 452348
2096921,2096921, 308936, 452761
2096921,2096921, 308877, 452477
2096921,2096921, 308592, 452334
2096921,2096921, 308414, 452063
2096921,2096921, 308671, 451975
2096921,2096921, 308601, 452174
2096921,2096921, 308623, 452072
2096921,2096921, 308462, 452024
2096921,2096921, 308597, 452229
2096921,2096921, 308755, 452263
2096921,2096921, 308654, 452365
2096921,2096921, 308740, 452332
2096921,2096921, 308665, 451878
2096921,2096921, 308804, 451943
2096921,2096921, 308577, 451818
2096921,2096921, 308719, 452124
2096921,2096921, 308632, 452109
2096921,2096921, 308417, 452278
2096921,2096921, 308451, 452259
2096921,2096921, 308525, 452084
2096921,2096921, 308590, 452109
2096921,2096921, 308644, 451938
2096921,2096921, 308702, 452028
2096921,2096921, 308797, 452212
2096921,2096921, 308581, 452145
2096921,2096921, 308788, 451930
2096921,2096921, 308295, 452224
2096921,2096921, 308368, 452237
2096921,2096921, 308550, 452144
2096921,2096921, 308412, 451695
2096921,2096921, 308086, 452102
2096921,2096921, 308370, 452031
2096921,2096921, 308343, 452137
2096921,2096921, 308337, 451659
2096921,2096921, 308417, 451782
2096921,2096921, 308478, 452021
2096921,2096921, 308423, 451922
2096921,2096921, 308759, 451877
2096921,2096921, 308778, 451925
2096921,2096921, 308529, 451818
2096921,2096921, 308604, 451780
2096921,2096921, 307999, 451805
2096921,2096921, 308333, 451900
2096921,2096921, 308289, 451753
2096921,2096921, 308064, 451704
2096921,2096921, 308042, 451589
2096921,2096921, 308166, 451294
2096921,2096921, 308135, 451702
2096921,2096921, 308380, 451900
2096921,2096921, 308337, 451450
2096921,2096921, 308561, 451520
2096921,2096921, 308265, 451910
2096921,2096921, 308302, 451929
2096921,2096921, 308205, 451794
2096921,2096921, 308426, 451578
2096921,2096921, 308182, 451871
2096921,2096921, 308351, 451478
2096921,2096921, 308360, 451578
2096921,2096921, 308505, 451785
2096921,2096921, 308392, 451825
2096921,2096921, 308218, 451531
2096921,2096921, 308201, 451821
2096921,2096921, 308097, 451361
2096921,2096921, 308176, 451664
2096921,2096921, 308063, 451528
2096921,2096921, 308059, 451604
2096921,2096921, 308240, 451732
2096921,2096921, 308074, 451811
2096921,2096921, 308094, 452000
2096921,2096921, 308221, 451653
2096921,2096921, 308176, 451586
2096921,2096921, 308183, 451753
2096921,2096921, 308134, 451579
2096921,2096921, 308032, 451697
2096921,2096921, 308241, 451513
2096921,2096921, 308225, 451504
2096921,2096921, 308093, 451220
2096921,2096921, 308129, 451621
2096921,2096921, 308251, 451640
2096921,2096921, 308027, 451621
2096921,2096921, 308141, 451450
2096921,2096921, 308341, 451705
2096921,2096921, 308114, 451532
2096921,2096921, 308118, 451229
2096921,2096921, 307990, 451091
2096921,2096921, 307973, 451258
2096921,2096921, 307922, 451224
2096921,2096921, 307973, 451137
2096921,2096921, 307986, 451028
2096921,2096921, 308282, 451071
2096921,2096921, 308125, 450848
2096921,2096921, 307831, 451095
2096921,2096921, 307896, 451271
2096921,2096921, 307838, 451276
2096921,2096921, 307753, 450842
2096921,2096921, 307866, 450888
2096921,2096921, 307804, 450863
2096921,2096921, 307838, 450890
2096921,2096921, 307941, 450795
2096921,2096921, 307931, 450860
2096921,2096921, 307723, 451122
2096921,2096921, 307766, 451003
2096921,2096921, 307801, 450900
2096921,2096921, 307854, 450610
2096921,2096921, 307757, 450716
2096921,2096921, 307685, 450692
2096921,2096921, 307633, 450728
2096921,2096921, 307776, 450611
2096921,2096921, 307679, 451053
2096921,2096921, 307646, 450468
2096921,2096921, 307890, 450649
2096921,2096921, 307526, 450583
2096921,2096921, 307545, 450828
2096921,2096921, 307733, 450424
2096921,2096921, 307427, 450264
2096921,2096921, 307568, 450355
2096921,2096921, 307546, 450530
2096921,2096921, 307485, 450253
2096921,2096921, 307667, 450515
2096921,2096921, 307819, 450383
2096921,2096921, 307672, 450384
2096921,2096921, 307764, 450408
2096921,2096921, 307631, 450343
2096921,2096921, 307120, 450430
2096921,2096921, 306843, 449753
2096921,2096921, 306764, 449658
2096921,2096921, 306963, 449802
2096921,2096921, 307073, 449854
2096921,2096921, 306863, 449870
2096921,2096921, 306755, 449521
2096921,2096921, 306807, 449520
2096921,2096921, 306708, 449283
2096921,2096921, 306734, 449384
2096921,2096921, 305783, 449043
2096921,2096921, 305833, 448445
2096921,2096921, 305517, 448080
2096921,2096921, 305841, 448301
2096921,2096921, 306089, 447929
2096921,2096921, 305387, 448037
2096921,2096921, 304899, 447413
2096921,2096921, 305306, 447116
2096921,2096921, 305164, 447055
2096921,2096921, 305057, 446947
2096921,2096921, 304444, 446950
2096921,2096921, 304358, 446203
2096921,2096921, 304178, 445711
2096921,2096921, 304008, 445554
2096921,2096921, 304152, 445774
2096921,2096921, 302700, 446087
2096921,2096921, 302345, 443843
2096921,2096921, 302372, 442988
2096921,2096921, 302126, 443023
2096921,2096921, 302213, 443117
2096921,2096921, 300193, 442956
2096921,2096921, 299870, 440409
2096921,2096921, 299819, 440005
2096921,2096921, 299833, 439923
2096921,2096921, 300118, 439704
2096921,2096921, 298694, 439703
2096921,2096921, 298343, 437863
2096921,2096921, 298506, 437250
2096921,2096921, 298256, 437529
2096921,2096921, 298032, 437452
2096921,2096921, 297046, 437282
2096921,2096921, 296718, 435784
2096921,2096921, 296881, 435272
2096921,2096921, 296778, 435122
2096921,2096921, 296870, 435189
2096921,2096921, 295838, 435056
2096921,2096921, 295817, 434332
2096921,2096921, 295889, 433806
2096921,2096921, 295985, 434023
2096921,2096921, 295874, 433859
2096921,2096921, 295534, 433757
2096921,2096921, 295428, 433090
2096921,2096921, 295390, 432995
2096921,2096921, 295290, 432973
2096921,2096921, 295290, 432887
2096921,2096921, 294626, 432810
2096921,2096921, 294632, 432228
2096921,2096921, 294650, 432067
2096921,2096921, 294780, 432013
2096921,2096921, 294725, 432322
2096921,2096921, 294370, 431996
2096921,2096921, 294300, 431711
2096921,2096921, 294290, 431755
2096921,2096921, 294269, 431768
2096921,2096921, 294328, 431726
2096921,2096921, 294314, 431771
2096921,2096921, 294279, 431528
2096921,2096921, 294025, 431563
2096921,2096921, 294175, 431638
2096921,2096921, 293891, 431327
2096921,2096921, 293853, 431417
2096921,2096921, 293819, 431485
2096921,2096921, 294141, 431392
2096921,2096921, 294309, 431479
2096921,2096921, 294136, 431568
2096921,2096921, 294053, 431474
2096921,2096921, 294367, 431595
2096921,2096921, 294325, 431819
2096921,2096921, 294061, 431636
2096921,2096921, 294218, 431794
2096921,2096921, 294181, 431643
2096921,2096921, 294324, 431604
2096921,2096921, 294235, 431613
2096921,2096921, 294249, 431740
2096921,2096921, 294257, 431868
2096921,2096921, 294494, 431812
2096921,2096921, 294523, 432220
2096921,2096921, 294662, 432136
2096921,2096921, 294742, 432007
2096921,2096921, 294623, 431858
2096921,2096921, 294780, 431783
2096921,2096921, 294608, 432169
2096921,2096921, 294614, 432340
2096921,2096921, 295133, 432238
2096921,2096921, 294970, 432392
2096921,2096921, 294953, 432213
2096921,2096921, 295183, 432852
2096921,2096921, 295227, 433206
2096921,2096921, 295172, 432992
2096921,2096921, 295340, 433030
2096921,2096921, 295584, 432887
2096921,2096921, 295577, 433097
2096921,2096921, 295718, 433126
2096921,2096921, 295595, 433286
2096921,2096921, 295660, 433315
2096921,2096921, 296160, 433568
2096921,2096921, 296051, 433960
2096921,2096921, 296001, 433997
2096921,2096921, 295805, 434036
2096921,2096921, 296146, 434287
2096921,2096921, 296064, 434204
2096921,2096921, 296161, 434375
2096921,2096921, 296356, 434557
2096921,2096921, 296584, 434722
2096921,2096921, 296437, 434928
2096921,2096921, 296655, 434491
2096921,2096921, 296739, 435170
2096921,2096921, 296828, 435403
2096921,2096921, 296940, 435279
2096921,2096921, 296771, 435020
2096921,2096921, 297105, 434964
2096921,2096921, 297083, 435155
2096921,2096921, 296963, 435347
2096921,2096921, 297187, 435418
2096921,2096921, 297134, 435628
2096921,2096921, 297655, 435540
2096921,2096921, 297597, 436327
2096921,2096921, 297424, 436435
2096921,2096921, 297794, 436079
2096921,2096921, 297446, 435995
2096921,2096921, 297860, 436419
2096921,2096921, 297990, 436877
2096921,2096921, 297780, 436875
2096921,2096921, 298119, 436893
2096921,2096921, 297804, 436882
2096921,2096921, 298534, 436824
2096921,2096921, 298528, 437390
2096921,2096921, 298594, 437366
2096921,2096921, 298599, 437505
2096921,2096921, 298525, 437334
2096921,2096921, 298658, 437248
2096921,2096921, 298584, 437950
2096921,2096921, 298618, 438168
2096921,2096921, 298680, 438106
2096921,2096921, 298847, 438016
2096921,2096921, 299170, 437699
2096921,2096921, 299205, 438533
2096921,2096921, 299033, 438605
2096921,2096921, 299227, 438575
2096921,2096921, 299097, 438538
2096921,2096921, 299490, 438654
2096921,2096921, 299311, 438754
2096921,2096921, 299393, 438990
2096921,2096921, 299330, 438870
2096921,2096921, 299468, 438993
2096921,2096921, 299759, 438940
2096921,2096921, 299790, 439630
2096921,2096921, 299947, 439598
2096921,2096921, 300005, 439735
2096921,2096921, 299560, 439689
2096921,2096921, 299788, 439407
2096921,2096921, 299943, 439512
2096921,2096921, 300155, 439524
2096921,2096921, 300106, 439722
2096921,2096921, 300137, 439754
2096921,2096921, 300431, 439878
2096921,2096921, 300265, 440099
2096921,2096921, 300464, 439912
2096921,2096921, 300341, 440283
2096921,2096921, 300107, 440125
2096921,2096921, 300166, 440004
2096921,2096921, 300103, 439991
2096921,2096921, 300302, 440061
2096921,2096921, 300190, 440234
2096921,2096921, 300633, 440099
2096921,2096921, 300643, 440096
2096921,2096921, 300290, 440333
2096921,2096921, 300453, 440283
2096921,2096921, 300238, 440354
2096921,2096921, 300059, 440371
2096921,2096921, 300148, 440261
2096921,2096921, 300202, 440174
2096921,2096921, 300161, 440118
2096921,2096921, 300176, 440246
2096921,2096921, 300081, 439952
2096921,2096921, 300343, 440229
2096921,2096921, 300229, 440189
2096921,2096921, 300548, 440045
2096921,2096921, 300159, 440135
2096921,2096921, 300535, 440019
2096921,2096921, 300069, 440144
2096921,2096921, 300309, 439974
2096921,2096921, 300097, 440015
2096921,2096921, 299883, 439759
2096921,2096921, 299920, 439787
2096921,2096921, 300152, 440071
2096921,2096921, 300124, 440048
2096921,2096921, 299976, 439515
2096921,2096921, 299970, 439629
2096921,2096921, 299801, 439484
2096921,2096921, 299676, 439533
2096921,2096921, 299686, 439384
2096921,2096921, 299602, 439427
2096921,2096921, 299786, 439628
2096921,2096921, 299942, 439668
2096921,2096921, 299579, 439434
2096921,2096921, 299856, 439592
2096921,2096921, 299794, 439404
2096921,2096921, 299630, 439125
2096921,2096921, 299442, 439265
2096921,2096921, 299363, 439230
2096921,2096921, 299657, 439213
2096921,2096921, 299629, 439169
2096921,2096921, 299520, 439130
2096921,2096921, 299640, 439013
2096921,2096921, 299765, 439219
2096921,2096921, 299775, 439313
2096921,2096921, 299877, 439368
2096921,2096921, 299762, 439431
2096921,2096921, 299717, 439199
2096921,2096921, 299769, 439489
2096921,2096921, 299829, 439606
2096921,2096921, 299642, 439175
2096921,2096921, 299810, 439508
2096921,2096921, 300063, 439393
2096921,2096921, 300033, 439326
2096921,2096921, 300013, 439368
2096921,2096921, 299730, 439225
2096921,2096921, 299717, 439556
2096921,2096921, 300003, 439813
2096921,2096921, 300263, 439502
2096921,2096921, 299938, 439847
2096921,2096921, 300042, 439431
2096921,2096921, 299896, 439999
2096921,2096921, 300176, 439930
2096921,2096921, 300261, 439841
2096921,2096921, 300319, 440101
2096921,2096921, 300305, 439901
2096921,2096921, 300194, 440100
2096921,2096921, 300119, 439789
2096921,2096921, 300493, 439869
2096921,2096921, 300244, 440513
2096921,2096921, 300495, 440575
2096921,2096921, 300500, 440469
2096921,2096921, 300728, 440289
2096921,2096921, 300786, 440509
2096921,2096921, 301086, 440972
2096921,2096921, 300872, 441075
2096921,2096921, 301017, 440920
2096921,2096921, 300885, 440745
2096921,2096921, 300903, 440863
2096921,2096921, 300989, 441206
2096921,2096921, 300804, 441268
2096921,2096921, 301033, 441114
2096921,2096921, 301231, 441243
2096921,2096921, 301222, 441562
2096921,2096921, 301332, 441840
2096921,2096921, 301392, 442097
2096921,2096921, 301483, 441447
2096921,2096921, 301393, 441649
2096921,2096921, 301700, 441638
2096921,2096921, 301531, 442008
2096921,2096921, 301620, 441952
2096921,2096921, 301756, 442404
2096921,2096921, 301727, 441971
2096921,2096921, 301769, 442208
2096921,2096921, 301809, 442230
2096921,2096921, 301825, 442740
2096921,2096921, 301989, 442526
2096921,2096921, 301708, 442406
2096921,2096921, 302046, 442376
2096921,2096921, 302180, 442957
2096921,2096921, 301912, 442794
2096921,2096921, 302091, 442828
2096921,2096921, 302014, 443076
2096921,2096921, 302446, 442782
2096921,2096921, 302455, 443038
2096921,2096921, 302620, 443367
2096921,2096921, 302485, 443553
2096921,2096921, 302242, 443149
2096921,2096921, 302484, 442977
2096921,2096921, 302700, 443383
2096921,2096921, 302584, 443664
2096921,2096921, 302752, 443619
2096921,2096921, 302689, 443502
2096921,2096921, 302713, 443463
2096921,2096921, 302949, 443779
2096921,2096921, 303071, 443944
2096921,2096921, 302929, 443887
2096921,2096921, 302774, 443949
2096921,2096921, 303305, 443840
2096921,2096921, 303580, 444407
2096921,2096921, 303042, 444214
2096921,2096921, 303225, 444523
2096921,2096921, 303034, 444623
2096921,2096921, 303200, 444188
2096921,2096921, 303238, 444594
2096921,2096921, 303288, 444496
2096921,2096921, 303359, 444587
2096921,2096921, 303203, 444642
2096921,2096921, 303570, 444594
2096921,2096921, 303719, 444776
2096921,2096921, 303657, 444885
2096921,2096921, 303730, 444674
2096921,2096921, 303917, 444638
2096921,2096921, 303947, 444603
2096921,2096921, 303919, 445371
2096921,2096921, 303900, 445502
2096921,2096921, 304099, 445291
2096921,2096921, 303976, 445413
2096921,2096921, 303876, 445312
2096921,2096921, 303922, 445538
2096921,2096921, 304182, 445458
2096921,2096921, 304302, 445498
2096921,2096921, 304235, 445629
2096921,2096921, 304448, 445703
2096921,2096921, 304336, 446212
2096921,2096921, 304432, 446050
2096921,2096921, 304526, 446246
2096921,2096921, 304429, 446025
2096921,2096921, 304717, 446041
2096921,2096921, 304510, 446274
2096921,2096921, 304311, 446386
2096921,2096921, 304350, 446372
2096921,2096921, 304514, 446450
2096921,2096921, 304759, 446463
2096921,2096921, 304959, 446854
2096921,2096921, 304976, 446850
2096921,2096921, 304720, 446671
2096921,2096921, 304841, 446417
2096921,2096921, 305050, 446820
2096921,2096921, 304847, 447082
2096921,2096921, 305054, 447094
2096921,2096921, 304859, 447157
2096921,2096921, 305194, 446655
2096921,2096921, 305262, 446925
2096921,2096921, 305543, 447392
2096921,2096921, 305335, 447374
2096921,2096921, 305225, 447259
2096921,2096921, 305359, 447286
2096921,2096921, 305382, 447282
2096921,2096921, 305299, 447703
2096921,2096921, 305448, 447577
2096921,2096921, 305217, 447392
2096921,2096921, 305421, 447355
2096921,2096921, 305333, 447492
2096921,2096921, 305720, 447726
2096921,2096921, 305987, 447773
2096921,2096921, 305881, 448173
2096921,2096921, 305996, 447879
2096921,2096921, 305917, 447752
2096921,2096921, 305958, 447790
2096921,2096921, 305989, 448110
2096921,2096921, 305918, 448296
2096921,2096921, 305798, 448001
2096921,2096921, 305934, 448008
2096921,2096921, 306299, 448229
2096921,2096921, 306396, 448496
2096921,2096921, 306087, 448273
2096921,2096921, 306040, 448362
2096921,2096921, 306090, 448234
2096921,2096921, 306487, 448644
2096921,2096921, 306241, 448494
2096921,2096921, 306375, 448616
2096921,2096921, 306209, 448665
2096921,2096921, 306562, 448737
2096921,2096921, 306540, 449096
2096921,2096921, 306601, 448958
2096921,2096921, 306538, 449144
2096921,2096921, 306302, 448574
2096921,2096921, 306445, 448878
2096921,2096921, 306616, 448768
2096921,2096921, 306478, 449040
2096921,2096921, 306565, 449175
2096921,2096921, 306688, 449454
2096921,2096921, 307052, 449419
2096921,2096921, 306875, 449577
2096921,2096921, 306974, 449623
2096921,2096921, 306831, 449818
2096921,2096921, 306685, 449535
2096921,2096921, 306901, 449261
2096921,2096921, 306819, 449737
2096921,2096921, 306739, 450011
2096921,2096921, 306909, 449686
2096921,2096921, 306674, 449696
2096921,2096921, 307096, 449676
2096921,2096921, 307208, 449796
2096921,2096921, 306997, 449897
2096921,2096921, 307063, 450052
2096921,2096921, 306770, 449693
2096921,2096921, 307212, 450006
2096921,2096921, 307225, 450209
2096921,2096921, 307187, 450303
2096921,2096921, 307359, 450235
2096921,2096921, 307399, 450146
2096921,2096921, 307510, 450102
2096921,2096921, 307518, 450388
2096921,2096921, 307770, 450459
2096921,2096921, 307442, 450647
2096921,2096921, 307249, 450130
2096921,2096921, 307650, 450011
2096921,2096921, 307347, 450307
2096921,2096921, 307335, 450383
2096921,2096921, 307426, 450640
2096921,2096921, 307559, 450635
2096921,2096921, 308005, 450743
2096921,2096921, 307758, 450813
2096921,2096921, 307521, 450961
2096921,2096921, 307905, 450808
2096921,2096921, 307663, 450606
2096921,2096921, 307883, 450644
2096921,2096921, 307769, 451224
2096921,2096921, 308166, 450577
2096921,2096921, 307850, 451093
2096921,2096921, 307985, 451340
2096921,2096921, 308036, 450945
2096921,2096921, 308264, 451066
2096921,2096921, 308205, 451301
2096921,2096921, 308186, 451564
2096921,2096921, 308367, 451337
2096921,2096921, 308345, 451253
2096921,2096921, 308179, 451477
2096921,2096921, 308458, 451834
2096921,2096921, 308265, 451755
2096921,2096921, 308262, 451804
2096921,2096921, 308361, 451593
2096921,2096921, 308071, 451952
2096921,2096921, 308446, 451860
2096921,2096921, 308242, 451838
2096921,2096921, 308261, 451629
2096921,2096921, 308549, 451644
2096921,2096921, 308643, 452224
2096921,2096921, 308520, 452133
2096921,2096921, 308576, 452099
2096921,2096921, 308514, 452227
2096921,2096921, 308808, 452072
2096921,2096921, 308944, 452409
2096921,2096921, 309073, 452478
2096921,2096921, 308862, 452568
2096921,2096921, 308749, 452281
2096921,2096921, 308769, 452456
2096921,2096921, 309341, 452544
2096921,2096921, 308784, 452489
2096921,2096921, 309130, 452362
2096921,2096921, 309259, 452235
2096921,2096921, 309306, 452725
2096921,2096921, 309063, 452651
2096921,2096921, 309048, 452653
2096921,2096921, 309033, 452770
2096921,2096921, 309190, 452626
2096921,2096921, 308998, 452548
2096921,2096921, 309070, 452567
2096921,2096921, 308783, 452520
2096921,2096921, 309049, 452465
2096921,2096921, 309180, 452834
2096921,2096921, 309629, 452987
2096921,2096921, 309400, 453023
2096921,2096921, 309532, 453003
2096921,2096921, 309276, 453038
2096921,2096921, 309429, 452995
2096921,2096921, 309493, 452778
2096921,2096921, 309436, 453148
2096921,2096921, 309298, 453195
2096921,2096921, 309237, 452934
2096921,2096921, 309338, 453086
2096921,2096921, 309482, 453216
2096921,2096921, 309406, 453257
2096921,2096921, 309780, 453344
2096921,2096921, 309486, 453764
2096921,2096921, 309439, 453365
2096921,2096921, 309450, 453562
2096921,2096921, 309443, 453572
2096921,2096921, 309631, 453316
2096921,2096921, 309606, 453494
2096921,2096921, 309430, 453808
2096921,2096921, 309582, 453658
2096921,2096921, 309873, 453569
2096921,2096921, 309761, 453381
2096921,2096921, 309724, 453584
2096921,2096921, 309778, 453561
2096921,2096921, 309849, 453448
2096921,2096921, 309481, 453728
2096921,2096921, 309764, 453670
2096921,2096921, 309863, 453873
2096921,2096921, 310146, 453881
2096921,2096921, 310200, 454033
2096921,2096921, 310159, 454106
2096921,2096921, 309959, 454189
2096921,2096921, 309655, 453874
2096921,2096921, 309688, 453813
2096921,2096921, 309851, 453741
2096921,2096921, 309618, 453627
2096921,2096921, 309959, 454065
2096921,2096921, 310045, 454059
2096921,2096921, 310230, 454383
2096921,2096921, 310386, 454222
2096921,2096921, 310448, 454417
2096921,2096921, 310344, 454511
2096921,2096921, 310153, 454186
2096921,2096921, 309887, 454215
2096921,2096921, 309897, 453942
2096921,2096921, 309587, 453649
2096921,2096921, 309899, 453824
2096921,2096921, 309810, 453693
2096921,2096921, 309804, 453787
2096921,2096921, 309665, 453830
2096921,2096921, 310080, 453512
2096921,2096921, 309815, 453515
2096921,2096921, 309759, 453713
2096921,2096921, 309426, 453755
2096921,2096921, 309471, 453676
2096921,2096921, 309300, 453129
2096921,2096921, 309013, 452844
2096921,2096921, 309018, 452713
2096921,2096921, 308939, 452790
2096921,2096921, 308571, 452641
2096921,2096921, 308626, 452222
2096921,2096921, 308417, 451990
2096921,2096921, 308470, 451956
2096921,2096921, 308370, 451989
2096921,2096921, 307778, 451896
2096921,2096921, 307937, 451293
2096921,2096921, 307576, 450964
2096921,2096921, 307694, 450999
2096921,2096921, 307846, 450774
2096921,2096921, 306725, 451109
2096921,2096921, 306106, 449200
2096921,2096921, 306037, 448860
2096921,2096921, 306103, 448507
2096921,2096921, 305911, 448485
2096921,2096921, 304279, 448415
2096921,2096921, 303792, 445676
2096921,2096921, 303650, 445281
2096921,2096921, 303683, 445230
2096921,2096921, 303653, 445124
2096921,2096921, 302798, 445338
2096921,2096921, 302382, 443291
2096921,2096921, 302672, 443119
2096921,2096921, 302228, 443296
2096921,2096921, 302385, 443021
2096921,2096921, 301317, 442841
2096921,2096921, 300959, 441538
2096921,2096921, 300758, 441018
2096921,2096921, 301057, 441129
2096921,2096921, 301017, 441309
2096921,2096921, 300323, 441257
2096921,2096921, 300258, 440354
2096921,2096921, 300101, 440394
2096921,2096921, 300429, 440221
2096921,2096921, 300110, 439986
2096921,2096921, 299416, 439780
2096921,2096921, 299434, 439228
2096921,2096921, 299502, 439145
2096921,2096921, 299388, 439021
2096921,2096921, 299250, 439042
2096921,2096921, 298920, 439162
2096921,2096921, 298855, 438651
2096921,2096921, 299235, 438638
2096921,2096921, 299052, 438715
2096921,2096921, 299196, 438450
2096921,2096921, 298881, 438734
2096921,2096921, 298919, 438233
2096921,2096921, 298607, 438227
2096921,2096921, 298659, 438299
2096921,2096921, 299093, 438216
2096921,2096921, 298941, 438251
2096921,2096921, 298852, 438477
2096921,2096921, 298862, 438262
2096921,2096921, 298967, 438150
2096921,2096921, 298821, 438294
2096921,2096921, 298819, 438096
2096921,2096921, 298795, 438415
2096921,2096921, 298861, 438693
2096921,2096921, 299098, 438272
2096921,2096921, 299013, 438481
2096921,2096921, 299194, 438620
2096921,2096921, 299340, 438893
2096921,2096921, 299316, 438856
2096921,2096921, 299307, 438807
2096921,2096921, 299405, 438817
2096921,2096921, 299256, 439001
2096921,2096921, 299325, 439165
2096921,2096921, 299352, 439104
2096921,2096921, 299149, 439120
2096921,2096921, 299795, 439177
2096921,2096921, 299768, 439095
2096921,2096921, 299841, 439390
2096921,2096921, 299907, 439842
2096921,2096921, 300052, 439611
2096921,2096921, 299416, 439414
2096921,2096921, 300278, 439608
2096921,2096921, 300015, 440393
2096921,2096921, 300238, 440522
2096921,2096921, 300415, 440061
2096921,2096921, 300458, 440035
2096921,2096921, 300646, 440206
2096921,2096921, 300698, 440789
2096921,2096921, 300660, 440759
2096921,2096921, 300733, 441123
2096921,2096921, 300750, 440990
2096921,2096921, 301047, 441195
2096921,2096921, 301143, 441462
2096921,2096921, 301190, 441598
2096921,2096921, 301199, 441656
2096921,2096921, 301170, 441374
2096921,2096921, 301542, 441880
2096921,2096921, 301691, 442457
2096921,2096921, 301900, 442467
2096921,2096921, 301797, 442632
2096921,2096921, 301651, 442657
2096921,2096921, 302087, 442837
2096921,2096921, 302036, 443389
2096921,2096921, 302292, 443050
2096921,2096921, 302290, 443058
2096921,2096921, 302170, 443141
2096921,2096921, 302719, 443535
2096921,2096921, 303151, 443973
2096921,2096921, 303102, 443997
2096921,2096921, 302810, 443996
2096921,2096921, 302921, 444092
2096921,2096921, 303061, 444157
2096921,2096921, 303658, 444638
2096921,2096921, 303274, 444637
2096921,2096921, 303501, 444504
2096921,2096921, 303475, 444772
2096921,2096921, 303761, 444622
2096921,2096921, 303785, 445288
2096921,2096921, 303979, 445412
2096921,2096921, 303759, 445592
2096921,2096921, 303992, 445427
2096921,2096921, 304243, 445276
2096921,2096921, 304209, 446112
2096921,2096921, 304108, 446228
2096921,2096921, 304491, 446076
2096921,2096921, 304518, 445992
2096921,2096921, 305063, 446392
2096921,2096921, 304898, 447106
2096921,2096921, 305104, 447033
2096921,2096921, 304844, 447106
2096921,2096921, 304982, 446801
2096921,2096921, 305299, 446881
2096921,2096921, 305263, 447077
2096921,2096921, 305311, 447558
2096921,2096921, 305490, 447382
2096921,2096921, 305407, 447705
2096921,2096921, 305594, 447578
2096921,2096921, 305819, 448325
2096921,2096921, 305843, 448686
2096921,2096921, 306269, 448553
2096921,2096921, 305885, 448358
2096921,2096921, 306177, 448203
2096921,2096921, 306250, 449018
2096921,2096921, 306378, 449158
2096921,2096921, 306416, 449092
2096921,2096921, 306357, 448965
2096921,2096921, 306477, 449113
2096921,2096921, 306690, 449507
2096921,2096921, 306777, 449915
2096921,2096921, 306826, 449642
2096921,2096921, 306915, 449658
2096921,2096921, 307010, 449686
2096921,2096921, 307177, 450104
2096921,2096921, 306935, 450376
2096921,2096921, 307156, 450189
2096921,2096921, 307497, 450217
2096921,2096921, 307637, 450108
2096921,2096921, 307479, 450499
2096921,2096921, 307096, 450553
2096921,2096921, 307386, 450675
2096921,2096921, 307391, 450400
2096921,2096921, 307705, 450382
2096921,2096921, 307475, 450853
2096921,2096921, 307626, 450681
2096921,2096921, 307324, 450603
2096921,2096921, 307987, 451064
2096921,2096921, 308006, 451269
2096921,2096921, 308049, 450964
2096921,2096921, 307717, 451209
2096921,2096921, 307534, 451287
2096921,2096921, 307641, 451260
2096921,2096921, 307817, 451179
2096921,2096921, 307918, 450976
2096921,2096921, 307930, 451028
2096921,2096921, 307742, 451067
2096921,2096921, 307875, 451024
2096921,2096921, 307787, 450923
2096921,2096921, 307846, 451230
2096921,2096921, 307852, 451405
2096921,2096921, 307927, 451243
2096921,2096921, 307958, 451331
2096921,2096921, 307950, 450979
2096921,2096921, 307988, 451050
2096921,2096921, 307849, 450959
2096921,2096921, 307991, 451416
2096921,2096921, 307747, 450934
2096921,2096921, 307694, 451515
2096921,2096921, 307564, 451015
2096921,2096921, 307717, 451410
2096921,2096921, 307579, 451295
2096921,2096921, 307719, 451040
2096921,2096921, 307565, 451005
2096921,2096921, 307760, 450962
2096921,2096921, 307644, 450811
2096921,2096921, 307561, 451028
2096921,2096921, 308084, 450952
2096921,2096921, 307668, 451013
2096921,2096921, 307644, 450939
2096921,2096921, 308029, 450951
2096921,2096921, 307529, 450828
2096921,2096921, 307433, 450959
2096921,2096921, 307873, 450829
2096921,2096921, 307680, 450982
2096921,2096921, 307682, 451175
2096921,2096921, 307690, 451243
2096921,2096921, 308055, 451022
2096921,2096921, 308186, 451300
2096921,2096921, 308138, 451389
2096921,2096921, 308155, 451167
2096921,2096921, 307863, 451104
2096921,2096921, 307784, 451325
2096921,2096921, 307785, 451059
2096921,2096921, 307697, 451213
2096921,2096921, 307684, 451203
2096921,2096921, 307742, 451025
2096921,2096921, 307782, 451078
2096921,2096921, 308266, 451007
2096921,2096921, 308314, 451530
2096921,2096921, 308485, 451530
2096921,2096921, 308212, 451617
2096921,2096921, 308422, 451545
2096921,2096921, 308289, 451598
2096921,2096921, 308376, 452041
2096921,2096921, 308158, 451811
2096921,2096921, 308360, 451858
2096921,2096921, 308310, 452093
2096921,2096921, 308416, 451898
2096921,2096921, 308646, 452431
2096921,2096921, 308521, 452443
2096921,2096921, 308711, 452561
2096921,2096921, 308714, 452523
2096921,2096921, 309014, 452469
2096921,2096921, 309113, 453001
2096921,2096921, 309233, 453081
2096921,2096921, 309084, 453198
2096921,2096921, 308879, 452979
2096921,2096921, 309384, 452818
2096921,2096921, 309499, 453393
2096921,2096921, 309454, 453293
2096921,2096921, 309555, 453307
2096921,2096921, 309295, 453422
2096921,2096921, 309640, 453645
2096921,2096921, 309595, 453777
2096921,2096921, 309617, 454277
2096921,2096921, 309757, 453881
2096921,2096921, 310132, 454084
2096921,2096921, 309846, 454054
2096921,2096921, 310282, 454548
2096921,2096921, 310323, 454568
2096921,2096921, 310137, 454618
2096921,2096921, 309894, 454281
2096921,2096921, 310499, 454183
2096921,2096921, 310309, 454886
2096921,2096921, 310544, 454705
2096921,2096921, 310401, 455009
2096921,2096921, 310389, 455012
2096921,2096921, 310810, 455182
2096921,2096921, 310867, 455258
2096921,2096921, 310643, 455532
2096921,2096921, 310989, 455459
2096921,2096921, 310594, 455229
2096921,2096921, 310794, 455229
2096921,2096921, 310654, 455576
2096921,2096921, 311032, 455658
2096921,2096921, 310956, 455612
2096921,2096921, 311261, 455666
2096921,2096921, 311197, 455631
2096921,2096921, 311393, 455989
2096921,2096921, 311327, 456217
2096921,2096921, 311470, 456207
2096921,2096921, 311449, 456100
2096921,2096921, 311641, 456173
2096921,2096921, 311584, 456243
2096921,2096921, 311519, 456857
2096921,2096921, 311633, 456634
2096921,2096921, 311754, 456414
2096921,2096921, 311729, 456285
2096921,2096921, 311948, 456918
2096921,2096921, 311885, 456781
2096921,2096921, 311917, 456443
2096921,2096921, 311655, 456861
2096921,2096921, 312092, 456755
2096921,2096921, 312244, 457294
2096921,2096921, 312287, 457132
2096921,2096921, 312355, 457231
2096921,2096921, 312386, 457420
2096921,2096921, 312592, 457592
2096921,2096921, 312570, 457852
2096921,2096921, 312547, 457382
2096921,2096921, 312383, 457474
2096921,2096921, 312417, 457692
2096921,2096921, 312668, 457743
2096921,2096921, 312787, 457890
2096921,2096921, 312645, 458104
2096921,2096921, 312729, 457763
2096921,2096921, 312684, 458120
2096921,2096921, 312950, 458328
2096921,2096921, 313083, 458515
2096921,2096921, 312972, 458538
2096921,2096921, 313039, 458504
2096921,2096921, 312909, 458458
2096921,2096921, 313100, 457952
2096921,2096921, 313035, 458456
2096921,2096921, 313182, 458435
2096921,2096921, 312952, 458667
2096921,2096921, 313049, 458747
2096921,2096921, 313392, 458754
2096921,2096921, 313586, 459040
2096921,2096921, 313423, 459080
2096921,2096921, 313449, 459213
2096921,2096921, 313719, 459308
2096921,2096921, 313629, 459177
2096921,2096921, 313663, 459616
2096921,2096921, 313752, 459580
2096921,2096921, 313601, 459334
