2096921,2096921,158049,662951,0
2096921,2096921,158421,663011,0
2096921,2096921,158190,663272,0
2096921,2096921,158667,663038,0
2096921,2096921,158676,663263,0
2096921,2096921,158649,663317,0
2096921,2096921,158513,663083,0
2096921,2096921,158497,663410,0
2096921,2096921,158449,663347,0
2096921,2096921,158307,663117,0
2096921,2096921,158210,663477,0
2096921,2096921,158300,663839,0
2096921,2096921,158889,664134,0
2096921,2096921,158874,663869,0
2096921,2096921,158762,664198,0
2096921,2096921,158503,664198,0
2096921,2096921,158741,664762,0
2096921,2096921,158664,664628,0
2096921,2096921,158824,664797,0
2096921,2096921,158999,664513,0
2096921,2096921,158817,664823,0
2096921,2096921,158882,665192,0
2096921,2096921,159001,665267,0
2096921,2096921,158916,665238,0
2096921,2096921,159048,665246,0
2096921,2096921,159228,665661,0
2096921,2096921,159367,665786,0
2096921,2096921,159330,665848,0
2096921,2096921,159194,665973,0
2096921,2096921,159229,666186,0
2096921,2096921,159417,666071,0
2096921,2096921,159058,666134,0
2096921,2096921,159627,666375,0
2096921,2096921,159272,666307,0
2096921,2096921,159287,666071,0
2096921,2096921,159391,666381,0
2096921,2096921,159376,666571,0
2096921,2096921,159454,666695,0
2096921,2096921,159543,666791,0
2096921,2096921,159229,666824,0
2096921,2096921,159718,666859,0
2096921,2096921,159677,667139,0
2096921,2096921,159571,667051,0
2096921,2096921,159454,667225,0
2096921,2096921,159838,667379,0
2096921,2096921,159596,667420,0
2096921,2096921,159955,667650,0
2096921,2096921,159797,667340,0
2096921,2096921,159728,667618,0
2096921,2096921,159739,667506,0
2096921,2096921,159787,668067,0
2096921,2096921,159983,667952,0
2096921,2096921,159790,668060,0
2096921,2096921,159817,668253,0
2096921,2096921,160158,668315,0
2096921,2096921,160149,668638,0
2096921,2096921,160185,668592,0
2096921,2096921,160259,668846,0
2096921,2096921,160195,668918,0
2096921,2096921,159984,668864,0
2096921,2096921,160168,669141,0
2096921,2096921,160196,669229,0
2096921,2096921,160224,669322,0
2096921,2096921,160141,669211,0
2096921,2096921,160309,669127,0
2096921,2096921,160641,669086,0
2096921,2096921,160622,669464,0
2096921,2096921,160647,669570,0
2096921,2096921,160438,669729,0
2096921,2096921,160238,669592,0
2096921,2096921,160599,669746,0
2096921,2096921,160500,670061,0
2096921,2096921,160500,669960,0
2096921,2096921,160564,669868,0
2096921,2096921,160611,670047,0
2096921,2096921,160644,670180,0
2096921,2096921,160619,670314,0
2096921,2096921,160810,670556,0
2096921,2096921,160944,670343,0
2096921,2096921,160688,670526,0
2096921,2096921,160783,670378,0
2096921,2096921,160789,670651,0
2096921,2096921,160901,670820,0
2096921,2096921,161003,670848,0
2096921,2096921,160955,670765,0
2096921,2096921,161090,671070,0
2096921,2096921,160956,671054,0
2096921,2096921,161108,671434,0
2096921,2096921,161013,671530,0
2096921,2096921,161269,671048,0
2096921,2096921,161335,671287,0
2096921,2096921,161197,671394,0
2096921,2096921,161407,671504,0
2096921,2096921,161421,671867,0
2096921,2096921,161231,671702,0
2096921,2096921,161187,671950,0
2096921,2096921,161371,672075,0
2096921,2096921,161383,671891,0
2096921,2096921,161316,672224,0
2096921,2096921,161244,672037,0
2096921,2096921,161424,672072,0
2096921,2096921,161364,672079,0
2096921,2096921,161380,672075,0
2096921,2096921,161651,672148,0
2096921,2096921,161237,672234,0
2096921,2096921,161435,672658,0
2096921,2096921,161618,672919,0
2096921,2096921,161723,672625,0
2096921,2096921,161431,672728,0
2096921,2096921,161334,672624,0
2096921,2096921,161691,673079,0
2096921,2096921,161912,672933,0
2096921,2096921,161606,673045,0
2096921,2096921,161547,672887,0
2096921,2096921,161681,672835,0
2096921,2096921,161778,672991,0
2096921,2096921,161593,673208,0
2096921,2096921,162119,673247,0
2096921,2096921,161753,673141,0
2096921,2096921,161707,673314,0
2096921,2096921,162034,673396,0
2096921,2096921,161699,673426,0
2096921,2096921,161624,673456,0
2096921,2096921,161864,673282,0
2096921,2096921,161674,673348,0
2096921,2096921,162046,673746,0
2096921,2096921,161993,673798,0
2096921,2096921,162015,674002,0
2096921,2096921,161897,673895,0
2096921,2096921,161986,673921,0
2096921,2096921,161827,674182,0
2096921,2096921,162228,673948,0
2096921,2096921,161971,674126,0
2096921,2096921,162183,674137,0
2096921,2096921,162270,674159,0
2096921,2096921,162033,674418,0
2096921,2096921,161860,674425,0
2096921,2096921,162073,674472,0
2096921,2096921,162204,674726,0
2096921,2096921,162330,674345,0
2096921,2096921,162073,674374,0
2096921,2096921,161952,674519,0
2096921,2096921,161978,674350,0
2096921,2096921,162111,674399,0
2096921,2096921,162053,674347,0
2096921,2096921,162110,674754,0
2096921,2096921,162277,675118,0
2096921,2096921,162445,674808,0
2096921,2096921,162352,674809,0
2096921,2096921,162727,675191,0
2096921,2096921,162450,674758,0
2096921,2096921,162166,675165,0
2096921,2096921,162607,675138,0
2096921,2096921,162272,675083,0
2096921,2096921,162184,674912,0
2096921,2096921,162349,675193,0
2096921,2096921,162119,675066,0
2096921,2096921,162241,675234,0
2096921,2096921,162197,675203,0
2096921,2096921,162248,674939,0
2096921,2096921,161918,675494,0
2096921,2096921,162337,675378,0
2096921,2096921,162173,675043,0
2096921,2096921,162277,675321,0
2096921,2096921,162089,675558,0
2096921,2096921,162461,675637,0
2096921,2096921,162266,675753,0
2096921,2096921,162464,675706,0
2096921,2096921,162560,675538,0
2096921,2096921,162481,675430,0
2096921,2096921,162432,675683,0
2096921,2096921,162628,675862,0
2096921,2096921,162800,675324,0
2096921,2096921,162654,675533,0
2096921,2096921,162564,675557,0
2096921,2096921,162401,675877,0
2096921,2096921,162532,675828,0
2096921,2096921,162473,675850,0
2096921,2096921,162871,675906,0
2096921,2096921,162498,675902,0
2096921,2096921,162483,676152,0
2096921,2096921,162494,676188,0
2096921,2096921,162436,676108,0
2096921,2096921,162514,675867,0
2096921,2096921,162710,675643,0
2096921,2096921,162633,676154,0
2096921,2096921,162627,676092,0
2096921,2096921,162770,676222,0
2096921,2096921,162588,676403,0
2096921,2096921,162710,676265,0
2096921,2096921,162910,676303,0
2096921,2096921,162625,676289,0
2096921,2096921,162799,676261,0
2096921,2096921,162532,676335,0
2096921,2096921,162607,676394,0
2096921,2096921,162896,676069,0
2096921,2096921,162781,676496,0
2096921,2096921,162805,676328,0
2096921,2096921,162584,676822,0
2096921,2096921,162674,676546,0
2096921,2096921,162594,676444,0
2096921,2096921,162634,676668,0
2096921,2096921,162825,676607,0
2096921,2096921,162802,676520,0
2096921,2096921,162839,676897,0
2096921,2096921,162971,676676,0
2096921,2096921,162841,676634,0
2096921,2096921,163047,676520,0
2096921,2096921,162671,676690,0
2096921,2096921,162659,676900,0
2096921,2096921,162583,677002,0
2096921,2096921,163002,676749,0
2096921,2096921,162901,676591,0
2096921,2096921,162988,676537,0
2096921,2096921,162900,676640,0
2096921,2096921,163117,676884,0
2096921,2096921,162968,677066,0
2096921,2096921,163165,676968,0
2096921,2096921,162990,676896,0
2096921,2096921,162626,677062,0
2096921,2096921,163047,676971,0
2096921,2096921,162818,677068,0
2096921,2096921,162723,677387,0
2096921,2096921,163024,677112,0
2096921,2096921,162967,676980,0
2096921,2096921,162923,677134,0
2096921,2096921,163018,677068,0
2096921,2096921,162864,677300,0
2096921,2096921,162673,677181,0
2096921,2096921,162635,677333,0
2096921,2096921,162901,677368,0
2096921,2096921,162509,677186,0
2096921,2096921,162886,677384,0
2096921,2096921,162920,677081,0
2096921,2096921,162978,677040,0
2096921,2096921,163131,677395,0
2096921,2096921,162853,677062,0
2096921,2096921,162992,677060,0
2096921,2096921,163076,676913,0
2096921,2096921,163071,677324,0
2096921,2096921,163172,677183,0
2096921,2096921,162971,676900,0
2096921,2096921,163001,676968,0
2096921,2096921,162755,676907,0
2096921,2096921,162960,677245,0
2096921,2096921,162719,677065,0
2096921,2096921,162691,677324,0
2096921,2096921,163047,677340,0
2096921,2096921,163093,677136,0
2096921,2096921,163045,677108,0
2096921,2096921,162957,677222,0
2096921,2096921,162768,677307,0
2096921,2096921,162895,677241,0
2096921,2096921,162835,677108,0
2096921,2096921,163044,676972,0
2096921,2096921,162812,677036,0
2096921,2096921,162987,677236,0
2096921,2096921,163135,676979,0
2096921,2096921,163384,677043,0
2096921,2096921,163138,677003,0
2096921,2096921,162912,677087,0
2096921,2096921,162816,677211,0
2096921,2096921,162890,677088,0
2096921,2096921,162740,677082,0
2096921,2096921,163090,676913,0
2096921,2096921,162989,677391,0
2096921,2096921,163113,677222,0
2096921,2096921,163173,676968,0
2096921,2096921,162972,677211,0
2096921,2096921,162940,677143,0
2096921,2096921,162978,677134,0
2096921,2096921,162965,677239,0
2096921,2096921,162884,677295,0
2096921,2096921,162728,677381,0
2096921,2096921,163093,677492,0
2096921,2096921,162781,677205,0
2096921,2096921,162648,676417,0
2096921,2096921,162901,676565,0
2096921,2096921,162757,676416,0
2096921,2096921,162526,676610,0
2096921,2096921,162404,676122,0
2096921,2096921,162507,675937,0
2096921,2096921,162586,675922,0
2096921,2096921,162396,675594,0
2096921,2096921,162209,675825,0
2096921,2096921,162259,674860,0
2096921,2096921,161971,674562,0
2096921,2096921,161986,674590,0
2096921,2096921,162031,674345,0
2096921,2096921,162035,674604,0
2096921,2096921,161674,673675,0
2096921,2096921,161441,672799,0
2096921,2096921,161483,672830,0
2096921,2096921,161630,672826,0
2096921,2096921,161535,672828,0
2096921,2096921,160896,671969,0
2096921,2096921,161143,670970,0
2096921,2096921,161157,671193,0
2096921,2096921,161129,671457,0
2096921,2096921,160833,671304,0
2096921,2096921,159969,669311,0
2096921,2096921,159687,667492,0
2096921,2096921,159892,667303,0
2096921,2096921,160013,667277,0
2096921,2096921,159905,667477,0
2096921,2096921,158410,664605,0
2096921,2096921,158273,662876,0
2096921,2096921,158392,662622,0
2096921,2096921,158348,662334,0
2096921,2096921,158313,662532,0
2096921,2096921,157177,660339,0
2096921,2096921,157077,659112,0
2096921,2096921,156953,659043,0
2096921,2096921,156756,658922,0
2096921,2096921,156877,658976,0
2096921,2096921,156392,657395,0
2096921,2096921,155815,656573,0
2096921,2096921,156048,656350,0
2096921,2096921,156073,656105,0
2096921,2096921,156073,656440,0
2096921,2096921,155251,655327,0
2096921,2096921,155519,654491,0
2096921,2096921,155810,654183,0
2096921,2096921,155586,654051,0
2096921,2096921,155481,654210,0
2096921,2096921,155113,653770,0
2096921,2096921,155220,653089,0
2096921,2096921,155127,653062,0
2096921,2096921,154882,652842,0
2096921,2096921,155212,652661,0
2096921,2096921,154559,652308,0
2096921,2096921,154872,652103,0
2096921,2096921,154966,651756,0
2096921,2096921,154618,651444,0
2096921,2096921,154473,651966,0
2096921,2096921,154492,651747,0
2096921,2096921,154586,651270,0
2096921,2096921,154821,651403,0
2096921,2096921,154237,650944,0
2096921,2096921,154459,651167,0
2096921,2096921,154086,650987,0
2096921,2096921,154233,650893,0
2096921,2096921,154384,651048,0
2096921,2096921,154223,650704,0
2096921,2096921,154399,650821,0
2096921,2096921,154535,650962,0
2096921,2096921,154655,650855,0
2096921,2096921,154555,651183,0
2096921,2096921,154291,651127,0
2096921,2096921,154275,650748,0
2096921,2096921,154498,651145,0
2096921,2096921,154642,651073,0
2096921,2096921,154811,651397,0
2096921,2096921,154575,651372,0
2096921,2096921,154502,651583,0
2096921,2096921,154768,651587,0
2096921,2096921,154485,651468,0
2096921,2096921,154586,651477,0
2096921,2096921,154428,651558,0
2096921,2096921,154538,651405,0
2096921,2096921,154371,651702,0
2096921,2096921,154705,652119,0
2096921,2096921,154462,651978,0
2096921,2096921,154493,652069,0
2096921,2096921,154281,651976,0
2096921,2096921,154830,652014,0
2096921,2096921,154779,652584,0
2096921,2096921,155146,652493,0
2096921,2096921,154930,652484,0
2096921,2096921,154953,652590,0
2096921,2096921,155196,653204,0
2096921,2096921,155142,653293,0
2096921,2096921,155004,653625,0
2096921,2096921,155232,653242,0
2096921,2096921,155246,653598,0
2096921,2096921,155441,653918,0
2096921,2096921,155448,654222,0
2096921,2096921,155433,654473,0
2096921,2096921,155525,654406,0
2096921,2096921,155334,654610,0
2096921,2096921,156053,654853,0
2096921,2096921,156033,654820,0
2096921,2096921,155792,654939,0
2096921,2096921,155670,654954,0
2096921,2096921,155722,655155,0
2096921,2096921,155878,655434,0
2096921,2096921,156185,655858,0
2096921,2096921,156254,655984,0
2096921,2096921,156226,656394,0
2096921,2096921,155770,655950,0
2096921,2096921,156250,656397,0
2096921,2096921,156143,656509,0
2096921,2096921,156088,656780,0
2096921,2096921,156271,656594,0
2096921,2096921,156390,656577,0
2096921,2096921,156457,657032,0
2096921,2096921,156536,657544,0
2096921,2096921,156493,657459,0
2096921,2096921,156548,657458,0
2096921,2096921,156340,657744,0
2096921,2096921,156656,657615,0
2096921,2096921,156596,658070,0
2096921,2096921,156749,658146,0
2096921,2096921,156812,658341,0
2096921,2096921,156842,658562,0
2096921,2096921,157452,658837,0
2096921,2096921,157160,658975,0
2096921,2096921,157028,659152,0
2096921,2096921,157208,659052,0
2096921,2096921,157299,659298,0
2096921,2096921,157219,659774,0
2096921,2096921,157447,660066,0
2096921,2096921,157493,659897,0
2096921,2096921,157469,660050,0
2096921,2096921,157276,660116,0
2096921,2096921,157703,660532,0
2096921,2096921,157772,660667,0
2096921,2096921,157676,660927,0
2096921,2096921,157568,660899,0
2096921,2096921,157511,660593,0
2096921,2096921,158013,661226,0
2096921,2096921,157678,661279,0
2096921,2096921,157709,661805,0
2096921,2096921,158070,661881,0
2096921,2096921,158003,661929,0
2096921,2096921,158010,661988,0
2096921,2096921,158371,662408,0
2096921,2096921,158274,662289,0
2096921,2096921,158223,662721,0
2096921,2096921,157830,662443,0
2096921,2096921,158823,662756,0
2096921,2096921,158262,663251,0
2096921,2096921,158710,663149,0
2096921,2096921,158278,662994,0
2096921,2096921,158172,663127,0
2096921,2096921,158402,663153,0
2096921,2096921,158652,663470,0
2096921,2096921,158636,663382,0
2096921,2096921,158463,663250,0
2096921,2096921,158515,663528,0
2096921,2096921,158681,663709,0
2096921,2096921,158735,663966,0
2096921,2096921,158479,663828,0
2096921,2096921,158563,663773,0
2096921,2096921,158609,664021,0
2096921,2096921,158764,664124,0
2096921,2096921,158608,664240,0
2096921,2096921,158601,664233,0
2096921,2096921,158715,663956,0
2096921,2096921,158426,664236,0
2096921,2096921,158830,664109,0
2096921,2096921,158567,664339,0
2096921,2096921,158802,663901,0
2096921,2096921,158555,664045,0
2096921,2096921,158633,663958,0
2096921,2096921,158873,663834,0
2096921,2096921,159164,664065,0
2096921,2096921,158691,664107,0
2096921,2096921,158671,664359,0
2096921,2096921,158539,664171,0
2096921,2096921,158667,664035,0
2096921,2096921,158502,663794,0
2096921,2096921,158527,663962,0
2096921,2096921,158523,663911,0
2096921,2096921,158532,663663,0
2096921,2096921,158572,663784,0
2096921,2096921,158873,663833,0
2096921,2096921,158541,663471,0
2096921,2096921,158503,663791,0
2096921,2096921,158463,663550,0
2096921,2096921,158444,663618,0
2096921,2096921,158369,663282,0
2096921,2096921,158552,663240,0
2096921,2096921,158580,663875,0
2096921,2096921,158530,663556,0
2096921,2096921,158450,663112,0
2096921,2096921,158432,663048,0
2096921,2096921,158385,663032,0
2096921,2096921,158145,663036,0
2096921,2096921,158289,663025,0
2096921,2096921,158384,663171,0
2096921,2096921,158516,662927,0
2096921,2096921,158456,663206,0
2096921,2096921,158278,663035,0
2096921,2096921,158346,662960,0
2096921,2096921,158374,663343,0
2096921,2096921,158362,662914,0
2096921,2096921,158317,663073,0
2096921,2096921,158218,663173,0
2096921,2096921,158129,663009,0
2096921,2096921,158037,662855,0
2096921,2096921,158047,662863,0
2096921,2096921,157887,662642,0
2096921,2096921,158242,662585,0
2096921,2096921,158256,662629,0
2096921,2096921,158222,662899,0
2096921,2096921,158292,662732,0
2096921,2096921,158191,662882,0
2096921,2096921,158284,663161,0
2096921,2096921,158315,663180,0
2096921,2096921,158353,663107,0
2096921,2096921,158137,662953,0
2096921,2096921,158200,662927,0
2096921,2096921,158319,663245,0
2096921,2096921,158519,662886,0
2096921,2096921,158359,663282,0
2096921,2096921,158449,663106,0
2096921,2096921,158539,663397,0
2096921,2096921,158226,663291,0
2096921,2096921,158615,663188,0
2096921,2096921,158608,663435,0
2096921,2096921,158342,663905,0
2096921,2096921,158497,663820,0
2096921,2096921,158575,664064,0
2096921,2096921,158567,664027,0
2096921,2096921,159044,664260,0
2096921,2096921,159005,664432,0
2096921,2096921,158837,664496,0
2096921,2096921,158791,664792,0
2096921,2096921,158872,664870,0
2096921,2096921,159005,665103,0
2096921,2096921,159114,665091,0
2096921,2096921,158811,664937,0
2096921,2096921,159062,665051,0
2096921,2096921,158977,665144,0
2096921,2096921,159312,665588,0
2096921,2096921,159434,665226,0
2096921,2096921,159070,665818,0
2096921,2096921,159297,665739,0
2096921,2096921,159120,665599,0
2096921,2096921,159288,666009,0
2096921,2096921,159583,665886,0
2096921,2096921,159466,666069,0
2096921,2096921,159444,665856,0
2096921,2096921,159262,666205,0
2096921,2096921,159309,666433,0
2096921,2096921,159355,666500,0
2096921,2096921,159385,666751,0
2096921,2096921,159338,666810,0
2096921,2096921,159739,666644,0
2096921,2096921,159390,667107,0
2096921,2096921,159575,666812,0
2096921,2096921,159577,666917,0
2096921,2096921,159848,666836,0
2096921,2096921,159867,666899,0
2096921,2096921,159997,667289,0
2096921,2096921,160071,667469,0
2096921,2096921,160055,667606,0
2096921,2096921,159826,667826,0
2096921,2096921,159749,667601,0
2096921,2096921,159972,668031,0
2096921,2096921,159957,668196,0
2096921,2096921,159967,668272,0
2096921,2096921,160016,668186,0
2096921,2096921,160075,668379,0
2096921,2096921,160044,668609,0
2096921,2096921,160191,668636,0
2096921,2096921,160021,668886,0
2096921,2096921,160200,668501,0
2096921,2096921,160337,668646,0
2096921,2096921,160293,668869,0
2096921,2096921,160295,669033,0
2096921,2096921,160333,668811,0
2096921,2096921,160584,668991,0
2096921,2096921,160503,669159,0
2096921,2096921,160718,669183,0
2096921,2096921,160670,669344,0
2096921,2096921,160218,669583,0
2096921,2096921,160504,669788,0
2096921,2096921,160734,669629,0
2096921,2096921,160585,669488,0
2096921,2096921,160839,669740,0
2096921,2096921,160519,669969,0
2096921,2096921,160798,669755,0
2096921,2096921,160803,669682,0
2096921,2096921,160635,670275,0
2096921,2096921,160723,670244,0
2096921,2096921,160877,670472,0
2096921,2096921,160656,670565,0
2096921,2096921,160700,670510,0
2096921,2096921,160732,670459,0
2096921,2096921,160987,670656,0
2096921,2096921,160751,670810,0
2096921,2096921,161109,670796,0
2096921,2096921,160885,670856,0
2096921,2096921,160817,671096,0
2096921,2096921,161118,671368,0
2096921,2096921,160909,671200,0
2096921,2096921,161141,671593,0
2096921,2096921,161109,671291,0
2096921,2096921,160945,671821,0
2096921,2096921,161106,671775,0
2096921,2096921,161147,671906,0
2096921,2096921,161159,671458,0
2096921,2096921,161502,671716,0
2096921,2096921,161135,671900,0
2096921,2096921,161241,672364,0
2096921,2096921,161212,672396,0
2096921,2096921,161155,672250,0
2096921,2096921,161442,672316,0
2096921,2096921,161663,672265,0
2096921,2096921,161413,672322,0
2096921,2096921,161132,672409,0
2096921,2096921,161352,672254,0
2096921,2096921,161433,672131,0
2096921,2096921,161236,672582,0
2096921,2096921,161770,672523,0
2096921,2096921,161516,672886,0
2096921,2096921,161623,672684,0
2096921,2096921,161596,672723,0
2096921,2096921,161492,673057,0
2096921,2096921,161749,672706,0
2096921,2096921,161582,672794,0
2096921,2096921,161543,672753,0
2096921,2096921,161695,673081,0
2096921,2096921,161945,673034,0
2096921,2096921,161800,673228,0
2096921,2096921,161637,673405,0
2096921,2096921,161589,673498,0
2096921,2096921,161653,673231,0
2096921,2096921,161637,673825,0
2096921,2096921,161962,673519,0
2096921,2096921,161719,673608,0
2096921,2096921,161907,673853,0
2096921,2096921,161830,673726,0
2096921,2096921,161876,673737,0
2096921,2096921,161960,673887,0
2096921,2096921,162099,674019,0
2096921,2096921,161985,674264,0
2096921,2096921,162065,673941,0
2096921,2096921,162100,674378,0
2096921,2096921,162107,674204,0
2096921,2096921,162173,674210,0
2096921,2096921,162302,674570,0
2096921,2096921,162124,674466,0
2096921,2096921,162168,674651,0
2096921,2096921,162027,674504,0
2096921,2096921,161992,674317,0
2096921,2096921,162135,674486,0
2096921,2096921,161971,674509,0
2096921,2096921,162325,674420,0
2096921,2096921,162357,674573,0
2096921,2096921,162051,674568,0
2096921,2096921,162110,674559,0
2096921,2096921,162165,674715,0
2096921,2096921,162332,674870,0
2096921,2096921,162267,674713,0
2096921,2096921,162320,675135,0
2096921,2096921,162377,674900,0
2096921,2096921,162302,674869,0
2096921,2096921,162123,674978,0
2096921,2096921,162254,675109,0
2096921,2096921,162358,674977,0
2096921,2096921,162327,675189,0
2096921,2096921,162529,675372,0
2096921,2096921,162417,675304,0
2096921,2096921,162511,675221,0
2096921,2096921,162256,675107,0
2096921,2096921,162423,675180,0
2096921,2096921,161940,675291,0
2096921,2096921,162281,675681,0
2096921,2096921,162421,675378,0
2096921,2096921,162295,675491,0
2096921,2096921,162225,675424,0
2096921,2096921,162213,675692,0
2096921,2096921,162211,675927,0
2096921,2096921,162651,675702,0
2096921,2096921,162413,675580,0
2096921,2096921,162596,675965,0
2096921,2096921,162479,675696,0
2096921,2096921,162745,675953,0
2096921,2096921,162484,675838,0
2096921,2096921,162606,675567,0
2096921,2096921,162643,675888,0
2096921,2096921,162670,675828,0
2096921,2096921,162498,675917,0
2096921,2096921,162802,676243,0
2096921,2096921,162504,676342,0
2096921,2096921,162420,676021,0
2096921,2096921,162415,676010,0
2096921,2096921,162340,675963,0
2096921,2096921,162831,676281,0
2096921,2096921,162603,676020,0
2096921,2096921,162493,676233,0
2096921,2096921,162388,676101,0
2096921,2096921,162610,676037,0
2096921,2096921,162341,676609,0
2096921,2096921,162523,676357,0
2096921,2096921,162700,676400,0
2096921,2096921,162474,676178,0
2096921,2096921,162685,676119,0
2096921,2096921,162676,676204,0
2096921,2096921,162721,676324,0
2096921,2096921,162855,676249,0
2096921,2096921,162753,676625,0
2096921,2096921,162953,676480,0
2096921,2096921,162580,676750,0
2096921,2096921,162929,676813,0
2096921,2096921,162842,676529,0
2096921,2096921,162695,676710,0
2096921,2096921,162779,676689,0
2096921,2096921,162715,676826,0
2096921,2096921,162649,676815,0
2096921,2096921,162614,676730,0
2096921,2096921,162714,676602,0
2096921,2096921,162970,676747,0
2096921,2096921,162939,676750,0
2096921,2096921,162806,677305,0
2096921,2096921,162823,676790,0
2096921,2096921,162513,677075,0
2096921,2096921,162755,676964,0
2096921,2096921,163029,676935,0
2096921,2096921,163153,676831,0
2096921,2096921,163194,677066,0
2096921,2096921,162935,676686,0
2096921,2096921,163033,677062,0
2096921,2096921,162868,676824,0
2096921,2096921,162667,677089,0
2096921,2096921,162835,676871,0
2096921,2096921,163032,677110,0
2096921,2096921,163047,677262,0
2096921,2096921,162950,677219,0
2096921,2096921,162932,676888,0
2096921,2096921,162986,677121,0
2096921,2096921,163016,677186,0
2096921,2096921,163060,677366,0
2096921,2096921,163088,677228,0
2096921,2096921,163070,677120,0
2096921,2096921,163062,676871,0
2096921,2096921,163018,676943,0
2096921,2096921,162884,677054,0
2096921,2096921,162864,677041,0
2096921,2096921,162999,676883,0
2096921,2096921,163431,677172,0
2096921,2096921,162879,677186,0
2096921,2096921,163062,677109,0
2096921,2096921,163030,677081,0
2096921,2096921,163230,677252,0
2096921,2096921,163350,677089,0
2096921,2096921,163171,677120,0
2096921,2096921,163058,677433,0
2096921,2096921,163135,677419,0
2096921,2096921,162842,676962,0
2096921,2096921,162976,677033,0
2096921,2096921,163012,676943,0
2096921,2096921,163272,677159,0
2096921,2096921,163261,677197,0
2096921,2096921,162807,676912,0
2096921,2096921,162805,677356,0
2096921,2096921,163004,677194,0
2096921,2096921,162865,677085,0
2096921,2096921,162844,677285,0
2096921,2096921,162943,677104,0
2096921,2096921,163042,677163,0
2096921,2096921,162915,677074,0
2096921,2096921,163130,677205,0
2096921,2096921,162984,677157,0
2096921,2096921,163231,677127,0
2096921,2096921,163060,677220,0
2096921,2096921,163206,677071,0
2096921,2096921,163050,677155,0
2096921,2096921,163118,676990,0
2096921,2096921,163220,677066,0
2096921,2096921,163174,676972,0
2096921,2096921,163059,677249,0
2096921,2096921,163300,677203,0
2096921,2096921,163039,677111,0
2096921,2096921,162978,677133,0
2096921,2096921,163076,676978,0
2096921,2096921,162744,676995,0
2096921,2096921,162764,677280,0
2096921,2096921,162878,677150,0
2096921,2096921,162669,677281,0
2096921,2096921,162855,677108,0
2096921,2096921,162939,676983,0
2096921,2096921,162830,676777,0
2096921,2096921,162793,676450,0
2096921,2096921,162496,676285,0
2096921,2096921,162421,676521,0
2096921,2096921,162715,676467,0
2096921,2096921,162522,675880,0
2096921,2096921,162490,675620,0
2096921,2096921,162443,675358,0
2096921,2096921,162417,675519,0
2096921,2096921,162388,675701,0
2096921,2096921,162256,675148,0
2096921,2096921,162107,674491,0
2096921,2096921,162099,674402,0
2096921,2096921,162054,674478,0
2096921,2096921,161977,674325,0
2096921,2096921,161663,673776,0
2096921,2096921,161689,673166,0
2096921,2096921,161474,672571,0
2096921,2096921,161787,672848,0
2096921,2096921,161426,672537,0
2096921,2096921,161176,671725,0
2096921,2096921,160962,671632,0
2096921,2096921,160891,670962,0
2096921,2096921,160819,671355,0
2096921,2096921,161009,670954,0
2096921,2096921,159928,668293,0
2096921,2096921,159826,667503,0
2096921,2096921,159797,666993,0
2096921,2096921,159767,667230,0
2096921,2096921,159675,667376,0
2096921,2096921,158516,664427,0
2096921,2096921,158334,662887,0
2096921,2096921,158190,662393,0
2096921,2096921,158288,662417,0
2096921,2096921,158013,662445,0
2096921,2096921,157132,660306,0
2096921,2096921,156951,659029,0
2096921,2096921,157013,658778,0
2096921,2096921,156997,659200,0
2096921,2096921,157080,658998,0
2096921,2096921,156275,657060,0
2096921,2096921,156097,656347,0
2096921,2096921,156244,656369,0
2096921,2096921,156170,656243,0
2096921,2096921,156010,656152,0
2096921,2096921,155537,654866,0
2096921,2096921,155277,654262,0
2096921,2096921,155430,654098,0
2096921,2096921,155243,653984,0
2096921,2096921,155241,653894,0
2096921,2096921,154980,653672,0
2096921,2096921,154963,652971,0
2096921,2096921,155044,652830,0
2096921,2096921,155025,653045,0
2096921,2096921,155021,652961,0
2096921,2096921,154671,652467,0
2096921,2096921,154682,651695,0
2096921,2096921,154692,651982,0
2096921,2096921,154786,651872,0
2096921,2096921,154608,651945,0
2096921,2096921,154434,651490,0
2096921,2096921,154351,651497,0
2096921,2096921,154227,651068,0
2096921,2096921,154565,651186,0
2096921,2096921,154401,651106,0
2096921,2096921,154302,650980,0
2096921,2096921,154266,651078,0
2096921,2096921,154256,650783,0
2096921,2096921,154452,650893,0
2096921,2096921,154396,651058,0
2096921,2096921,154438,651136,0
2096921,2096921,154604,651011,0
2096921,2096921,154575,651447,0
2096921,2096921,154547,650975,0
2096921,2096921,154417,650970,0
2096921,2096921,154249,651039,0
2096921,2096921,154374,651474,0
2096921,2096921,154528,651267,0
2096921,2096921,154281,651358,0
2096921,2096921,154303,651219,0
2096921,2096921,154307,651410,0
2096921,2096921,154827,651653,0
2096921,2096921,154664,651630,0
2096921,2096921,154526,651566,0
2096921,2096921,154560,651546,0
2096921,2096921,154529,651836,0
2096921,2096921,154730,651745,0
2096921,2096921,154564,651652,0
2096921,2096921,154360,651872,0
2096921,2096921,154476,651729,0
2096921,2096921,154713,652490,0
2096921,2096921,154849,652531,0
2096921,2096921,154888,652698,0
2096921,2096921,154887,652825,0
2096921,2096921,154808,652687,0
2096921,2096921,155176,653153,0
2096921,2096921,155088,653243,0
2096921,2096921,155195,653413,0
2096921,2096921,155243,653532,0
2096921,2096921,155269,653213,0
2096921,2096921,155195,653940,0
2096921,2096921,155530,654111,0
2096921,2096921,155372,654205,0
2096921,2096921,155558,654227,0
2096921,2096921,155104,654211,0
2096921,2096921,155786,654837,0
2096921,2096921,155821,654995,0
2096921,2096921,156177,655307,0
2096921,2096921,156022,655075,0
2096921,2096921,155806,655069,0
2096921,2096921,155850,655844,0
2096921,2096921,155926,655793,0
2096921,2096921,155832,655904,0
2096921,2096921,155919,655859,0
2096921,2096921,156013,655805,0
2096921,2096921,156122,656200,0
2096921,2096921,156398,656604,0
2096921,2096921,156130,656408,0
2096921,2096921,156049,656476,0
2096921,2096921,155929,656678,0
2096921,2096921,156161,656955,0
2096921,2096921,156343,657404,0
2096921,2096921,156436,657239,0
2096921,2096921,156636,657467,0
2096921,2096921,156535,657617,0
2096921,2096921,156943,657726,0
2096921,2096921,156422,658164,0
2096921,2096921,156592,657828,0
2096921,2096921,156643,658078,0
2096921,2096921,156543,658055,0
2096921,2096921,156923,658992,0
2096921,2096921,157081,659045,0
2096921,2096921,157299,659364,0
2096921,2096921,157174,658909,0
2096921,2096921,156996,659400,0
2096921,2096921,157340,659616,0
2096921,2096921,157338,659543,0
2096921,2096921,157209,659712,0
2096921,2096921,157279,659880,0
2096921,2096921,157316,659889,0
2096921,2096921,157378,660681,0
2096921,2096921,157526,660728,0
2096921,2096921,157413,660797,0
2096921,2096921,157522,660874,0
2096921,2096921,157499,660758,0
2096921,2096921,157444,660985,0
2096921,2096921,157842,661524,0
2096921,2096921,157694,661588,0
2096921,2096921,158050,661981,0
2096921,2096921,158174,661536,0
2096921,2096921,158476,662187,0
2096921,2096921,158402,662353,0
2096921,2096921,158118,662385,0
2096921,2096921,157993,662391,0
2096921,2096921,158106,662347,0
2096921,2096921,158105,662625,0
2096921,2096921,158169,662839,0
2096921,2096921,158515,662826,0
2096921,2096921,158121,662990,0
2096921,2096921,158301,663099,0
2096921,2096921,158444,663200,0
2096921,2096921,158519,663620,0
2096921,2096921,158487,663540,0
2096921,2096921,158290,663414,0
2096921,2096921,158327,663850,0
2096921,2096921,158505,663704,0
2096921,2096921,158400,663726,0
2096921,2096921,158756,663660,0
2096921,2096921,158712,663438,0
2096921,2096921,158480,664103,0
2096921,2096921,158545,664114,0
2096921,2096921,158903,663792,0
2096921,2096921,158906,664160,0
2096921,2096921,158908,664079,0
2096921,2096921,158644,664209,0
2096921,2096921,158718,664302,0
2096921,2096921,158960,663998,0
2096921,2096921,158647,663991,0
2096921,2096921,158448,663977,0
2096921,2096921,158450,663882,0
2096921,2096921,158432,663876,0
2096921,2096921,158638,663796,0
2096921,2096921,158876,663790,0
2096921,2096921,158907,664198,0
2096921,2096921,158797,664237,0
2096921,2096921,158817,663930,0
2096921,2096921,158729,663943,0
2096921,2096921,158966,663886,0
2096921,2096921,158941,663854,0
2096921,2096921,158708,663752,0
2096921,2096921,158658,663526,0
2096921,2096921,158608,663550,0
2096921,2096921,158846,663467,0
2096921,2096921,158308,663718,0
2096921,2096921,158419,663439,0
2096921,2096921,158217,663208,0
2096921,2096921,158199,662990,0
2096921,2096921,158574,663206,0
2096921,2096921,158510,663183,0
2096921,2096921,158521,663324,0
2096921,2096921,158434,663134,0
2096921,2096921,158239,663414,0
2096921,2096921,158172,662940,0
2096921,2096921,158388,662885,0
2096921,2096921,158320,663179,0
2096921,2096921,158374,663182,0
2096921,2096921,158333,662939,0
2096921,2096921,158052,662919,0
2096921,2096921,158141,662717,0
2096921,2096921,158188,662697,0
2096921,2096921,158438,662683,0
2096921,2096921,158296,662790,0
2096921,2096921,158250,662908,0
2096921,2096921,158247,662826,0
2096921,2096921,158252,662853,0
2096921,2096921,158232,662789,0
2096921,2096921,158434,662675,0
2096921,2096921,158578,662517,0
2096921,2096921,158467,662824,0
2096921,2096921,158411,662687,0
2096921,2096921,158198,662995,0
2096921,2096921,158336,663264,0
2096921,2096921,158165,662957,0
2096921,2096921,158040,663048,0
2096921,2096921,158470,662818,0
2096921,2096921,158108,662856,0
2096921,2096921,158384,663258,0
2096921,2096921,158383,662959,0
2096921,2096921,158528,663057,0
2096921,2096921,158491,663247,0
2096921,2096921,158617,663249,0
2096921,2096921,158293,663587,0
2096921,2096921,158382,663448,0
2096921,2096921,158297,663272,0
2096921,2096921,158461,662982,0
2096921,2096921,158688,663444,0
2096921,2096921,158634,664043,0
2096921,2096921,158537,663592,0
2096921,2096921,158733,663819,0
2096921,2096921,158567,663937,0
2096921,2096921,158855,664328,0
2096921,2096921,158687,664462,0
2096921,2096921,158920,664632,0
2096921,2096921,159076,664219,0
2096921,2096921,158908,664819,0
2096921,2096921,158814,664922,0
2096921,2096921,159280,665218,0
2096921,2096921,158847,664983,0
2096921,2096921,158686,665133,0
2096921,2096921,158650,665258,0
2096921,2096921,159094,665343,0
2096921,2096921,159114,665610,0
2096921,2096921,159293,665595,0
2096921,2096921,159300,665797,0
2096921,2096921,159043,665831,0
2096921,2096921,159319,666042,0
2096921,2096921,159320,666216,0
2096921,2096921,159130,666273,0
2096921,2096921,159159,666346,0
2096921,2096921,159168,666313,0
2096921,2096921,159498,666677,0
2096921,2096921,159682,666782,0
2096921,2096921,159582,666757,0
2096921,2096921,159272,666754,0
2096921,2096921,159528,666560,0
2096921,2096921,159532,667235,0
2096921,2096921,159628,666643,0
2096921,2096921,159450,666709,0
2096921,2096921,159756,667001,0
2096921,2096921,159892,667055,0
2096921,2096921,159865,667447,0
2096921,2096921,159816,667522,0
2096921,2096921,160116,667470,0
2096921,2096921,159747,667812,0
2096921,2096921,159818,667408,0
2096921,2096921,160013,667920,0
2096921,2096921,160105,668010,0
2096921,2096921,160202,668080,0
2096921,2096921,160074,668042,0
2096921,2096921,159915,667747,0
2096921,2096921,160213,668212,0
2096921,2096921,160040,668451,0
2096921,2096921,160138,668628,0
2096921,2096921,160009,668544,0
2096921,2096921,160151,668677,0
2096921,2096921,160325,668854,0
2096921,2096921,160396,669233,0
2096921,2096921,160218,669057,0
2096921,2096921,160049,669000,0
2096921,2096921,160231,669032,0
2096921,2096921,160441,669413,0
2096921,2096921,160378,669399,0
2096921,2096921,160158,669437,0
2096921,2096921,160519,669162,0
2096921,2096921,160661,669447,0
2096921,2096921,160594,669589,0
2096921,2096921,160271,669830,0
2096921,2096921,160640,669720,0
2096921,2096921,160495,669862,0
2096921,2096921,160726,669778,0
2096921,2096921,160448,670153,0
2096921,2096921,160935,670239,0
2096921,2096921,160886,670304,0
2096921,2096921,160841,670241,0
2096921,2096921,160605,670296,0
2096921,2096921,160960,670900,0
2096921,2096921,161063,670540,0
2096921,2096921,160568,670852,0
2096921,2096921,160797,670903,0
2096921,2096921,160958,670809,0
2096921,2096921,160940,670968,0
2096921,2096921,161252,671000,0
2096921,2096921,161110,671281,0
2096921,2096921,160929,671232,0
2096921,2096921,161087,671168,0
2096921,2096921,161465,671395,0
2096921,2096921,160747,671605,0
2096921,2096921,161258,671722,0
2096921,2096921,160995,671868,0
2096921,2096921,161046,671654,0
2096921,2096921,161259,672083,0
2096921,2096921,161098,672079,0
2096921,2096921,161109,672013,0
2096921,2096921,161204,671826,0
2096921,2096921,161403,672041,0
2096921,2096921,161475,672100,0
2096921,2096921,161640,672291,0
2096921,2096921,161112,672326,0
2096921,2096921,161331,672395,0
2096921,2096921,161411,672399,0
2096921,2096921,161304,672572,0
2096921,2096921,161253,672379,0
2096921,2096921,161370,672512,0
2096921,2096921,161663,672350,0
2096921,2096921,161560,672376,0
2096921,2096921,161762,672703,0
2096921,2096921,161703,672786,0
2096921,2096921,161639,673049,0
2096921,2096921,161986,673252,0
2096921,2096921,161612,672921,0
2096921,2096921,161886,673151,0
2096921,2096921,161805,673017,0
2096921,2096921,161691,673554,0
2096921,2096921,161669,673593,0
2096921,2096921,161555,673224,0
2096921,2096921,161916,673570,0
2096921,2096921,161537,673645,0
2096921,2096921,161818,673405,0
2096921,2096921,161787,673559,0
2096921,2096921,162019,673434,0
2096921,2096921,161981,673901,0
2096921,2096921,161759,674084,0
2096921,2096921,161992,674058,0
2096921,2096921,161733,674003,0
2096921,2096921,161831,674269,0
2096921,2096921,162071,674329,0
2096921,2096921,161937,674032,0
2096921,2096921,162033,674000,0
2096921,2096921,161966,674290,0
2096921,2096921,161933,674460,0
2096921,2096921,162368,674527,0
2096921,2096921,162085,674483,0
2096921,2096921,162223,674388,0
2096921,2096921,161911,674361,0
2096921,2096921,162228,674699,0
2096921,2096921,162175,674485,0
2096921,2096921,161946,674409,0
2096921,2096921,162231,674617,0
2096921,2096921,161877,674486,0
2096921,2096921,162144,674598,0
2096921,2096921,162154,674846,0
2096921,2096921,162259,675032,0
2096921,2096921,162277,675260,0
2096921,2096921,162384,674731,0
2096921,2096921,162435,674798,0
2096921,2096921,162656,675010,0
2096921,2096921,162180,674747,0
2096921,2096921,162192,675241,0
2096921,2096921,162177,674936,0
2096921,2096921,162256,674943,0
2096921,2096921,162420,675358,0
2096921,2096921,162530,675044,0
2096921,2096921,162347,675231,0
2096921,2096921,162351,674989,0
2096921,2096921,162376,675206,0
2096921,2096921,162312,675346,0
2096921,2096921,162345,675561,0
2096921,2096921,162413,675468,0
2096921,2096921,162464,675238,0
2096921,2096921,162260,675346,0
2096921,2096921,162533,675651,0
2096921,2096921,162586,675388,0
2096921,2096921,162483,675602,0
2096921,2096921,162623,675606,0
2096921,2096921,162708,675488,0
2096921,2096921,162586,675593,0
2096921,2096921,162523,675541,0
2096921,2096921,162135,675905,0
2096921,2096921,162562,675653,0
2096921,2096921,162628,675908,0
2096921,2096921,162637,675791,0
2096921,2096921,162597,675812,0
2096921,2096921,162379,675715,0
2096921,2096921,162566,675822,0
2096921,2096921,162583,675560,0
2096921,2096921,162774,675330,0
2096921,2096921,162762,676008,0
2096921,2096921,162452,676001,0
2096921,2096921,162797,675979,0
2096921,2096921,162734,675977,0
2096921,2096921,162834,676172,0
2096921,2096921,162630,676105,0
2096921,2096921,163075,676346,0
2096921,2096921,162721,676174,0
2096921,2096921,162784,676213,0
2096921,2096921,162728,676489,0
2096921,2096921,162739,676367,0
2096921,2096921,163062,676654,0
2096921,2096921,162676,676367,0
2096921,2096921,162549,676386,0
2096921,2096921,162881,676179,0
2096921,2096921,162521,676550,0
2096921,2096921,162537,676482,0
2096921,2096921,162709,676685,0
2096921,2096921,162947,676631,0
2096921,2096921,162850,676840,0
2096921,2096921,162864,676698,0
2096921,2096921,162521,676796,0
2096921,2096921,162692,676721,0
2096921,2096921,162924,676872,0
2096921,2096921,162675,676630,0
2096921,2096921,163017,676809,0
2096921,2096921,162855,676696,0
2096921,2096921,163008,676803,0
2096921,2096921,162960,676584,0
2096921,2096921,162834,676715,0
2096921,2096921,162777,676623,0
2096921,2096921,162674,676655,0
2096921,2096921,162630,676614,0
2096921,2096921,162730,677010,0
2096921,2096921,162967,676838,0
2096921,2096921,163188,677032,0
2096921,2096921,163254,676633,0
2096921,2096921,163013,677218,0
2096921,2096921,163088,677086,0
2096921,2096921,162906,677076,0
2096921,2096921,162804,676881,0
2096921,2096921,162834,677208,0
2096921,2096921,162912,676911,0
2096921,2096921,162854,677250,0
2096921,2096921,162918,677289,0
2096921,2096921,162757,677543,0
2096921,2096921,162800,677544,0
2096921,2096921,162853,677475,0
2096921,2096921,163055,677104,0
2096921,2096921,162763,677202,0
2096921,2096921,162636,677353,0
2096921,2096921,162958,676981,0
2096921,2096921,162986,677033,0
2096921,2096921,163228,677099,0
2096921,2096921,162863,677330,0
2096921,2096921,163077,677278,0
2096921,2096921,163137,677012,0
2096921,2096921,162784,677259,0
2096921,2096921,163034,677071,0
2096921,2096921,162903,677335,0
2096921,2096921,162842,677345,0
2096921,2096921,163015,677316,0
2096921,2096921,162871,677225,0
2096921,2096921,162909,677186,0
2096921,2096921,162985,677424,0
2096921,2096921,163097,677103,0
2096921,2096921,162940,677224,0
2096921,2096921,163369,677170,0
2096921,2096921,163152,677208,0
2096921,2096921,162972,677146,0
2096921,2096921,162975,677278,0
2096921,2096921,163134,677301,0
2096921,2096921,162853,677300,0
2096921,2096921,163339,677529,0
2096921,2096921,162967,676988,0
2096921,2096921,162940,677290,0
2096921,2096921,163103,677207,0
2096921,2096921,162916,677115,0
2096921,2096921,163123,677251,0
2096921,2096921,163514,676983,0
2096921,2096921,162841,676951,0
2096921,2096921,163264,676813,0
2096921,2096921,162647,676710,0
2096921,2096921,163224,676865,0
2096921,2096921,162813,677252,0
2096921,2096921,162893,677407,0
2096921,2096921,162858,677208,0
2096921,2096921,163192,677150,0
2096921,2096921,163215,677236,0
2096921,2096921,163199,677422,0
2096921,2096921,162902,677066,0
2096921,2096921,163238,677051,0
2096921,2096921,163124,677160,0
2096921,2096921,162978,677381,0
2096921,2096921,162957,676719,0
2096921,2096921,162845,676505,0
2096921,2096921,162732,676404,0
2096921,2096921,162866,676298,0
2096921,2096921,162760,676433,0
2096921,2096921,162417,676045,0
2096921,2096921,162408,675522,0
2096921,2096921,162364,675790,0
2096921,2096921,162303,675556,0
2096921,2096921,162677,675662,0
2096921,2096921,162282,674927,0
2096921,2096921,162204,674453,0
2096921,2096921,161998,674631,0
2096921,2096921,162334,674576,0
2096921,2096921,161909,674517,0
2096921,2096921,161588,673502,0
2096921,2096921,161728,673177,0
2096921,2096921,161557,673005,0
2096921,2096921,161459,672764,0
2096921,2096921,161547,672803,0
2096921,2096921,161042,672245,0
2096921,2096921,160867,671282,0
2096921,2096921,160854,671321,0
2096921,2096921,160913,671242,0
2096921,2096921,161008,670941,0
2096921,2096921,159696,668510,0
2096921,2096921,160094,667690,0
2096921,2096921,159804,667229,0
2096921,2096921,159591,667179,0
2096921,2096921,159688,667511,0
2096921,2096921,158480,664098,0
2096921,2096921,158328,662922,0
2096921,2096921,158222,662327,0
2096921,2096921,158220,662234,0
2096921,2096921,158244,662709,0
2096921,2096921,157355,660245,0
2096921,2096921,157080,659462,0
2096921,2096921,156920,658928,0
2096921,2096921,156813,658981,0
2096921,2096921,156682,658896,0
2096921,2096921,156413,657332,0
2096921,2096921,156331,656467,0
2096921,2096921,155979,656420,0
2096921,2096921,156102,656445,0
2096921,2096921,155832,656509,0
2096921,2096921,155564,655033,0
2096921,2096921,155630,654337,0
2096921,2096921,155397,654303,0
2096921,2096921,155393,654057,0
2096921,2096921,155448,654087,0
2096921,2096921,154997,653657,0
2096921,2096921,155160,652949,0
2096921,2096921,155141,652930,0
2096921,2096921,155188,652847,0
2096921,2096921,155296,652879,0
2096921,2096921,154698,652130,0
2096921,2096921,154854,651983,0
2096921,2096921,154530,651775,0
2096921,2096921,154399,651926,0
2096921,2096921,154600,651749,0
2096921,2096921,154479,651586,0
2096921,2096921,154240,651295,0
2096921,2096921,154630,651080,0
2096921,2096921,154514,651088,0
2096921,2096921,154332,651339,0
2096921,2096921,154599,650804,0
2096921,2096921,154399,650859,0
2096921,2096921,154389,651061,0
2096921,2096921,154362,650969,0
2096921,2096921,154315,650849,0
2096921,2096921,154268,651109,0
2096921,2096921,154013,650825,0
2096921,2096921,154385,650866,0
2096921,2096921,154328,651016,0
2096921,2096921,154508,650790,0
2096921,2096921,154389,651120,0
2096921,2096921,154596,651417,0
2096921,2096921,154395,651424,0
2096921,2096921,154388,651567,0
2096921,2096921,154106,651263,0
2096921,2096921,154632,651220,0
2096921,2096921,154467,651597,0
2096921,2096921,154665,651611,0
2096921,2096921,154586,651529,0
2096921,2096921,154639,651749,0
2096921,2096921,154449,651969,0
2096921,2096921,154805,652128,0
2096921,2096921,154326,651640,0
2096921,2096921,154528,651955,0
2096921,2096921,154545,651551,0
2096921,2096921,154766,652372,0
2096921,2096921,154928,652454,0
2096921,2096921,154613,652811,0
2096921,2096921,154917,652824,0
2096921,2096921,155048,652557,0
2096921,2096921,154962,652971,0
2096921,2096921,155025,653310,0
2096921,2096921,155140,653340,0
2096921,2096921,155104,653498,0
2096921,2096921,155346,653198,0
2096921,2096921,155350,654056,0
2096921,2096921,155434,654407,0
2096921,2096921,155533,654524,0
2096921,2096921,155674,654195,0
2096921,2096921,155447,654276,0
2096921,2096921,155539,654945,0
2096921,2096921,155473,655124,0
2096921,2096921,155625,655027,0
2096921,2096921,155667,654957,0
2096921,2096921,155663,654720,0
2096921,2096921,155969,655662,0
2096921,2096921,155946,656077,0
2096921,2096921,155871,656009,0
2096921,2096921,156003,656161,0
2096921,2096921,156023,655770,0
2096921,2096921,156146,656624,0
2096921,2096921,156461,656668,0
2096921,2096921,156226,657023,0
2096921,2096921,156176,656875,0
2096921,2096921,156085,656489,0
2096921,2096921,156212,657170,0
2096921,2096921,156676,657743,0
2096921,2096921,156420,657300,0
2096921,2096921,156420,657597,0
2096921,2096921,156346,657424,0
2096921,2096921,156426,658129,0
2096921,2096921,156573,658229,0
2096921,2096921,156799,658334,0
2096921,2096921,156707,658295,0
2096921,2096921,156839,658448,0
2096921,2096921,156913,658653,0
2096921,2096921,156644,659442,0
2096921,2096921,156898,659044,0
2096921,2096921,157031,659313,0
2096921,2096921,156990,659127,0
2096921,2096921,157121,659838,0
2096921,2096921,157022,659796,0
2096921,2096921,157430,659929,0
2096921,2096921,157314,659597,0
2096921,2096921,157303,660063,0
2096921,2096921,157572,660692,0
2096921,2096921,157339,660871,0
2096921,2096921,157697,660723,0
2096921,2096921,157709,660768,0
2096921,2096921,157669,660915,0
2096921,2096921,157995,661365,0
2096921,2096921,157788,661606,0
2096921,2096921,157892,661901,0
2096921,2096921,158003,661548,0
2096921,2096921,158068,661623,0
2096921,2096921,158204,662187,0
2096921,2096921,158179,662214,0
2096921,2096921,158131,662257,0
2096921,2096921,158277,662474,0
2096921,2096921,158275,662246,0
2096921,2096921,158334,662727,0
2096921,2096921,158667,663025,0
2096921,2096921,158433,662974,0
2096921,2096921,158044,662940,0
2096921,2096921,158067,663080,0
2096921,2096921,158274,663249,0
2096921,2096921,158423,663231,0
2096921,2096921,158553,663729,0
2096921,2096921,158525,663614,0
2096921,2096921,158369,663475,0
2096921,2096921,158562,663745,0
2096921,2096921,158524,663844,0
2096921,2096921,158586,663765,0
2096921,2096921,158608,663745,0
2096921,2096921,158701,663737,0
2096921,2096921,158501,663861,0
2096921,2096921,158506,664150,0
2096921,2096921,158854,664112,0
2096921,2096921,158883,664164,0
2096921,2096921,158724,664213,0
2096921,2096921,158672,664197,0
2096921,2096921,158501,663985,0
2096921,2096921,158671,664078,0
2096921,2096921,158463,664107,0
2096921,2096921,158685,663930,0
2096921,2096921,158773,664001,0
2096921,2096921,158703,664013,0
2096921,2096921,158396,664100,0
2096921,2096921,158766,664026,0
2096921,2096921,158408,663994,0
2096921,2096921,158494,663959,0
2096921,2096921,158516,663637,0
2096921,2096921,158863,663822,0
2096921,2096921,158727,663605,0
2096921,2096921,158588,663996,0
2096921,2096921,158385,663959,0
2096921,2096921,158667,663620,0
2096921,2096921,158696,663498,0
2096921,2096921,158740,663545,0
2096921,2096921,158480,663637,0
2096921,2096921,158610,663364,0
2096921,2096921,158601,663485,0
2096921,2096921,158346,663672,0
2096921,2096921,158124,663212,0
2096921,2096921,158468,663304,0
2096921,2096921,158255,663245,0
2096921,2096921,158539,663073,0
2096921,2096921,158144,663100,0
2096921,2096921,158353,662902,0
2096921,2096921,157898,662939,0
2096921,2096921,158098,662816,0
2096921,2096921,158075,662736,0
2096921,2096921,158124,662812,0
2096921,2096921,158070,662856,0
2096921,2096921,158181,662640,0
2096921,2096921,158013,662577,0
2096921,2096921,158546,662520,0
2096921,2096921,158063,662790,0
2096921,2096921,158182,662716,0
2096921,2096921,158295,662660,0
2096921,2096921,158209,662803,0
2096921,2096921,158328,662882,0
2096921,2096921,158178,662663,0
2096921,2096921,157922,662684,0
2096921,2096921,158330,662824,0
2096921,2096921,158258,662932,0
2096921,2096921,158087,662891,0
2096921,2096921,158188,663183,0
2096921,2096921,158305,662783,0
2096921,2096921,158280,663022,0
2096921,2096921,158320,663041,0
2096921,2096921,158564,663110,0
2096921,2096921,158274,662878,0
2096921,2096921,158238,662861,0
2096921,2096921,158434,663204,0
2096921,2096921,158218,662954,0
2096921,2096921,158072,663190,0
2096921,2096921,158633,663678,0
2096921,2096921,158472,663591,0
2096921,2096921,158525,663637,0
2096921,2096921,158687,663887,0
2096921,2096921,158790,663994,0
2096921,2096921,158470,663712,0
2096921,2096921,158586,663878,0
2096921,2096921,158645,663770,0
2096921,2096921,158678,664295,0
2096921,2096921,158899,664534,0
2096921,2096921,158899,664862,0
2096921,2096921,158897,664903,0
2096921,2096921,158870,664667,0
2096921,2096921,159016,665193,0
2096921,2096921,159303,665001,0
2096921,2096921,158882,665326,0
2096921,2096921,158997,665151,0
2096921,2096921,159416,664940,0
2096921,2096921,159154,665456,0
2096921,2096921,159297,665495,0
2096921,2096921,159352,665716,0
2096921,2096921,159257,665569,0
2096921,2096921,159356,665970,0
2096921,2096921,159436,666075,0
2096921,2096921,159342,666373,0
2096921,2096921,159405,666019,0
2096921,2096921,159523,666228,0
2096921,2096921,159420,666333,0
2096921,2096921,159707,666727,0
2096921,2096921,159678,666628,0
2096921,2096921,159446,666480,0
2096921,2096921,159406,666761,0
2096921,2096921,159540,666543,0
2096921,2096921,159903,666717,0
2096921,2096921,159963,667086,0
2096921,2096921,159838,667127,0
2096921,2096921,159582,667017,0
2096921,2096921,159418,667339,0
2096921,2096921,159854,667290,0
2096921,2096921,159809,667623,0
2096921,2096921,160097,667464,0
2096921,2096921,159765,667826,0
2096921,2096921,159842,667790,0
2096921,2096921,159962,667941,0
2096921,2096921,159854,668069,0
2096921,2096921,159761,667939,0
2096921,2096921,160172,667784,0
2096921,2096921,159812,667936,0
2096921,2096921,160115,668457,0
2096921,2096921,160018,668595,0
2096921,2096921,160191,668634,0
2096921,2096921,160391,668587,0
2096921,2096921,160064,668667,0
2096921,2096921,160173,669008,0
2096921,2096921,160618,669140,0
2096921,2096921,160344,669011,0
2096921,2096921,160626,669134,0
2096921,2096921,160433,669137,0
2096921,2096921,160558,669559,0
2096921,2096921,160422,669615,0
2096921,2096921,160240,669374,0
2096921,2096921,160536,669349,0
2096921,2096921,160436,669435,0
2096921,2096921,160404,669738,0
2096921,2096921,160496,670003,0
2096921,2096921,160385,669803,0
2096921,2096921,160401,669917,0
2096921,2096921,160372,669629,0
2096921,2096921,160800,670035,0
2096921,2096921,160712,670266,0
2096921,2096921,160989,670251,0
2096921,2096921,160880,670371,0
2096921,2096921,160872,670267,0
2096921,2096921,160975,670494,0
2096921,2096921,161144,670689,0
2096921,2096921,160891,670673,0
2096921,2096921,160821,670880,0
2096921,2096921,160861,670837,0
2096921,2096921,160713,670900,0
2096921,2096921,160917,671295,0
2096921,2096921,161016,671062,0
2096921,2096921,160951,671252,0
2096921,2096921,161122,671432,0
2096921,2096921,161314,671446,0
2096921,2096921,161126,671602,0
2096921,2096921,161236,672078,0
2096921,2096921,161002,671708,0
2096921,2096921,161183,671707,0
2096921,2096921,161076,672076,0
2096921,2096921,161374,672386,0
2096921,2096921,161357,672235,0
2096921,2096921,160890,672301,0
2096921,2096921,161209,672085,0
2096921,2096921,161193,672441,0
2096921,2096921,161231,672323,0
2096921,2096921,161472,672371,0
2096921,2096921,161377,672155,0
2096921,2096921,161240,672275,0
2096921,2096921,161370,672294,0
2096921,2096921,161590,672564,0
2096921,2096921,161351,672625,0
2096921,2096921,161420,673039,0
2096921,2096921,161704,672708,0
2096921,2096921,161656,673093,0
2096921,2096921,161822,672826,0
2096921,2096921,161749,673190,0
2096921,2096921,161473,672982,0
2096921,2096921,161616,673045,0
2096921,2096921,161663,673365,0
2096921,2096921,161924,673278,0
2096921,2096921,161927,673168,0
2096921,2096921,161571,673340,0
2096921,2096921,161858,673105,0
2096921,2096921,161992,673509,0
2096921,2096921,161675,673791,0
2096921,2096921,161983,673616,0
2096921,2096921,161657,673707,0
2096921,2096921,161759,673414,0
2096921,2096921,161852,673710,0
2096921,2096921,162067,673909,0
2096921,2096921,161948,673705,0
2096921,2096921,162051,673680,0
2096921,2096921,162030,674216,0
2096921,2096921,162019,674110,0
2096921,2096921,161907,674245,0
2096921,2096921,162187,674136,0
2096921,2096921,162016,674151,0
2096921,2096921,162294,674457,0
2096921,2096921,162153,674345,0
2096921,2096921,162105,674338,0
2096921,2096921,161981,674207,0
2096921,2096921,162349,674337,0
2096921,2096921,161792,674421,0
2096921,2096921,161889,674425,0
2096921,2096921,162155,674681,0
2096921,2096921,162311,674910,0
2096921,2096921,162285,674697,0
2096921,2096921,162020,674933,0
2096921,2096921,162387,674918,0
2096921,2096921,162479,674818,0
2096921,2096921,162425,675024,0
2096921,2096921,162596,674736,0
2096921,2096921,162484,674683,0
2096921,2096921,162309,675386,0
2096921,2096921,162338,675151,0
2096921,2096921,161948,674965,0
2096921,2096921,162125,674724,0
2096921,2096921,162326,675058,0
2096921,2096921,162142,675240,0
2096921,2096921,162366,675191,0
2096921,2096921,162415,675413,0
2096921,2096921,162408,675331,0
2096921,2096921,162477,674879,0
2096921,2096921,162444,675346,0
2096921,2096921,162257,675424,0
2096921,2096921,162448,675054,0
2096921,2096921,162366,675316,0
2096921,2096921,162461,674945,0
2096921,2096921,162130,675584,0
2096921,2096921,162625,675417,0
2096921,2096921,162545,675515,0
2096921,2096921,162624,675924,0
2096921,2096921,162664,675663,0
2096921,2096921,162461,675734,0
2096921,2096921,162362,675614,0
2096921,2096921,162324,675593,0
2096921,2096921,162296,675903,0
2096921,2096921,162864,675780,0
2096921,2096921,162898,676137,0
2096921,2096921,162701,676033,0
2096921,2096921,162717,675937,0
2096921,2096921,162770,675843,0
2096921,2096921,162534,675948,0
2096921,2096921,162589,675870,0
2096921,2096921,162528,676020,0
2096921,2096921,162733,676062,0
2096921,2096921,162642,676136,0
2096921,2096921,162756,675870,0
2096921,2096921,162514,676218,0
2096921,2096921,162722,676252,0
2096921,2096921,162743,676269,0
2096921,2096921,162858,676284,0
2096921,2096921,162762,676393,0
2096921,2096921,162584,676374,0
2096921,2096921,162488,675933,0
2096921,2096921,162507,676179,0
2096921,2096921,162421,676277,0
2096921,2096921,162597,676360,0
2096921,2096921,162722,676649,0
2096921,2096921,162645,676539,0
2096921,2096921,162868,676550,0
2096921,2096921,162794,676588,0
2096921,2096921,162961,676816,0
2096921,2096921,163209,676537,0
2096921,2096921,163057,676645,0
2096921,2096921,162984,676870,0
2096921,2096921,162815,676606,0
2096921,2096921,162697,676511,0
2096921,2096921,162932,676787,0
2096921,2096921,162731,676618,0
2096921,2096921,162514,676579,0
2096921,2096921,163075,676738,0
2096921,2096921,163059,677031,0
2096921,2096921,162736,676879,0
2096921,2096921,162919,677100,0
2096921,2096921,162838,677265,0
2096921,2096921,162835,676881,0
2096921,2096921,162850,676886,0
2096921,2096921,162903,677024,0
2096921,2096921,162752,677127,0
2096921,2096921,163180,677483,0
2096921,2096921,162916,677105,0
2096921,2096921,162811,677006,0
2096921,2096921,162750,677008,0
2096921,2096921,162624,676604,0
2096921,2096921,163054,676910,0
2096921,2096921,162863,676986,0
2096921,2096921,162888,676974,0
2096921,2096921,162683,677137,0
2096921,2096921,163345,676921,0
2096921,2096921,163064,677284,0
2096921,2096921,162949,677484,0
2096921,2096921,163239,677285,0
2096921,2096921,163008,677081,0
2096921,2096921,163149,677062,0
2096921,2096921,162782,677164,0
2096921,2096921,163126,677240,0
2096921,2096921,162692,676993,0
2096921,2096921,162986,677442,0
2096921,2096921,163197,677331,0
2096921,2096921,162938,677125,0
2096921,2096921,163242,677204,0
2096921,2096921,163260,677217,0
2096921,2096921,162907,677300,0
2096921,2096921,163003,677041,0
2096921,2096921,163086,677049,0
2096921,2096921,162815,677049,0
2096921,2096921,162967,676979,0
2096921,2096921,163043,677149,0
2096921,2096921,162885,677116,0
2096921,2096921,163022,677254,0
2096921,2096921,162918,677210,0
2096921,2096921,163199,677231,0
2096921,2096921,162841,677275,0
2096921,2096921,162796,677065,0
2096921,2096921,162827,677420,0
2096921,2096921,162791,677239,0
2096921,2096921,163164,677314,0
2096921,2096921,162813,677114,0
2096921,2096921,162925,677114,0
2096921,2096921,163044,677256,0
2096921,2096921,163127,677170,0
2096921,2096921,163294,677054,0
2096921,2096921,162878,677031,0
2096921,2096921,162881,677334,0
2096921,2096921,163141,677259,0
2096921,2096921,163052,677187,0
2096921,2096921,162998,677046,0
2096921,2096921,163161,677254,0
2096921,2096921,162788,677187,0
2096921,2096921,163266,677314,0
2096921,2096921,162834,677288,0
2096921,2096921,163046,677410,0
2096921,2096921,163173,676967,0
2096921,2096921,162897,677026,0
2096921,2096921,162915,677181,0
2096921,2096921,163051,676947,0
2096921,2096921,162885,677306,0
2096921,2096921,162658,676712,0
2096921,2096921,162649,676591,0
2096921,2096921,162620,676391,0
2096921,2096921,162575,676584,0
2096921,2096921,162614,676832,0
2096921,2096921,162780,675838,0
2096921,2096921,162575,675843,0
2096921,2096921,162545,675737,0
2096921,2096921,162669,675723,0
2096921,2096921,162680,675787,0
2096921,2096921,162338,674762,0
2096921,2096921,162106,674638,0
2096921,2096921,162176,674465,0
2096921,2096921,162122,674529,0
2096921,2096921,161963,674591,0
2096921,2096921,161983,673218,0
2096921,2096921,161699,672829,0
2096921,2096921,161595,672946,0
2096921,2096921,161531,672908,0
2096921,2096921,161422,672798,0
2096921,2096921,161170,672023,0
2096921,2096921,160995,671351,0
2096921,2096921,161163,671120,0
2096921,2096921,161002,671119,0
2096921,2096921,160976,670885,0
2096921,2096921,159811,668624,0
2096921,2096921,159530,667447,0
2096921,2096921,159641,667264,0
2096921,2096921,159871,667393,0
2096921,2096921,159989,667302,0
2096921,2096921,158462,664167,0
2096921,2096921,158167,663037,0
2096921,2096921,158325,662623,0
2096921,2096921,158159,662767,0
2096921,2096921,157890,662429,0
2096921,2096921,156986,660120,0
2096921,2096921,156813,659178,0
2096921,2096921,157007,658922,0
2096921,2096921,156876,658814,0
2096921,2096921,157054,658870,0
2096921,2096921,156420,656935,0
2096921,2096921,156197,656351,0
2096921,2096921,156082,656558,0
2096921,2096921,156334,656329,0
2096921,2096921,156186,656148,0
2096921,2096921,155627,654933,0
2096921,2096921,155502,654180,0
2096921,2096921,155224,654198,0
2096921,2096921,155437,653959,0
2096921,2096921,155434,654191,0
2096921,2096921,155138,653273,0
2096921,2096921,154932,652816,0
2096921,2096921,154982,652633,0
2096921,2096921,154869,652710,0
2096921,2096921,155383,652752,0
2096921,2096921,154946,652179,0
2096921,2096921,155071,651983,0
2096921,2096921,154676,651921,0
2096921,2096921,154560,651881,0
2096921,2096921,154550,651953,0
2096921,2096921,154277,651716,0
2096921,2096921,154428,651527,0
2096921,2096921,154442,651256,0
2096921,2096921,154552,651273,0
2096921,2096921,154424,650989,0
2096921,2096921,154553,650817,0
2096921,2096921,154161,651164,0
2096921,2096921,154184,650943,0
2096921,2096921,154207,650918,0
2096921,2096921,154392,651041,0
2096921,2096921,154440,650905,0
2096921,2096921,154505,651251,0
2096921,2096921,154409,651032,0
2096921,2096921,154461,650873,0
2096921,2096921,154561,650772,0
2096921,2096921,154622,651221,0
2096921,2096921,154497,651277,0
2096921,2096921,154449,651346,0
2096921,2096921,154462,651258,0
2096921,2096921,154693,651159,0
2096921,2096921,154433,651244,0
2096921,2096921,154535,651310,0
2096921,2096921,154608,651723,0
2096921,2096921,154605,651889,0
2096921,2096921,154628,651592,0
2096921,2096921,154700,651357,0
2096921,2096921,154478,651787,0
2096921,2096921,154706,651867,0
2096921,2096921,154746,651793,0
2096921,2096921,154615,651894,0
2096921,2096921,154556,652243,0
2096921,2096921,154832,652512,0
2096921,2096921,154912,652528,0
2096921,2096921,154868,652593,0
2096921,2096921,155124,652798,0
2096921,2096921,155152,653264,0
2096921,2096921,155073,653644,0
2096921,2096921,155042,653307,0
2096921,2096921,154980,653342,0
2096921,2096921,155376,653277,0
2096921,2096921,155362,653973,0
2096921,2096921,155481,654233,0
2096921,2096921,155348,654437,0
2096921,2096921,155388,654374,0
2096921,2096921,155634,654203,0
2096921,2096921,155624,654711,0
2096921,2096921,155700,654865,0
2096921,2096921,155761,655200,0
2096921,2096921,155797,655271,0
2096921,2096921,155874,655182,0
2096921,2096921,155972,655504,0
2096921,2096921,155895,655930,0
2096921,2096921,156214,656353,0
2096921,2096921,156278,655705,0
2096921,2096921,155976,656011,0
2096921,2096921,156490,656341,0
2096921,2096921,155996,656217,0
2096921,2096921,156104,656493,0
2096921,2096921,156361,656379,0
2096921,2096921,156264,656362,0
2096921,2096921,156828,657156,0
2096921,2096921,156880,657411,0
2096921,2096921,156643,657465,0
2096921,2096921,156570,657437,0
2096921,2096921,156333,657326,0
2096921,2096921,156489,657837,0
2096921,2096921,156511,658217,0
2096921,2096921,156703,658062,0
2096921,2096921,156817,658160,0
2096921,2096921,156863,658113,0
2096921,2096921,156994,658836,0
2096921,2096921,157013,659069,0
2096921,2096921,157149,659215,0
2096921,2096921,157095,659247,0
2096921,2096921,157028,659118,0
2096921,2096921,157181,659733,0
2096921,2096921,157001,660126,0
2096921,2096921,157248,659767,0
2096921,2096921,157253,659784,0
2096921,2096921,157307,660072,0
2096921,2096921,157841,660588,0
2096921,2096921,157425,660783,0
2096921,2096921,157565,660842,0
2096921,2096921,157475,660855,0
2096921,2096921,157455,660786,0
2096921,2096921,157630,661437,0
2096921,2096921,157784,661662,0
2096921,2096921,158027,661523,0
2096921,2096921,157897,661706,0
2096921,2096921,157584,661714,0
2096921,2096921,157941,662108,0
2096921,2096921,158335,662047,0
2096921,2096921,158592,662368,0
2096921,2096921,158124,662208,0
2096921,2096921,158013,662386,0
2096921,2096921,158252,662983,0
2096921,2096921,158410,663211,0
2096921,2096921,158430,662874,0
2096921,2096921,158638,663072,0
2096921,2096921,158285,662873,0
2096921,2096921,158276,663391,0
2096921,2096921,158155,663490,0
2096921,2096921,158637,663587,0
2096921,2096921,158539,663580,0
2096921,2096921,158403,663568,0
2096921,2096921,158473,663707,0
2096921,2096921,158551,663387,0
2096921,2096921,158272,663690,0
2096921,2096921,158282,663864,0
2096921,2096921,158404,663676,0
2096921,2096921,158761,664069,0
2096921,2096921,158723,664245,0
2096921,2096921,158785,664034,0
2096921,2096921,158425,664183,0
2096921,2096921,158572,663940,0
2096921,2096921,158514,664172,0
2096921,2096921,158744,663680,0
2096921,2096921,158644,663962,0
2096921,2096921,158742,664111,0
2096921,2096921,158669,664114,0
2096921,2096921,158547,664296,0
2096921,2096921,158887,664113,0
2096921,2096921,158705,663946,0
2096921,2096921,158974,663990,0
2096921,2096921,158894,664023,0
2096921,2096921,158843,663914,0
2096921,2096921,158791,663763,0
2096921,2096921,158952,663729,0
2096921,2096921,158628,663810,0
2096921,2096921,158607,663642,0
2096921,2096921,158561,663709,0
2096921,2096921,158453,663814,0
2096921,2096921,158881,663533,0
2096921,2096921,158621,663428,0
2096921,2096921,158463,663847,0
2096921,2096921,158573,663467,0
2096921,2096921,158571,663471,0
2096921,2096921,158448,663618,0
2096921,2096921,158757,663393,0
2096921,2096921,158361,663407,0
2096921,2096921,158394,663254,0
2096921,2096921,158531,662970,0
2096921,2096921,158395,663065,0
2096921,2096921,158575,663352,0
2096921,2096921,158436,663001,0
2096921,2096921,158086,663120,0
2096921,2096921,158292,662916,0
2096921,2096921,158176,662829,0
2096921,2096921,158235,662645,0
2096921,2096921,158226,663102,0
2096921,2096921,158061,662930,0
2096921,2096921,158284,662766,0
2096921,2096921,158276,662685,0
2096921,2096921,158365,662725,0
2096921,2096921,158443,662887,0
2096921,2096921,158296,663091,0
2096921,2096921,158220,662625,0
2096921,2096921,158353,662495,0
2096921,2096921,158462,662523,0
2096921,2096921,158183,662886,0
2096921,2096921,158223,662995,0
2096921,2096921,158222,662984,0
2096921,2096921,158346,662998,0
2096921,2096921,158179,662718,0
2096921,2096921,158296,662592,0
2096921,2096921,158170,662998,0
2096921,2096921,158376,663485,0
2096921,2096921,158590,663054,0
2096921,2096921,158517,663095,0
2096921,2096921,158478,662990,0
2096921,2096921,158496,663297,0
2096921,2096921,158289,663279,0
2096921,2096921,158528,663171,0
2096921,2096921,158656,663217,0
2096921,2096921,158443,663380,0
2096921,2096921,158696,663753,0
2096921,2096921,158648,663794,0
2096921,2096921,158564,664129,0
2096921,2096921,158493,663993,0
2096921,2096921,158684,664067,0
2096921,2096921,158566,664271,0
2096921,2096921,158598,664437,0
2096921,2096921,158878,664599,0
2096921,2096921,158746,664693,0
2096921,2096921,158667,664834,0
2096921,2096921,159163,665182,0
2096921,2096921,159472,665330,0
2096921,2096921,159222,665346,0
2096921,2096921,158911,665171,0
2096921,2096921,159101,665194,0
2096921,2096921,159263,665632,0
2096921,2096921,159428,665491,0
2096921,2096921,159232,665767,0
2096921,2096921,159027,665857,0
2096921,2096921,159152,665821,0
2096921,2096921,159598,666141,0
2096921,2096921,159201,666179,0
2096921,2096921,159401,666251,0
2096921,2096921,159622,666199,0
2096921,2096921,159748,666185,0
2096921,2096921,159693,666657,0
2096921,2096921,159733,666730,0
2096921,2096921,159398,666728,0
2096921,2096921,159477,666688,0
2096921,2096921,159450,666671,0
2096921,2096921,159674,666904,0
2096921,2096921,159667,667058,0
2096921,2096921,159771,667195,0
2096921,2096921,159766,666988,0
2096921,2096921,160077,667329,0
2096921,2096921,160134,667619,0
2096921,2096921,160025,667730,0
2096921,2096921,160136,667787,0
2096921,2096921,160033,667800,0
2096921,2096921,159951,667917,0
2096921,2096921,159836,668085,0
2096921,2096921,159687,668218,0
2096921,2096921,159986,668249,0
2096921,2096921,159860,667960,0
2096921,2096921,159911,668374,0
2096921,2096921,160287,668424,0
2096921,2096921,160240,668548,0
2096921,2096921,160082,668787,0
2096921,2096921,160006,668768,0
2096921,2096921,160152,668828,0
2096921,2096921,160421,669073,0
2096921,2096921,160447,669099,0
2096921,2096921,160528,669221,0
2096921,2096921,160237,669062,0
2096921,2096921,160281,669303,0
2096921,2096921,160524,669476,0
2096921,2096921,160519,669501,0
2096921,2096921,160562,669408,0
2096921,2096921,160703,669242,0
2096921,2096921,160391,669352,0
2096921,2096921,160567,669905,0
2096921,2096921,160681,669837,0
2096921,2096921,160416,670006,0
2096921,2096921,160798,669939,0
2096921,2096921,160655,669910,0
2096921,2096921,160783,670465,0
2096921,2096921,161042,670279,0
2096921,2096921,160725,670357,0
2096921,2096921,160851,669850,0
2096921,2096921,160701,670203,0
2096921,2096921,160715,670576,0
2096921,2096921,160682,670655,0
2096921,2096921,160619,670873,0
2096921,2096921,161008,670916,0
2096921,2096921,161135,670718,0
2096921,2096921,161011,671210,0
2096921,2096921,161018,671429,0
2096921,2096921,161026,671097,0
2096921,2096921,160995,671055,0
2096921,2096921,160858,671238,0
2096921,2096921,161098,671334,0
2096921,2096921,161398,671706,0
2096921,2096921,161318,671557,0
2096921,2096921,161236,671358,0
2096921,2096921,161240,671484,0
2096921,2096921,160997,671815,0
2096921,2096921,161093,672041,0
2096921,2096921,161344,671861,0
2096921,2096921,161286,671856,0
2096921,2096921,161057,672068,0
2096921,2096921,161308,672516,0
2096921,2096921,161040,672538,0
2096921,2096921,161061,672242,0
2096921,2096921,161370,672094,0
2096921,2096921,161330,672211,0
2096921,2096921,161524,672794,0
2096921,2096921,161605,672327,0
2096921,2096921,161357,672481,0
2096921,2096921,161310,672353,0
2096921,2096921,161339,672868,0
2096921,2096921,161668,672966,0
2096921,2096921,161550,673003,0
2096921,2096921,161704,673064,0
2096921,2096921,161703,673128,0
2096921,2096921,161504,672729,0
2096921,2096921,161847,672863,0
2096921,2096921,162049,673181,0
2096921,2096921,161690,673058,0
2096921,2096921,161672,673289,0
2096921,2096921,161746,673206,0
2096921,2096921,161881,673364,0
2096921,2096921,161631,673394,0
2096921,2096921,161667,673425,0
2096921,2096921,161923,673676,0
2096921,2096921,161937,673650,0
2096921,2096921,161963,673923,0
2096921,2096921,162175,673969,0
2096921,2096921,161867,673862,0
2096921,2096921,161818,673912,0
2096921,2096921,162198,674120,0
2096921,2096921,162085,674004,0
2096921,2096921,161806,673914,0
2096921,2096921,161829,674167,0
2096921,2096921,161847,674071,0
2096921,2096921,161814,674181,0
2096921,2096921,162301,674158,0
2096921,2096921,162436,674450,0
2096921,2096921,162449,674286,0
2096921,2096921,162005,674594,0
2096921,2096921,162190,674703,0
2096921,2096921,161924,674602,0
2096921,2096921,162187,674651,0
2096921,2096921,162124,674482,0
2096921,2096921,161803,674336,0
2096921,2096921,162102,674665,0
2096921,2096921,162180,674737,0
2096921,2096921,162122,675083,0
2096921,2096921,162458,675034,0
2096921,2096921,162287,674749,0
2096921,2096921,162408,674905,0
2096921,2096921,162432,674851,0
2096921,2096921,162504,675021,0
2096921,2096921,162623,674898,0
2096921,2096921,162675,675091,0
2096921,2096921,162233,675118,0
2096921,2096921,162117,675217,0
2096921,2096921,162484,675340,0
2096921,2096921,162432,675031,0
2096921,2096921,162397,675280,0
2096921,2096921,162368,675382,0
2096921,2096921,162301,675198,0
2096921,2096921,162177,675267,0
2096921,2096921,162191,675288,0
2096921,2096921,162360,675481,0
2096921,2096921,162257,675417,0
2096921,2096921,162467,675422,0
2096921,2096921,162456,675668,0
2096921,2096921,162575,675923,0
2096921,2096921,162600,675658,0
2096921,2096921,162636,675619,0
2096921,2096921,162398,675536,0
2096921,2096921,162535,675422,0
2096921,2096921,162411,675596,0
2096921,2096921,162474,675813,0
2096921,2096921,162473,676088,0
2096921,2096921,162779,676098,0
2096921,2096921,162681,676052,0
2096921,2096921,162637,676077,0
2096921,2096921,162760,676112,0
2096921,2096921,162612,675729,0
2096921,2096921,162636,675824,0
2096921,2096921,162585,676053,0
2096921,2096921,162659,675847,0
2096921,2096921,162779,676018,0
2096921,2096921,162593,676028,0
2096921,2096921,162498,676409,0
2096921,2096921,162696,676048,0
2096921,2096921,162669,675892,0
2096921,2096921,162881,676223,0
2096921,2096921,162804,676209,0
2096921,2096921,162688,676236,0
2096921,2096921,162773,676293,0
2096921,2096921,162663,676370,0
2096921,2096921,162811,676397,0
2096921,2096921,162943,676874,0
2096921,2096921,162793,676478,0
2096921,2096921,162787,676359,0
2096921,2096921,162720,676332,0
2096921,2096921,162875,676316,0
2096921,2096921,162750,676277,0
2096921,2096921,162626,676514,0
2096921,2096921,162606,676763,0
2096921,2096921,162625,676932,0
2096921,2096921,162800,676873,0
2096921,2096921,162787,676625,0
2096921,2096921,162854,676777,0
2096921,2096921,162984,676872,0
2096921,2096921,162958,676668,0
2096921,2096921,163071,677086,0
2096921,2096921,162849,676909,0
2096921,2096921,162814,676820,0
2096921,2096921,162580,676727,0
2096921,2096921,162825,676616,0
2096921,2096921,162952,676899,0
2096921,2096921,162682,676803,0
2096921,2096921,162921,676740,0
2096921,2096921,162951,676913,0
2096921,2096921,163079,676947,0
2096921,2096921,163093,676762,0
2096921,2096921,162870,677176,0
2096921,2096921,162963,677100,0
2096921,2096921,162735,677024,0
2096921,2096921,163190,677291,0
2096921,2096921,162785,677195,0
2096921,2096921,162972,677321,0
2096921,2096921,162971,677112,0
2096921,2096921,163291,677017,0
2096921,2096921,163432,677206,0
2096921,2096921,162788,677177,0
2096921,2096921,163090,677122,0
2096921,2096921,162929,677096,0
2096921,2096921,163162,677064,0
2096921,2096921,163164,676996,0
2096921,2096921,162761,677086,0
2096921,2096921,162891,677103,0
2096921,2096921,163096,677057,0
2096921,2096921,163076,677166,0
2096921,2096921,162850,677126,0
2096921,2096921,162626,677075,0
2096921,2096921,162785,677238,0
2096921,2096921,162739,676933,0
2096921,2096921,162459,677097,0
2096921,2096921,163008,677119,0
2096921,2096921,162881,677023,0
2096921,2096921,162869,676727,0
2096921,2096921,162807,676962,0
2096921,2096921,162893,677055,0
2096921,2096921,163042,677218,0
2096921,2096921,162970,677349,0
2096921,2096921,162872,677540,0
2096921,2096921,162992,677468,0
2096921,2096921,162819,677031,0
2096921,2096921,163022,677052,0
2096921,2096921,162960,677034,0
2096921,2096921,162925,676798,0
2096921,2096921,163034,677088,0
2096921,2096921,163026,676999,0
2096921,2096921,163161,677225,0
2096921,2096921,162966,677155,0
2096921,2096921,162854,676991,0
2096921,2096921,163080,677369,0
2096921,2096921,162682,677235,0
2096921,2096921,162895,677165,0
2096921,2096921,163059,677074,0
2096921,2096921,163003,677007,0
2096921,2096921,162888,677332,0
2096921,2096921,163158,677069,0
2096921,2096921,162905,676901,0
2096921,2096921,163158,677140,0
2096921,2096921,163015,677161,0
2096921,2096921,162885,677095,0
2096921,2096921,162823,677251,0
2096921,2096921,162700,677146,0
2096921,2096921,162676,677319,0
2096921,2096921,162865,677115,0
2096921,2096921,163019,676287,0
2096921,2096921,162833,676175,0
2096921,2096921,162786,676405,0
2096921,2096921,162658,676620,0
2096921,2096921,163064,676164,0
2096921,2096921,162482,675889,0
2096921,2096921,162509,675802,0
2096921,2096921,162384,675399,0
2096921,2096921,162267,675920,0
2096921,2096921,162364,675767,0
2096921,2096921,162029,674812,0
2096921,2096921,161976,674364,0
2096921,2096921,162200,674174,0
2096921,2096921,161761,674458,0
2096921,2096921,162261,674312,0
2096921,2096921,161847,673162,0
2096921,2096921,161387,672838,0
2096921,2096921,161665,672598,0
2096921,2096921,161298,672457,0
2096921,2096921,161633,672530,0
2096921,2096921,161260,671520,0
2096921,2096921,160891,671253,0
2096921,2096921,161038,671225,0
2096921,2096921,160977,670958,0
2096921,2096921,160937,671255,0
2096921,2096921,160168,668333,0
2096921,2096921,159781,667641,0
2096921,2096921,159793,667134,0
2096921,2096921,159628,667038,0
2096921,2096921,159843,667084,0
2096921,2096921,158641,664040,0
2096921,2096921,158391,662422,0
2096921,2096921,158135,662567,0
2096921,2096921,158413,662192,0
2096921,2096921,158240,662359,0
2096921,2096921,157288,660163,0
2096921,2096921,156836,658983,0
2096921,2096921,156906,658912,0
2096921,2096921,156994,659016,0
2096921,2096921,157032,658996,0
2096921,2096921,156374,657060,0
2096921,2096921,156115,656364,0
2096921,2096921,156092,656215,0
2096921,2096921,155949,656450,0
2096921,2096921,156353,656242,0
2096921,2096921,155675,654624,0
2096921,2096921,155174,654198,0
2096921,2096921,155482,654046,0
2096921,2096921,155590,654044,0
2096921,2096921,155505,654022,0
2096921,2096921,155108,653269,0
2096921,2096921,154988,652835,0
2096921,2096921,154899,652729,0
2096921,2096921,154832,652796,0
2096921,2096921,154913,652860,0
2096921,2096921,154806,652187,0
2096921,2096921,154433,651676,0
2096921,2096921,154405,651830,0
2096921,2096921,154821,651653,0
2096921,2096921,154793,651805,0
2096921,2096921,154545,651514,0
2096921,2096921,154083,651268,0
2096921,2096921,154446,651299,0
2096921,2096921,154554,651390,0
2096921,2096921,154330,651147,0
2096921,2096921,154691,651060,0
2096921,2096921,154557,650431,0
2096921,2096921,154182,650987,0
2096921,2096921,154222,650939,0
2096921,2096921,154442,650708,0
2096921,2096921,154410,650977,0
2096921,2096921,154137,651139,0
2096921,2096921,154184,650980,0
2096921,2096921,154242,650861,0
2096921,2096921,154483,650825,0
2096921,2096921,154599,651387,0
2096921,2096921,154441,651304,0
2096921,2096921,154440,651601,0
2096921,2096921,154525,651201,0
2096921,2096921,154494,651244,0
2096921,2096921,154430,651373,0
2096921,2096921,154574,651470,0
2096921,2096921,154683,651552,0
2096921,2096921,154538,651461,0
2096921,2096921,154447,651590,0
2096921,2096921,154467,651976,0
2096921,2096921,154612,651584,0
2096921,2096921,154698,651875,0
2096921,2096921,154766,651939,0
2096921,2096921,154616,651826,0
2096921,2096921,154893,651864,0
2096921,2096921,154919,652295,0
2096921,2096921,155017,653001,0
2096921,2096921,154680,652617,0
2096921,2096921,154885,652356,0
2096921,2096921,154981,653097,0
2096921,2096921,155263,653537,0
2096921,2096921,154904,653243,0
2096921,2096921,155059,653262,0
2096921,2096921,155019,653527,0
2096921,2096921,155095,654075,0
2096921,2096921,155465,654210,0
2096921,2096921,155554,654073,0
2096921,2096921,155431,653906,0
2096921,2096921,155171,653938,0
2096921,2096921,155542,654530,0
2096921,2096921,155571,654997,0
2096921,2096921,155428,655151,0
2096921,2096921,155570,654896,0
2096921,2096921,155865,655163,0
2096921,2096921,155982,655247,0
2096921,2096921,155825,655728,0
2096921,2096921,155932,655856,0
2096921,2096921,155883,655667,0
2096921,2096921,156021,655826,0
2096921,2096921,155919,656336,0
2096921,2096921,156421,656788,0
2096921,2096921,156226,656685,0
2096921,2096921,156275,656430,0
2096921,2096921,156191,656965,0
2096921,2096921,156551,656997,0
2096921,2096921,156523,657614,0
2096921,2096921,156461,657804,0
2096921,2096921,156675,657589,0
2096921,2096921,156418,657289,0
2096921,2096921,156813,657784,0
2096921,2096921,156759,657964,0
2096921,2096921,156840,658351,0
2096921,2096921,156671,658109,0
2096921,2096921,156807,658239,0
2096921,2096921,157187,658762,0
2096921,2096921,157425,659115,0
2096921,2096921,157060,659232,0
2096921,2096921,157156,659102,0
2096921,2096921,157265,658974,0
2096921,2096921,157114,659664,0
2096921,2096921,157322,659704,0
2096921,2096921,157331,659901,0
2096921,2096921,157227,659932,0
2096921,2096921,157358,660097,0
2096921,2096921,157748,660336,0
2096921,2096921,157892,660933,0
2096921,2096921,157452,660655,0
2096921,2096921,157552,660885,0
2096921,2096921,157629,661075,0
2096921,2096921,158078,661060,0
2096921,2096921,158020,661287,0
2096921,2096921,157970,661400,0
2096921,2096921,157668,661454,0
2096921,2096921,157736,661718,0
2096921,2096921,157918,661801,0
2096921,2096921,157871,662479,0
2096921,2096921,158345,662468,0
2096921,2096921,158020,662333,0
2096921,2096921,158222,662370,0
2096921,2096921,158317,662849,0
2096921,2096921,158435,663093,0
2096921,2096921,158343,663126,0
2096921,2096921,158209,662797,0
2096921,2096921,158232,663048,0
2096921,2096921,158624,663016,0
2096921,2096921,158716,663256,0
2096921,2096921,158372,663455,0
2096921,2096921,158740,663385,0
2096921,2096921,158260,663321,0
2096921,2096921,158795,663623,0
2096921,2096921,158535,663604,0
2096921,2096921,158786,663690,0
2096921,2096921,158585,663554,0
2096921,2096921,158446,663634,0
2096921,2096921,158510,664170,0
2096921,2096921,158587,664050,0
2096921,2096921,158676,664267,0
2096921,2096921,158873,664113,0
2096921,2096921,158741,664063,0
2096921,2096921,158607,663891,0
2096921,2096921,158398,664052,0
2096921,2096921,158772,663895,0
2096921,2096921,158703,663937,0
2096921,2096921,158910,663657,0
2096921,2096921,158817,663945,0
2096921,2096921,158755,663878,0
2096921,2096921,158779,664069,0
2096921,2096921,158802,663993,0
2096921,2096921,158901,664196,0
2096921,2096921,158500,664027,0
2096921,2096921,158630,663790,0
2096921,2096921,158664,663649,0
2096921,2096921,158559,663808,0
2096921,2096921,158628,663683,0
2096921,2096921,158491,663529,0
2096921,2096921,158434,663480,0
2096921,2096921,158818,663385,0
2096921,2096921,158542,663569,0
2096921,2096921,158595,663789,0
2096921,2096921,158591,663461,0
2096921,2096921,158417,663234,0
2096921,2096921,158311,663400,0
2096921,2096921,158192,663338,0
2096921,2096921,158235,663262,0
2096921,2096921,158415,663165,0
2096921,2096921,158277,663287,0
2096921,2096921,158247,663010,0
2096921,2096921,158376,662821,0
2096921,2096921,158318,662904,0
2096921,2096921,157993,662770,0
2096921,2096921,157814,662871,0
2096921,2096921,158276,662762,0
2096921,2096921,158126,662804,0
2096921,2096921,158019,662755,0
2096921,2096921,158402,662532,0
2096921,2096921,158116,662794,0
2096921,2096921,158106,662858,0
2096921,2096921,158557,662965,0
2096921,2096921,158277,662700,0
2096921,2096921,158221,662786,0
2096921,2096921,158305,662744,0
2096921,2096921,158152,662586,0
2096921,2096921,158269,662941,0
2096921,2096921,158122,662411,0
2096921,2096921,158355,662974,0
2096921,2096921,158312,662859,0
2096921,2096921,158484,663176,0
2096921,2096921,158243,663005,0
2096921,2096921,158205,663016,0
2096921,2096921,158077,663041,0
2096921,2096921,158314,662951,0
2096921,2096921,158232,663137,0
2096921,2096921,158361,663203,0
2096921,2096921,158239,663024,0
2096921,2096921,158367,663370,0
2096921,2096921,158378,663397,0
2096921,2096921,158409,663254,0
2096921,2096921,158191,663211,0
2096921,2096921,158501,663470,0
2096921,2096921,158579,663608,0
2096921,2096921,158552,663963,0
2096921,2096921,158678,663899,0
2096921,2096921,158517,663787,0
2096921,2096921,158651,664074,0
2096921,2096921,158820,664372,0
2096921,2096921,158881,664758,0
2096921,2096921,158932,664535,0
2096921,2096921,158972,664793,0
2096921,2096921,158933,664606,0
2096921,2096921,158969,665179,0
2096921,2096921,158853,665025,0
2096921,2096921,158977,665010,0
2096921,2096921,158876,665184,0
2096921,2096921,159178,665023,0
2096921,2096921,159406,665750,0
2096921,2096921,159378,665944,0
2096921,2096921,159398,665810,0
2096921,2096921,159525,665812,0
2096921,2096921,159189,665713,0
2096921,2096921,159238,666137,0
2096921,2096921,159346,666276,0
2096921,2096921,159261,666259,0
2096921,2096921,159353,666250,0
2096921,2096921,159208,666309,0
2096921,2096921,159581,666660,0
2096921,2096921,159519,666691,0
2096921,2096921,159303,666620,0
2096921,2096921,159505,666525,0
2096921,2096921,159658,666714,0
2096921,2096921,159615,667117,0
2096921,2096921,160003,666815,0
2096921,2096921,159661,666953,0
2096921,2096921,159522,667017,0
2096921,2096921,159540,667204,0
2096921,2096921,159572,667485,0
2096921,2096921,159720,667999,0
2096921,2096921,159862,667706,0
2096921,2096921,159722,667495,0
2096921,2096921,160133,667691,0
2096921,2096921,159949,667945,0
2096921,2096921,160068,668224,0
2096921,2096921,160009,668010,0
2096921,2096921,160125,667972,0
2096921,2096921,160114,667967,0
2096921,2096921,160348,668776,0
2096921,2096921,160074,668673,0
2096921,2096921,160459,668789,0
2096921,2096921,159953,668769,0
2096921,2096921,160201,668726,0
2096921,2096921,160084,668754,0
2096921,2096921,160292,668981,0
2096921,2096921,160197,669152,0
2096921,2096921,160305,668777,0
2096921,2096921,160194,668841,0
2096921,2096921,160485,669324,0
2096921,2096921,160521,669619,0
2096921,2096921,160976,669610,0
2096921,2096921,160814,669563,0
2096921,2096921,160434,669485,0
2096921,2096921,160492,669902,0
2096921,2096921,160581,669882,0
2096921,2096921,160511,670189,0
2096921,2096921,160543,669792,0
2096921,2096921,160993,669807,0
2096921,2096921,160873,670153,0
2096921,2096921,160755,670465,0
2096921,2096921,160917,670387,0
2096921,2096921,160764,670215,0
2096921,2096921,160707,670175,0
2096921,2096921,160723,670568,0
2096921,2096921,160538,670884,0
2096921,2096921,160486,670955,0
2096921,2096921,161165,670714,0
2096921,2096921,160984,670877,0
2096921,2096921,161124,671090,0
2096921,2096921,160990,671234,0
2096921,2096921,161011,671385,0
2096921,2096921,160973,671372,0
2096921,2096921,161136,671208,0
2096921,2096921,161097,671443,0
2096921,2096921,161139,671721,0
2096921,2096921,160993,671949,0
2096921,2096921,161311,671657,0
2096921,2096921,161155,671614,0
2096921,2096921,161233,671753,0
2096921,2096921,161147,672079,0
2096921,2096921,161350,671830,0
2096921,2096921,161284,671871,0
2096921,2096921,161380,672095,0
2096921,2096921,161261,672251,0
2096921,2096921,161161,672427,0
2096921,2096921,161168,672557,0
2096921,2096921,161178,672220,0
2096921,2096921,161345,672323,0
2096921,2096921,161760,672542,0
2096921,2096921,161481,672571,0
2096921,2096921,161660,672710,0
2096921,2096921,161456,672698,0
2096921,2096921,161434,673017,0
2096921,2096921,161574,672910,0
2096921,2096921,161706,672687,0
2096921,2096921,161609,672775,0
2096921,2096921,161680,672865,0
2096921,2096921,161468,672839,0
2096921,2096921,161513,673113,0
2096921,2096921,161451,673232,0
2096921,2096921,161805,673422,0
2096921,2096921,161572,673240,0
2096921,2096921,161790,673435,0
2096921,2096921,161610,673958,0
2096921,2096921,161775,673753,0
2096921,2096921,161783,673667,0
2096921,2096921,161735,673625,0
2096921,2096921,161575,673484,0
2096921,2096921,162121,673970,0
2096921,2096921,161967,673570,0
2096921,2096921,162011,673791,0
2096921,2096921,161827,674049,0
2096921,2096921,162110,673952,0
2096921,2096921,161835,673974,0
2096921,2096921,161783,674002,0
2096921,2096921,161849,674192,0
2096921,2096921,161927,674109,0
2096921,2096921,162026,673940,0
2096921,2096921,161916,674499,0
2096921,2096921,162104,674154,0
2096921,2096921,162019,674364,0
2096921,2096921,162095,674060,0
2096921,2096921,162005,674461,0
2096921,2096921,161914,674679,0
2096921,2096921,162139,674704,0
2096921,2096921,162164,674888,0
2096921,2096921,161968,674653,0
2096921,2096921,162191,674749,0
2096921,2096921,162083,674595,0
2096921,2096921,162287,674729,0
2096921,2096921,162223,674930,0
2096921,2096921,162214,674947,0
2096921,2096921,162079,674797,0
2096921,2096921,162411,675012,0
2096921,2096921,162150,675005,0
2096921,2096921,162091,674961,0
2096921,2096921,162467,674871,0
2096921,2096921,162402,674734,0
2096921,2096921,162283,675242,0
2096921,2096921,162210,675119,0
2096921,2096921,162181,675208,0
2096921,2096921,162241,675109,0
2096921,2096921,162378,675169,0
2096921,2096921,162249,675331,0
2096921,2096921,162459,675453,0
2096921,2096921,162439,675155,0
2096921,2096921,162397,675205,0
2096921,2096921,162407,675303,0
2096921,2096921,162350,675310,0
2096921,2096921,162393,675534,0
2096921,2096921,162231,675719,0
2096921,2096921,162473,675333,0
2096921,2096921,162475,675750,0
2096921,2096921,162417,675678,0
2096921,2096921,162466,675859,0
2096921,2096921,162378,675663,0
2096921,2096921,162270,675923,0
2096921,2096921,162345,675544,0
2096921,2096921,162569,675545,0
2096921,2096921,162590,675874,0
2096921,2096921,162608,675892,0
2096921,2096921,162693,675735,0
2096921,2096921,162450,675884,0
2096921,2096921,162618,675970,0
2096921,2096921,162307,676123,0
2096921,2096921,162454,676018,0
2096921,2096921,162591,676098,0
2096921,2096921,162401,676060,0
2096921,2096921,162677,676343,0
2096921,2096921,162828,676435,0
2096921,2096921,162646,676453,0
2096921,2096921,162629,676375,0
2096921,2096921,162486,676331,0
2096921,2096921,162482,676304,0
2096921,2096921,162521,676408,0
2096921,2096921,162575,676090,0
2096921,2096921,162781,676593,0
2096921,2096921,162676,676378,0
2096921,2096921,162728,676464,0
2096921,2096921,162582,676522,0
2096921,2096921,162608,676628,0
2096921,2096921,162669,676656,0
2096921,2096921,162606,676715,0
2096921,2096921,162848,676645,0
2096921,2096921,162982,676661,0
2096921,2096921,163090,676309,0
2096921,2096921,162634,676740,0
2096921,2096921,162873,676757,0
2096921,2096921,162643,676769,0
2096921,2096921,162759,676767,0
2096921,2096921,162646,676649,0
2096921,2096921,162904,676906,0
2096921,2096921,162807,676871,0
2096921,2096921,162825,676855,0
2096921,2096921,162614,676927,0
2096921,2096921,162746,676713,0
2096921,2096921,162791,677032,0
2096921,2096921,162739,676674,0
2096921,2096921,162983,677126,0
2096921,2096921,163062,676944,0
2096921,2096921,163041,676820,0
2096921,2096921,163083,677125,0
2096921,2096921,162991,676789,0
2096921,2096921,163161,676858,0
2096921,2096921,162944,676985,0
2096921,2096921,162850,677101,0
2096921,2096921,162933,677230,0
2096921,2096921,163060,677377,0
2096921,2096921,163077,677256,0
2096921,2096921,163074,677301,0
2096921,2096921,163213,677485,0
2096921,2096921,163080,677349,0
2096921,2096921,163103,677520,0
2096921,2096921,163035,677099,0
2096921,2096921,163027,677065,0
2096921,2096921,162884,677052,0
2096921,2096921,163175,677148,0
2096921,2096921,162987,676886,0
2096921,2096921,163055,677339,0
2096921,2096921,163228,677343,0
2096921,2096921,163357,677259,0
2096921,2096921,162881,677147,0
2096921,2096921,162888,677374,0
2096921,2096921,162806,677302,0
2096921,2096921,162895,677093,0
2096921,2096921,162986,676756,0
2096921,2096921,162975,677091,0
2096921,2096921,163018,677220,0
2096921,2096921,163007,677054,0
2096921,2096921,163068,677406,0
2096921,2096921,162944,677112,0
2096921,2096921,163080,677290,0
2096921,2096921,163246,677366,0
2096921,2096921,163149,677236,0
2096921,2096921,163037,677396,0
2096921,2096921,163124,677241,0
2096921,2096921,163234,676957,0
2096921,2096921,163128,677263,0
2096921,2096921,163067,677000,0
2096921,2096921,162897,677100,0
2096921,2096921,163303,677121,0
2096921,2096921,162996,677297,0
2096921,2096921,163191,677104,0
2096921,2096921,162901,677041,0
2096921,2096921,163022,677432,0
2096921,2096921,162907,677275,0
2096921,2096921,162977,677178,0
2096921,2096921,162996,677137,0
2096921,2096921,163247,677413,0
2096921,2096921,163189,677373,0
2096921,2096921,163079,677495,0
2096921,2096921,163017,677103,0
2096921,2096921,163073,677345,0
2096921,2096921,163092,677390,0
2096921,2096921,162701,677085,0
2096921,2096921,162903,677148,0
2096921,2096921,162920,676958,0
2096921,2096921,163104,677307,0
2096921,2096921,162610,676710,0
2096921,2096921,162734,676263,0
2096921,2096921,162804,676250,0
2096921,2096921,163030,676359,0
2096921,2096921,162732,676370,0
2096921,2096921,162310,675813,0
2096921,2096921,162606,675851,0
2096921,2096921,162398,675353,0
2096921,2096921,162532,675550,0
2096921,2096921,162511,675668,0
2096921,2096921,162325,674879,0
2096921,2096921,162122,674772,0
2096921,2096921,162095,674577,0
2096921,2096921,162247,674733,0
2096921,2096921,162465,674500,0
2096921,2096921,161658,673357,0
2096921,2096921,161684,673076,0
2096921,2096921,161613,673122,0
2096921,2096921,161445,672849,0
2096921,2096921,161507,673048,0
2096921,2096921,160743,671714,0
2096921,2096921,160683,671433,0
2096921,2096921,160991,670952,0
2096921,2096921,160919,671229,0
2096921,2096921,161090,671021,0
2096921,2096921,159658,668789,0
2096921,2096921,159934,667539,0
2096921,2096921,159892,667309,0
2096921,2096921,159758,667304,0
2096921,2096921,159702,667284,0
2096921,2096921,158856,664086,0
2096921,2096921,158289,662941,0
2096921,2096921,158264,662473,0
2096921,2096921,158341,662166,0
2096921,2096921,158120,662346,0
2096921,2096921,157423,659797,0
2096921,2096921,157047,659136,0
2096921,2096921,156933,658844,0
2096921,2096921,156907,658676,0
2096921,2096921,156959,659149,0
2096921,2096921,156225,657119,0
2096921,2096921,155892,656453,0
2096921,2096921,156106,656501,0
2096921,2096921,156014,656367,0
2096921,2096921,156225,656327,0
2096921,2096921,155494,654808,0
2096921,2096921,155408,654091,0
2096921,2096921,155487,654219,0
2096921,2096921,155528,654381,0
2096921,2096921,155607,654077,0
2096921,2096921,154933,653138,0
2096921,2096921,154883,652807,0
2096921,2096921,154831,652891,0
2096921,2096921,154836,652695,0
2096921,2096921,154833,652723,0
2096921,2096921,154750,652272,0
2096921,2096921,154726,651770,0
2096921,2096921,154699,651733,0
2096921,2096921,154421,651838,0
2096921,2096921,154677,651680,0
2096921,2096921,154286,651030,0
2096921,2096921,154593,651085,0
2096921,2096921,154675,651130,0
2096921,2096921,154577,651332,0
2096921,2096921,154483,651329,0
2096921,2096921,154289,650829,0
2096921,2096921,154385,650988,0
2096921,2096921,154105,650947,0
2096921,2096921,154303,651025,0
2096921,2096921,154462,650911,0
2096921,2096921,154303,650931,0
2096921,2096921,154352,650730,0
2096921,2096921,154230,650805,0
2096921,2096921,154220,650894,0
2096921,2096921,154594,650897,0
2096921,2096921,154526,651285,0
2096921,2096921,154547,651299,0
2096921,2096921,154536,651422,0
2096921,2096921,154365,651303,0
2096921,2096921,154305,651191,0
2096921,2096921,154542,651861,0
2096921,2096921,154461,651563,0
2096921,2096921,154554,651468,0
2096921,2096921,154412,651774,0
2096921,2096921,154766,651178,0
2096921,2096921,154515,651648,0
2096921,2096921,154675,651693,0
2096921,2096921,154787,652002,0
2096921,2096921,154265,652018,0
2096921,2096921,154675,651704,0
2096921,2096921,155102,652370,0
2096921,2096921,154970,652585,0
2096921,2096921,154952,652711,0
2096921,2096921,154816,652821,0
2096921,2096921,154889,652440,0
2096921,2096921,155327,652611,0
2096921,2096921,154876,653264,0
2096921,2096921,155021,653324,0
2096921,2096921,154675,653310,0
2096921,2096921,155230,653565,0
2096921,2096921,155473,653781,0
2096921,2096921,155515,654110,0
2096921,2096921,155138,654288,0
2096921,2096921,155278,653904,0
2096921,2096921,155338,654017,0
2096921,2096921,155650,654590,0
2096921,2096921,155496,655259,0
2096921,2096921,155617,655179,0
2096921,2096921,155412,655293,0
2096921,2096921,155684,655283,0
2096921,2096921,156326,655631,0
2096921,2096921,155953,655581,0
2096921,2096921,156062,656057,0
2096921,2096921,156082,655799,0
2096921,2096921,155956,655987,0
2096921,2096921,156288,656313,0
2096921,2096921,156114,656225,0
2096921,2096921,156129,656561,0
2096921,2096921,156022,656950,0
2096921,2096921,156305,656626,0
2096921,2096921,156476,657335,0
2096921,2096921,156502,657209,0
2096921,2096921,156370,657610,0
2096921,2096921,156261,657515,0
2096921,2096921,156560,657419,0
2096921,2096921,156998,657908,0
2096921,2096921,156950,658359,0
2096921,2096921,156443,658015,0
2096921,2096921,156517,658006,0
2096921,2096921,156864,658007,0
2096921,2096921,156985,658915,0
2096921,2096921,157080,659064,0
2096921,2096921,157188,659022,0
2096921,2096921,156917,659173,0
2096921,2096921,156885,659193,0
2096921,2096921,157239,659806,0
2096921,2096921,157279,659977,0
2096921,2096921,157128,659670,0
2096921,2096921,157205,660176,0
2096921,2096921,157252,660038,0
2096921,2096921,157546,660780,0
2096921,2096921,157398,660700,0
2096921,2096921,157731,660948,0
2096921,2096921,157767,660689,0
2096921,2096921,157538,660895,0
2096921,2096921,157564,661325,0
2096921,2096921,157789,661448,0
2096921,2096921,157725,661707,0
2096921,2096921,157918,661484,0
2096921,2096921,157825,661775,0
2096921,2096921,158158,662034,0
2096921,2096921,158135,662189,0
2096921,2096921,158105,662634,0
2096921,2096921,158053,662500,0
2096921,2096921,158226,662600,0
2096921,2096921,158251,663071,0
2096921,2096921,157888,663026,0
2096921,2096921,158137,663086,0
2096921,2096921,158449,663153,0
2096921,2096921,158388,662927,0
2096921,2096921,158383,663019,0
2096921,2096921,158499,663421,0
2096921,2096921,158447,663688,0
2096921,2096921,158204,663497,0
2096921,2096921,158369,663328,0
2096921,2096921,158545,663488,0
2096921,2096921,158737,663757,0
2096921,2096921,158566,663583,0
2096921,2096921,158557,663697,0
2096921,2096921,158432,663805,0
2096921,2096921,158357,663867,0
2096921,2096921,158498,663792,0
2096921,2096921,158586,663908,0
2096921,2096921,158666,664152,0
2096921,2096921,158570,663953,0
2096921,2096921,158250,663868,0
2096921,2096921,158892,664090,0
2096921,2096921,158522,664191,0
2096921,2096921,158601,664046,0
2096921,2096921,158779,663931,0
2096921,2096921,158685,663946,0
2096921,2096921,158703,663994,0
2096921,2096921,158826,663918,0
2096921,2096921,158766,664036,0
2096921,2096921,158860,664048,0
2096921,2096921,158562,663685,0
2096921,2096921,158684,664115,0
2096921,2096921,158599,663652,0
2096921,2096921,158755,663669,0
2096921,2096921,158752,663772,0
2096921,2096921,158536,663660,0
2096921,2096921,158205,663313,0
2096921,2096921,158512,663726,0
2096921,2096921,158282,663652,0
2096921,2096921,158182,663487,0
2096921,2096921,158426,663229,0
2096921,2096921,158336,663367,0
2096921,2096921,158595,663478,0
2096921,2096921,158708,662968,0
2096921,2096921,158547,663229,0
2096921,2096921,158206,662976,0
2096921,2096921,158182,662839,0
2096921,2096921,158238,663185,0
2096921,2096921,158534,663061,0
2096921,2096921,158404,662887,0
2096921,2096921,157925,662839,0
2096921,2096921,157982,662678,0
2096921,2096921,157908,662866,0
2096921,2096921,158281,662786,0
2096921,2096921,158162,662488,0
2096921,2096921,158300,663034,0
2096921,2096921,158388,662772,0
2096921,2096921,158421,662889,0
2096921,2096921,158279,662830,0
2096921,2096921,158210,662664,0
2096921,2096921,158255,662750,0
2096921,2096921,158144,662853,0
2096921,2096921,158313,663015,0
2096921,2096921,158143,662819,0
2096921,2096921,158616,662702,0
2096921,2096921,158494,662637,0
2096921,2096921,158062,662730,0
2096921,2096921,158205,662460,0
2096921,2096921,158316,662864,0
2096921,2096921,158260,662772,0
2096921,2096921,158467,663094,0
2096921,2096921,158452,663067,0
2096921,2096921,158384,662870,0
2096921,2096921,158276,663004,0
2096921,2096921,158372,663244,0
2096921,2096921,158333,663358,0
2096921,2096921,158179,663384,0
2096921,2096921,158444,663056,0
2096921,2096921,158588,663194,0
2096921,2096921,158342,663165,0
2096921,2096921,158342,663652,0
2096921,2096921,158444,663803,0
2096921,2096921,158664,663896,0
2096921,2096921,158501,663707,0
2096921,2096921,158895,663685,0
2096921,2096921,158909,664410,0
2096921,2096921,158798,664619,0
2096921,2096921,158983,664447,0
2096921,2096921,158985,664522,0
2096921,2096921,158747,664637,0
2096921,2096921,158899,665005,0
2096921,2096921,159126,664782,0
2096921,2096921,159003,665120,0
2096921,2096921,159136,664944,0
2096921,2096921,159085,664980,0
2096921,2096921,159231,665495,0
2096921,2096921,159329,665798,0
2096921,2096921,159111,665712,0
2096921,2096921,159245,665625,0
2096921,2096921,159201,665597,0
2096921,2096921,159408,665844,0
2096921,2096921,159330,666072,0
2096921,2096921,159398,665842,0
2096921,2096921,159305,666143,0
2096921,2096921,159252,666152,0
2096921,2096921,159519,666712,0
2096921,2096921,159528,666510,0
2096921,2096921,159526,666719,0
2096921,2096921,159330,666302,0
2096921,2096921,159429,666140,0
2096921,2096921,159715,667055,0
2096921,2096921,159353,667124,0
2096921,2096921,159697,666919,0
2096921,2096921,159463,667111,0
2096921,2096921,159696,667152,0
2096921,2096921,159786,667515,0
2096921,2096921,159764,667511,0
2096921,2096921,159579,667726,0
2096921,2096921,159699,667945,0
2096921,2096921,159690,667635,0
2096921,2096921,159844,667940,0
2096921,2096921,160072,667873,0
2096921,2096921,159958,668222,0
2096921,2096921,159837,668253,0
2096921,2096921,160141,668423,0
2096921,2096921,159952,668704,0
2096921,2096921,160027,668624,0
2096921,2096921,160057,668827,0
2096921,2096921,160022,668724,0
2096921,2096921,160094,668662,0
2096921,2096921,160303,669077,0
2096921,2096921,160163,669179,0
2096921,2096921,160359,669062,0
2096921,2096921,160048,669028,0
2096921,2096921,160192,668829,0
2096921,2096921,160364,669472,0
2096921,2096921,160826,669235,0
2096921,2096921,160780,669648,0
2096921,2096921,160662,669682,0
2096921,2096921,160357,669515,0
2096921,2096921,160431,669798,0
2096921,2096921,160581,669803,0
2096921,2096921,160706,669839,0
2096921,2096921,160479,670268,0
2096921,2096921,160635,669737,0
2096921,2096921,160751,670132,0
2096921,2096921,160726,669990,0
2096921,2096921,160643,670215,0
2096921,2096921,160955,670414,0
2096921,2096921,160819,670262,0
2096921,2096921,161057,670539,0
2096921,2096921,160696,670716,0
2096921,2096921,160909,670813,0
2096921,2096921,161012,670758,0
2096921,2096921,161088,670868,0
2096921,2096921,160871,671137,0
2096921,2096921,160910,671144,0
2096921,2096921,161147,671386,0
2096921,2096921,161208,671081,0
2096921,2096921,160980,671315,0
2096921,2096921,161063,671445,0
2096921,2096921,161115,671860,0
2096921,2096921,161014,671728,0
2096921,2096921,161131,671615,0
2096921,2096921,161471,671861,0
2096921,2096921,161343,671637,0
2096921,2096921,161358,671933,0
2096921,2096921,161424,671941,0
2096921,2096921,161293,672042,0
2096921,2096921,161040,672209,0
2096921,2096921,161241,672118,0
2096921,2096921,161549,672249,0
2096921,2096921,161569,672160,0
2096921,2096921,161388,672224,0
2096921,2096921,161607,672298,0
2096921,2096921,161417,672565,0
2096921,2096921,161686,672490,0
2096921,2096921,161730,672680,0
2096921,2096921,161407,672559,0
2096921,2096921,161542,672763,0
2096921,2096921,161455,672736,0
2096921,2096921,161680,672963,0
2096921,2096921,161526,672935,0
2096921,2096921,161780,672806,0
2096921,2096921,161745,673060,0
2096921,2096921,161422,673288,0
2096921,2096921,161530,673352,0
2096921,2096921,161536,673383,0
2096921,2096921,161947,673299,0
2096921,2096921,161431,673316,0
2096921,2096921,161689,673340,0
2096921,2096921,161859,673718,0
2096921,2096921,161771,673560,0
2096921,2096921,161753,673629,0
2096921,2096921,161477,673560,0
2096921,2096921,162009,674137,0
2096921,2096921,162056,673717,0
2096921,2096921,162002,673868,0
2096921,2096921,161554,673679,0
2096921,2096921,161594,673946,0
2096921,2096921,161770,674014,0
2096921,2096921,162036,674158,0
2096921,2096921,161830,674038,0
2096921,2096921,161974,673976,0
2096921,2096921,161790,674097,0
2096921,2096921,162029,674218,0
2096921,2096921,162125,674566,0
2096921,2096921,161936,674234,0
2096921,2096921,161987,674382,0
2096921,2096921,162406,674358,0
2096921,2096921,162064,674335,0
2096921,2096921,162377,674341,0
2096921,2096921,161961,674449,0
2096921,2096921,162182,674657,0
2096921,2096921,161780,674527,0
2096921,2096921,161875,674766,0
2096921,2096921,162230,674712,0
2096921,2096921,162531,674750,0
2096921,2096921,162182,674488,0
2096921,2096921,162272,674878,0
2096921,2096921,162208,674731,0
2096921,2096921,162376,675099,0
2096921,2096921,162366,675115,0
2096921,2096921,162498,675237,0
2096921,2096921,162224,674962,0
2096921,2096921,162339,675099,0
2096921,2096921,162475,675328,0
2096921,2096921,162654,675445,0
2096921,2096921,162247,675024,0
2096921,2096921,162484,675193,0
2096921,2096921,162369,675253,0
2096921,2096921,162483,675361,0
2096921,2096921,162274,675460,0
2096921,2096921,162415,675226,0
2096921,2096921,162421,675591,0
2096921,2096921,162470,675479,0
2096921,2096921,162441,675337,0
2096921,2096921,162448,675599,0
2096921,2096921,162387,675395,0
2096921,2096921,162508,675343,0
2096921,2096921,162408,675610,0
2096921,2096921,162357,675727,0
2096921,2096921,162484,675697,0
2096921,2096921,162544,675798,0
2096921,2096921,162732,676029,0
2096921,2096921,162729,676137,0
2096921,2096921,162532,675910,0
2096921,2096921,162616,675874,0
2096921,2096921,162691,675613,0
2096921,2096921,162460,675799,0
2096921,2096921,162715,676029,0
2096921,2096921,162780,675973,0
2096921,2096921,162422,676105,0
2096921,2096921,162480,675462,0
2096921,2096921,162363,676054,0
2096921,2096921,162602,676439,0
2096921,2096921,162851,675951,0
2096921,2096921,162738,676433,0
2096921,2096921,162768,676409,0
2096921,2096921,162691,676272,0
2096921,2096921,162749,676354,0
2096921,2096921,162794,676340,0
2096921,2096921,162522,676306,0
2096921,2096921,162613,676154,0
2096921,2096921,162721,676628,0
2096921,2096921,162719,676467,0
2096921,2096921,162932,676430,0
2096921,2096921,162883,676430,0
2096921,2096921,162936,676552,0
2096921,2096921,162498,676350,0
2096921,2096921,162783,676505,0
2096921,2096921,163054,676756,0
2096921,2096921,162693,676340,0
2096921,2096921,162518,676635,0
2096921,2096921,162574,676811,0
2096921,2096921,162581,676799,0
2096921,2096921,163119,676703,0
2096921,2096921,162722,676760,0
2096921,2096921,163188,676896,0
2096921,2096921,162993,676905,0
2096921,2096921,162740,676669,0
2096921,2096921,162784,676591,0
2096921,2096921,162958,676805,0
2096921,2096921,162832,676703,0
2096921,2096921,162836,676965,0
2096921,2096921,162964,676897,0
2096921,2096921,163219,677006,0
2096921,2096921,163198,677088,0
2096921,2096921,163006,677048,0
2096921,2096921,162999,677151,0
2096921,2096921,163179,677000,0
2096921,2096921,162744,677154,0
2096921,2096921,162677,677284,0
2096921,2096921,162799,676941,0
2096921,2096921,162695,677063,0
2096921,2096921,162789,677006,0
2096921,2096921,163019,677424,0
2096921,2096921,162961,676903,0
2096921,2096921,163041,677268,0
2096921,2096921,163160,677212,0
2096921,2096921,163092,677041,0
2096921,2096921,162833,677043,0
2096921,2096921,163102,676882,0
2096921,2096921,162771,677054,0
2096921,2096921,162865,677051,0
2096921,2096921,163036,677254,0
2096921,2096921,162987,677206,0
2096921,2096921,162908,677136,0
2096921,2096921,162793,677114,0
2096921,2096921,162907,677224,0
2096921,2096921,163311,677122,0
2096921,2096921,162988,677045,0
2096921,2096921,163192,677046,0
2096921,2096921,163057,677169,0
2096921,2096921,162948,677235,0
2096921,2096921,162988,677091,0
2096921,2096921,162828,677050,0
2096921,2096921,163004,677071,0
2096921,2096921,163098,677374,0
2096921,2096921,162926,677178,0
2096921,2096921,162780,677224,0
2096921,2096921,162816,677511,0
2096921,2096921,162933,677022,0
2096921,2096921,162634,676979,0
2096921,2096921,162841,677464,0
2096921,2096921,163112,677466,0
2096921,2096921,163050,677049,0
2096921,2096921,162972,677411,0
2096921,2096921,163166,677336,0
2096921,2096921,163149,677228,0
2096921,2096921,163115,677186,0
2096921,2096921,162924,677147,0
2096921,2096921,163103,677041,0
2096921,2096921,163097,677010,0
2096921,2096921,162937,677104,0
2096921,2096921,163135,677008,0
2096921,2096921,163095,676918,0
2096921,2096921,162912,677255,0
2096921,2096921,163257,677172,0
2096921,2096921,163149,677270,0
2096921,2096921,163397,677262,0
2096921,2096921,163080,677240,0
2096921,2096921,163213,677336,0
2096921,2096921,163189,677400,0
2096921,2096921,163080,676945,0
2096921,2096921,162726,676703,0
2096921,2096921,162901,676468,0
2096921,2096921,162568,676478,0
2096921,2096921,162791,676406,0
2096921,2096921,162441,676363,0
2096921,2096921,162733,675837,0
2096921,2096921,162488,675600,0
2096921,2096921,162592,675642,0
2096921,2096921,162473,676201,0
2096921,2096921,162771,675950,0
2096921,2096921,162014,674907,0
2096921,2096921,162042,674529,0
2096921,2096921,161958,674405,0
2096921,2096921,161882,674443,0
2096921,2096921,161925,674318,0
2096921,2096921,161447,673430,0
2096921,2096921,161631,672942,0
2096921,2096921,161556,672968,0
2096921,2096921,161483,673025,0
2096921,2096921,161560,672937,0
2096921,2096921,161115,671763,0
2096921,2096921,161098,671233,0
2096921,2096921,161164,670829,0
2096921,2096921,161225,671072,0
2096921,2096921,160989,671175,0
2096921,2096921,160065,668213,0
2096921,2096921,159766,667417,0
2096921,2096921,159485,666751,0
2096921,2096921,159831,667045,0
2096921,2096921,159504,667405,0
2096921,2096921,158602,664011,0
2096921,2096921,158249,662736,0
2096921,2096921,158023,662446,0
2096921,2096921,157833,662503,0
2096921,2096921,158121,662697,0
2096921,2096921,157106,659935,0
2096921,2096921,157073,658887,0
2096921,2096921,156990,658841,0
2096921,2096921,156904,659088,0
2096921,2096921,156915,658826,0
2096921,2096921,156329,656976,0
2096921,2096921,156090,656196,0
2096921,2096921,156142,656101,0
2096921,2096921,156253,656179,0
2096921,2096921,156095,656334,0
2096921,2096921,155381,654848,0
2096921,2096921,155553,654200,0
2096921,2096921,155558,654206,0
2096921,2096921,155271,654514,0
2096921,2096921,155480,654323,0
2096921,2096921,155192,653360,0
2096921,2096921,155002,653080,0
2096921,2096921,155200,652661,0
2096921,2096921,155116,652590,0
2096921,2096921,154947,652635,0
2096921,2096921,154802,652083,0
2096921,2096921,154497,651790,0
2096921,2096921,154776,651559,0
2096921,2096921,154351,651699,0
2096921,2096921,154455,651500,0
2096921,2096921,154637,651305,0
2096921,2096921,154604,650775,0
2096921,2096921,154582,650982,0
2096921,2096921,154692,650976,0
2096921,2096921,154449,651267,0
2096921,2096921,154446,650864,0
2096921,2096921,154518,650720,0
2096921,2096921,154083,650789,0
2096921,2096921,154321,651129,0
2096921,2096921,154229,650995,0
2096921,2096921,154402,651131,0
2096921,2096921,154434,650989,0
2096921,2096921,154245,650966,0
2096921,2096921,154484,651050,0
2096921,2096921,154432,650693,0
2096921,2096921,154452,651340,0
2096921,2096921,154715,651370,0
2096921,2096921,154528,651286,0
2096921,2096921,154679,651429,0
2096921,2096921,154566,651355,0
2096921,2096921,154865,651670,0
2096921,2096921,154474,651508,0
2096921,2096921,154823,651634,0
2096921,2096921,154364,651590,0
2096921,2096921,154483,651514,0
2096921,2096921,154885,651677,0
2096921,2096921,154393,651872,0
2096921,2096921,154598,652112,0
2096921,2096921,154848,651884,0
2096921,2096921,154578,651829,0
2096921,2096921,155025,652018,0
2096921,2096921,155012,652309,0
2096921,2096921,154917,652462,0
2096921,2096921,155137,652775,0
2096921,2096921,155049,652626,0
2096921,2096921,155180,653121,0
2096921,2096921,154956,653018,0
2096921,2096921,155060,653196,0
2096921,2096921,155015,653545,0
2096921,2096921,154997,653628,0
2096921,2096921,155304,653377,0
2096921,2096921,155280,654136,0
2096921,2096921,155167,654249,0
2096921,2096921,155592,654375,0
2096921,2096921,155638,653997,0
2096921,2096921,155996,655067,0
2096921,2096921,155780,654900,0
2096921,2096921,156004,654742,0
2096921,2096921,155914,655083,0
2096921,2096921,155514,654965,0
2096921,2096921,156239,655699,0
2096921,2096921,155907,655841,0
2096921,2096921,156009,655963,0
2096921,2096921,155905,655956,0
2096921,2096921,155501,656408,0
2096921,2096921,156178,656454,0
2096921,2096921,156158,656774,0
2096921,2096921,156311,656300,0
2096921,2096921,156057,656572,0
2096921,2096921,156111,656695,0
2096921,2096921,156299,657183,0
2096921,2096921,156352,657304,0
2096921,2096921,156506,657237,0
2096921,2096921,156190,657282,0
2096921,2096921,156706,657255,0
2096921,2096921,156928,658275,0
2096921,2096921,157017,658137,0
2096921,2096921,156730,658403,0
2096921,2096921,156810,658324,0
2096921,2096921,156692,658470,0
2096921,2096921,156947,659036,0
2096921,2096921,157089,659203,0
2096921,2096921,156978,659142,0
2096921,2096921,157062,659017,0
2096921,2096921,156864,659063,0
2096921,2096921,157381,659853,0
2096921,2096921,157317,660087,0
2096921,2096921,157122,660000,0
2096921,2096921,157245,659736,0
2096921,2096921,157232,660238,0
2096921,2096921,157843,660626,0
2096921,2096921,157579,660771,0
2096921,2096921,157693,660788,0
2096921,2096921,157709,660842,0
2096921,2096921,157727,660815,0
2096921,2096921,157871,661732,0
2096921,2096921,157930,661769,0
2096921,2096921,157928,661912,0
2096921,2096921,157809,661834,0
2096921,2096921,157699,661794,0
2096921,2096921,157853,662111,0
2096921,2096921,158030,662513,0
2096921,2096921,158121,662428,0
2096921,2096921,158281,662653,0
2096921,2096921,158271,662293,0
2096921,2096921,158299,662760,0
2096921,2096921,158421,662801,0
2096921,2096921,158343,662972,0
2096921,2096921,158081,662893,0
2096921,2096921,158292,663092,0
2096921,2096921,158472,663306,0
2096921,2096921,158521,663818,0
2096921,2096921,158350,663446,0
2096921,2096921,158272,663460,0
2096921,2096921,158257,663155,0
2096921,2096921,158431,663799,0
2096921,2096921,158488,663773,0
2096921,2096921,158414,663931,0
2096921,2096921,158837,663897,0
2096921,2096921,158640,663909,0
2096921,2096921,158630,663862,0
2096921,2096921,158538,664135,0
2096921,2096921,158829,663808,0
2096921,2096921,158583,663930,0
2096921,2096921,158455,664080,0
2096921,2096921,158660,663839,0
2096921,2096921,158638,664033,0
2096921,2096921,158410,664109,0
2096921,2096921,158589,663890,0
2096921,2096921,158789,664258,0
2096921,2096921,158721,664233,0
2096921,2096921,158864,664322,0
2096921,2096921,158720,664111,0
2096921,2096921,158711,664004,0
2096921,2096921,158426,664075,0
2096921,2096921,158679,663877,0
2096921,2096921,158368,663884,0
2096921,2096921,158494,663725,0
2096921,2096921,158780,663736,0
2096921,2096921,158673,663817,0
2096921,2096921,158452,663794,0
2096921,2096921,158783,663685,0
2096921,2096921,158572,663632,0
2096921,2096921,158873,663459,0
2096921,2096921,158551,663780,0
2096921,2096921,158468,663351,0
2096921,2096921,158379,663455,0
2096921,2096921,158564,663404,0
2096921,2096921,158615,663135,0
2096921,2096921,158517,663192,0
2096921,2096921,158431,663335,0
2096921,2096921,158181,663334,0
2096921,2096921,158244,663094,0
2096921,2096921,158309,663481,0
2096921,2096921,158207,662888,0
2096921,2096921,158012,662787,0
2096921,2096921,158279,662663,0
2096921,2096921,158370,662640,0
2096921,2096921,158187,662940,0
2096921,2096921,158336,662826,0
2096921,2096921,158269,662806,0
2096921,2096921,158125,662629,0
2096921,2096921,158138,662509,0
2096921,2096921,158209,662932,0
2096921,2096921,158182,662659,0
2096921,2096921,158235,662742,0
2096921,2096921,158079,662636,0
2096921,2096921,158163,662423,0
2096921,2096921,158183,662352,0
2096921,2096921,158310,662485,0
2096921,2096921,158078,662731,0
2096921,2096921,158225,662969,0
2096921,2096921,158299,663075,0
2096921,2096921,158450,662909,0
2096921,2096921,158210,663039,0
2096921,2096921,158229,663089,0
2096921,2096921,158252,663182,0
2096921,2096921,158404,663131,0
2096921,2096921,158182,663069,0
2096921,2096921,158280,662978,0
2096921,2096921,158372,663134,0
2096921,2096921,158619,663263,0
2096921,2096921,158666,663288,0
2096921,2096921,158881,663197,0
2096921,2096921,158325,663391,0
2096921,2096921,158469,663792,0
2096921,2096921,158925,663674,0
2096921,2096921,158843,663651,0
2096921,2096921,158618,663972,0
2096921,2096921,158513,663470,0
2096921,2096921,159045,664471,0
2096921,2096921,158750,664382,0
2096921,2096921,158759,664386,0
2096921,2096921,158598,664554,0
2096921,2096921,158910,664627,0
2096921,2096921,158952,664844,0
2096921,2096921,159077,665428,0
2096921,2096921,158927,665109,0
2096921,2096921,159017,665162,0
2096921,2096921,158764,664837,0
2096921,2096921,158846,665475,0
2096921,2096921,159176,665630,0
2096921,2096921,159190,665482,0
2096921,2096921,159456,665516,0
2096921,2096921,159341,665669,0
2096921,2096921,159352,666038,0
2096921,2096921,159112,666413,0
2096921,2096921,159714,666239,0
2096921,2096921,159321,666595,0
2096921,2096921,159571,666300,0
2096921,2096921,159631,666563,0
2096921,2096921,159472,666781,0
2096921,2096921,159579,666604,0
2096921,2096921,159675,666405,0
2096921,2096921,159461,666763,0
2096921,2096921,159651,667141,0
2096921,2096921,159579,667102,0
2096921,2096921,159792,667083,0
2096921,2096921,159917,667068,0
2096921,2096921,159695,666994,0
2096921,2096921,159729,667368,0
2096921,2096921,159981,667473,0
2096921,2096921,160127,667454,0
2096921,2096921,160226,667728,0
2096921,2096921,159668,667907,0
2096921,2096921,159876,668270,0
2096921,2096921,159884,667922,0
2096921,2096921,160098,668100,0
2096921,2096921,160159,668174,0
2096921,2096921,160216,668207,0
2096921,2096921,160044,668497,0
2096921,2096921,160156,668589,0
2096921,2096921,160004,668726,0
2096921,2096921,160057,668617,0
2096921,2096921,160078,668296,0
2096921,2096921,160169,668647,0
2096921,2096921,160348,668851,0
2096921,2096921,160206,668992,0
2096921,2096921,160240,669015,0
2096921,2096921,160374,668982,0
2096921,2096921,160589,669473,0
2096921,2096921,160553,669467,0
2096921,2096921,160553,669403,0
2096921,2096921,160199,669647,0
2096921,2096921,160569,669401,0
2096921,2096921,160387,669931,0
2096921,2096921,160590,669912,0
2096921,2096921,160509,669772,0
2096921,2096921,160290,670141,0
2096921,2096921,160686,669730,0
2096921,2096921,161037,670250,0
2096921,2096921,160931,670424,0
2096921,2096921,160927,670106,0
2096921,2096921,160869,670216,0
2096921,2096921,160960,670170,0
2096921,2096921,160853,670710,0
2096921,2096921,160819,670849,0
2096921,2096921,160773,670723,0
2096921,2096921,160730,671106,0
2096921,2096921,160652,670789,0
2096921,2096921,160961,670932,0
2096921,2096921,160633,671137,0
2096921,2096921,161163,671543,0
2096921,2096921,160734,671243,0
2096921,2096921,161110,671394,0
2096921,2096921,161164,671584,0
2096921,2096921,161075,671572,0
2096921,2096921,161134,671604,0
2096921,2096921,161100,671679,0
2096921,2096921,161263,671637,0
2096921,2096921,161348,671890,0
2096921,2096921,161250,671824,0
2096921,2096921,161261,671828,0
2096921,2096921,161452,671765,0
2096921,2096921,161289,671974,0
2096921,2096921,161355,672404,0
2096921,2096921,161650,672362,0
2096921,2096921,161211,672527,0
2096921,2096921,161569,672393,0
2096921,2096921,161297,672337,0
2096921,2096921,161421,672755,0
2096921,2096921,161702,672725,0
2096921,2096921,161430,672458,0
2096921,2096921,161483,672583,0
2096921,2096921,161372,672582,0
2096921,2096921,161534,672878,0
2096921,2096921,161609,672873,0
2096921,2096921,161501,673106,0
2096921,2096921,161313,672977,0
2096921,2096921,161608,672812,0
2096921,2096921,161705,672890,0
2096921,2096921,161799,673210,0
2096921,2096921,161931,673103,0
2096921,2096921,161913,673409,0
2096921,2096921,161720,673312,0
2096921,2096921,161863,673614,0
2096921,2096921,161648,673433,0
2096921,2096921,161741,673522,0
2096921,2096921,161692,673474,0
2096921,2096921,161761,673801,0
2096921,2096921,161883,673765,0
2096921,2096921,162009,673854,0
2096921,2096921,161730,673638,0
2096921,2096921,161899,674047,0
2096921,2096921,161845,673979,0
2096921,2096921,161949,674076,0
2096921,2096921,162039,674193,0
2096921,2096921,162130,674128,0
2096921,2096921,161965,673941,0
2096921,2096921,161965,674050,0
2096921,2096921,161957,674606,0
2096921,2096921,162047,674526,0
2096921,2096921,161935,674317,0
2096921,2096921,162213,674414,0
2096921,2096921,162043,674235,0
2096921,2096921,162014,674608,0
2096921,2096921,162231,674293,0
2096921,2096921,162363,674615,0
2096921,2096921,162139,674447,0
2096921,2096921,162270,674817,0
2096921,2096921,162353,674707,0
2096921,2096921,162351,674843,0
2096921,2096921,162218,674743,0
2096921,2096921,162047,674653,0
2096921,2096921,162063,674587,0
2096921,2096921,162197,675191,0
2096921,2096921,162233,675106,0
2096921,2096921,162500,674866,0
2096921,2096921,162320,674840,0
2096921,2096921,162410,674929,0
2096921,2096921,162513,675041,0
2096921,2096921,162645,675484,0
2096921,2096921,162726,675390,0
2096921,2096921,162344,675398,0
2096921,2096921,162561,674990,0
2096921,2096921,162396,675506,0
2096921,2096921,162599,675363,0
2096921,2096921,162546,675361,0
2096921,2096921,162329,675321,0
2096921,2096921,162407,675479,0
2096921,2096921,162394,675498,0
2096921,2096921,162446,675392,0
2096921,2096921,162571,675692,0
2096921,2096921,162424,675583,0
2096921,2096921,162545,675555,0
2096921,2096921,162768,675581,0
2096921,2096921,162473,675273,0
2096921,2096921,162272,675866,0
2096921,2096921,162569,675546,0
2096921,2096921,162622,675342,0
2096921,2096921,162524,675771,0
2096921,2096921,162355,676161,0
2096921,2096921,162531,675720,0
2096921,2096921,162673,675922,0
2096921,2096921,162577,675953,0
2096921,2096921,162732,675717,0
2096921,2096921,162463,676063,0
2096921,2096921,162971,676149,0
2096921,2096921,162533,676078,0
2096921,2096921,162705,676270,0
2096921,2096921,162601,676199,0
2096921,2096921,162595,676362,0
2096921,2096921,162575,676215,0
2096921,2096921,162726,676307,0
2096921,2096921,162804,676380,0
2096921,2096921,162491,676383,0
2096921,2096921,162592,676217,0
2096921,2096921,162730,676258,0
2096921,2096921,162697,676426,0
2096921,2096921,162969,676636,0
2096921,2096921,162905,676647,0
2096921,2096921,163008,676589,0
2096921,2096921,162828,677011,0
2096921,2096921,162825,676820,0
2096921,2096921,162765,676958,0
2096921,2096921,162544,676593,0
2096921,2096921,163023,676397,0
2096921,2096921,162833,676743,0
2096921,2096921,162927,676951,0
2096921,2096921,162611,677016,0
2096921,2096921,162610,677067,0
2096921,2096921,162882,677053,0
2096921,2096921,162771,677228,0
2096921,2096921,162893,676769,0
2096921,2096921,162787,676596,0
2096921,2096921,162961,676960,0
2096921,2096921,163093,677058,0
2096921,2096921,163058,676798,0
2096921,2096921,162991,676931,0
2096921,2096921,163005,676934,0
2096921,2096921,162721,677162,0
2096921,2096921,163069,676809,0
2096921,2096921,162770,677153,0
2096921,2096921,162790,676897,0
2096921,2096921,162841,677253,0
2096921,2096921,162842,677098,0
2096921,2096921,163214,677315,0
2096921,2096921,162922,676959,0
2096921,2096921,163075,677213,0
2096921,2096921,163269,676998,0
2096921,2096921,163068,677367,0
2096921,2096921,163192,677109,0
2096921,2096921,162907,677241,0
2096921,2096921,163118,677447,0
2096921,2096921,162905,677359,0
2096921,2096921,162952,677300,0
2096921,2096921,163004,677256,0
2096921,2096921,162922,677122,0
2096921,2096921,163092,677255,0
2096921,2096921,162816,677168,0
2096921,2096921,162817,677108,0
2096921,2096921,162810,677291,0
2096921,2096921,162944,677162,0
2096921,2096921,163088,677187,0
2096921,2096921,162899,677257,0
2096921,2096921,163028,677140,0
2096921,2096921,162991,677180,0
2096921,2096921,162935,677042,0
2096921,2096921,163007,677278,0
2096921,2096921,162865,677343,0
2096921,2096921,163081,676874,0
2096921,2096921,163015,677046,0
2096921,2096921,163155,677359,0
2096921,2096921,162977,677221,0
2096921,2096921,162960,677024,0
