2096921,2096921,183656,627845,0
2096921,2096921,183688,627678,0
2096921,2096921,183863,628337,0
2096921,2096921,183730,628277,0
2096921,2096921,184087,628191,0
2096921,2096921,184028,628250,0
2096921,2096921,183920,628152,0
2096921,2096921,183857,628104,0
2096921,2096921,184007,628220,0
2096921,2096921,184027,628095,0
2096921,2096921,183960,628081,0
2096921,2096921,184045,628142,0
2096921,2096921,183872,628070,0
2096921,2096921,183730,627965,0
2096921,2096921,183869,627996,0
2096921,2096921,184085,627750,0
2096921,2096921,184008,628234,0
2096921,2096921,183818,628218,0
2096921,2096921,183920,628134,0
2096921,2096921,183902,628243,0
2096921,2096921,183721,628299,0
2096921,2096921,183986,627976,0
2096921,2096921,183661,627852,0
2096921,2096921,183954,627999,0
2096921,2096921,183749,627805,0
2096921,2096921,183342,627321,0
2096921,2096921,183687,627854,0
2096921,2096921,183887,627826,0
2096921,2096921,183799,627828,0
2096921,2096921,183851,627607,0
2096921,2096921,183463,627154,0
2096921,2096921,183404,627261,0
2096921,2096921,183479,627349,0
2096921,2096921,183564,627431,0
2096921,2096921,183392,627249,0
2096921,2096921,183106,627262,0
2096921,2096921,183292,626946,0
2096921,2096921,183376,627152,0
2096921,2096921,183453,627220,0
2096921,2096921,183356,627009,0
2096921,2096921,183151,626270,0
2096921,2096921,182847,626188,0
2096921,2096921,182957,626438,0
2096921,2096921,182739,626362,0
2096921,2096921,182790,626224,0
2096921,2096921,182515,625480,0
2096921,2096921,182661,625368,0
2096921,2096921,182355,625194,0
2096921,2096921,182547,625626,0
2096921,2096921,182372,625567,0
2096921,2096921,181808,624351,0
2096921,2096921,181724,624058,0
2096921,2096921,181807,623756,0
2096921,2096921,181699,623655,0
2096921,2096921,181744,624200,0
2096921,2096921,181085,623166,0
2096921,2096921,181398,622935,0
2096921,2096921,181276,622668,0
2096921,2096921,180934,622593,0
2096921,2096921,180882,622687,0
2096921,2096921,180577,622380,0
2096921,2096921,180762,622306,0
2096921,2096921,180694,622371,0
2096921,2096921,180609,622323,0
2096921,2096921,180839,622169,0
2096921,2096921,180499,621817,0
2096921,2096921,180567,621691,0
2096921,2096921,180721,621626,0
2096921,2096921,180463,621389,0
2096921,2096921,180643,621730,0
2096921,2096921,180465,621410,0
2096921,2096921,180331,621165,0
2096921,2096921,180345,621383,0
2096921,2096921,180086,621195,0
2096921,2096921,180050,621272,0
2096921,2096921,180014,621183,0
2096921,2096921,180206,620925,0
2096921,2096921,180342,620977,0
2096921,2096921,180191,621082,0
2096921,2096921,180317,620928,0
2096921,2096921,180082,620597,0
2096921,2096921,179946,620789,0
2096921,2096921,180088,620885,0
2096921,2096921,180115,620839,0
2096921,2096921,179860,620643,0
2096921,2096921,179858,620657,0
2096921,2096921,179919,620626,0
2096921,2096921,180177,620860,0
2096921,2096921,180154,620989,0
2096921,2096921,180106,620734,0
2096921,2096921,180180,620739,0
2096921,2096921,180091,620862,0
2096921,2096921,180483,620845,0
2096921,2096921,180123,620807,0
2096921,2096921,180056,620764,0
2096921,2096921,180214,620760,0
2096921,2096921,180130,620881,0
2096921,2096921,180202,620945,0
2096921,2096921,180327,620761,0
2096921,2096921,180322,620855,0
2096921,2096921,180150,620823,0
2096921,2096921,180273,620574,0
2096921,2096921,179841,620831,0
2096921,2096921,180061,620793,0
2096921,2096921,180193,620807,0
2096921,2096921,180236,620876,0
2096921,2096921,180253,621196,0
2096921,2096921,180499,621122,0
2096921,2096921,180309,621264,0
2096921,2096921,180143,620996,0
2096921,2096921,180474,621116,0
2096921,2096921,180609,621115,0
2096921,2096921,180279,621286,0
2096921,2096921,180427,621213,0
2096921,2096921,180268,621018,0
2096921,2096921,180201,621478,0
2096921,2096921,180381,621407,0
2096921,2096921,180267,621250,0
2096921,2096921,180327,621691,0
2096921,2096921,180398,621513,0
2096921,2096921,180612,621548,0
2096921,2096921,180648,621625,0
2096921,2096921,180658,621776,0
2096921,2096921,180458,621561,0
2096921,2096921,180337,621425,0
2096921,2096921,180601,621708,0
2096921,2096921,180654,621784,0
2096921,2096921,180532,621870,0
2096921,2096921,180460,621778,0
2096921,2096921,180716,621791,0
2096921,2096921,180755,621862,0
2096921,2096921,180535,621979,0
2096921,2096921,180863,621768,0
2096921,2096921,180691,622262,0
2096921,2096921,180438,622043,0
2096921,2096921,180767,622216,0
2096921,2096921,181159,622450,0
2096921,2096921,181009,622727,0
2096921,2096921,180950,622446,0
2096921,2096921,181023,622339,0
2096921,2096921,180936,622406,0
2096921,2096921,181076,622700,0
2096921,2096921,180868,622573,0
2096921,2096921,180778,622545,0
2096921,2096921,180988,622749,0
2096921,2096921,181241,622704,0
2096921,2096921,181028,622678,0
2096921,2096921,181137,622868,0
2096921,2096921,181360,622982,0
2096921,2096921,181239,622830,0
2096921,2096921,181362,622871,0
2096921,2096921,181144,622975,0
2096921,2096921,181248,622997,0
2096921,2096921,181001,622829,0
2096921,2096921,180935,622930,0
2096921,2096921,181245,623113,0
2096921,2096921,181574,623449,0
2096921,2096921,181512,623432,0
2096921,2096921,181772,623487,0
2096921,2096921,181533,623366,0
2096921,2096921,181512,623556,0
2096921,2096921,181387,623402,0
2096921,2096921,181170,623543,0
2096921,2096921,181340,623406,0
2096921,2096921,181319,623738,0
2096921,2096921,181490,623740,0
2096921,2096921,181609,623666,0
2096921,2096921,181563,623664,0
2096921,2096921,181346,623654,0
2096921,2096921,181730,623581,0
2096921,2096921,181613,623961,0
2096921,2096921,181661,624109,0
2096921,2096921,181488,623920,0
2096921,2096921,181577,623870,0
2096921,2096921,181451,623970,0
2096921,2096921,181771,624333,0
2096921,2096921,181881,624446,0
2096921,2096921,182114,624027,0
2096921,2096921,181756,624319,0
2096921,2096921,182008,624445,0
2096921,2096921,181747,624095,0
2096921,2096921,182045,624199,0
2096921,2096921,181775,624334,0
2096921,2096921,181453,624227,0
2096921,2096921,181912,624014,0
2096921,2096921,181842,624436,0
2096921,2096921,181809,624000,0
2096921,2096921,181880,624498,0
2096921,2096921,181904,624440,0
2096921,2096921,181929,624511,0
2096921,2096921,181982,624536,0
2096921,2096921,181876,624614,0
2096921,2096921,181924,624159,0
2096921,2096921,181888,624267,0
2096921,2096921,181870,624445,0
2096921,2096921,181722,624338,0
2096921,2096921,181746,624308,0
2096921,2096921,182251,624252,0
2096921,2096921,182248,624032,0
2096921,2096921,182034,624597,0
2096921,2096921,181944,624490,0
2096921,2096921,182101,624546,0
2096921,2096921,181726,624277,0
2096921,2096921,181780,624479,0
2096921,2096921,182323,624576,0
2096921,2096921,182132,624205,0
2096921,2096921,181901,624389,0
2096921,2096921,181747,624171,0
2096921,2096921,182091,624255,0
2096921,2096921,181942,624434,0
2096921,2096921,182010,624287,0
2096921,2096921,181895,624139,0
2096921,2096921,181917,624233,0
2096921,2096921,181739,624308,0
2096921,2096921,181857,624276,0
2096921,2096921,181590,623901,0
2096921,2096921,181954,624102,0
2096921,2096921,182275,624105,0
2096921,2096921,182044,623950,0
2096921,2096921,181805,624299,0
2096921,2096921,181809,624307,0
2096921,2096921,181692,624296,0
2096921,2096921,181586,624244,0
2096921,2096921,181760,623929,0
2096921,2096921,181777,623775,0
2096921,2096921,181568,624061,0
2096921,2096921,181576,623988,0
2096921,2096921,181616,623754,0
2096921,2096921,181764,623910,0
2096921,2096921,181511,624224,0
2096921,2096921,181469,624009,0
2096921,2096921,181530,623963,0
2096921,2096921,181467,623914,0
2096921,2096921,181569,624299,0
2096921,2096921,181596,624050,0
2096921,2096921,181691,624198,0
2096921,2096921,181956,624003,0
2096921,2096921,181984,623768,0
2096921,2096921,181737,624231,0
2096921,2096921,181860,624075,0
2096921,2096921,182064,624166,0
2096921,2096921,181841,623890,0
2096921,2096921,181404,623815,0
2096921,2096921,181618,623640,0
2096921,2096921,181542,623832,0
2096921,2096921,181706,624223,0
2096921,2096921,181717,624297,0
2096921,2096921,181520,624136,0
2096921,2096921,181642,624093,0
2096921,2096921,181813,624155,0
2096921,2096921,181713,623943,0
2096921,2096921,181724,624155,0
2096921,2096921,181783,624219,0
2096921,2096921,182009,623992,0
2096921,2096921,181840,623983,0
2096921,2096921,181833,624259,0
2096921,2096921,181831,624329,0
2096921,2096921,181808,624301,0
2096921,2096921,182197,624409,0
2096921,2096921,181967,624396,0
2096921,2096921,182211,624599,0
2096921,2096921,182114,624683,0
2096921,2096921,182103,624386,0
2096921,2096921,181891,624535,0
2096921,2096921,182020,624392,0
2096921,2096921,182239,624399,0
2096921,2096921,182067,624601,0
2096921,2096921,182145,624666,0
2096921,2096921,181986,624607,0
2096921,2096921,181913,624558,0
2096921,2096921,182283,624886,0
2096921,2096921,182110,624573,0
2096921,2096921,182018,624739,0
2096921,2096921,182207,624681,0
2096921,2096921,182208,624395,0
2096921,2096921,182293,624851,0
2096921,2096921,182197,624999,0
2096921,2096921,182441,625110,0
2096921,2096921,182293,625166,0
2096921,2096921,182267,625306,0
2096921,2096921,182308,625144,0
2096921,2096921,182292,625221,0
2096921,2096921,182046,625318,0
2096921,2096921,182270,624886,0
2096921,2096921,182335,625044,0
2096921,2096921,182433,624971,0
2096921,2096921,182476,625230,0
2096921,2096921,182640,625477,0
2096921,2096921,182413,625351,0
2096921,2096921,182386,625387,0
2096921,2096921,182669,625291,0
2096921,2096921,182492,625007,0
2096921,2096921,182321,625130,0
2096921,2096921,182456,625338,0
2096921,2096921,182280,625329,0
2096921,2096921,182632,625567,0
2096921,2096921,182620,625581,0
2096921,2096921,182654,625769,0
2096921,2096921,182481,625678,0
2096921,2096921,182649,625396,0
2096921,2096921,182828,625594,0
2096921,2096921,182669,625758,0
2096921,2096921,182797,625963,0
2096921,2096921,182753,625707,0
2096921,2096921,182630,625895,0
2096921,2096921,182900,625789,0
2096921,2096921,182669,625901,0
2096921,2096921,182734,626121,0
2096921,2096921,182922,625991,0
2096921,2096921,182762,626154,0
2096921,2096921,182976,626302,0
2096921,2096921,182634,626043,0
2096921,2096921,182565,625844,0
2096921,2096921,182563,625949,0
2096921,2096921,182669,625726,0
2096921,2096921,182702,625701,0
2096921,2096921,183094,625975,0
2096921,2096921,182700,626153,0
2096921,2096921,182900,626337,0
2096921,2096921,182760,626125,0
2096921,2096921,182881,626154,0
2096921,2096921,182769,625991,0
2096921,2096921,183049,626115,0
2096921,2096921,182724,626351,0
2096921,2096921,182803,626246,0
2096921,2096921,183118,626002,0
2096921,2096921,182946,626424,0
2096921,2096921,182884,626496,0
2096921,2096921,183228,626369,0
2096921,2096921,183038,626290,0
2096921,2096921,183019,626493,0
2096921,2096921,183109,626502,0
2096921,2096921,182934,626480,0
2096921,2096921,182974,626202,0
2096921,2096921,183051,626259,0
2096921,2096921,183077,626630,0
2096921,2096921,182903,626620,0
2096921,2096921,183091,626786,0
2096921,2096921,183047,626761,0
2096921,2096921,183163,626962,0
2096921,2096921,183124,626757,0
2096921,2096921,183243,626660,0
2096921,2096921,183000,626693,0
2096921,2096921,183131,626590,0
2096921,2096921,182902,626480,0
2096921,2096921,183008,626489,0
2096921,2096921,183227,626702,0
2096921,2096921,183279,626669,0
2096921,2096921,183047,626474,0
2096921,2096921,183442,626844,0
2096921,2096921,183411,626519,0
2096921,2096921,183343,626703,0
2096921,2096921,183370,626846,0
2096921,2096921,183323,626645,0
2096921,2096921,183014,626650,0
2096921,2096921,183388,626993,0
2096921,2096921,183150,626815,0
2096921,2096921,183398,627033,0
2096921,2096921,183191,627048,0
2096921,2096921,183356,626598,0
2096921,2096921,183306,626889,0
2096921,2096921,183340,626944,0
2096921,2096921,183242,626958,0
2096921,2096921,183068,627223,0
2096921,2096921,183174,627197,0
2096921,2096921,183460,627059,0
2096921,2096921,183422,627337,0
2096921,2096921,183229,627115,0
2096921,2096921,183544,626999,0
2096921,2096921,183638,627153,0
2096921,2096921,183310,627004,0
2096921,2096921,183596,627315,0
2096921,2096921,183491,626962,0
2096921,2096921,183449,627189,0
2096921,2096921,183317,627060,0
2096921,2096921,183635,627311,0
2096921,2096921,183496,627332,0
2096921,2096921,183265,627465,0
2096921,2096921,183512,627435,0
2096921,2096921,183314,627201,0
2096921,2096921,183299,627502,0
2096921,2096921,183445,627254,0
2096921,2096921,183274,627223,0
2096921,2096921,183297,627477,0
2096921,2096921,183370,627187,0
2096921,2096921,183217,627150,0
2096921,2096921,183689,627444,0
2096921,2096921,183662,627189,0
2096921,2096921,183532,627265,0
2096921,2096921,183685,627422,0
2096921,2096921,183387,627288,0
2096921,2096921,183436,627336,0
2096921,2096921,183276,627526,0
2096921,2096921,183150,627197,0
2096921,2096921,183197,627206,0
2096921,2096921,183405,627410,0
2096921,2096921,183569,627551,0
2096921,2096921,183579,627595,0
2096921,2096921,183439,627543,0
2096921,2096921,183509,627430,0
2096921,2096921,183773,627392,0
2096921,2096921,183511,627334,0
2096921,2096921,183504,627336,0
2096921,2096921,183616,627580,0
2096921,2096921,183588,627434,0
2096921,2096921,183478,627514,0
2096921,2096921,183600,627628,0
2096921,2096921,183513,627543,0
2096921,2096921,183778,627664,0
2096921,2096921,183561,627848,0
2096921,2096921,183638,627687,0
2096921,2096921,183729,627594,0
2096921,2096921,183522,627876,0
2096921,2096921,183482,627500,0
2096921,2096921,183542,627413,0
2096921,2096921,183527,627582,0
2096921,2096921,183643,627788,0
2096921,2096921,183708,627719,0
2096921,2096921,183780,628027,0
2096921,2096921,183566,627940,0
2096921,2096921,183543,627740,0
2096921,2096921,183529,627613,0
2096921,2096921,183798,627871,0
2096921,2096921,183295,627551,0
2096921,2096921,183645,627621,0
2096921,2096921,183653,627814,0
2096921,2096921,184032,627945,0
2096921,2096921,183555,627738,0
2096921,2096921,183636,627594,0
2096921,2096921,183627,627759,0
2096921,2096921,184049,627727,0
2096921,2096921,183734,628036,0
2096921,2096921,183707,627872,0
2096921,2096921,183904,627747,0
2096921,2096921,183870,627820,0
2096921,2096921,183552,627562,0
2096921,2096921,183640,627547,0
2096921,2096921,183562,627730,0
2096921,2096921,183751,628034,0
2096921,2096921,183887,628144,0
2096921,2096921,183889,627897,0
2096921,2096921,183649,627940,0
2096921,2096921,183845,627799,0
2096921,2096921,183575,627785,0
2096921,2096921,183558,627520,0
2096921,2096921,183982,627687,0
2096921,2096921,184003,627930,0
2096921,2096921,183849,627969,0
2096921,2096921,183752,627936,0
2096921,2096921,183767,628043,0
2096921,2096921,183707,627887,0
2096921,2096921,183631,627771,0
2096921,2096921,183477,627829,0
2096921,2096921,183661,627886,0
2096921,2096921,183825,628245,0
2096921,2096921,183737,628213,0
2096921,2096921,183706,628300,0
2096921,2096921,183930,628330,0
2096921,2096921,184160,627826,0
2096921,2096921,184049,627853,0
2096921,2096921,184008,627980,0
2096921,2096921,183814,628048,0
2096921,2096921,183683,627980,0
2096921,2096921,183761,628188,0
2096921,2096921,183802,627736,0
2096921,2096921,183837,628234,0
2096921,2096921,184020,628106,0
2096921,2096921,183929,628252,0
2096921,2096921,184044,628302,0
2096921,2096921,183737,628264,0
2096921,2096921,183879,628181,0
2096921,2096921,183751,628270,0
2096921,2096921,183834,628094,0
2096921,2096921,183948,628324,0
2096921,2096921,184082,627801,0
2096921,2096921,183883,628214,0
2096921,2096921,184270,628188,0
2096921,2096921,184066,628236,0
2096921,2096921,184010,628131,0
2096921,2096921,184011,628369,0
2096921,2096921,183759,628210,0
2096921,2096921,183635,628094,0
2096921,2096921,183806,627995,0
2096921,2096921,184005,628129,0
2096921,2096921,183778,628177,0
2096921,2096921,183900,628292,0
2096921,2096921,183799,627903,0
2096921,2096921,184199,627900,0
2096921,2096921,183974,628106,0
2096921,2096921,183967,628224,0
2096921,2096921,184072,628235,0
2096921,2096921,183689,628145,0
2096921,2096921,183769,628136,0
2096921,2096921,183734,627927,0
2096921,2096921,183824,627962,0
2096921,2096921,184110,628315,0
2096921,2096921,184031,628063,0
2096921,2096921,183876,628104,0
2096921,2096921,183912,628309,0
2096921,2096921,183791,628286,0
2096921,2096921,183872,628219,0
2096921,2096921,183739,628022,0
2096921,2096921,183840,628135,0
2096921,2096921,183812,628064,0
2096921,2096921,183674,628065,0
2096921,2096921,183979,628202,0
2096921,2096921,183696,628227,0
2096921,2096921,183927,628252,0
2096921,2096921,183962,628260,0
2096921,2096921,183909,628199,0
2096921,2096921,183798,628074,0
2096921,2096921,183808,628135,0
2096921,2096921,183817,628089,0
2096921,2096921,184034,628472,0
2096921,2096921,183827,628469,0
2096921,2096921,183927,628336,0
2096921,2096921,184077,628188,0
2096921,2096921,184043,628149,0
2096921,2096921,184127,627784,0
2096921,2096921,184032,628062,0
2096921,2096921,183839,627816,0
2096921,2096921,183587,627609,0
2096921,2096921,183706,627569,0
2096921,2096921,183665,627883,0
2096921,2096921,183786,627734,0
2096921,2096921,183713,627843,0
2096921,2096921,183843,627664,0
2096921,2096921,183684,627615,0
2096921,2096921,183382,627895,0
2096921,2096921,183622,628038,0
2096921,2096921,183549,627231,0
2096921,2096921,183310,627322,0
2096921,2096921,183367,627411,0
2096921,2096921,183180,627291,0
2096921,2096921,183219,627525,0
2096921,2096921,183013,627276,0
2096921,2096921,183325,626973,0
2096921,2096921,183185,627054,0
2096921,2096921,183247,627346,0
2096921,2096921,183298,627276,0
2096921,2096921,183070,626750,0
2096921,2096921,183052,626614,0
2096921,2096921,183017,626326,0
2096921,2096921,182739,626253,0
2096921,2096921,182851,626396,0
2096921,2096921,182753,625508,0
2096921,2096921,182574,625263,0
2096921,2096921,182273,625325,0
2096921,2096921,182443,625170,0
2096921,2096921,182339,625221,0
2096921,2096921,181898,624445,0
2096921,2096921,181637,623954,0
2096921,2096921,181388,623637,0
2096921,2096921,181521,623674,0
2096921,2096921,181672,624054,0
2096921,2096921,181371,623030,0
2096921,2096921,181074,623018,0
2096921,2096921,181250,622743,0
2096921,2096921,181335,622839,0
2096921,2096921,181153,622813,0
2096921,2096921,180586,622418,0
2096921,2096921,180802,622149,0
2096921,2096921,180755,622125,0
2096921,2096921,180782,622175,0
2096921,2096921,180497,622339,0
2096921,2096921,180323,621832,0
2096921,2096921,180495,621880,0
2096921,2096921,180667,621520,0
2096921,2096921,180545,621389,0
2096921,2096921,180279,621536,0
2096921,2096921,180285,621404,0
2096921,2096921,180582,621318,0
2096921,2096921,180145,621203,0
2096921,2096921,180121,621332,0
2096921,2096921,179956,620957,0
2096921,2096921,180095,620995,0
2096921,2096921,180085,620891,0
2096921,2096921,180248,620885,0
2096921,2096921,180231,620896,0
2096921,2096921,180133,621050,0
2096921,2096921,180045,620990,0
2096921,2096921,180066,620771,0
2096921,2096921,180101,620283,0
2096921,2096921,180009,620737,0
2096921,2096921,180300,620631,0
2096921,2096921,179982,620724,0
2096921,2096921,179942,620588,0
2096921,2096921,180046,620577,0
2096921,2096921,180066,620742,0
2096921,2096921,180060,620533,0
2096921,2096921,180150,620668,0
2096921,2096921,180109,620874,0
2096921,2096921,180248,620535,0
2096921,2096921,179982,620777,0
2096921,2096921,180201,620631,0
2096921,2096921,179903,620803,0
2096921,2096921,179809,620763,0
2096921,2096921,179804,620827,0
2096921,2096921,180040,620723,0
2096921,2096921,179884,620714,0
2096921,2096921,179975,620970,0
2096921,2096921,180026,620845,0
2096921,2096921,180055,620667,0
2096921,2096921,179979,620773,0
2096921,2096921,179896,620777,0
2096921,2096921,179866,620975,0
2096921,2096921,180057,621095,0
2096921,2096921,180425,620882,0
2096921,2096921,180212,621099,0
2096921,2096921,180014,621228,0
2096921,2096921,180357,621147,0
2096921,2096921,180321,621043,0
2096921,2096921,180043,621392,0
2096921,2096921,180291,621355,0
2096921,2096921,180183,621050,0
2096921,2096921,180242,621256,0
2096921,2096921,180278,621217,0
2096921,2096921,180555,621169,0
2096921,2096921,180473,621661,0
2096921,2096921,180481,621740,0
2096921,2096921,180427,621750,0
2096921,2096921,180524,621636,0
2096921,2096921,180517,621649,0
2096921,2096921,180379,621738,0
2096921,2096921,180233,621577,0
2096921,2096921,180687,621652,0
2096921,2096921,180849,621792,0
2096921,2096921,180585,621785,0
2096921,2096921,180433,621885,0
2096921,2096921,180757,621970,0
2096921,2096921,180611,621864,0
2096921,2096921,180797,622292,0
2096921,2096921,180617,621791,0
2096921,2096921,180697,622069,0
2096921,2096921,180602,622182,0
2096921,2096921,180768,622442,0
2096921,2096921,180876,622483,0
2096921,2096921,180883,622555,0
2096921,2096921,180798,622354,0
2096921,2096921,180519,622263,0
2096921,2096921,180849,622574,0
2096921,2096921,180881,622288,0
2096921,2096921,181273,622444,0
2096921,2096921,180919,622458,0
2096921,2096921,180972,622497,0
2096921,2096921,180894,622571,0
2096921,2096921,181018,622773,0
2096921,2096921,180984,622883,0
2096921,2096921,181295,622768,0
2096921,2096921,180664,622906,0
2096921,2096921,181119,622877,0
2096921,2096921,181227,623109,0
2096921,2096921,180943,623078,0
2096921,2096921,180871,622977,0
2096921,2096921,181107,622833,0
2096921,2096921,181228,623173,0
2096921,2096921,181234,623286,0
2096921,2096921,181396,623069,0
2096921,2096921,181045,623555,0
2096921,2096921,181353,623374,0
2096921,2096921,181508,623396,0
2096921,2096921,181357,623574,0
2096921,2096921,181409,623225,0
2096921,2096921,181360,623245,0
2096921,2096921,181303,623456,0
2096921,2096921,181606,623828,0
2096921,2096921,181560,623820,0
2096921,2096921,181430,623740,0
2096921,2096921,181476,623904,0
2096921,2096921,181844,624032,0
2096921,2096921,181503,624056,0
2096921,2096921,181738,624227,0
2096921,2096921,181632,623944,0
2096921,2096921,181427,623837,0
2096921,2096921,181366,623982,0
2096921,2096921,181948,624070,0
2096921,2096921,181850,624074,0
2096921,2096921,181950,624198,0
2096921,2096921,182098,624498,0
2096921,2096921,181854,624001,0
2096921,2096921,181901,624225,0
2096921,2096921,181794,624118,0
2096921,2096921,181872,624166,0
2096921,2096921,181699,624333,0
2096921,2096921,181611,624408,0
2096921,2096921,182159,624467,0
2096921,2096921,182250,624470,0
2096921,2096921,181916,624550,0
2096921,2096921,181859,624383,0
2096921,2096921,182067,624175,0
2096921,2096921,181650,624459,0
2096921,2096921,181819,624596,0
2096921,2096921,181867,624306,0
2096921,2096921,181641,624329,0
2096921,2096921,181626,624604,0
2096921,2096921,181921,624241,0
2096921,2096921,182130,624433,0
2096921,2096921,181983,624227,0
2096921,2096921,182237,624142,0
2096921,2096921,182020,624686,0
2096921,2096921,181952,624772,0
2096921,2096921,181891,624540,0
2096921,2096921,181879,624293,0
2096921,2096921,181598,624390,0
2096921,2096921,181719,624399,0
2096921,2096921,181687,624292,0
2096921,2096921,181956,624319,0
2096921,2096921,182125,624167,0
2096921,2096921,182237,624127,0
2096921,2096921,181754,624095,0
2096921,2096921,182035,624372,0
2096921,2096921,182079,624419,0
2096921,2096921,181946,624457,0
2096921,2096921,181571,624267,0
2096921,2096921,181556,624183,0
2096921,2096921,181661,624240,0
2096921,2096921,181793,624484,0
2096921,2096921,181764,624313,0
2096921,2096921,181727,624262,0
2096921,2096921,181554,624393,0
2096921,2096921,181804,624031,0
2096921,2096921,181555,623914,0
2096921,2096921,181668,624340,0
2096921,2096921,181915,624039,0
2096921,2096921,181750,624170,0
2096921,2096921,181805,624225,0
2096921,2096921,181781,623912,0
2096921,2096921,181869,623777,0
2096921,2096921,181753,623986,0
2096921,2096921,181749,623919,0
2096921,2096921,181757,624000,0
2096921,2096921,181742,624032,0
2096921,2096921,181559,624065,0
2096921,2096921,182071,623858,0
2096921,2096921,181621,623871,0
2096921,2096921,181809,623933,0
2096921,2096921,182036,624092,0
2096921,2096921,181916,623891,0
2096921,2096921,181978,623951,0
2096921,2096921,182068,624057,0
2096921,2096921,181882,624221,0
2096921,2096921,181468,624203,0
2096921,2096921,181798,623930,0
2096921,2096921,181552,624031,0
2096921,2096921,181805,623970,0
2096921,2096921,181832,624040,0
2096921,2096921,181855,623796,0
2096921,2096921,181965,624139,0
2096921,2096921,182082,624061,0
2096921,2096921,182026,623999,0
2096921,2096921,181786,624372,0
2096921,2096921,181557,624653,0
2096921,2096921,181827,624097,0
2096921,2096921,181613,624244,0
2096921,2096921,181643,624291,0
2096921,2096921,181647,624364,0
2096921,2096921,181694,624721,0
2096921,2096921,182044,624519,0
2096921,2096921,182009,624334,0
2096921,2096921,181684,624439,0
2096921,2096921,182132,624656,0
2096921,2096921,181917,624658,0
2096921,2096921,182132,624195,0
2096921,2096921,181878,624550,0
2096921,2096921,182171,624313,0
2096921,2096921,182279,624522,0
2096921,2096921,182074,624783,0
2096921,2096921,182282,624807,0
2096921,2096921,182547,624698,0
2096921,2096921,182195,624671,0
2096921,2096921,182066,624773,0
2096921,2096921,182126,624661,0
2096921,2096921,181894,624882,0
2096921,2096921,182199,624900,0
2096921,2096921,182298,624951,0
2096921,2096921,182285,624989,0
2096921,2096921,182343,624941,0
2096921,2096921,182521,624944,0
2096921,2096921,182296,624992,0
2096921,2096921,182416,625131,0
2096921,2096921,182241,625173,0
2096921,2096921,182413,625103,0
2096921,2096921,182385,625141,0
2096921,2096921,182435,625009,0
2096921,2096921,182443,624888,0
2096921,2096921,182410,625327,0
2096921,2096921,182623,625367,0
2096921,2096921,182689,625446,0
2096921,2096921,182387,625376,0
2096921,2096921,182326,625216,0
2096921,2096921,182377,625078,0
2096921,2096921,182566,625230,0
2096921,2096921,182434,625189,0
2096921,2096921,182513,625607,0
2096921,2096921,182529,625395,0
2096921,2096921,182631,625454,0
2096921,2096921,182569,625369,0
2096921,2096921,182629,625701,0
2096921,2096921,182441,625518,0
2096921,2096921,182504,625703,0
2096921,2096921,182626,625570,0
2096921,2096921,182436,625824,0
2096921,2096921,182303,625675,0
2096921,2096921,182624,625720,0
2096921,2096921,182616,625844,0
2096921,2096921,182666,625981,0
2096921,2096921,182648,625852,0
2096921,2096921,182769,625888,0
2096921,2096921,183046,626167,0
2096921,2096921,182739,626109,0
2096921,2096921,182778,625764,0
2096921,2096921,182667,626138,0
2096921,2096921,182725,625845,0
2096921,2096921,182698,625858,0
2096921,2096921,182734,626113,0
2096921,2096921,182748,625754,0
2096921,2096921,182938,626018,0
2096921,2096921,182700,625946,0
2096921,2096921,182706,625977,0
2096921,2096921,182917,625927,0
2096921,2096921,183042,626095,0
2096921,2096921,182969,626262,0
2096921,2096921,182905,626126,0
2096921,2096921,182821,626221,0
2096921,2096921,182892,625882,0
2096921,2096921,182907,626168,0
2096921,2096921,182919,626304,0
2096921,2096921,183107,626321,0
2096921,2096921,183025,626372,0
2096921,2096921,182748,626364,0
2096921,2096921,183116,626600,0
2096921,2096921,182859,626411,0
2096921,2096921,182691,626580,0
2096921,2096921,182976,626649,0
2096921,2096921,182808,626386,0
2096921,2096921,183057,626378,0
2096921,2096921,183036,626425,0
2096921,2096921,183195,626719,0
2096921,2096921,183049,626349,0
2096921,2096921,183124,626683,0
2096921,2096921,183149,626946,0
2096921,2096921,183266,626753,0
2096921,2096921,183046,626559,0
2096921,2096921,183285,626556,0
2096921,2096921,183107,626609,0
2096921,2096921,183039,626839,0
2096921,2096921,183229,626625,0
2096921,2096921,183171,626652,0
2096921,2096921,183153,627031,0
2096921,2096921,183128,626893,0
2096921,2096921,183246,626740,0
2096921,2096921,183222,626957,0
2096921,2096921,183144,626852,0
2096921,2096921,183340,626689,0
2096921,2096921,183373,626862,0
2096921,2096921,183125,627157,0
2096921,2096921,183299,626929,0
2096921,2096921,182894,627197,0
2096921,2096921,183031,627125,0
2096921,2096921,183336,626735,0
2096921,2096921,183308,627129,0
2096921,2096921,183083,626964,0
2096921,2096921,183404,627188,0
2096921,2096921,183039,627193,0
2096921,2096921,183244,626944,0
2096921,2096921,183153,627035,0
2096921,2096921,183304,627142,0
2096921,2096921,183379,627645,0
2096921,2096921,183505,627153,0
2096921,2096921,183361,627170,0
2096921,2096921,183171,627123,0
2096921,2096921,183292,627138,0
2096921,2096921,183480,627043,0
2096921,2096921,183473,627164,0
2096921,2096921,183536,627350,0
2096921,2096921,183372,627379,0
2096921,2096921,183353,627458,0
2096921,2096921,183654,627336,0
2096921,2096921,183583,627277,0
2096921,2096921,183209,627211,0
2096921,2096921,183660,627304,0
2096921,2096921,183619,627277,0
2096921,2096921,183521,627326,0
2096921,2096921,183366,627330,0
2096921,2096921,183464,627399,0
2096921,2096921,183436,627129,0
2096921,2096921,183601,627589,0
2096921,2096921,183553,627701,0
2096921,2096921,183448,627536,0
2096921,2096921,183579,627568,0
2096921,2096921,183746,627402,0
2096921,2096921,183657,627773,0
2096921,2096921,183016,627413,0
2096921,2096921,183444,627350,0
2096921,2096921,183524,627345,0
2096921,2096921,183598,627671,0
2096921,2096921,183401,627707,0
2096921,2096921,183769,627715,0
2096921,2096921,183405,627388,0
2096921,2096921,183798,627686,0
2096921,2096921,183519,627809,0
2096921,2096921,183744,627703,0
2096921,2096921,183634,627483,0
2096921,2096921,183447,627465,0
2096921,2096921,183366,627452,0
2096921,2096921,183669,627604,0
2096921,2096921,183891,627503,0
2096921,2096921,183635,627635,0
2096921,2096921,183556,627490,0
2096921,2096921,183741,627746,0
2096921,2096921,183878,627746,0
2096921,2096921,183583,627730,0
2096921,2096921,183450,627640,0
2096921,2096921,183570,627426,0
2096921,2096921,183634,627384,0
2096921,2096921,183554,627676,0
2096921,2096921,183732,627754,0
2096921,2096921,183912,627973,0
2096921,2096921,183605,627934,0
2096921,2096921,183873,627962,0
2096921,2096921,183801,627638,0
2096921,2096921,183599,627935,0
2096921,2096921,183769,627794,0
2096921,2096921,183621,627601,0
2096921,2096921,183832,627699,0
2096921,2096921,183954,627790,0
2096921,2096921,183924,628042,0
2096921,2096921,183517,627897,0
2096921,2096921,183677,627851,0
2096921,2096921,183706,627856,0
2096921,2096921,183921,628014,0
2096921,2096921,183723,628002,0
2096921,2096921,183601,627917,0
2096921,2096921,183419,627788,0
2096921,2096921,183726,627860,0
2096921,2096921,183785,627940,0
2096921,2096921,183704,627833,0
2096921,2096921,183859,627772,0
2096921,2096921,183965,628135,0
2096921,2096921,183680,627689,0
2096921,2096921,183750,628095,0
2096921,2096921,183768,627809,0
2096921,2096921,183723,627853,0
2096921,2096921,183680,627825,0
2096921,2096921,183351,628200,0
2096921,2096921,183912,628043,0
2096921,2096921,183952,627946,0
2096921,2096921,183787,628005,0
2096921,2096921,183725,627932,0
2096921,2096921,183910,627996,0
2096921,2096921,183946,628196,0
2096921,2096921,183984,627941,0
2096921,2096921,183859,627799,0
2096921,2096921,183694,627976,0
2096921,2096921,183657,628114,0
2096921,2096921,183809,628184,0
2096921,2096921,183677,628254,0
2096921,2096921,184027,627997,0
2096921,2096921,183729,628262,0
2096921,2096921,183636,628161,0
2096921,2096921,183971,628322,0
2096921,2096921,184059,628083,0
2096921,2096921,183860,627857,0
2096921,2096921,183586,627971,0
2096921,2096921,183684,627862,0
2096921,2096921,183671,627908,0
2096921,2096921,183787,628005,0
2096921,2096921,184119,628278,0
2096921,2096921,183823,627993,0
2096921,2096921,183689,628204,0
2096921,2096921,183743,628134,0
2096921,2096921,183840,628059,0
2096921,2096921,183774,628087,0
2096921,2096921,183773,628209,0
2096921,2096921,184046,628117,0
2096921,2096921,183764,628193,0
2096921,2096921,183948,628301,0
2096921,2096921,184046,628519,0
2096921,2096921,183948,628009,0
2096921,2096921,183919,628182,0
2096921,2096921,183970,628368,0
2096921,2096921,184083,627930,0
2096921,2096921,184337,628425,0
2096921,2096921,183935,628549,0
2096921,2096921,184013,628098,0
2096921,2096921,183719,628016,0
2096921,2096921,184065,628285,0
2096921,2096921,183684,628119,0
2096921,2096921,183922,628203,0
2096921,2096921,183778,628351,0
2096921,2096921,183718,628364,0
2096921,2096921,183717,628049,0
2096921,2096921,183607,627963,0
2096921,2096921,183720,627972,0
2096921,2096921,183871,628128,0
2096921,2096921,183841,627859,0
2096921,2096921,183751,628516,0
2096921,2096921,183979,628266,0
2096921,2096921,183743,628166,0
2096921,2096921,183605,628384,0
2096921,2096921,183735,628265,0
2096921,2096921,183708,627833,0
2096921,2096921,183942,628027,0
2096921,2096921,183890,627965,0
2096921,2096921,183571,627997,0
2096921,2096921,183772,628355,0
2096921,2096921,183858,628245,0
2096921,2096921,183891,628213,0
2096921,2096921,183519,627811,0
2096921,2096921,183688,627978,0
2096921,2096921,183958,628209,0
2096921,2096921,184128,627987,0
2096921,2096921,183802,628029,0
2096921,2096921,183958,628084,0
2096921,2096921,183708,628169,0
2096921,2096921,183652,628217,0
2096921,2096921,183825,628233,0
2096921,2096921,184127,628271,0
2096921,2096921,183814,628361,0
2096921,2096921,183858,628127,0
2096921,2096921,183743,627811,0
2096921,2096921,183688,628119,0
2096921,2096921,183750,627817,0
2096921,2096921,183853,627913,0
2096921,2096921,183976,627741,0
2096921,2096921,183920,627961,0
2096921,2096921,183755,627736,0
2096921,2096921,183593,627611,0
2096921,2096921,183586,627851,0
2096921,2096921,183704,627558,0
2096921,2096921,183607,627442,0
2096921,2096921,183493,627307,0
2096921,2096921,183614,627164,0
2096921,2096921,183484,627191,0
2096921,2096921,183363,627490,0
2096921,2096921,183394,626996,0
2096921,2096921,183322,626987,0
2096921,2096921,183462,626837,0
2096921,2096921,183121,626845,0
2096921,2096921,182946,626583,0
2096921,2096921,183171,626594,0
2096921,2096921,183087,626239,0
2096921,2096921,183031,626313,0
2096921,2096921,182571,626145,0
2096921,2096921,183083,626410,0
2096921,2096921,182559,625496,0
2096921,2096921,182462,625835,0
2096921,2096921,182591,625533,0
2096921,2096921,182500,625303,0
2096921,2096921,182064,625230,0
2096921,2096921,182061,624157,0
2096921,2096921,181689,624010,0
2096921,2096921,181829,623970,0
2096921,2096921,181790,623826,0
2096921,2096921,181772,623921,0
2096921,2096921,181229,623175,0
2096921,2096921,181022,622854,0
2096921,2096921,181201,623026,0
2096921,2096921,181189,623446,0
2096921,2096921,181210,623224,0
2096921,2096921,180681,622307,0
2096921,2096921,181005,622009,0
2096921,2096921,180468,621957,0
2096921,2096921,180705,622116,0
2096921,2096921,180570,622259,0
2096921,2096921,180646,622003,0
2096921,2096921,180432,621697,0
2096921,2096921,180416,621721,0
2096921,2096921,180440,621960,0
2096921,2096921,180678,621609,0
2096921,2096921,180558,621276,0
2096921,2096921,180273,621473,0
2096921,2096921,180379,621083,0
2096921,2096921,180106,621187,0
2096921,2096921,179942,620984,0
2096921,2096921,180154,621132,0
2096921,2096921,180038,621286,0
2096921,2096921,180304,621192,0
2096921,2096921,180164,620753,0
2096921,2096921,180558,620929,0
2096921,2096921,180176,620875,0
2096921,2096921,179992,620738,0
2096921,2096921,180102,620532,0
2096921,2096921,179913,620650,0
2096921,2096921,179980,620695,0
2096921,2096921,180011,620679,0
2096921,2096921,179990,620440,0
2096921,2096921,179901,620672,0
2096921,2096921,180013,620875,0
2096921,2096921,180016,620752,0
2096921,2096921,180060,620710,0
2096921,2096921,179851,620593,0
2096921,2096921,179978,620610,0
2096921,2096921,179884,620285,0
2096921,2096921,179925,620294,0
2096921,2096921,180000,620611,0
2096921,2096921,180082,620535,0
2096921,2096921,180234,620633,0
2096921,2096921,180221,620639,0
2096921,2096921,180016,620978,0
2096921,2096921,180224,620757,0
2096921,2096921,180132,620561,0
2096921,2096921,180308,620615,0
2096921,2096921,180111,620756,0
2096921,2096921,180024,620706,0
2096921,2096921,179988,620925,0
2096921,2096921,180022,621083,0
2096921,2096921,180058,620982,0
2096921,2096921,180169,620978,0
2096921,2096921,180170,620863,0
2096921,2096921,180297,620875,0
2096921,2096921,180327,621008,0
2096921,2096921,180262,621085,0
2096921,2096921,180406,621154,0
2096921,2096921,180111,621478,0
2096921,2096921,180297,621478,0
2096921,2096921,180525,621251,0
2096921,2096921,180449,621065,0
2096921,2096921,180449,621412,0
2096921,2096921,180324,621576,0
2096921,2096921,180443,621680,0
2096921,2096921,180467,621613,0
2096921,2096921,180552,621668,0
2096921,2096921,180362,621512,0
2096921,2096921,180475,621629,0
2096921,2096921,180587,621498,0
2096921,2096921,180583,621590,0
2096921,2096921,180782,621975,0
2096921,2096921,180555,621800,0
2096921,2096921,180582,621753,0
2096921,2096921,180708,621808,0
2096921,2096921,180572,622193,0
2096921,2096921,180747,621928,0
2096921,2096921,180800,622062,0
2096921,2096921,180649,622314,0
2096921,2096921,180919,622464,0
2096921,2096921,180816,622358,0
2096921,2096921,180646,622236,0
2096921,2096921,180952,622176,0
2096921,2096921,180934,622501,0
2096921,2096921,180917,622570,0
2096921,2096921,180715,622331,0
2096921,2096921,180925,622326,0
2096921,2096921,180795,622513,0
2096921,2096921,180966,622544,0
2096921,2096921,180926,622760,0
2096921,2096921,180824,622851,0
2096921,2096921,181415,622864,0
2096921,2096921,181256,623016,0
2096921,2096921,181204,622826,0
2096921,2096921,181289,623015,0
2096921,2096921,181671,622588,0
2096921,2096921,181503,622896,0
2096921,2096921,181502,622815,0
2096921,2096921,181393,622857,0
2096921,2096921,181223,623235,0
2096921,2096921,181346,623266,0
2096921,2096921,181682,623311,0
2096921,2096921,181150,623483,0
2096921,2096921,181338,623475,0
2096921,2096921,181638,623787,0
2096921,2096921,181506,623395,0
2096921,2096921,181545,623510,0
2096921,2096921,181505,623232,0
2096921,2096921,181495,623491,0
2096921,2096921,181545,623980,0
2096921,2096921,181914,623799,0
2096921,2096921,181846,623927,0
2096921,2096921,181581,623939,0
2096921,2096921,181678,623678,0
2096921,2096921,181542,623868,0
2096921,2096921,181762,623678,0
2096921,2096921,181767,623552,0
2096921,2096921,181577,623708,0
2096921,2096921,181218,623836,0
2096921,2096921,181860,624063,0
2096921,2096921,182099,623978,0
2096921,2096921,181831,624262,0
2096921,2096921,181870,624273,0
2096921,2096921,181836,624066,0
2096921,2096921,181804,624186,0
2096921,2096921,181729,624274,0
2096921,2096921,181806,624447,0
2096921,2096921,181767,624139,0
2096921,2096921,181795,624437,0
2096921,2096921,182113,624415,0
2096921,2096921,182143,624442,0
2096921,2096921,182070,624515,0
2096921,2096921,181766,624506,0
2096921,2096921,182009,624536,0
2096921,2096921,181947,624638,0
2096921,2096921,182167,624493,0
2096921,2096921,181957,624317,0
2096921,2096921,182120,624432,0
2096921,2096921,182146,624550,0
2096921,2096921,182106,624122,0
2096921,2096921,182015,624480,0
2096921,2096921,182028,624618,0
2096921,2096921,182322,624862,0
2096921,2096921,182064,624594,0
2096921,2096921,182190,624646,0
2096921,2096921,181783,624168,0
2096921,2096921,181982,624341,0
2096921,2096921,181693,624115,0
2096921,2096921,181860,624303,0
2096921,2096921,181942,624505,0
2096921,2096921,181794,624614,0
2096921,2096921,181935,624355,0
2096921,2096921,182025,624483,0
2096921,2096921,181986,624345,0
2096921,2096921,182137,624159,0
2096921,2096921,181689,624092,0
2096921,2096921,181858,624032,0
2096921,2096921,181903,623886,0
2096921,2096921,181742,624062,0
2096921,2096921,181793,623939,0
2096921,2096921,181930,624392,0
2096921,2096921,181532,624164,0
2096921,2096921,181739,624339,0
2096921,2096921,181920,624351,0
2096921,2096921,182017,623993,0
2096921,2096921,181768,624010,0
2096921,2096921,181743,624136,0
2096921,2096921,181722,623953,0
2096921,2096921,181476,624191,0
2096921,2096921,181582,624253,0
2096921,2096921,181814,624279,0
2096921,2096921,182138,624135,0
2096921,2096921,181770,624308,0
2096921,2096921,181837,624265,0
2096921,2096921,181818,623925,0
2096921,2096921,181570,623756,0
2096921,2096921,181739,624007,0
2096921,2096921,181510,624093,0
2096921,2096921,181632,624090,0
2096921,2096921,181676,624104,0
2096921,2096921,181812,624078,0
2096921,2096921,181820,624202,0
2096921,2096921,181995,624394,0
2096921,2096921,181857,623984,0
2096921,2096921,181671,623859,0
2096921,2096921,181750,624123,0
2096921,2096921,181572,623885,0
2096921,2096921,181726,624079,0
2096921,2096921,181808,624022,0
2096921,2096921,181552,623953,0
2096921,2096921,181845,624049,0
2096921,2096921,181841,623990,0
2096921,2096921,182120,624233,0
2096921,2096921,181837,624525,0
2096921,2096921,181863,624582,0
2096921,2096921,181786,624205,0
2096921,2096921,181860,624125,0
2096921,2096921,181716,624072,0
2096921,2096921,181853,624144,0
2096921,2096921,182008,624380,0
2096921,2096921,181871,624566,0
2096921,2096921,182046,624647,0
2096921,2096921,182162,624361,0
2096921,2096921,182113,624161,0
2096921,2096921,182034,624567,0
2096921,2096921,182199,624405,0
2096921,2096921,181924,624406,0
2096921,2096921,181922,624313,0
2096921,2096921,182035,624455,0
2096921,2096921,182046,624723,0
2096921,2096921,182073,624820,0
2096921,2096921,182171,624626,0
2096921,2096921,182299,624748,0
2096921,2096921,182112,624666,0
2096921,2096921,182180,625035,0
2096921,2096921,182194,624755,0
2096921,2096921,182084,624625,0
2096921,2096921,182110,624821,0
2096921,2096921,182034,624867,0
2096921,2096921,182099,624606,0
2096921,2096921,182407,625120,0
2096921,2096921,182154,625014,0
2096921,2096921,182300,624957,0
2096921,2096921,182194,625047,0
2096921,2096921,182370,625174,0
2096921,2096921,182518,625162,0
2096921,2096921,182340,625104,0
2096921,2096921,182250,624856,0
2096921,2096921,182267,625039,0
2096921,2096921,182405,625057,0
2096921,2096921,182409,625035,0
2096921,2096921,182177,625007,0
2096921,2096921,182289,625568,0
2096921,2096921,182496,625310,0
2096921,2096921,182058,625291,0
2096921,2096921,182276,625444,0
2096921,2096921,182258,625232,0
2096921,2096921,182466,625351,0
2096921,2096921,182436,625315,0
2096921,2096921,182503,625605,0
2096921,2096921,182749,625393,0
2096921,2096921,182529,625529,0
2096921,2096921,182629,625641,0
2096921,2096921,182801,625634,0
2096921,2096921,182572,625728,0
2096921,2096921,182389,625689,0
2096921,2096921,182582,625850,0
2096921,2096921,182889,625558,0
2096921,2096921,182625,625878,0
2096921,2096921,182537,625912,0
2096921,2096921,182682,625703,0
2096921,2096921,182545,625975,0
2096921,2096921,182958,626123,0
2096921,2096921,182531,625725,0
2096921,2096921,182710,625833,0
2096921,2096921,182607,625893,0
2096921,2096921,182995,625737,0
2096921,2096921,182846,625655,0
2096921,2096921,182766,625822,0
2096921,2096921,182850,625905,0
2096921,2096921,182629,626066,0
2096921,2096921,182583,626079,0
2096921,2096921,182866,625941,0
2096921,2096921,182483,625963,0
2096921,2096921,182890,626351,0
2096921,2096921,182741,626174,0
2096921,2096921,182804,626211,0
2096921,2096921,182568,626071,0
2096921,2096921,182817,626239,0
2096921,2096921,182841,626176,0
2096921,2096921,183024,626200,0
2096921,2096921,182999,626411,0
2096921,2096921,182675,626194,0
2096921,2096921,182936,626292,0
2096921,2096921,182922,626510,0
2096921,2096921,183117,625979,0
2096921,2096921,182688,626233,0
2096921,2096921,182646,626348,0
2096921,2096921,183002,626180,0
2096921,2096921,183367,626611,0
2096921,2096921,183084,626650,0
2096921,2096921,183317,626556,0
2096921,2096921,182898,626794,0
2096921,2096921,182754,626714,0
2096921,2096921,183024,626515,0
2096921,2096921,183166,626517,0
2096921,2096921,182987,626492,0
2096921,2096921,183239,626707,0
2096921,2096921,183594,626117,0
2096921,2096921,182987,626708,0
2096921,2096921,183039,626815,0
2096921,2096921,183047,626697,0
2096921,2096921,182809,626746,0
2096921,2096921,183184,626791,0
2096921,2096921,183332,626583,0
2096921,2096921,183134,626833,0
2096921,2096921,183029,626913,0
2096921,2096921,183161,626902,0
2096921,2096921,183009,626612,0
2096921,2096921,182883,626853,0
2096921,2096921,183230,626591,0
2096921,2096921,183194,626544,0
2096921,2096921,183291,626857,0
2096921,2096921,183346,627305,0
2096921,2096921,183404,626930,0
2096921,2096921,183239,626803,0
2096921,2096921,183169,626996,0
2096921,2096921,183345,626876,0
2096921,2096921,183087,626954,0
2096921,2096921,183579,627142,0
2096921,2096921,183397,626826,0
2096921,2096921,183311,627134,0
2096921,2096921,183479,627145,0
2096921,2096921,183529,627144,0
2096921,2096921,183183,627194,0
2096921,2096921,183276,627207,0
2096921,2096921,183661,627107,0
2096921,2096921,183305,627007,0
2096921,2096921,183486,627088,0
2096921,2096921,183355,627135,0
2096921,2096921,183254,627251,0
2096921,2096921,183229,627405,0
2096921,2096921,183351,627339,0
2096921,2096921,183237,627530,0
2096921,2096921,183460,627389,0
2096921,2096921,183601,627349,0
2096921,2096921,183451,627222,0
2096921,2096921,183239,627132,0
2096921,2096921,183256,627070,0
2096921,2096921,183636,627115,0
2096921,2096921,183766,627461,0
2096921,2096921,183834,627541,0
2096921,2096921,183929,627294,0
2096921,2096921,183680,627383,0
2096921,2096921,183549,627550,0
2096921,2096921,183944,627244,0
2096921,2096921,183493,627388,0
2096921,2096921,183554,627536,0
2096921,2096921,183476,627241,0
2096921,2096921,183559,627246,0
2096921,2096921,183362,627344,0
2096921,2096921,183698,627773,0
2096921,2096921,183401,627599,0
2096921,2096921,183503,627583,0
2096921,2096921,183834,627445,0
2096921,2096921,183413,627588,0
2096921,2096921,183249,627679,0
2096921,2096921,183700,627492,0
2096921,2096921,183735,627536,0
2096921,2096921,183646,627710,0
2096921,2096921,183741,627536,0
2096921,2096921,183654,627719,0
2096921,2096921,183478,627619,0
2096921,2096921,183483,627866,0
2096921,2096921,183399,627357,0
2096921,2096921,183459,627645,0
2096921,2096921,183707,627347,0
2096921,2096921,183549,627141,0
2096921,2096921,183630,627623,0
2096921,2096921,183901,627879,0
2096921,2096921,183761,627662,0
2096921,2096921,183905,627666,0
2096921,2096921,183460,627879,0
2096921,2096921,183610,627948,0
2096921,2096921,183801,627723,0
2096921,2096921,183443,627912,0
2096921,2096921,183639,627868,0
2096921,2096921,183371,627696,0
2096921,2096921,183707,627806,0
2096921,2096921,183443,628075,0
2096921,2096921,183803,627952,0
2096921,2096921,183622,627585,0
2096921,2096921,183753,627874,0
2096921,2096921,183895,627590,0
2096921,2096921,183698,627919,0
2096921,2096921,183621,627712,0
2096921,2096921,183790,627770,0
2096921,2096921,183656,627639,0
2096921,2096921,183690,627865,0
2096921,2096921,183388,627827,0
2096921,2096921,183654,627841,0
2096921,2096921,183818,627943,0
2096921,2096921,183656,628066,0
2096921,2096921,183641,627903,0
2096921,2096921,183610,628145,0
2096921,2096921,183942,628176,0
2096921,2096921,183850,627795,0
2096921,2096921,183855,627986,0
2096921,2096921,183945,628057,0
2096921,2096921,183914,627900,0
2096921,2096921,183446,628200,0
2096921,2096921,183775,627993,0
2096921,2096921,184180,627871,0
2096921,2096921,183586,628009,0
2096921,2096921,183685,628041,0
2096921,2096921,183908,627884,0
2096921,2096921,183889,628208,0
2096921,2096921,183689,628155,0
2096921,2096921,183671,627917,0
2096921,2096921,184162,627907,0
2096921,2096921,183979,627900,0
2096921,2096921,184009,628136,0
2096921,2096921,183892,627935,0
2096921,2096921,184112,628046,0
2096921,2096921,184020,628141,0
2096921,2096921,183877,627965,0
2096921,2096921,183908,628026,0
2096921,2096921,183869,628058,0
2096921,2096921,183736,627997,0
2096921,2096921,183797,628198,0
2096921,2096921,183812,628071,0
2096921,2096921,184100,628255,0
2096921,2096921,183947,628207,0
2096921,2096921,183753,628017,0
2096921,2096921,183958,628248,0
2096921,2096921,183911,627789,0
2096921,2096921,184084,628258,0
2096921,2096921,183491,628239,0
2096921,2096921,183766,628278,0
2096921,2096921,183910,627819,0
2096921,2096921,183750,628061,0
2096921,2096921,183905,628181,0
2096921,2096921,184144,627980,0
2096921,2096921,183645,627904,0
2096921,2096921,184023,628205,0
2096921,2096921,183647,627686,0
2096921,2096921,183834,627941,0
2096921,2096921,183788,627895,0
2096921,2096921,183833,627824,0
2096921,2096921,183973,627636,0
2096921,2096921,183709,628267,0
2096921,2096921,184055,628159,0
2096921,2096921,183862,628151,0
2096921,2096921,183891,628173,0
2096921,2096921,183837,628087,0
2096921,2096921,184133,627941,0
2096921,2096921,183959,627922,0
2096921,2096921,183986,628282,0
2096921,2096921,183894,628128,0
2096921,2096921,183661,628197,0
2096921,2096921,183657,628382,0
2096921,2096921,183961,627979,0
2096921,2096921,183969,627990,0
2096921,2096921,183660,628314,0
2096921,2096921,183901,627814,0
2096921,2096921,183945,628132,0
2096921,2096921,183680,628147,0
2096921,2096921,183955,628037,0
2096921,2096921,183800,627791,0
2096921,2096921,183896,628006,0
2096921,2096921,183771,628027,0
2096921,2096921,183901,628036,0
2096921,2096921,183933,628287,0
2096921,2096921,183931,628397,0
2096921,2096921,183783,628151,0
2096921,2096921,183877,628292,0
2096921,2096921,183940,628059,0
2096921,2096921,183955,627781,0
2096921,2096921,183781,627999,0
2096921,2096921,183725,628307,0
2096921,2096921,183981,628408,0
2096921,2096921,184002,628077,0
2096921,2096921,184147,628135,0
2096921,2096921,184054,628110,0
2096921,2096921,183682,627866,0
2096921,2096921,183746,627775,0
2096921,2096921,183708,627915,0
2096921,2096921,183733,627717,0
2096921,2096921,183674,627939,0
2096921,2096921,183793,627730,0
2096921,2096921,183733,627400,0
2096921,2096921,183618,627653,0
2096921,2096921,183507,627665,0
2096921,2096921,183595,627812,0
2096921,2096921,183534,627426,0
2096921,2096921,183343,627861,0
2096921,2096921,183407,627494,0
2096921,2096921,183302,627234,0
2096921,2096921,183584,627430,0
2096921,2096921,183367,627050,0
2096921,2096921,183341,627001,0
2096921,2096921,183312,626995,0
2096921,2096921,183269,627013,0
2096921,2096921,183074,626850,0
2096921,2096921,183006,626775,0
2096921,2096921,183080,626241,0
2096921,2096921,182830,626223,0
2096921,2096921,182983,626317,0
2096921,2096921,182850,626538,0
2096921,2096921,182321,625388,0
2096921,2096921,182383,625488,0
2096921,2096921,182348,625460,0
2096921,2096921,182356,625318,0
2096921,2096921,182403,625216,0
2096921,2096921,181934,624263,0
2096921,2096921,181880,623986,0
2096921,2096921,181671,624099,0
2096921,2096921,181944,624070,0
2096921,2096921,181899,624116,0
2096921,2096921,181176,623038,0
2096921,2096921,181156,622962,0
2096921,2096921,181345,622870,0
2096921,2096921,181040,622914,0
2096921,2096921,180970,622903,0
2096921,2096921,180720,622390,0
2096921,2096921,180546,622158,0
2096921,2096921,180863,622247,0
2096921,2096921,180775,622025,0
2096921,2096921,180931,621861,0
2096921,2096921,180497,621690,0
2096921,2096921,180598,621558,0
2096921,2096921,180692,621817,0
2096921,2096921,180261,621561,0
2096921,2096921,180529,621945,0
2096921,2096921,180195,621211,0
2096921,2096921,179956,621090,0
2096921,2096921,180183,621062,0
2096921,2096921,180082,621179,0
2096921,2096921,180091,621281,0
2096921,2096921,180057,621287,0
2096921,2096921,180056,620955,0
2096921,2096921,180060,621071,0
2096921,2096921,180229,620795,0
2096921,2096921,180089,620653,0
2096921,2096921,180050,620680,0
2096921,2096921,179842,620824,0
2096921,2096921,180115,620716,0
2096921,2096921,180009,620701,0
2096921,2096921,180037,620847,0
2096921,2096921,180130,620623,0
2096921,2096921,180171,620916,0
2096921,2096921,180347,620772,0
2096921,2096921,180165,620724,0
2096921,2096921,179848,620618,0
2096921,2096921,179978,620662,0
2096921,2096921,180026,620511,0
2096921,2096921,179629,620440,0
2096921,2096921,179995,620724,0
2096921,2096921,180016,620507,0
2096921,2096921,180048,620788,0
2096921,2096921,180021,620951,0
2096921,2096921,180174,620797,0
2096921,2096921,180071,620987,0
2096921,2096921,180131,620843,0
2096921,2096921,180396,620688,0
2096921,2096921,180351,620612,0
2096921,2096921,179728,620761,0
2096921,2096921,180005,620883,0
2096921,2096921,179995,620708,0
2096921,2096921,180202,620823,0
2096921,2096921,179860,620829,0
2096921,2096921,179891,620940,0
2096921,2096921,180116,620978,0
2096921,2096921,180357,621212,0
2096921,2096921,180325,621078,0
2096921,2096921,180348,621287,0
2096921,2096921,179943,621217,0
2096921,2096921,179851,620981,0
2096921,2096921,179859,620965,0
2096921,2096921,180323,621167,0
2096921,2096921,180208,621181,0
2096921,2096921,180524,621392,0
2096921,2096921,180549,621465,0
2096921,2096921,180368,621328,0
2096921,2096921,180391,621448,0
2096921,2096921,180401,621855,0
2096921,2096921,180318,621578,0
2096921,2096921,180480,621539,0
2096921,2096921,180193,621662,0
2096921,2096921,180564,621707,0
2096921,2096921,180389,622037,0
2096921,2096921,180825,621854,0
2096921,2096921,180591,621895,0
2096921,2096921,180514,621710,0
2096921,2096921,180595,622228,0
2096921,2096921,180718,622159,0
2096921,2096921,180858,621881,0
2096921,2096921,180596,621887,0
2096921,2096921,180561,621953,0
2096921,2096921,180777,622331,0
2096921,2096921,180651,622129,0
2096921,2096921,180873,622256,0
2096921,2096921,180749,622451,0
2096921,2096921,180593,622395,0
2096921,2096921,181029,622291,0
2096921,2096921,180991,622206,0
2096921,2096921,180890,622441,0
2096921,2096921,180751,622534,0
2096921,2096921,180855,622372,0
2096921,2096921,180990,622625,0
2096921,2096921,180831,622957,0
2096921,2096921,181078,622646,0
2096921,2096921,181092,622673,0
2096921,2096921,181042,622606,0
2096921,2096921,180952,622982,0
2096921,2096921,181121,622912,0
2096921,2096921,181228,623098,0
2096921,2096921,181037,623209,0
2096921,2096921,181240,623028,0
2096921,2096921,181173,623028,0
2096921,2096921,181261,623089,0
2096921,2096921,181178,623084,0
2096921,2096921,181249,622867,0
2096921,2096921,181126,622775,0
2096921,2096921,181385,623123,0
2096921,2096921,181849,623368,0
2096921,2096921,181412,623705,0
2096921,2096921,181076,623235,0
2096921,2096921,181323,623352,0
2096921,2096921,181613,623335,0
2096921,2096921,181409,623647,0
2096921,2096921,181431,623376,0
2096921,2096921,181529,623715,0
2096921,2096921,181585,623693,0
2096921,2096921,181726,623763,0
2096921,2096921,181725,623892,0
2096921,2096921,181724,623887,0
2096921,2096921,181811,623809,0
2096921,2096921,181618,623895,0
2096921,2096921,181568,624154,0
2096921,2096921,181892,624225,0
2096921,2096921,181692,623961,0
2096921,2096921,181670,623950,0
2096921,2096921,181784,623989,0
2096921,2096921,181786,623854,0
2096921,2096921,181438,624095,0
2096921,2096921,181759,624180,0
2096921,2096921,181658,623946,0
2096921,2096921,181857,624017,0
2096921,2096921,181912,624373,0
2096921,2096921,182146,624214,0
2096921,2096921,181959,624249,0
2096921,2096921,181995,624021,0
2096921,2096921,181900,624258,0
2096921,2096921,182014,624426,0
2096921,2096921,181687,624267,0
2096921,2096921,181555,624313,0
2096921,2096921,181755,624296,0
2096921,2096921,181807,624565,0
2096921,2096921,181764,624330,0
2096921,2096921,181871,624438,0
2096921,2096921,181797,624389,0
2096921,2096921,181762,624319,0
2096921,2096921,181645,624310,0
2096921,2096921,181962,624109,0
2096921,2096921,181835,624084,0
2096921,2096921,181693,623841,0
2096921,2096921,181824,624251,0
2096921,2096921,181735,624203,0
2096921,2096921,181718,624412,0
2096921,2096921,181906,624442,0
2096921,2096921,181897,624482,0
2096921,2096921,182049,624288,0
2096921,2096921,181827,624402,0
2096921,2096921,181738,624376,0
2096921,2096921,181793,624291,0
2096921,2096921,181901,624205,0
2096921,2096921,182050,624009,0
2096921,2096921,181752,623848,0
2096921,2096921,181787,624086,0
2096921,2096921,182022,623970,0
2096921,2096921,181833,624243,0
2096921,2096921,182017,624073,0
2096921,2096921,181956,623975,0
2096921,2096921,181718,624355,0
2096921,2096921,181670,624005,0
2096921,2096921,181603,624086,0
2096921,2096921,181593,623912,0
2096921,2096921,181672,624240,0
2096921,2096921,181556,624009,0
2096921,2096921,181733,624246,0
2096921,2096921,181770,623973,0
2096921,2096921,181931,624222,0
2096921,2096921,181841,623831,0
2096921,2096921,181753,623795,0
2096921,2096921,181724,623800,0
2096921,2096921,181623,623806,0
2096921,2096921,181569,623959,0
2096921,2096921,181449,623930,0
2096921,2096921,181668,623948,0
2096921,2096921,182070,624007,0
2096921,2096921,181705,624252,0
2096921,2096921,181735,623927,0
2096921,2096921,181698,624125,0
2096921,2096921,181678,624224,0
2096921,2096921,181497,624135,0
2096921,2096921,181920,624257,0
2096921,2096921,181838,624020,0
2096921,2096921,181889,624185,0
2096921,2096921,181751,623961,0
2096921,2096921,181812,623882,0
2096921,2096921,181903,623861,0
2096921,2096921,181800,624013,0
2096921,2096921,181802,624021,0
2096921,2096921,182024,624088,0
2096921,2096921,181865,623922,0
2096921,2096921,181751,623961,0
2096921,2096921,181699,624046,0
2096921,2096921,181500,624140,0
2096921,2096921,181858,624331,0
2096921,2096921,181579,624334,0
2096921,2096921,181583,624488,0
2096921,2096921,181743,624681,0
2096921,2096921,181888,624314,0
2096921,2096921,182070,624539,0
2096921,2096921,182096,624340,0
2096921,2096921,182012,624209,0
2096921,2096921,181830,624234,0
2096921,2096921,181950,624424,0
2096921,2096921,181959,624334,0
2096921,2096921,181981,624786,0
2096921,2096921,182016,624804,0
2096921,2096921,182051,624885,0
2096921,2096921,182026,624848,0
2096921,2096921,182215,625115,0
2096921,2096921,182379,624936,0
2096921,2096921,182068,624783,0
2096921,2096921,182086,624979,0
2096921,2096921,182081,624672,0
2096921,2096921,182371,624724,0
2096921,2096921,182214,624985,0
2096921,2096921,182389,625214,0
2096921,2096921,182416,625239,0
2096921,2096921,182316,625009,0
2096921,2096921,182231,625227,0
2096921,2096921,182274,624991,0
2096921,2096921,182202,625007,0
2096921,2096921,182685,624959,0
2096921,2096921,182570,625069,0
2096921,2096921,182335,625332,0
2096921,2096921,182532,625211,0
2096921,2096921,182211,625161,0
2096921,2096921,182372,625449,0
2096921,2096921,182458,625082,0
2096921,2096921,182430,624936,0
2096921,2096921,182555,625454,0
2096921,2096921,182605,625249,0
2096921,2096921,182689,625349,0
2096921,2096921,182342,625382,0
2096921,2096921,182114,625657,0
2096921,2096921,182495,625224,0
2096921,2096921,182523,625582,0
2096921,2096921,182554,625675,0
2096921,2096921,182514,625845,0
2096921,2096921,182359,625528,0
2096921,2096921,182679,625920,0
2096921,2096921,182644,625709,0
2096921,2096921,182582,625655,0
2096921,2096921,182293,625536,0
2096921,2096921,182665,625730,0
2096921,2096921,182816,625728,0
2096921,2096921,182856,626089,0
2096921,2096921,182624,625828,0
2096921,2096921,182811,625835,0
2096921,2096921,182477,625973,0
2096921,2096921,182696,625947,0
2096921,2096921,182921,626102,0
2096921,2096921,182894,626042,0
2096921,2096921,182912,626044,0
2096921,2096921,182837,625710,0
2096921,2096921,182798,625894,0
2096921,2096921,182766,625636,0
2096921,2096921,182603,626254,0
2096921,2096921,182779,626020,0
2096921,2096921,182860,626125,0
2096921,2096921,182696,625981,0
2096921,2096921,182984,625855,0
2096921,2096921,183064,626088,0
2096921,2096921,182870,626553,0
2096921,2096921,182942,626597,0
2096921,2096921,182952,626475,0
2096921,2096921,183091,626664,0
2096921,2096921,182893,626679,0
2096921,2096921,182654,626317,0
2096921,2096921,182826,626432,0
2096921,2096921,182937,626474,0
2096921,2096921,183101,626279,0
2096921,2096921,183097,626612,0
2096921,2096921,182952,626203,0
2096921,2096921,183229,626612,0
2096921,2096921,182940,626823,0
2096921,2096921,182735,626627,0
2096921,2096921,183046,626600,0
2096921,2096921,182933,626521,0
2096921,2096921,183152,626756,0
2096921,2096921,182965,626669,0
2096921,2096921,183072,626651,0
2096921,2096921,183206,626642,0
2096921,2096921,183056,626508,0
2096921,2096921,183058,627071,0
2096921,2096921,183109,626850,0
2096921,2096921,183070,626812,0
2096921,2096921,183314,626621,0
2096921,2096921,183084,626992,0
2096921,2096921,183072,626696,0
2096921,2096921,182951,626887,0
2096921,2096921,182937,626774,0
2096921,2096921,183071,626571,0
2096921,2096921,183069,626390,0
2096921,2096921,183328,626777,0
2096921,2096921,183384,627073,0
2096921,2096921,183337,627020,0
2096921,2096921,183538,626861,0
2096921,2096921,183289,626663,0
2096921,2096921,182982,626917,0
2096921,2096921,183230,627157,0
2096921,2096921,183354,626840,0
2096921,2096921,183200,626872,0
2096921,2096921,183365,626935,0
2096921,2096921,183384,627172,0
2096921,2096921,183605,626931,0
2096921,2096921,183702,627207,0
2096921,2096921,183653,627242,0
2096921,2096921,183310,627122,0
2096921,2096921,183244,627349,0
2096921,2096921,183382,627241,0
2096921,2096921,183259,627121,0
2096921,2096921,183378,627306,0
2096921,2096921,183461,627272,0
2096921,2096921,183560,627034,0
2096921,2096921,183280,627202,0
2096921,2096921,183560,627374,0
2096921,2096921,183643,627329,0
2096921,2096921,183519,627122,0
2096921,2096921,183228,627167,0
2096921,2096921,183063,627152,0
2096921,2096921,183372,627140,0
2096921,2096921,183531,627391,0
2096921,2096921,183380,627209,0
2096921,2096921,183366,627275,0
2096921,2096921,183281,627101,0
2096921,2096921,183612,627338,0
2096921,2096921,183421,627451,0
2096921,2096921,183580,627286,0
2096921,2096921,183225,627664,0
2096921,2096921,183498,627232,0
2096921,2096921,183599,626981,0
2096921,2096921,183339,627343,0
2096921,2096921,183219,627479,0
2096921,2096921,183838,627607,0
2096921,2096921,183596,627412,0
2096921,2096921,183808,627584,0
2096921,2096921,183799,627431,0
2096921,2096921,183418,627859,0
2096921,2096921,183616,627497,0
2096921,2096921,183497,627573,0
2096921,2096921,183583,627696,0
2096921,2096921,183534,627815,0
2096921,2096921,183469,627594,0
2096921,2096921,183367,627594,0
2096921,2096921,183673,627478,0
2096921,2096921,183867,627751,0
2096921,2096921,183607,627704,0
2096921,2096921,183511,627883,0
2096921,2096921,183650,627635,0
2096921,2096921,183422,627300,0
2096921,2096921,183486,627518,0
2096921,2096921,183612,627638,0
2096921,2096921,183738,627666,0
2096921,2096921,183492,627946,0
2096921,2096921,183522,627710,0
2096921,2096921,183741,627760,0
2096921,2096921,183609,627480,0
2096921,2096921,183383,627652,0
2096921,2096921,183647,627620,0
2096921,2096921,183719,627307,0
2096921,2096921,183543,627616,0
2096921,2096921,183855,627539,0
2096921,2096921,183585,627697,0
2096921,2096921,183770,627867,0
2096921,2096921,183674,627583,0
2096921,2096921,184074,627638,0
2096921,2096921,183592,628117,0
2096921,2096921,183614,627655,0
2096921,2096921,183603,628033,0
2096921,2096921,183487,627724,0
2096921,2096921,183551,627865,0
2096921,2096921,183354,627707,0
2096921,2096921,183445,627887,0
2096921,2096921,183831,628009,0
2096921,2096921,183761,627938,0
2096921,2096921,183743,628164,0
2096921,2096921,183726,627964,0
2096921,2096921,183812,627680,0
2096921,2096921,183717,627866,0
2096921,2096921,183780,627681,0
2096921,2096921,183761,627820,0
2096921,2096921,183880,627978,0
2096921,2096921,183721,628328,0
2096921,2096921,183998,628323,0
2096921,2096921,183756,628156,0
2096921,2096921,183854,627910,0
2096921,2096921,183854,628153,0
2096921,2096921,183821,627776,0
2096921,2096921,183573,627895,0
2096921,2096921,183551,628021,0
2096921,2096921,183723,627939,0
2096921,2096921,183800,628081,0
2096921,2096921,183825,628263,0
2096921,2096921,183991,627979,0
2096921,2096921,183912,628253,0
2096921,2096921,184073,628253,0
2096921,2096921,183562,628238,0
2096921,2096921,183558,628082,0
2096921,2096921,183801,628156,0
2096921,2096921,183863,627865,0
2096921,2096921,183940,627703,0
2096921,2096921,183867,627850,0
2096921,2096921,183987,628244,0
2096921,2096921,184117,628047,0
2096921,2096921,184167,628023,0
2096921,2096921,183999,627944,0
2096921,2096921,183826,627901,0
2096921,2096921,183611,627822,0
2096921,2096921,183789,628048,0
2096921,2096921,183846,628148,0
2096921,2096921,183876,627897,0
2096921,2096921,183674,628258,0
2096921,2096921,183660,628099,0
2096921,2096921,183984,628016,0
2096921,2096921,183771,628360,0
2096921,2096921,184089,628140,0
2096921,2096921,184142,628169,0
2096921,2096921,183828,628057,0
2096921,2096921,183673,628118,0
2096921,2096921,183583,627860,0
2096921,2096921,183615,628000,0
2096921,2096921,183503,627964,0
2096921,2096921,183766,628219,0
2096921,2096921,183880,628013,0
2096921,2096921,183738,628200,0
2096921,2096921,183901,628306,0
2096921,2096921,183744,627859,0
2096921,2096921,183576,627817,0
2096921,2096921,183828,627855,0
2096921,2096921,183950,627810,0
2096921,2096921,183759,627912,0
2096921,2096921,183924,627884,0
2096921,2096921,183532,628040,0
2096921,2096921,183939,627780,0
2096921,2096921,184089,628006,0
2096921,2096921,183912,628264,0
2096921,2096921,183862,628302,0
2096921,2096921,183797,628282,0
2096921,2096921,184054,628181,0
2096921,2096921,183760,627983,0
2096921,2096921,183708,628084,0
2096921,2096921,183607,628268,0
2096921,2096921,183918,628107,0
2096921,2096921,184033,628104,0
2096921,2096921,183891,628019,0
2096921,2096921,183951,627888,0
2096921,2096921,184008,628235,0
2096921,2096921,183856,628076,0
2096921,2096921,183700,628003,0
2096921,2096921,183807,627986,0
2096921,2096921,183568,627980,0
2096921,2096921,183882,628050,0
2096921,2096921,183911,628134,0
2096921,2096921,183734,628109,0
2096921,2096921,183995,628099,0
2096921,2096921,183998,627799,0
2096921,2096921,184019,628020,0
2096921,2096921,183976,628097,0
2096921,2096921,183799,627985,0
2096921,2096921,183295,628043,0
2096921,2096921,183425,628115,0
2096921,2096921,183687,627900,0
2096921,2096921,183672,627998,0
2096921,2096921,183784,627822,0
2096921,2096921,183473,627680,0
2096921,2096921,183439,627622,0
2096921,2096921,183510,627482,0
2096921,2096921,183828,627581,0
2096921,2096921,183425,627377,0
2096921,2096921,183461,627430,0
2096921,2096921,183458,627396,0
2096921,2096921,183722,627377,0
2096921,2096921,183237,627264,0
2096921,2096921,183186,626913,0
2096921,2096921,183323,626961,0
2096921,2096921,183291,626894,0
2096921,2096921,183450,627030,0
2096921,2096921,183414,626466,0
2096921,2096921,183024,626034,0
2096921,2096921,182860,626322,0
2096921,2096921,183077,626195,0
2096921,2096921,182766,626213,0
2096921,2096921,182736,626496,0
2096921,2096921,182423,625636,0
2096921,2096921,182429,625276,0
2096921,2096921,182434,625272,0
2096921,2096921,182458,625089,0
2096921,2096921,182485,625191,0
2096921,2096921,181855,624113,0
2096921,2096921,181813,623707,0
2096921,2096921,181620,623671,0
2096921,2096921,181476,623896,0
2096921,2096921,181345,623699,0
2096921,2096921,180761,623162,0
2096921,2096921,181063,622962,0
2096921,2096921,181454,622810,0
2096921,2096921,181165,622968,0
2096921,2096921,181212,623023,0
2096921,2096921,180528,622462,0
2096921,2096921,180714,622105,0
2096921,2096921,180549,621971,0
2096921,2096921,180819,621821,0
2096921,2096921,180846,622038,0
2096921,2096921,180475,621729,0
2096921,2096921,180525,621616,0
2096921,2096921,180403,621502,0
2096921,2096921,180456,621616,0
2096921,2096921,180438,621708,0
2096921,2096921,180139,620947,0
2096921,2096921,179947,621123,0
2096921,2096921,180224,621300,0
2096921,2096921,180408,621164,0
2096921,2096921,180081,621126,0
2096921,2096921,180254,621004,0
2096921,2096921,180471,620728,0
2096921,2096921,180186,620760,0
2096921,2096921,180082,620873,0
2096921,2096921,180256,620832,0
2096921,2096921,179918,620522,0
2096921,2096921,179778,620743,0
2096921,2096921,179705,620419,0
2096921,2096921,179812,620540,0
2096921,2096921,180122,620666,0
2096921,2096921,180045,620540,0
2096921,2096921,180117,620914,0
2096921,2096921,179751,620811,0
2096921,2096921,180173,620981,0
2096921,2096921,180193,620662,0
2096921,2096921,180143,620573,0
2096921,2096921,179875,620431,0
2096921,2096921,179775,620587,0
2096921,2096921,179836,620635,0
2096921,2096921,179654,620585,0
2096921,2096921,180312,620687,0
2096921,2096921,180055,620862,0
2096921,2096921,180275,620735,0
2096921,2096921,179813,620669,0
2096921,2096921,179958,620870,0
2096921,2096921,180055,620727,0
2096921,2096921,180105,620965,0
2096921,2096921,179838,621070,0
2096921,2096921,180052,621016,0
2096921,2096921,180116,620774,0
2096921,2096921,180091,620934,0
2096921,2096921,180224,621116,0
2096921,2096921,180413,620724,0
2096921,2096921,180338,621168,0
2096921,2096921,180129,620860,0
2096921,2096921,180348,621396,0
2096921,2096921,180241,621219,0
2096921,2096921,180078,621011,0
2096921,2096921,180269,621049,0
2096921,2096921,180204,621152,0
2096921,2096921,180094,621520,0
2096921,2096921,180304,621614,0
2096921,2096921,180444,621795,0
2096921,2096921,180187,621247,0
2096921,2096921,180219,621566,0
2096921,2096921,180365,621667,0
2096921,2096921,180200,621495,0
2096921,2096921,180346,621304,0
2096921,2096921,180447,621584,0
2096921,2096921,180398,621639,0
2096921,2096921,180546,621977,0
2096921,2096921,181034,621434,0
2096921,2096921,180748,621597,0
2096921,2096921,180680,622121,0
2096921,2096921,180514,622216,0
2096921,2096921,180593,622136,0
2096921,2096921,180704,622004,0
2096921,2096921,180783,622042,0
2096921,2096921,180620,621953,0
2096921,2096921,180465,622221,0
2096921,2096921,180917,622294,0
2096921,2096921,180764,622058,0
2096921,2096921,180628,622474,0
2096921,2096921,181031,622467,0
2096921,2096921,180714,622432,0
2096921,2096921,181003,622581,0
2096921,2096921,181110,622570,0
2096921,2096921,180837,622354,0
2096921,2096921,180703,622604,0
2096921,2096921,180911,622211,0
2096921,2096921,181112,622578,0
2096921,2096921,180899,622813,0
2096921,2096921,180957,622965,0
2096921,2096921,181240,623113,0
2096921,2096921,181364,623000,0
2096921,2096921,181129,623082,0
2096921,2096921,181173,622774,0
2096921,2096921,181046,622795,0
2096921,2096921,181177,622977,0
2096921,2096921,180987,623101,0
2096921,2096921,181235,623159,0
2096921,2096921,181412,623217,0
2096921,2096921,181451,623166,0
2096921,2096921,181239,623335,0
2096921,2096921,181214,623348,0
2096921,2096921,181292,623507,0
2096921,2096921,181601,623491,0
2096921,2096921,181467,623437,0
2096921,2096921,181446,623115,0
2096921,2096921,181438,623085,0
2096921,2096921,181626,623435,0
2096921,2096921,181627,623695,0
2096921,2096921,181476,623852,0
2096921,2096921,181452,623767,0
2096921,2096921,181567,623928,0
2096921,2096921,181675,623806,0
2096921,2096921,181592,623863,0
2096921,2096921,181814,623748,0
2096921,2096921,181927,624047,0
2096921,2096921,182061,623919,0
2096921,2096921,181833,623901,0
2096921,2096921,181882,623929,0
2096921,2096921,181979,624299,0
2096921,2096921,181894,624118,0
2096921,2096921,181741,624206,0
2096921,2096921,181884,624183,0
2096921,2096921,181785,624289,0
2096921,2096921,181878,624399,0
2096921,2096921,181703,624200,0
2096921,2096921,181838,624219,0
2096921,2096921,181703,624195,0
2096921,2096921,182013,624106,0
2096921,2096921,181742,624270,0
2096921,2096921,181814,624462,0
2096921,2096921,181946,624376,0
2096921,2096921,181976,624468,0
2096921,2096921,182049,624532,0
2096921,2096921,181961,624214,0
2096921,2096921,182048,624135,0
2096921,2096921,181962,624380,0
2096921,2096921,182181,624114,0
2096921,2096921,181986,624222,0
2096921,2096921,181957,624241,0
2096921,2096921,182115,624238,0
2096921,2096921,181976,624318,0
2096921,2096921,182065,624394,0
2096921,2096921,181956,624276,0
2096921,2096921,182060,624412,0
2096921,2096921,181999,624377,0
2096921,2096921,182069,624372,0
2096921,2096921,181994,624564,0
2096921,2096921,182161,624685,0
2096921,2096921,182149,624591,0
2096921,2096921,181707,624292,0
2096921,2096921,182008,624293,0
2096921,2096921,181741,624186,0
2096921,2096921,182012,624014,0
2096921,2096921,181866,624420,0
2096921,2096921,182034,624219,0
2096921,2096921,182194,624218,0
2096921,2096921,182079,624064,0
2096921,2096921,181819,624433,0
2096921,2096921,181865,624116,0
2096921,2096921,181717,623984,0
2096921,2096921,181846,624288,0
2096921,2096921,181759,624057,0
2096921,2096921,181579,623976,0
2096921,2096921,181692,624036,0
2096921,2096921,181532,623948,0
2096921,2096921,181849,623754,0
2096921,2096921,181890,623948,0
2096921,2096921,181833,624019,0
2096921,2096921,181831,624186,0
2096921,2096921,181391,624316,0
2096921,2096921,181603,624261,0
2096921,2096921,181642,624082,0
2096921,2096921,181531,623882,0
2096921,2096921,181622,623852,0
2096921,2096921,181784,623831,0
2096921,2096921,181506,623852,0
2096921,2096921,181733,623936,0
2096921,2096921,181854,623965,0
2096921,2096921,181926,624048,0
2096921,2096921,181778,624027,0
2096921,2096921,181739,623864,0
2096921,2096921,181597,623842,0
2096921,2096921,181660,623931,0
2096921,2096921,181822,624016,0
2096921,2096921,181623,623841,0
2096921,2096921,181567,623976,0
2096921,2096921,181692,624416,0
2096921,2096921,182135,624234,0
2096921,2096921,181833,624268,0
2096921,2096921,181964,624249,0
2096921,2096921,181992,623860,0
2096921,2096921,181872,624031,0
2096921,2096921,181662,623984,0
2096921,2096921,181901,624054,0
2096921,2096921,181819,623990,0
2096921,2096921,181643,624224,0
2096921,2096921,182006,624280,0
2096921,2096921,181999,624678,0
2096921,2096921,182105,624624,0
2096921,2096921,182184,624458,0
2096921,2096921,182120,624506,0
2096921,2096921,181934,624773,0
2096921,2096921,181843,624602,0
2096921,2096921,182026,624462,0
2096921,2096921,181946,624566,0
2096921,2096921,182232,624748,0
2096921,2096921,182375,624712,0
2096921,2096921,181968,624791,0
2096921,2096921,182225,624383,0
2096921,2096921,182204,624690,0
2096921,2096921,182190,624601,0
2096921,2096921,182174,625041,0
2096921,2096921,182488,624877,0
2096921,2096921,182202,624931,0
2096921,2096921,182249,624777,0
2096921,2096921,182166,624931,0
2096921,2096921,182080,625098,0
2096921,2096921,182542,625212,0
2096921,2096921,182335,625153,0
2096921,2096921,182115,625046,0
2096921,2096921,182139,625063,0
2096921,2096921,182369,625020,0
2096921,2096921,182330,624460,0
2096921,2096921,182323,625097,0
2096921,2096921,182399,625104,0
2096921,2096921,182477,624842,0
2096921,2096921,182676,625360,0
2096921,2096921,182798,625103,0
2096921,2096921,182610,625215,0
2096921,2096921,182405,625099,0
2096921,2096921,182248,625429,0
2096921,2096921,182434,625225,0
2096921,2096921,182137,625122,0
2096921,2096921,182399,625387,0
2096921,2096921,182497,625393,0
2096921,2096921,182341,625401,0
2096921,2096921,182485,625573,0
2096921,2096921,182655,625340,0
2096921,2096921,182583,625684,0
2096921,2096921,182666,625660,0
2096921,2096921,182419,625265,0
2096921,2096921,182616,625297,0
2096921,2096921,182633,625643,0
2096921,2096921,182611,625847,0
2096921,2096921,182341,625687,0
2096921,2096921,182428,625746,0
2096921,2096921,182730,625882,0
2096921,2096921,182723,626134,0
2096921,2096921,182709,626146,0
2096921,2096921,182622,626117,0
2096921,2096921,182773,625461,0
2096921,2096921,182456,625883,0
2096921,2096921,182464,625928,0
2096921,2096921,182551,625742,0
2096921,2096921,182702,625535,0
2096921,2096921,182686,626007,0
2096921,2096921,183099,626082,0
2096921,2096921,182900,626188,0
2096921,2096921,182722,625900,0
2096921,2096921,182900,625882,0
2096921,2096921,182987,625798,0
2096921,2096921,182759,626088,0
2096921,2096921,183003,626084,0
2096921,2096921,182788,626178,0
2096921,2096921,182800,626066,0
2096921,2096921,182597,626046,0
2096921,2096921,183004,626280,0
2096921,2096921,182963,626322,0
2096921,2096921,183149,626374,0
2096921,2096921,182982,626394,0
2096921,2096921,182925,626341,0
2096921,2096921,182786,626233,0
2096921,2096921,182893,626142,0
2096921,2096921,182666,626495,0
2096921,2096921,182980,626573,0
2096921,2096921,182999,626675,0
2096921,2096921,183119,626746,0
2096921,2096921,183050,626605,0
2096921,2096921,183086,626683,0
2096921,2096921,182996,626629,0
2096921,2096921,183159,626662,0
2096921,2096921,182944,626658,0
2096921,2096921,183221,626654,0
2096921,2096921,183149,626418,0
2096921,2096921,182859,626810,0
2096921,2096921,182952,626167,0
2096921,2096921,182871,626693,0
2096921,2096921,183119,626740,0
2096921,2096921,182996,626851,0
2096921,2096921,183266,626995,0
2096921,2096921,183020,627077,0
2096921,2096921,183139,626859,0
2096921,2096921,183210,626790,0
2096921,2096921,183088,626862,0
2096921,2096921,183121,626702,0
2096921,2096921,183392,626672,0
2096921,2096921,183337,626746,0
2096921,2096921,183648,627147,0
2096921,2096921,183258,627157,0
2096921,2096921,183463,626907,0
2096921,2096921,183183,626925,0
2096921,2096921,183687,626979,0
2096921,2096921,183368,626836,0
2096921,2096921,183297,626982,0
2096921,2096921,183371,626872,0
2096921,2096921,182921,626951,0
2096921,2096921,183378,627297,0
2096921,2096921,183492,627279,0
2096921,2096921,183302,627289,0
2096921,2096921,183513,627278,0
2096921,2096921,183379,627163,0
2096921,2096921,183405,627396,0
2096921,2096921,183311,627544,0
2096921,2096921,183459,627381,0
2096921,2096921,183511,627297,0
2096921,2096921,183316,627308,0
2096921,2096921,183627,627514,0
2096921,2096921,183372,627276,0
2096921,2096921,183537,627465,0
2096921,2096921,183321,627396,0
2096921,2096921,183462,627454,0
2096921,2096921,183313,627514,0
2096921,2096921,183590,627414,0
2096921,2096921,183551,627048,0
2096921,2096921,183487,627275,0
2096921,2096921,183598,627239,0
2096921,2096921,183570,627272,0
2096921,2096921,183288,627766,0
2096921,2096921,183426,627515,0
2096921,2096921,183821,627409,0
2096921,2096921,183655,627484,0
2096921,2096921,183410,627702,0
2096921,2096921,183692,627467,0
2096921,2096921,183295,627609,0
2096921,2096921,183346,627562,0
2096921,2096921,183299,627579,0
2096921,2096921,183399,627456,0
2096921,2096921,183436,627378,0
2096921,2096921,183317,627559,0
2096921,2096921,183475,627518,0
2096921,2096921,183296,627559,0
2096921,2096921,183598,627314,0
2096921,2096921,183214,627604,0
2096921,2096921,183492,627439,0
2096921,2096921,183367,627457,0
2096921,2096921,183661,627537,0
2096921,2096921,183404,627573,0
2096921,2096921,183723,627706,0
2096921,2096921,183722,627837,0
2096921,2096921,183803,627326,0
2096921,2096921,183685,627669,0
2096921,2096921,183509,627461,0
2096921,2096921,183628,627371,0
2096921,2096921,183633,627491,0
2096921,2096921,183618,627650,0
2096921,2096921,183723,627773,0
2096921,2096921,183590,627473,0
2096921,2096921,183596,627883,0
2096921,2096921,183769,627736,0
2096921,2096921,183865,627859,0
2096921,2096921,183641,627758,0
2096921,2096921,183721,627640,0
2096921,2096921,183843,627649,0
2096921,2096921,183747,627808,0
2096921,2096921,183733,627757,0
2096921,2096921,183810,627778,0
2096921,2096921,183769,627709,0
2096921,2096921,183724,627792,0
2096921,2096921,183637,627858,0
2096921,2096921,183451,627883,0
2096921,2096921,183799,627958,0
2096921,2096921,183752,627824,0
2096921,2096921,183623,627787,0
2096921,2096921,183600,627734,0
2096921,2096921,183787,627707,0
2096921,2096921,183977,628006,0
2096921,2096921,183942,627990,0
2096921,2096921,183868,627838,0
2096921,2096921,183792,627863,0
2096921,2096921,183536,627948,0
2096921,2096921,183582,627741,0
2096921,2096921,183695,627974,0
2096921,2096921,183687,627825,0
2096921,2096921,183607,627715,0
2096921,2096921,183746,627661,0
2096921,2096921,183629,627958,0
2096921,2096921,183658,627894,0
2096921,2096921,183548,627884,0
2096921,2096921,183709,627770,0
2096921,2096921,183643,628347,0
2096921,2096921,183776,628117,0
2096921,2096921,183726,628187,0
2096921,2096921,183669,627928,0
2096921,2096921,183793,628014,0
2096921,2096921,183618,627963,0
2096921,2096921,183679,627668,0
2096921,2096921,183855,627917,0
2096921,2096921,184073,628015,0
2096921,2096921,184068,628407,0
2096921,2096921,183739,628301,0
2096921,2096921,183797,627993,0
2096921,2096921,183825,627823,0
2096921,2096921,183755,628125,0
2096921,2096921,183634,627905,0
2096921,2096921,183695,628092,0
2096921,2096921,183705,628148,0
2096921,2096921,183917,627918,0
2096921,2096921,183739,628104,0
2096921,2096921,183624,628328,0
2096921,2096921,183491,628212,0
2096921,2096921,183718,628161,0
2096921,2096921,183589,628046,0
2096921,2096921,183511,628300,0
2096921,2096921,183914,628058,0
2096921,2096921,184155,628054,0
2096921,2096921,183546,628130,0
2096921,2096921,183870,628057,0
2096921,2096921,184136,628073,0
2096921,2096921,184147,628104,0
2096921,2096921,183970,628454,0
2096921,2096921,183928,628238,0
2096921,2096921,183939,628400,0
2096921,2096921,183911,627982,0
2096921,2096921,183731,628247,0
2096921,2096921,183854,627908,0
2096921,2096921,183909,628081,0
2096921,2096921,183899,628045,0
2096921,2096921,183833,628096,0
2096921,2096921,184003,628105,0
2096921,2096921,183936,628234,0
2096921,2096921,183701,628195,0
2096921,2096921,183827,628151,0
2096921,2096921,183959,628243,0
2096921,2096921,184228,628102,0
2096921,2096921,183857,628081,0
2096921,2096921,184092,628313,0
2096921,2096921,184045,628208,0
2096921,2096921,183908,628129,0
2096921,2096921,184066,628042,0
2096921,2096921,183753,627903,0
2096921,2096921,183901,628249,0
2096921,2096921,183663,627859,0
2096921,2096921,183943,628110,0
2096921,2096921,183859,627955,0
2096921,2096921,183617,628070,0
2096921,2096921,183673,628157,0
2096921,2096921,183835,627842,0
2096921,2096921,184078,627738,0
2096921,2096921,183819,628283,0
2096921,2096921,183722,628094,0
2096921,2096921,183824,627942,0
2096921,2096921,183809,627991,0
2096921,2096921,183573,627581,0
2096921,2096921,183858,627793,0
2096921,2096921,183499,627897,0
2096921,2096921,183940,627752,0
2096921,2096921,184062,627742,0
2096921,2096921,183887,627702,0
2096921,2096921,183614,628056,0
2096921,2096921,183928,627970,0
2096921,2096921,183748,628012,0
2096921,2096921,183582,627951,0
2096921,2096921,183742,628132,0
2096921,2096921,183440,627724,0
2096921,2096921,183483,627977,0
2096921,2096921,183660,627834,0
2096921,2096921,183841,627692,0
2096921,2096921,183706,627304,0
2096921,2096921,183792,627354,0
2096921,2096921,183774,627720,0
2096921,2096921,183553,627945,0
2096921,2096921,183330,627567,0
2096921,2096921,183137,627349,0
2096921,2096921,183435,627453,0
2096921,2096921,183344,627349,0
2096921,2096921,183257,627377,0
2096921,2096921,183001,626854,0
2096921,2096921,183253,626791,0
2096921,2096921,183327,626528,0
2096921,2096921,183099,626787,0
2096921,2096921,182958,626884,0
2096921,2096921,182920,626313,0
2096921,2096921,182956,626197,0
2096921,2096921,183025,626426,0
2096921,2096921,183208,626507,0
2096921,2096921,182911,626173,0
2096921,2096921,182435,625533,0
2096921,2096921,182560,625249,0
2096921,2096921,182767,625232,0
2096921,2096921,182160,625294,0
2096921,2096921,182599,625179,0
2096921,2096921,181641,624182,0
2096921,2096921,181532,624124,0
2096921,2096921,181583,624023,0
2096921,2096921,181672,623704,0
2096921,2096921,181445,623852,0
2096921,2096921,181426,623221,0
2096921,2096921,181438,622906,0
2096921,2096921,181382,623243,0
2096921,2096921,181187,622969,0
2096921,2096921,180921,622920,0
2096921,2096921,180813,622491,0
2096921,2096921,180784,622262,0
2096921,2096921,180670,622076,0
2096921,2096921,180625,622022,0
2096921,2096921,180884,621941,0
2096921,2096921,180606,621662,0
2096921,2096921,180539,621275,0
2096921,2096921,180559,621469,0
2096921,2096921,180835,621718,0
2096921,2096921,180365,621440,0
2096921,2096921,180317,621330,0
2096921,2096921,180472,621188,0
2096921,2096921,180573,621154,0
2096921,2096921,180365,621062,0
2096921,2096921,180382,621198,0
2096921,2096921,180151,621116,0
2096921,2096921,179995,621078,0
2096921,2096921,180216,620997,0
2096921,2096921,180129,620830,0
2096921,2096921,179956,620848,0
2096921,2096921,180273,620643,0
2096921,2096921,180091,620649,0
2096921,2096921,179821,620540,0
2096921,2096921,180263,620575,0
2096921,2096921,180046,620554,0
2096921,2096921,180265,620687,0
2096921,2096921,180104,620512,0
2096921,2096921,180149,620412,0
2096921,2096921,180120,620810,0
2096921,2096921,180191,620843,0
2096921,2096921,179926,620774,0
2096921,2096921,179899,620337,0
2096921,2096921,179747,620705,0
2096921,2096921,179902,620603,0
2096921,2096921,179778,620659,0
2096921,2096921,180206,620943,0
2096921,2096921,180138,621068,0
2096921,2096921,180116,620815,0
2096921,2096921,179977,620712,0
2096921,2096921,180068,620431,0
2096921,2096921,179955,620683,0
2096921,2096921,179946,620773,0
2096921,2096921,179774,620768,0
2096921,2096921,179936,620837,0
2096921,2096921,180073,620759,0
2096921,2096921,180067,620805,0
2096921,2096921,180154,620819,0
2096921,2096921,180026,621077,0
2096921,2096921,180048,621098,0
2096921,2096921,180120,620863,0
2096921,2096921,180151,620739,0
2096921,2096921,180024,621025,0
2096921,2096921,180140,620908,0
2096921,2096921,180113,620875,0
2096921,2096921,180235,621288,0
2096921,2096921,180449,621574,0
2096921,2096921,180438,621238,0
2096921,2096921,180290,621547,0
2096921,2096921,180351,621822,0
2096921,2096921,180176,621164,0
2096921,2096921,180289,621405,0
2096921,2096921,180412,621446,0
2096921,2096921,180484,621501,0
2096921,2096921,180489,621592,0
2096921,2096921,180499,621518,0
2096921,2096921,180567,621899,0
2096921,2096921,180460,621897,0
2096921,2096921,180591,621954,0
2096921,2096921,180628,621951,0
2096921,2096921,180653,622017,0
2096921,2096921,180955,622174,0
2096921,2096921,180795,621802,0
2096921,2096921,180788,622004,0
2096921,2096921,180420,622006,0
2096921,2096921,180221,621953,0
2096921,2096921,180722,622143,0
2096921,2096921,181013,622260,0
2096921,2096921,180786,622257,0
2096921,2096921,180760,622545,0
2096921,2096921,180527,622443,0
2096921,2096921,180909,622355,0
2096921,2096921,180773,622146,0
2096921,2096921,180803,622334,0
2096921,2096921,180716,622216,0
2096921,2096921,180952,622316,0
2096921,2096921,180967,622593,0
2096921,2096921,181073,622583,0
2096921,2096921,181308,622777,0
2096921,2096921,180883,622728,0
2096921,2096921,181251,622578,0
2096921,2096921,181181,622599,0
2096921,2096921,181051,622811,0
2096921,2096921,181012,622772,0
2096921,2096921,181337,623047,0
2096921,2096921,181080,622883,0
2096921,2096921,181439,623000,0
2096921,2096921,181558,623054,0
2096921,2096921,181497,623256,0
2096921,2096921,181513,623220,0
2096921,2096921,181220,623091,0
2096921,2096921,181123,623112,0
2096921,2096921,181394,623567,0
2096921,2096921,181243,623211,0
2096921,2096921,181352,623214,0
2096921,2096921,181290,623658,0
2096921,2096921,181742,623631,0
2096921,2096921,181421,623607,0
2096921,2096921,181435,623676,0
2096921,2096921,181320,623829,0
2096921,2096921,181456,623809,0
2096921,2096921,181689,623917,0
2096921,2096921,181619,623997,0
2096921,2096921,181703,623933,0
2096921,2096921,181562,623827,0
2096921,2096921,181404,623627,0
2096921,2096921,181768,623662,0
2096921,2096921,181969,623696,0
2096921,2096921,181747,624083,0
2096921,2096921,181584,624231,0
2096921,2096921,181472,623810,0
2096921,2096921,181700,624488,0
2096921,2096921,181790,624500,0
2096921,2096921,181854,624182,0
2096921,2096921,181499,624139,0
2096921,2096921,181956,624199,0
2096921,2096921,181785,624110,0
2096921,2096921,181903,624527,0
2096921,2096921,181846,624174,0
2096921,2096921,182083,624057,0
2096921,2096921,181931,624344,0
2096921,2096921,181743,624502,0
2096921,2096921,181904,624283,0
2096921,2096921,181764,624183,0
2096921,2096921,181576,624095,0
2096921,2096921,181790,624345,0
2096921,2096921,181840,624088,0
2096921,2096921,181869,624553,0
2096921,2096921,181905,624424,0
2096921,2096921,181843,624449,0
2096921,2096921,181623,624307,0
2096921,2096921,181887,624543,0
2096921,2096921,181740,624309,0
2096921,2096921,181860,624328,0
2096921,2096921,182056,624488,0
2096921,2096921,182027,624375,0
2096921,2096921,182037,624284,0
2096921,2096921,181944,624525,0
2096921,2096921,182080,624336,0
2096921,2096921,181897,624433,0
2096921,2096921,181873,624464,0
2096921,2096921,181908,624141,0
2096921,2096921,181642,624166,0
2096921,2096921,181651,624377,0
2096921,2096921,181796,624120,0
2096921,2096921,182029,623820,0
2096921,2096921,181972,624138,0
2096921,2096921,181830,624060,0
2096921,2096921,181907,623945,0
2096921,2096921,181594,624098,0
2096921,2096921,181641,623981,0
2096921,2096921,181717,623766,0
2096921,2096921,181530,624032,0
2096921,2096921,181506,623962,0
2096921,2096921,181557,623681,0
2096921,2096921,181862,623797,0
2096921,2096921,181751,624014,0
2096921,2096921,181869,624017,0
2096921,2096921,181687,624098,0
2096921,2096921,181686,624198,0
2096921,2096921,181420,623859,0
2096921,2096921,181780,623886,0
2096921,2096921,181777,623899,0
2096921,2096921,181677,623743,0
2096921,2096921,181591,623827,0
2096921,2096921,181873,624095,0
2096921,2096921,181946,624062,0
2096921,2096921,181760,623844,0
2096921,2096921,181564,623888,0
2096921,2096921,182039,624021,0
2096921,2096921,181624,623909,0
2096921,2096921,181791,623917,0
2096921,2096921,181357,623907,0
2096921,2096921,181784,623813,0
2096921,2096921,181511,623831,0
2096921,2096921,181650,623728,0
2096921,2096921,181523,623936,0
2096921,2096921,181628,624075,0
2096921,2096921,181836,624095,0
2096921,2096921,181850,624099,0
2096921,2096921,181676,624212,0
2096921,2096921,181803,624308,0
2096921,2096921,181857,623894,0
2096921,2096921,181704,624118,0
2096921,2096921,181631,623992,0
2096921,2096921,181497,624119,0
2096921,2096921,181880,624154,0
2096921,2096921,182080,624603,0
2096921,2096921,182043,624209,0
2096921,2096921,182039,624326,0
2096921,2096921,181776,624178,0
2096921,2096921,181837,624186,0
2096921,2096921,182058,624176,0
2096921,2096921,181943,624357,0
2096921,2096921,181742,624547,0
2096921,2096921,181860,624257,0
2096921,2096921,182022,624427,0
2096921,2096921,181935,624695,0
2096921,2096921,182131,624731,0
2096921,2096921,182127,624608,0
2096921,2096921,182062,624558,0
2096921,2096921,182010,624745,0
2096921,2096921,181957,624711,0
2096921,2096921,181965,624670,0
2096921,2096921,181933,624684,0
2096921,2096921,182084,624608,0
2096921,2096921,182256,624869,0
2096921,2096921,182039,625014,0
2096921,2096921,182156,624934,0
2096921,2096921,182104,625181,0
2096921,2096921,182254,625143,0
2096921,2096921,182271,625025,0
2096921,2096921,182247,625249,0
2096921,2096921,182176,624999,0
2096921,2096921,182566,624838,0
2096921,2096921,182307,624682,0
2096921,2096921,182166,625144,0
2096921,2096921,182486,625096,0
2096921,2096921,182549,625121,0
2096921,2096921,182692,624926,0
2096921,2096921,182522,625213,0
2096921,2096921,182551,625316,0
2096921,2096921,182560,625422,0
2096921,2096921,182699,625516,0
2096921,2096921,182657,625069,0
2096921,2096921,182483,625140,0
2096921,2096921,182472,625647,0
2096921,2096921,182489,625468,0
2096921,2096921,182313,625641,0
2096921,2096921,182421,625387,0
2096921,2096921,182471,625299,0
2096921,2096921,182467,625299,0
2096921,2096921,182458,625547,0
2096921,2096921,182451,625332,0
2096921,2096921,182766,625490,0
2096921,2096921,182595,625608,0
2096921,2096921,182785,625904,0
2096921,2096921,182729,625689,0
2096921,2096921,182568,625860,0
2096921,2096921,182700,625860,0
2096921,2096921,182637,625757,0
2096921,2096921,182780,625872,0
2096921,2096921,182531,626055,0
2096921,2096921,182559,625825,0
2096921,2096921,182541,625925,0
2096921,2096921,182854,626072,0
2096921,2096921,182836,626195,0
2096921,2096921,182686,626008,0
2096921,2096921,182864,625956,0
2096921,2096921,182540,625942,0
2096921,2096921,182982,625813,0
2096921,2096921,182528,625884,0
2096921,2096921,182820,626256,0
2096921,2096921,182751,625939,0
2096921,2096921,182629,626040,0
2096921,2096921,182975,626080,0
2096921,2096921,182922,626156,0
2096921,2096921,182817,626259,0
2096921,2096921,183159,626461,0
2096921,2096921,183170,626179,0
2096921,2096921,182919,626375,0
2096921,2096921,182782,626316,0
2096921,2096921,183052,626495,0
2096921,2096921,182921,626138,0
2096921,2096921,183047,626401,0
2096921,2096921,182922,626283,0
2096921,2096921,183282,626298,0
2096921,2096921,182984,626405,0
2096921,2096921,182987,626497,0
2096921,2096921,183141,626333,0
2096921,2096921,183291,626483,0
2096921,2096921,183072,626558,0
2096921,2096921,183162,626376,0
2096921,2096921,183092,626337,0
2096921,2096921,183131,626667,0
2096921,2096921,183043,626543,0
2096921,2096921,183009,626487,0
2096921,2096921,183162,626640,0
2096921,2096921,183237,626584,0
2096921,2096921,183280,626667,0
2096921,2096921,183260,626728,0
2096921,2096921,183209,626518,0
2096921,2096921,183192,626605,0
2096921,2096921,183142,626488,0
2096921,2096921,183427,626610,0
2096921,2096921,183243,626477,0
2096921,2096921,182853,626933,0
2096921,2096921,183100,626854,0
2096921,2096921,183246,626969,0
2096921,2096921,183446,626951,0
2096921,2096921,183270,626857,0
2096921,2096921,183280,626651,0
2096921,2096921,183219,626800,0
2096921,2096921,183068,626938,0
2096921,2096921,183282,627003,0
2096921,2096921,183198,626718,0
2096921,2096921,183322,627158,0
2096921,2096921,183379,627348,0
2096921,2096921,183050,627007,0
2096921,2096921,183326,627006,0
2096921,2096921,183115,626869,0
2096921,2096921,183279,627004,0
2096921,2096921,183508,626964,0
2096921,2096921,183449,626928,0
2096921,2096921,183317,626886,0
2096921,2096921,183343,626897,0
2096921,2096921,183353,626799,0
2096921,2096921,183344,626999,0
2096921,2096921,183338,626968,0
2096921,2096921,183277,627232,0
2096921,2096921,183502,627327,0
2096921,2096921,183198,627324,0
2096921,2096921,183550,627201,0
2096921,2096921,183452,626952,0
2096921,2096921,183176,627004,0
2096921,2096921,183475,627143,0
2096921,2096921,183314,627384,0
2096921,2096921,183524,627282,0
2096921,2096921,183700,627527,0
2096921,2096921,183453,627468,0
2096921,2096921,183511,627232,0
2096921,2096921,183482,627492,0
2096921,2096921,183603,627467,0
2096921,2096921,183673,627328,0
2096921,2096921,183505,627577,0
2096921,2096921,183311,627388,0
2096921,2096921,183525,627530,0
2096921,2096921,183533,627351,0
2096921,2096921,183616,627414,0
2096921,2096921,183486,627349,0
2096921,2096921,183579,627361,0
2096921,2096921,183270,627452,0
2096921,2096921,183569,627359,0
2096921,2096921,183747,627487,0
2096921,2096921,183460,627490,0
2096921,2096921,183849,627600,0
2096921,2096921,183521,627426,0
2096921,2096921,183239,627658,0
2096921,2096921,183190,627751,0
2096921,2096921,183511,627481,0
2096921,2096921,183689,627375,0
2096921,2096921,183650,627275,0
2096921,2096921,183504,627425,0
2096921,2096921,183465,627544,0
2096921,2096921,183573,627487,0
2096921,2096921,183595,627565,0
2096921,2096921,183600,627598,0
2096921,2096921,183836,628088,0
2096921,2096921,184014,627741,0
2096921,2096921,183771,627727,0
2096921,2096921,183814,627378,0
2096921,2096921,183801,627583,0
2096921,2096921,183624,627735,0
2096921,2096921,183793,627593,0
2096921,2096921,183483,627831,0
2096921,2096921,183811,627733,0
2096921,2096921,183675,627385,0
2096921,2096921,183775,627829,0
2096921,2096921,183828,627686,0
2096921,2096921,183819,627593,0
2096921,2096921,183480,627942,0
2096921,2096921,183622,627939,0
2096921,2096921,183773,627866,0
2096921,2096921,183799,627642,0
2096921,2096921,183570,627792,0
2096921,2096921,183582,627663,0
2096921,2096921,183972,627601,0
2096921,2096921,183939,627859,0
2096921,2096921,184227,627954,0
2096921,2096921,183944,628064,0
2096921,2096921,183844,628200,0
2096921,2096921,183738,627948,0
2096921,2096921,183367,628047,0
2096921,2096921,183479,627932,0
2096921,2096921,184043,627961,0
2096921,2096921,183875,627867,0
2096921,2096921,183720,627936,0
2096921,2096921,183926,627851,0
2096921,2096921,183832,627872,0
2096921,2096921,183539,627910,0
2096921,2096921,183607,627965,0
2096921,2096921,183716,627788,0
2096921,2096921,183663,628058,0
2096921,2096921,183789,628075,0
2096921,2096921,183718,627812,0
2096921,2096921,183806,627754,0
2096921,2096921,183617,628215,0
2096921,2096921,183883,628005,0
2096921,2096921,183928,628055,0
2096921,2096921,183975,628164,0
2096921,2096921,183478,628038,0
2096921,2096921,183628,628063,0
2096921,2096921,183611,628050,0
2096921,2096921,183645,627722,0
2096921,2096921,183664,627942,0
2096921,2096921,183593,627913,0
2096921,2096921,183785,628124,0
2096921,2096921,183606,628101,0
2096921,2096921,183965,628040,0
2096921,2096921,184016,627858,0
2096921,2096921,183755,627853,0
2096921,2096921,183792,627857,0
2096921,2096921,183660,627831,0
2096921,2096921,183819,628170,0
2096921,2096921,183732,627996,0
2096921,2096921,183879,628020,0
2096921,2096921,183823,628211,0
2096921,2096921,183876,627917,0
2096921,2096921,183805,627868,0
2096921,2096921,184070,628152,0
2096921,2096921,183768,627765,0
2096921,2096921,183643,627789,0
2096921,2096921,184002,627978,0
2096921,2096921,183828,628007,0
2096921,2096921,183713,628064,0
2096921,2096921,183651,627954,0
2096921,2096921,183749,627910,0
2096921,2096921,183945,628070,0
2096921,2096921,183875,628252,0
2096921,2096921,183882,628549,0
2096921,2096921,183848,628453,0
2096921,2096921,183785,628182,0
2096921,2096921,183929,628153,0
2096921,2096921,184144,627733,0
2096921,2096921,183986,627823,0
2096921,2096921,184011,628034,0
2096921,2096921,184024,628075,0
2096921,2096921,183841,628339,0
2096921,2096921,184149,628192,0
2096921,2096921,184037,628125,0
2096921,2096921,183559,628201,0
2096921,2096921,183570,628186,0
2096921,2096921,183720,628116,0
2096921,2096921,183618,627945,0
2096921,2096921,183791,628076,0
2096921,2096921,183529,628131,0
2096921,2096921,184014,628007,0
2096921,2096921,184108,628176,0
2096921,2096921,184187,628243,0
2096921,2096921,184055,628051,0
2096921,2096921,184053,627923,0
2096921,2096921,183733,628549,0
2096921,2096921,183609,628151,0
2096921,2096921,183768,628162,0
2096921,2096921,183566,628014,0
2096921,2096921,183722,628037,0
2096921,2096921,183712,628237,0
2096921,2096921,183955,628434,0
2096921,2096921,183870,628378,0
2096921,2096921,184082,628150,0
2096921,2096921,183849,628025,0
2096921,2096921,183857,627804,0
2096921,2096921,183792,627572,0
2096921,2096921,183521,627834,0
2096921,2096921,183434,627791,0
2096921,2096921,183558,627932,0
2096921,2096921,183671,627576,0
2096921,2096921,183570,627785,0
2096921,2096921,184020,627645,0
2096921,2096921,183773,627811,0
2096921,2096921,183631,627572,0
2096921,2096921,183424,627494,0
2096921,2096921,183491,627354,0
2096921,2096921,183400,627452,0
2096921,2096921,183343,627504,0
2096921,2096921,183479,627431,0
2096921,2096921,183285,626931,0
2096921,2096921,183136,626757,0
2096921,2096921,183223,626706,0
2096921,2096921,183255,626932,0
2096921,2096921,183066,626609,0
2096921,2096921,182867,626501,0
2096921,2096921,183107,626189,0
2096921,2096921,182788,626321,0
2096921,2096921,183072,626152,0
2096921,2096921,183121,626348,0
2096921,2096921,182440,625845,0
2096921,2096921,182514,625479,0
2096921,2096921,182682,625231,0
2096921,2096921,182422,624991,0
2096921,2096921,182547,624938,0
2096921,2096921,181934,624112,0
2096921,2096921,181755,624183,0
2096921,2096921,181740,624085,0
2096921,2096921,181869,623861,0
2096921,2096921,181624,623930,0
2096921,2096921,181399,623212,0
2096921,2096921,181220,622807,0
2096921,2096921,181054,622796,0
2096921,2096921,181042,622991,0
2096921,2096921,181144,622843,0
2096921,2096921,180812,622099,0
2096921,2096921,180665,622210,0
2096921,2096921,180784,621993,0
2096921,2096921,180730,622099,0
2096921,2096921,180882,622096,0
2096921,2096921,180447,621433,0
2096921,2096921,180432,621683,0
2096921,2096921,180373,621537,0
2096921,2096921,180589,621468,0
2096921,2096921,180563,621386,0
2096921,2096921,180373,621166,0
2096921,2096921,180086,621332,0
2096921,2096921,180278,620967,0
2096921,2096921,180200,621034,0
2096921,2096921,180651,621015,0
2096921,2096921,180207,620826,0
2096921,2096921,180380,621040,0
2096921,2096921,180453,620868,0
2096921,2096921,180156,620750,0
2096921,2096921,179948,620959,0
2096921,2096921,180125,620742,0
2096921,2096921,179958,620761,0
2096921,2096921,179795,620627,0
2096921,2096921,179865,620580,0
2096921,2096921,179992,620574,0
2096921,2096921,179989,620727,0
2096921,2096921,179848,620768,0
2096921,2096921,179878,620555,0
2096921,2096921,179744,620558,0
2096921,2096921,180210,620631,0
2096921,2096921,179821,620352,0
2096921,2096921,179852,620669,0
2096921,2096921,179890,620495,0
2096921,2096921,179849,620922,0
2096921,2096921,179682,620862,0
2096921,2096921,179885,620830,0
2096921,2096921,180280,620771,0
2096921,2096921,180131,620491,0
2096921,2096921,180160,620811,0
2096921,2096921,180104,620511,0
2096921,2096921,180011,620564,0
2096921,2096921,180044,620857,0
2096921,2096921,180015,620518,0
2096921,2096921,180041,620861,0
2096921,2096921,180237,620933,0
2096921,2096921,180184,620829,0
2096921,2096921,180311,620713,0
2096921,2096921,180191,621023,0
2096921,2096921,180119,620992,0
2096921,2096921,180284,621230,0
2096921,2096921,180129,620866,0
2096921,2096921,179963,621031,0
2096921,2096921,180096,620949,0
2096921,2096921,179948,620932,0
2096921,2096921,180243,620819,0
2096921,2096921,180347,621110,0
2096921,2096921,180309,621305,0
2096921,2096921,180339,621690,0
2096921,2096921,180457,621554,0
2096921,2096921,180229,621323,0
2096921,2096921,180277,621542,0
2096921,2096921,180443,621365,0
2096921,2096921,180522,621203,0
2096921,2096921,180340,621286,0
2096921,2096921,180705,621376,0
2096921,2096921,180669,621622,0
2096921,2096921,180626,621843,0
2096921,2096921,180455,621717,0
2096921,2096921,180654,621853,0
2096921,2096921,180678,621562,0
2096921,2096921,180918,621982,0
2096921,2096921,180926,621685,0
2096921,2096921,180653,621973,0
2096921,2096921,180697,621947,0
2096921,2096921,180746,622085,0
2096921,2096921,181063,622101,0
2096921,2096921,180834,622196,0
2096921,2096921,180709,622303,0
2096921,2096921,180893,622365,0
2096921,2096921,180593,622492,0
2096921,2096921,181025,622557,0
2096921,2096921,180851,622552,0
2096921,2096921,180760,622391,0
2096921,2096921,180849,622566,0
2096921,2096921,180945,622530,0
2096921,2096921,180749,622423,0
2096921,2096921,180736,622771,0
2096921,2096921,181028,622891,0
2096921,2096921,180944,622832,0
2096921,2096921,181120,622570,0
2096921,2096921,181195,622749,0
2096921,2096921,181246,622702,0
2096921,2096921,181286,622990,0
2096921,2096921,181268,622898,0
2096921,2096921,181336,622832,0
2096921,2096921,181484,623150,0
2096921,2096921,181075,623083,0
2096921,2096921,181258,623165,0
2096921,2096921,181461,623288,0
2096921,2096921,181463,623173,0
2096921,2096921,181630,623202,0
2096921,2096921,181340,623615,0
2096921,2096921,181429,623338,0
2096921,2096921,181607,623374,0
2096921,2096921,181501,623545,0
2096921,2096921,181532,623860,0
2096921,2096921,181350,623361,0
2096921,2096921,181254,623880,0
2096921,2096921,181690,623871,0
2096921,2096921,181606,623850,0
2096921,2096921,181470,623771,0
2096921,2096921,181733,623654,0
2096921,2096921,181614,623603,0
2096921,2096921,181755,623950,0
2096921,2096921,181742,623807,0
2096921,2096921,181716,624043,0
2096921,2096921,181749,624136,0
2096921,2096921,181577,624057,0
2096921,2096921,182087,623739,0
2096921,2096921,181931,623720,0
2096921,2096921,181705,623790,0
2096921,2096921,181855,623925,0
2096921,2096921,181954,623914,0
2096921,2096921,181735,624203,0
2096921,2096921,181877,623935,0
2096921,2096921,181789,624103,0
2096921,2096921,181991,624093,0
2096921,2096921,181880,624143,0
2096921,2096921,181828,623985,0
2096921,2096921,181634,624223,0
2096921,2096921,181609,624403,0
2096921,2096921,182165,624382,0
2096921,2096921,181922,624360,0
2096921,2096921,181828,624570,0
2096921,2096921,182308,624240,0
2096921,2096921,182134,624140,0
2096921,2096921,182112,624344,0
2096921,2096921,181921,624362,0
2096921,2096921,181769,624124,0
2096921,2096921,181900,624296,0
2096921,2096921,181961,624253,0
2096921,2096921,182183,623953,0
2096921,2096921,181904,624081,0
2096921,2096921,182053,624090,0
2096921,2096921,181716,624218,0
2096921,2096921,181845,624415,0
2096921,2096921,181849,624519,0
2096921,2096921,181952,624344,0
2096921,2096921,182014,624242,0
2096921,2096921,182066,624500,0
2096921,2096921,181792,624014,0
2096921,2096921,181606,623847,0
2096921,2096921,181567,624079,0
2096921,2096921,181584,624057,0
2096921,2096921,181655,624214,0
2096921,2096921,181708,624258,0
2096921,2096921,181713,624239,0
2096921,2096921,181811,624161,0
2096921,2096921,181645,624227,0
2096921,2096921,181744,624257,0
2096921,2096921,181653,624020,0
2096921,2096921,181767,624069,0
2096921,2096921,181912,623828,0
2096921,2096921,181945,623970,0
2096921,2096921,181707,624263,0
2096921,2096921,181781,624031,0
2096921,2096921,181779,623840,0
2096921,2096921,181726,624511,0
2096921,2096921,181615,624217,0
2096921,2096921,181776,623795,0
2096921,2096921,181677,623919,0
2096921,2096921,181622,624002,0
2096921,2096921,181603,623827,0
2096921,2096921,181651,623909,0
2096921,2096921,181763,624058,0
2096921,2096921,181589,623882,0
2096921,2096921,181630,623994,0
2096921,2096921,181425,624116,0
2096921,2096921,181780,624137,0
2096921,2096921,181694,623795,0
2096921,2096921,181732,623785,0
2096921,2096921,181493,623711,0
2096921,2096921,181487,623600,0
2096921,2096921,181909,623969,0
2096921,2096921,181669,624180,0
2096921,2096921,181642,624158,0
2096921,2096921,181396,624009,0
2096921,2096921,181620,624050,0
2096921,2096921,181740,624087,0
2096921,2096921,181840,624019,0
2096921,2096921,181837,624487,0
2096921,2096921,181703,624084,0
2096921,2096921,181568,623911,0
2096921,2096921,181496,624022,0
2096921,2096921,181597,623827,0
2096921,2096921,182145,624225,0
2096921,2096921,182062,624560,0
2096921,2096921,182039,624405,0
2096921,2096921,181903,624484,0
2096921,2096921,181813,624385,0
2096921,2096921,181841,624532,0
2096921,2096921,181924,624419,0
2096921,2096921,181877,624301,0
2096921,2096921,182019,624379,0
2096921,2096921,181965,624483,0
2096921,2096921,182199,624492,0
2096921,2096921,182120,624621,0
2096921,2096921,182190,624575,0
2096921,2096921,182160,624560,0
2096921,2096921,182032,624466,0
2096921,2096921,182149,624746,0
2096921,2096921,182095,624762,0
2096921,2096921,182136,624798,0
2096921,2096921,182117,624868,0
2096921,2096921,182039,624587,0
2096921,2096921,182003,624781,0
2096921,2096921,182269,624882,0
2096921,2096921,181980,625061,0
2096921,2096921,182292,624812,0
2096921,2096921,182140,625155,0
2096921,2096921,182191,624840,0
2096921,2096921,182249,624798,0
2096921,2096921,182122,624921,0
2096921,2096921,182250,624915,0
2096921,2096921,182225,624846,0
2096921,2096921,182337,625043,0
2096921,2096921,182379,625359,0
2096921,2096921,182529,625174,0
2096921,2096921,182622,625216,0
2096921,2096921,182452,625172,0
2096921,2096921,182332,625108,0
2096921,2096921,182067,625208,0
2096921,2096921,182215,625359,0
2096921,2096921,182306,624933,0
2096921,2096921,182412,625255,0
2096921,2096921,182468,625802,0
2096921,2096921,182572,625396,0
2096921,2096921,182381,625142,0
2096921,2096921,182395,625357,0
2096921,2096921,182768,625436,0
2096921,2096921,182713,625485,0
2096921,2096921,182542,625547,0
2096921,2096921,182536,625702,0
2096921,2096921,182453,625607,0
2096921,2096921,182353,625586,0
2096921,2096921,182401,625678,0
2096921,2096921,182803,625741,0
2096921,2096921,182810,625907,0
2096921,2096921,182793,625752,0
2096921,2096921,182643,625655,0
2096921,2096921,182541,625866,0
2096921,2096921,182733,625725,0
2096921,2096921,182606,625539,0
2096921,2096921,182548,625525,0
2096921,2096921,182485,625914,0
2096921,2096921,182836,625784,0
2096921,2096921,182743,626047,0
2096921,2096921,182728,626017,0
2096921,2096921,182811,625874,0
2096921,2096921,182627,625806,0
2096921,2096921,182878,625839,0
2096921,2096921,182827,625548,0
2096921,2096921,182731,625871,0
2096921,2096921,182672,625995,0
2096921,2096921,182966,626478,0
2096921,2096921,183145,626453,0
2096921,2096921,182865,626202,0
2096921,2096921,182896,626053,0
2096921,2096921,183007,626020,0
2096921,2096921,182967,626082,0
2096921,2096921,183243,626485,0
2096921,2096921,183105,626402,0
2096921,2096921,182836,626033,0
2096921,2096921,182885,626082,0
2096921,2096921,183106,626043,0
2096921,2096921,183026,626576,0
2096921,2096921,182804,626543,0
2096921,2096921,182842,626972,0
2096921,2096921,183110,626379,0
2096921,2096921,182940,626438,0
2096921,2096921,182939,626427,0
2096921,2096921,182968,626113,0
2096921,2096921,183136,626142,0
2096921,2096921,182932,626265,0
2096921,2096921,183261,626415,0
2096921,2096921,182983,626606,0
2096921,2096921,183360,626617,0
2096921,2096921,183443,626631,0
2096921,2096921,183353,626661,0
2096921,2096921,182998,626882,0
2096921,2096921,183089,626490,0
2096921,2096921,183097,626741,0
2096921,2096921,182986,626899,0
2096921,2096921,183176,626835,0
2096921,2096921,183314,626893,0
2096921,2096921,183306,626933,0
2096921,2096921,183323,627092,0
2096921,2096921,183225,626739,0
2096921,2096921,183256,627005,0
2096921,2096921,183272,626931,0
2096921,2096921,183227,626847,0
2096921,2096921,183022,627036,0
2096921,2096921,183156,626837,0
2096921,2096921,183242,626734,0
2096921,2096921,183222,627162,0
2096921,2096921,183351,626917,0
2096921,2096921,183547,627004,0
2096921,2096921,183217,627068,0
2096921,2096921,183500,626936,0
2096921,2096921,183201,627031,0
2096921,2096921,183222,627090,0
2096921,2096921,183422,627058,0
2096921,2096921,183344,627039,0
2096921,2096921,183433,626990,0
2096921,2096921,183400,627053,0
2096921,2096921,183511,627242,0
2096921,2096921,183664,626912,0
2096921,2096921,183661,627327,0
2096921,2096921,183595,627144,0
2096921,2096921,183660,627655,0
2096921,2096921,183456,627345,0
2096921,2096921,183438,627063,0
2096921,2096921,183413,627198,0
2096921,2096921,183473,627212,0
2096921,2096921,183726,627400,0
2096921,2096921,183783,627436,0
2096921,2096921,183493,627274,0
2096921,2096921,183564,627687,0
2096921,2096921,183404,627265,0
2096921,2096921,183411,627210,0
2096921,2096921,183499,627330,0
2096921,2096921,183539,627504,0
2096921,2096921,183654,627212,0
2096921,2096921,183469,627269,0
2096921,2096921,183368,627299,0
2096921,2096921,183600,627478,0
2096921,2096921,183703,627628,0
2096921,2096921,183572,627731,0
2096921,2096921,183698,627478,0
2096921,2096921,183586,627434,0
2096921,2096921,183671,627504,0
2096921,2096921,183599,627558,0
2096921,2096921,183697,627295,0
2096921,2096921,183452,627445,0
2096921,2096921,183474,627822,0
2096921,2096921,183373,627609,0
2096921,2096921,183503,627388,0
2096921,2096921,183567,627594,0
2096921,2096921,183525,627473,0
2096921,2096921,183478,627396,0
2096921,2096921,183704,627760,0
2096921,2096921,183580,627339,0
2096921,2096921,183480,627169,0
2096921,2096921,183854,627275,0
2096921,2096921,183792,627488,0
2096921,2096921,183778,627348,0
2096921,2096921,183596,627865,0
2096921,2096921,183769,627616,0
2096921,2096921,183886,627774,0
2096921,2096921,183585,627554,0
2096921,2096921,183621,627826,0
2096921,2096921,183665,627299,0
2096921,2096921,183476,627726,0
2096921,2096921,183485,627854,0
2096921,2096921,183647,627870,0
2096921,2096921,183612,627469,0
2096921,2096921,183775,627645,0
2096921,2096921,183758,627725,0
2096921,2096921,183670,627332,0
2096921,2096921,183730,627778,0
2096921,2096921,183833,627799,0
2096921,2096921,183810,627714,0
2096921,2096921,183675,627960,0
2096921,2096921,183593,628063,0
2096921,2096921,183555,627982,0
2096921,2096921,183799,627795,0
2096921,2096921,183636,627742,0
2096921,2096921,183991,627623,0
2096921,2096921,183756,627890,0
2096921,2096921,183712,627869,0
2096921,2096921,183738,627848,0
2096921,2096921,183674,627826,0
2096921,2096921,183639,627763,0
2096921,2096921,183816,627441,0
2096921,2096921,184185,627804,0
2096921,2096921,183722,628053,0
2096921,2096921,183775,627873,0
2096921,2096921,184090,628305,0
2096921,2096921,183940,627965,0
2096921,2096921,183954,627949,0
2096921,2096921,183783,627687,0
2096921,2096921,183623,627732,0
2096921,2096921,183718,627996,0
2096921,2096921,184057,628000,0
2096921,2096921,184107,627852,0
2096921,2096921,183743,628059,0
2096921,2096921,183646,627939,0
2096921,2096921,183746,628022,0
2096921,2096921,183744,627954,0
2096921,2096921,183759,627838,0
2096921,2096921,183861,627973,0
2096921,2096921,183867,628268,0
2096921,2096921,184014,627911,0
2096921,2096921,183967,628053,0
2096921,2096921,183667,627786,0
2096921,2096921,183617,628270,0
2096921,2096921,183977,627949,0
2096921,2096921,183777,627936,0
2096921,2096921,183792,628046,0
2096921,2096921,183906,627880,0
2096921,2096921,183822,628123,0
2096921,2096921,183844,627932,0
2096921,2096921,183812,627849,0
2096921,2096921,183857,627880,0
2096921,2096921,183814,628029,0
2096921,2096921,183792,628210,0
2096921,2096921,183820,627976,0
2096921,2096921,183839,628200,0
2096921,2096921,183979,628205,0
2096921,2096921,183920,627976,0
2096921,2096921,183787,627995,0
2096921,2096921,183823,627955,0
2096921,2096921,183669,628053,0
2096921,2096921,183794,628003,0
2096921,2096921,183751,627905,0
2096921,2096921,184307,628062,0
2096921,2096921,184092,628127,0
2096921,2096921,184254,627969,0
2096921,2096921,183730,627937,0
2096921,2096921,183906,627773,0
2096921,2096921,183772,628155,0
2096921,2096921,183902,628004,0
2096921,2096921,183840,628166,0
2096921,2096921,183961,628135,0
2096921,2096921,184043,628023,0
2096921,2096921,183964,628094,0
2096921,2096921,184176,627741,0
2096921,2096921,184032,628241,0
2096921,2096921,183804,628109,0
2096921,2096921,183926,628231,0
2096921,2096921,183604,627918,0
2096921,2096921,183671,628168,0
2096921,2096921,183730,627980,0
2096921,2096921,184031,627911,0
2096921,2096921,183870,628188,0
2096921,2096921,184064,628095,0
2096921,2096921,184211,628263,0
2096921,2096921,184011,627986,0
2096921,2096921,183685,628224,0
2096921,2096921,183809,627970,0
2096921,2096921,183701,628145,0
2096921,2096921,183688,628225,0
2096921,2096921,183590,628098,0
2096921,2096921,183821,628203,0
2096921,2096921,183763,627944,0
2096921,2096921,183890,628152,0
2096921,2096921,183778,628160,0
2096921,2096921,184061,628117,0
2096921,2096921,184111,628156,0
2096921,2096921,183818,628216,0
2096921,2096921,183671,627994,0
2096921,2096921,183438,627986,0
2096921,2096921,183886,627869,0
2096921,2096921,183657,627793,0
2096921,2096921,183570,628059,0
2096921,2096921,183774,627655,0
2096921,2096921,183775,627846,0
2096921,2096921,183561,627814,0
2096921,2096921,183808,627794,0
2096921,2096921,183753,627761,0
2096921,2096921,183480,627178,0
2096921,2096921,183341,627150,0
2096921,2096921,183524,626980,0
2096921,2096921,183425,627348,0
2096921,2096921,183613,627529,0
2096921,2096921,183387,626928,0
2096921,2096921,183357,626785,0
2096921,2096921,183234,626962,0
2096921,2096921,183402,626913,0
2096921,2096921,183152,626732,0
2096921,2096921,182801,626366,0
2096921,2096921,183048,626368,0
2096921,2096921,182812,626423,0
2096921,2096921,182970,626426,0
2096921,2096921,182902,626033,0
2096921,2096921,182485,625266,0
2096921,2096921,182337,625395,0
2096921,2096921,182427,625149,0
2096921,2096921,182460,625283,0
2096921,2096921,182228,625027,0
2096921,2096921,181664,623997,0
2096921,2096921,181808,623850,0
2096921,2096921,181895,623721,0
2096921,2096921,181762,623750,0
2096921,2096921,181580,623890,0
2096921,2096921,181077,623188,0
2096921,2096921,181197,622716,0
2096921,2096921,181026,622852,0
2096921,2096921,181003,622856,0
2096921,2096921,181098,622922,0
2096921,2096921,180898,621985,0
2096921,2096921,180648,622067,0
2096921,2096921,180497,622058,0
2096921,2096921,180918,621964,0
2096921,2096921,180540,621811,0
2096921,2096921,180591,621736,0
2096921,2096921,180460,621509,0
2096921,2096921,180360,621393,0
2096921,2096921,180812,621857,0
2096921,2096921,180487,621536,0
2096921,2096921,180206,621209,0
2096921,2096921,180004,620908,0
2096921,2096921,180374,620973,0
2096921,2096921,180269,620914,0
2096921,2096921,180117,621013,0
2096921,2096921,180121,620847,0
2096921,2096921,180533,620706,0
2096921,2096921,180378,620883,0
2096921,2096921,180371,620889,0
2096921,2096921,180165,620492,0
2096921,2096921,179785,620772,0
2096921,2096921,180156,620728,0
2096921,2096921,179982,620870,0
2096921,2096921,180137,620706,0
2096921,2096921,179968,620639,0
2096921,2096921,180023,620454,0
2096921,2096921,179852,620505,0
2096921,2096921,179808,620511,0
2096921,2096921,180004,620465,0
2096921,2096921,179841,620383,0
2096921,2096921,179889,620409,0
2096921,2096921,179916,620412,0
2096921,2096921,179863,620795,0
2096921,2096921,180103,620763,0
2096921,2096921,180090,620893,0
2096921,2096921,180090,620606,0
2096921,2096921,180073,620878,0
2096921,2096921,180152,620397,0
2096921,2096921,180156,620695,0
2096921,2096921,180064,620885,0
2096921,2096921,179688,620553,0
2096921,2096921,180274,620504,0
2096921,2096921,180068,620568,0
2096921,2096921,179833,620687,0
2096921,2096921,179964,620894,0
2096921,2096921,180064,620916,0
2096921,2096921,180032,620849,0
2096921,2096921,180271,620837,0
2096921,2096921,179875,620956,0
2096921,2096921,179831,620724,0
2096921,2096921,180285,620894,0
2096921,2096921,180185,620987,0
2096921,2096921,180149,621018,0
2096921,2096921,180164,621112,0
2096921,2096921,180159,621084,0
2096921,2096921,180333,621592,0
2096921,2096921,180392,621334,0
2096921,2096921,180388,621531,0
2096921,2096921,180240,621286,0
2096921,2096921,180423,621169,0
2096921,2096921,180394,621519,0
2096921,2096921,180416,621658,0
2096921,2096921,180504,621600,0
2096921,2096921,180333,621526,0
2096921,2096921,180465,621445,0
2096921,2096921,180466,621840,0
2096921,2096921,180701,621918,0
2096921,2096921,180732,621789,0
2096921,2096921,180924,621757,0
2096921,2096921,180593,621698,0
2096921,2096921,180490,621800,0
2096921,2096921,180610,622160,0
2096921,2096921,180667,621891,0
2096921,2096921,180669,622019,0
2096921,2096921,180634,622082,0
2096921,2096921,180935,622138,0
2096921,2096921,180855,622170,0
2096921,2096921,180961,622342,0
2096921,2096921,181064,622287,0
2096921,2096921,180581,622314,0
2096921,2096921,180618,622432,0
2096921,2096921,180693,622424,0
2096921,2096921,180718,622442,0
2096921,2096921,180870,622517,0
2096921,2096921,180818,622824,0
2096921,2096921,180847,622918,0
2096921,2096921,181150,622804,0
2096921,2096921,181169,622297,0
2096921,2096921,181154,623055,0
2096921,2096921,181199,622764,0
2096921,2096921,180867,623127,0
2096921,2096921,180921,622734,0
2096921,2096921,180839,622728,0
2096921,2096921,180905,622998,0
2096921,2096921,181104,623049,0
2096921,2096921,181429,623183,0
2096921,2096921,181354,623332,0
2096921,2096921,181224,623515,0
2096921,2096921,181426,623253,0
2096921,2096921,181229,623040,0
2096921,2096921,181320,623452,0
2096921,2096921,181539,623284,0
2096921,2096921,181496,623538,0
2096921,2096921,181382,623449,0
2096921,2096921,181604,623222,0
2096921,2096921,181559,623618,0
2096921,2096921,181566,623676,0
2096921,2096921,181575,623819,0
2096921,2096921,181576,623605,0
2096921,2096921,181255,623819,0
2096921,2096921,181813,623841,0
2096921,2096921,181810,624005,0
2096921,2096921,181641,623653,0
2096921,2096921,181427,623892,0
2096921,2096921,181529,623683,0
2096921,2096921,181594,624141,0
2096921,2096921,182002,624090,0
2096921,2096921,181701,624000,0
2096921,2096921,181874,624029,0
2096921,2096921,181688,623989,0
2096921,2096921,181954,624303,0
2096921,2096921,181880,624079,0
2096921,2096921,181830,623892,0
2096921,2096921,181735,624060,0
2096921,2096921,181636,623734,0
2096921,2096921,181615,624084,0
2096921,2096921,181926,624455,0
2096921,2096921,182095,624125,0
2096921,2096921,181710,624358,0
2096921,2096921,181818,624229,0
2096921,2096921,181753,624049,0
2096921,2096921,181861,624378,0
2096921,2096921,181958,624254,0
2096921,2096921,181920,624072,0
2096921,2096921,181688,624005,0
2096921,2096921,181639,624170,0
2096921,2096921,182036,624379,0
2096921,2096921,181886,624283,0
2096921,2096921,181917,624664,0
2096921,2096921,182274,624344,0
2096921,2096921,182002,624233,0
2096921,2096921,181996,624016,0
2096921,2096921,181943,624218,0
2096921,2096921,182062,624363,0
2096921,2096921,182030,624174,0
2096921,2096921,181840,624612,0
2096921,2096921,181744,624393,0
2096921,2096921,181861,624316,0
2096921,2096921,181806,624310,0
2096921,2096921,181756,624335,0
2096921,2096921,181657,624101,0
2096921,2096921,181846,624226,0
2096921,2096921,181925,624177,0
2096921,2096921,182060,624061,0
2096921,2096921,181717,624381,0
2096921,2096921,181821,624171,0
2096921,2096921,181579,624253,0
2096921,2096921,181497,624082,0
2096921,2096921,181764,623913,0
2096921,2096921,181653,623873,0
2096921,2096921,181607,623748,0
2096921,2096921,181877,624328,0
2096921,2096921,182084,623814,0
2096921,2096921,181914,623981,0
2096921,2096921,181549,623942,0
2096921,2096921,181773,623798,0
2096921,2096921,181855,623835,0
2096921,2096921,181676,624033,0
2096921,2096921,181673,623922,0
2096921,2096921,181682,623898,0
2096921,2096921,181660,623963,0
2096921,2096921,181677,623946,0
2096921,2096921,181891,623909,0
2096921,2096921,181572,624068,0
2096921,2096921,181867,624232,0
2096921,2096921,181477,623895,0
2096921,2096921,181850,624270,0
2096921,2096921,181738,624052,0
2096921,2096921,181778,623832,0
2096921,2096921,181420,623914,0
2096921,2096921,181464,623833,0
2096921,2096921,181558,624027,0
2096921,2096921,181622,623858,0
2096921,2096921,181637,624016,0
2096921,2096921,181639,623915,0
2096921,2096921,181684,623880,0
2096921,2096921,181812,624127,0
2096921,2096921,181715,624078,0
2096921,2096921,181470,624139,0
2096921,2096921,181538,623958,0
