2096921,2096921,162183,676686,0
2096921,2096921,162185,676749,0
2096921,2096921,162122,676799,0
2096921,2096921,161931,676688,0
2096921,2096921,162047,676662,0
2096921,2096921,162198,676979,0
2096921,2096921,161757,676803,0
2096921,2096921,161821,676516,0
2096921,2096921,161757,676661,0
2096921,2096921,162012,676727,0
2096921,2096921,161906,676623,0
2096921,2096921,161918,676708,0
2096921,2096921,162032,676695,0
2096921,2096921,161891,676939,0
2096921,2096921,162095,676675,0
2096921,2096921,162256,676642,0
2096921,2096921,161886,676723,0
2096921,2096921,161991,677221,0
2096921,2096921,161998,676927,0
2096921,2096921,161885,676889,0
2096921,2096921,161760,677058,0
2096921,2096921,162320,676707,0
2096921,2096921,162196,677104,0
2096921,2096921,162100,677390,0
2096921,2096921,161869,677247,0
2096921,2096921,162321,676845,0
2096921,2096921,162002,677148,0
2096921,2096921,161846,677204,0
2096921,2096921,161920,676963,0
2096921,2096921,162102,676711,0
2096921,2096921,162050,677025,0
2096921,2096921,162082,677058,0
2096921,2096921,162351,676893,0
2096921,2096921,162189,677102,0
2096921,2096921,162035,677078,0
2096921,2096921,161895,677182,0
2096921,2096921,161716,677087,0
2096921,2096921,162187,676915,0
2096921,2096921,162491,676937,0
2096921,2096921,162119,677112,0
2096921,2096921,162216,677259,0
2096921,2096921,162199,677011,0
2096921,2096921,162032,676950,0
2096921,2096921,162066,677265,0
2096921,2096921,161988,676858,0
2096921,2096921,162030,676994,0
2096921,2096921,161982,676952,0
2096921,2096921,162215,676679,0
2096921,2096921,162122,676736,0
2096921,2096921,162013,676946,0
2096921,2096921,162202,676802,0
2096921,2096921,162035,676685,0
2096921,2096921,162275,676830,0
2096921,2096921,161970,676791,0
2096921,2096921,162042,677063,0
2096921,2096921,161981,676866,0
2096921,2096921,161772,676848,0
2096921,2096921,161824,676726,0
2096921,2096921,161984,676733,0
2096921,2096921,162184,676678,0
2096921,2096921,162110,676781,0
2096921,2096921,162097,676956,0
2096921,2096921,162047,676722,0
2096921,2096921,162266,676811,0
2096921,2096921,162149,676568,0
2096921,2096921,161838,676720,0
2096921,2096921,162146,676531,0
2096921,2096921,161879,676509,0
2096921,2096921,161932,676638,0
2096921,2096921,162004,676523,0
2096921,2096921,162077,676611,0
2096921,2096921,162359,676534,0
2096921,2096921,162093,676837,0
2096921,2096921,162146,676888,0
2096921,2096921,161931,676861,0
2096921,2096921,162031,676971,0
2096921,2096921,162152,676861,0
2096921,2096921,162244,676442,0
2096921,2096921,161951,676687,0
2096921,2096921,161979,676546,0
2096921,2096921,162106,676457,0
2096921,2096921,162131,676189,0
2096921,2096921,162018,676225,0
2096921,2096921,161842,675836,0
2096921,2096921,161807,676224,0
2096921,2096921,161982,676006,0
2096921,2096921,161989,676341,0
2096921,2096921,161876,676248,0
2096921,2096921,161716,676463,0
2096921,2096921,161833,676126,0
2096921,2096921,161913,676158,0
2096921,2096921,162356,676227,0
2096921,2096921,162232,676336,0
2096921,2096921,162330,676146,0
2096921,2096921,162295,676060,0
2096921,2096921,162139,676119,0
2096921,2096921,161896,676016,0
2096921,2096921,161794,676000,0
2096921,2096921,161865,676115,0
2096921,2096921,162057,675860,0
2096921,2096921,162077,675935,0
2096921,2096921,161874,675855,0
2096921,2096921,162155,675899,0
2096921,2096921,162039,675882,0
2096921,2096921,162089,675862,0
2096921,2096921,161916,675797,0
2096921,2096921,162108,675979,0
2096921,2096921,162091,675627,0
2096921,2096921,161732,675583,0
2096921,2096921,161831,675754,0
2096921,2096921,161873,675667,0
2096921,2096921,161921,675543,0
2096921,2096921,161828,675635,0
2096921,2096921,161835,675600,0
2096921,2096921,161687,675578,0
2096921,2096921,161921,675296,0
2096921,2096921,161650,675337,0
2096921,2096921,161636,675140,0
2096921,2096921,161674,675468,0
2096921,2096921,161658,675421,0
2096921,2096921,161726,675374,0
2096921,2096921,161770,675453,0
2096921,2096921,162034,675523,0
2096921,2096921,161808,675289,0
2096921,2096921,161733,675277,0
2096921,2096921,161544,675397,0
2096921,2096921,161588,675248,0
2096921,2096921,161402,675112,0
2096921,2096921,161523,674902,0
2096921,2096921,161800,674950,0
2096921,2096921,162057,675069,0
2096921,2096921,161933,674744,0
2096921,2096921,161981,675114,0
2096921,2096921,161622,674897,0
2096921,2096921,161978,675019,0
2096921,2096921,161696,674898,0
2096921,2096921,161692,674971,0
2096921,2096921,161623,674997,0
2096921,2096921,161880,674671,0
2096921,2096921,161647,674606,0
2096921,2096921,161483,674850,0
2096921,2096921,161619,674860,0
2096921,2096921,161621,674552,0
2096921,2096921,161587,674767,0
2096921,2096921,161709,674508,0
2096921,2096921,161708,674270,0
2096921,2096921,161665,674270,0
2096921,2096921,161681,674065,0
2096921,2096921,161532,673942,0
2096921,2096921,161524,674137,0
2096921,2096921,161371,674267,0
2096921,2096921,161288,674093,0
2096921,2096921,161472,674063,0
2096921,2096921,161607,674049,0
2096921,2096921,161514,673838,0
2096921,2096921,161185,674091,0
2096921,2096921,161396,673676,0
2096921,2096921,161416,673980,0
2096921,2096921,161635,673846,0
2096921,2096921,161330,673886,0
2096921,2096921,161308,673673,0
2096921,2096921,161479,673553,0
2096921,2096921,161405,673536,0
2096921,2096921,161534,673639,0
2096921,2096921,161480,673551,0
2096921,2096921,161362,673410,0
2096921,2096921,161284,673113,0
2096921,2096921,161426,673042,0
2096921,2096921,161334,673198,0
2096921,2096921,161033,673072,0
2096921,2096921,161332,673402,0
2096921,2096921,161121,673171,0
2096921,2096921,161243,673463,0
2096921,2096921,161349,673055,0
2096921,2096921,161215,673118,0
2096921,2096921,160944,672831,0
2096921,2096921,160994,672626,0
2096921,2096921,161041,672661,0
2096921,2096921,160923,672881,0
2096921,2096921,161177,672673,0
2096921,2096921,161321,672768,0
2096921,2096921,160967,672635,0
2096921,2096921,161096,672650,0
2096921,2096921,161038,672501,0
2096921,2096921,161052,672511,0
2096921,2096921,160820,672476,0
2096921,2096921,160750,671581,0
2096921,2096921,160937,671457,0
2096921,2096921,160846,671453,0
2096921,2096921,161035,671359,0
2096921,2096921,160823,671447,0
2096921,2096921,160632,671036,0
2096921,2096921,160546,670758,0
2096921,2096921,160706,670666,0
2096921,2096921,160543,670808,0
2096921,2096921,160013,670812,0
2096921,2096921,160013,669963,0
2096921,2096921,159965,669556,0
2096921,2096921,160189,669461,0
2096921,2096921,160199,669427,0
2096921,2096921,159853,669334,0
2096921,2096921,159866,668208,0
2096921,2096921,159913,667841,0
2096921,2096921,159838,667894,0
2096921,2096921,159746,667733,0
2096921,2096921,159266,667752,0
2096921,2096921,159094,666686,0
2096921,2096921,158880,666466,0
2096921,2096921,159149,666212,0
2096921,2096921,159183,666168,0
2096921,2096921,158480,666405,0
2096921,2096921,158062,663533,0
2096921,2096921,157974,663185,0
2096921,2096921,158182,663014,0
2096921,2096921,158207,662948,0
2096921,2096921,157132,663022,0
2096921,2096921,157051,659559,0
2096921,2096921,156879,658761,0
2096921,2096921,156935,658812,0
2096921,2096921,156943,658780,0
2096921,2096921,156226,658814,0
2096921,2096921,155954,656355,0
2096921,2096921,155878,656013,0
2096921,2096921,155876,655514,0
2096921,2096921,155862,655750,0
2096921,2096921,155293,655636,0
2096921,2096921,155116,653538,0
2096921,2096921,155320,653191,0
2096921,2096921,155025,653363,0
2096921,2096921,155211,652930,0
2096921,2096921,154480,653018,0
2096921,2096921,154620,651876,0
2096921,2096921,154843,651699,0
2096921,2096921,154852,651306,0
2096921,2096921,154845,651423,0
2096921,2096921,154273,651181,0
2096921,2096921,154285,650332,0
2096921,2096921,154130,650248,0
2096921,2096921,154526,649623,0
2096921,2096921,154220,649904,0
2096921,2096921,153807,649815,0
2096921,2096921,153959,649150,0
2096921,2096921,154117,649143,0
2096921,2096921,153875,648922,0
2096921,2096921,153997,648987,0
2096921,2096921,153563,648905,0
2096921,2096921,153730,648617,0
2096921,2096921,153394,648312,0
2096921,2096921,153259,648312,0
2096921,2096921,153400,648306,0
2096921,2096921,153494,648042,0
2096921,2096921,153768,648106,0
2096921,2096921,153583,648059,0
2096921,2096921,153504,647965,0
2096921,2096921,153523,647836,0
2096921,2096921,153418,647945,0
2096921,2096921,153567,647585,0
2096921,2096921,153495,647744,0
2096921,2096921,153290,647526,0
2096921,2096921,153283,647601,0
2096921,2096921,153525,647459,0
2096921,2096921,153668,647788,0
2096921,2096921,153481,647888,0
2096921,2096921,153451,647592,0
2096921,2096921,153433,648062,0
2096921,2096921,153384,647812,0
2096921,2096921,153714,647314,0
2096921,2096921,153422,647803,0
2096921,2096921,153483,647993,0
2096921,2096921,153331,647979,0
2096921,2096921,153538,647399,0
2096921,2096921,153582,647422,0
2096921,2096921,153626,647689,0
2096921,2096921,153634,647560,0
2096921,2096921,153564,647558,0
2096921,2096921,153790,647609,0
2096921,2096921,153957,648079,0
2096921,2096921,153599,647875,0
2096921,2096921,153582,648210,0
2096921,2096921,153412,647875,0
2096921,2096921,153756,648094,0
2096921,2096921,154087,648840,0
2096921,2096921,154146,648883,0
2096921,2096921,153926,648938,0
2096921,2096921,153985,648637,0
2096921,2096921,153909,648786,0
2096921,2096921,153995,649214,0
2096921,2096921,153960,649409,0
2096921,2096921,153965,649052,0
2096921,2096921,154035,649313,0
2096921,2096921,154474,649404,0
2096921,2096921,154348,649940,0
2096921,2096921,154582,650000,0
2096921,2096921,154444,649729,0
2096921,2096921,154457,649768,0
2096921,2096921,154709,649924,0
2096921,2096921,154545,650118,0
2096921,2096921,154211,650511,0
2096921,2096921,154589,650227,0
2096921,2096921,154360,650247,0
2096921,2096921,154510,650372,0
2096921,2096921,154523,650553,0
2096921,2096921,154621,650503,0
2096921,2096921,154470,650709,0
2096921,2096921,154702,650802,0
2096921,2096921,154569,650519,0
2096921,2096921,154553,650784,0
2096921,2096921,154558,650993,0
2096921,2096921,154462,650918,0
2096921,2096921,154697,650960,0
2096921,2096921,154742,651007,0
2096921,2096921,155024,651604,0
2096921,2096921,155144,651840,0
2096921,2096921,155157,651683,0
2096921,2096921,155036,651845,0
2096921,2096921,155033,651670,0
2096921,2096921,155126,652139,0
2096921,2096921,155098,652570,0
2096921,2096921,154905,652256,0
2096921,2096921,154933,652268,0
2096921,2096921,155247,652499,0
2096921,2096921,155341,652879,0
2096921,2096921,155352,652805,0
2096921,2096921,155290,652915,0
2096921,2096921,155499,652817,0
2096921,2096921,155414,652719,0
2096921,2096921,155504,653404,0
2096921,2096921,155302,653282,0
2096921,2096921,155022,653446,0
2096921,2096921,155531,653285,0
2096921,2096921,155735,653214,0
2096921,2096921,156147,653829,0
2096921,2096921,155887,654044,0
2096921,2096921,155744,653786,0
2096921,2096921,155800,653884,0
2096921,2096921,155452,653853,0
2096921,2096921,155900,653944,0
2096921,2096921,155744,654001,0
2096921,2096921,155780,654247,0
2096921,2096921,155611,654282,0
2096921,2096921,156016,654046,0
2096921,2096921,156087,654700,0
2096921,2096921,156092,654778,0
2096921,2096921,156007,654970,0
2096921,2096921,155821,654595,0
2096921,2096921,155907,654788,0
2096921,2096921,155910,654906,0
2096921,2096921,155658,655098,0
2096921,2096921,155970,655023,0
2096921,2096921,155748,654968,0
2096921,2096921,155902,655032,0
2096921,2096921,156091,655086,0
2096921,2096921,155995,654777,0
2096921,2096921,156193,655217,0
2096921,2096921,156027,655076,0
2096921,2096921,156098,655036,0
2096921,2096921,156110,654835,0
2096921,2096921,156194,654956,0
2096921,2096921,155934,655066,0
2096921,2096921,156007,655220,0
2096921,2096921,156037,655323,0
2096921,2096921,156234,655120,0
2096921,2096921,156043,654915,0
2096921,2096921,156214,655157,0
2096921,2096921,156263,655060,0
2096921,2096921,156079,655259,0
2096921,2096921,155776,654719,0
2096921,2096921,155832,654661,0
2096921,2096921,155753,654916,0
2096921,2096921,155918,654887,0
2096921,2096921,156110,654941,0
2096921,2096921,155936,654612,0
2096921,2096921,155962,654493,0
2096921,2096921,155954,654743,0
2096921,2096921,156122,654754,0
2096921,2096921,156059,654692,0
2096921,2096921,155543,654194,0
2096921,2096921,155719,654301,0
2096921,2096921,155674,654349,0
2096921,2096921,155832,654287,0
2096921,2096921,156147,654326,0
2096921,2096921,155954,654264,0
2096921,2096921,155966,654322,0
2096921,2096921,155528,654062,0
2096921,2096921,155605,654279,0
2096921,2096921,155559,653972,0
2096921,2096921,155669,653712,0
2096921,2096921,155493,653658,0
2096921,2096921,155707,653767,0
2096921,2096921,155725,653784,0
2096921,2096921,155394,653728,0
2096921,2096921,155671,653657,0
2096921,2096921,155423,653410,0
2096921,2096921,155419,653454,0
2096921,2096921,155572,653145,0
2096921,2096921,155560,653532,0
2096921,2096921,155720,653129,0
2096921,2096921,155482,653154,0
2096921,2096921,155402,653496,0
2096921,2096921,155397,653359,0
2096921,2096921,155212,653580,0
2096921,2096921,155394,653525,0
2096921,2096921,155682,653461,0
2096921,2096921,155910,653275,0
2096921,2096921,155835,653444,0
2096921,2096921,155560,653515,0
2096921,2096921,155552,653488,0
2096921,2096921,155588,653565,0
2096921,2096921,155458,653425,0
2096921,2096921,155806,653301,0
2096921,2096921,155467,653587,0
2096921,2096921,155681,653096,0
2096921,2096921,155341,653462,0
2096921,2096921,155479,653942,0
2096921,2096921,155600,653547,0
2096921,2096921,155535,653392,0
2096921,2096921,155911,653318,0
2096921,2096921,155598,653551,0
2096921,2096921,155570,653715,0
2096921,2096921,155618,653784,0
2096921,2096921,155680,653569,0
2096921,2096921,155793,654137,0
2096921,2096921,155794,654177,0
2096921,2096921,156092,654051,0
2096921,2096921,156169,654218,0
2096921,2096921,155997,654273,0
2096921,2096921,156010,654837,0
2096921,2096921,156067,654578,0
2096921,2096921,156149,654718,0
2096921,2096921,156085,654660,0
2096921,2096921,156207,654861,0
2096921,2096921,156371,655310,0
2096921,2096921,156285,655187,0
2096921,2096921,156330,655145,0
2096921,2096921,156140,655324,0
2096921,2096921,156194,655222,0
2096921,2096921,156362,655594,0
2096921,2096921,155965,655444,0
2096921,2096921,156071,655626,0
2096921,2096921,156358,655473,0
2096921,2096921,156453,655457,0
2096921,2096921,156360,656269,0
2096921,2096921,156331,655922,0
2096921,2096921,156387,655831,0
2096921,2096921,156497,655869,0
2096921,2096921,156535,655790,0
2096921,2096921,156540,656055,0
2096921,2096921,156224,656302,0
2096921,2096921,156738,656477,0
2096921,2096921,156539,656241,0
2096921,2096921,156764,656280,0
2096921,2096921,156737,656470,0
2096921,2096921,156596,656664,0
2096921,2096921,156838,656852,0
2096921,2096921,156886,656851,0
2096921,2096921,156834,656797,0
2096921,2096921,156738,657081,0
2096921,2096921,156873,656878,0
2096921,2096921,156775,656950,0
2096921,2096921,156383,657046,0
2096921,2096921,156635,656999,0
2096921,2096921,156887,657583,0
2096921,2096921,157032,657506,0
2096921,2096921,156794,657476,0
2096921,2096921,156715,657139,0
2096921,2096921,156850,657311,0
2096921,2096921,156997,657669,0
2096921,2096921,157050,657880,0
2096921,2096921,157071,657748,0
2096921,2096921,157096,657762,0
2096921,2096921,157156,658062,0
2096921,2096921,157251,658347,0
2096921,2096921,157150,658343,0
2096921,2096921,156895,658128,0
2096921,2096921,157365,658113,0
2096921,2096921,157326,658241,0
2096921,2096921,157314,658251,0
2096921,2096921,157441,658442,0
2096921,2096921,157043,658749,0
2096921,2096921,157276,658794,0
2096921,2096921,157435,658341,0
2096921,2096921,157453,658709,0
2096921,2096921,157084,659205,0
2096921,2096921,157405,658873,0
2096921,2096921,157469,658672,0
2096921,2096921,157187,659004,0
2096921,2096921,157327,659302,0
2096921,2096921,157566,659321,0
2096921,2096921,157335,659009,0
2096921,2096921,157198,659138,0
2096921,2096921,157419,659201,0
2096921,2096921,157496,659554,0
2096921,2096921,157513,659497,0
2096921,2096921,157567,659763,0
2096921,2096921,157415,659497,0
2096921,2096921,157495,659617,0
2096921,2096921,157591,659709,0
2096921,2096921,157641,660021,0
2096921,2096921,157726,659702,0
2096921,2096921,157772,659905,0
2096921,2096921,157429,659984,0
2096921,2096921,157737,660287,0
2096921,2096921,157697,660272,0
2096921,2096921,157973,660418,0
2096921,2096921,157848,660388,0
2096921,2096921,157981,660501,0
2096921,2096921,157624,660594,0
2096921,2096921,157772,660798,0
2096921,2096921,157820,660717,0
2096921,2096921,157953,660860,0
2096921,2096921,157928,661255,0
2096921,2096921,157942,660809,0
2096921,2096921,157991,660953,0
2096921,2096921,158094,660922,0
2096921,2096921,158124,660881,0
2096921,2096921,157916,661099,0
2096921,2096921,157926,661398,0
2096921,2096921,158047,661306,0
2096921,2096921,158105,660989,0
2096921,2096921,158081,661076,0
2096921,2096921,158391,661522,0
2096921,2096921,158245,661673,0
2096921,2096921,157900,661480,0
2096921,2096921,158060,661296,0
2096921,2096921,158106,661337,0
2096921,2096921,158296,661330,0
2096921,2096921,158341,661504,0
2096921,2096921,158198,661655,0
2096921,2096921,158463,661487,0
2096921,2096921,158154,661601,0
2096921,2096921,158140,661606,0
2096921,2096921,158074,661868,0
2096921,2096921,158341,661638,0
2096921,2096921,158294,661894,0
2096921,2096921,158212,661659,0
2096921,2096921,158383,661846,0
2096921,2096921,158497,661995,0
2096921,2096921,158443,662093,0
2096921,2096921,158379,662170,0
2096921,2096921,158357,662417,0
2096921,2096921,158789,662116,0
2096921,2096921,158669,662492,0
2096921,2096921,158656,662327,0
2096921,2096921,158220,662605,0
2096921,2096921,158428,662438,0
2096921,2096921,158360,662461,0
2096921,2096921,158414,662481,0
2096921,2096921,158531,662563,0
2096921,2096921,158468,662495,0
2096921,2096921,158442,662444,0
2096921,2096921,158552,662902,0
2096921,2096921,159099,662766,0
2096921,2096921,158733,662782,0
2096921,2096921,158640,662926,0
2096921,2096921,158760,662956,0
2096921,2096921,158553,662721,0
2096921,2096921,158590,663029,0
2096921,2096921,158647,662728,0
2096921,2096921,158473,662565,0
2096921,2096921,158403,662677,0
2096921,2096921,158579,662871,0
2096921,2096921,158720,663197,0
2096921,2096921,158564,663477,0
2096921,2096921,158794,662933,0
2096921,2096921,158795,663036,0
2096921,2096921,158694,663033,0
2096921,2096921,158628,662864,0
2096921,2096921,158568,662977,0
2096921,2096921,158470,663395,0
2096921,2096921,158856,663097,0
2096921,2096921,158784,663105,0
2096921,2096921,158901,663290,0
2096921,2096921,158868,663183,0
2096921,2096921,158719,663363,0
2096921,2096921,158761,663226,0
2096921,2096921,158773,663327,0
2096921,2096921,158825,663284,0
2096921,2096921,158455,663439,0
2096921,2096921,158707,663297,0
2096921,2096921,158742,663633,0
2096921,2096921,158986,663551,0
2096921,2096921,158868,663727,0
2096921,2096921,158933,663561,0
2096921,2096921,158749,663458,0
2096921,2096921,158564,663694,0
2096921,2096921,158914,663665,0
2096921,2096921,158715,663740,0
2096921,2096921,158753,663691,0
2096921,2096921,158810,663494,0
2096921,2096921,158852,663699,0
2096921,2096921,158961,663577,0
2096921,2096921,158808,663926,0
2096921,2096921,158951,663838,0
2096921,2096921,158654,663974,0
2096921,2096921,158977,663867,0
2096921,2096921,159111,663904,0
2096921,2096921,159036,664009,0
2096921,2096921,159036,664084,0
2096921,2096921,158860,664031,0
2096921,2096921,158930,664032,0
2096921,2096921,158844,664117,0
2096921,2096921,159218,664146,0
2096921,2096921,159048,664474,0
2096921,2096921,158962,664319,0
2096921,2096921,159218,664247,0
2096921,2096921,159076,664117,0
2096921,2096921,158893,664483,0
2096921,2096921,159273,664509,0
2096921,2096921,159214,664559,0
2096921,2096921,159081,664373,0
2096921,2096921,159076,664389,0
2096921,2096921,159025,664653,0
2096921,2096921,159068,664437,0
2096921,2096921,159230,664990,0
2096921,2096921,159149,664678,0
2096921,2096921,159026,664439,0
2096921,2096921,158948,665036,0
2096921,2096921,159000,664475,0
2096921,2096921,159390,664846,0
2096921,2096921,159276,664659,0
2096921,2096921,159142,664705,0
2096921,2096921,159340,664844,0
2096921,2096921,159272,664936,0
2096921,2096921,159382,665126,0
2096921,2096921,159235,664922,0
2096921,2096921,159210,664921,0
2096921,2096921,159436,664987,0
2096921,2096921,159280,664903,0
2096921,2096921,159190,664711,0
2096921,2096921,159256,664854,0
2096921,2096921,159268,665199,0
2096921,2096921,159297,665291,0
2096921,2096921,159237,665517,0
2096921,2096921,159272,665477,0
2096921,2096921,159159,665475,0
2096921,2096921,159352,665691,0
2096921,2096921,159309,665539,0
2096921,2096921,159671,665261,0
2096921,2096921,159723,665425,0
2096921,2096921,159306,665514,0
2096921,2096921,159406,665431,0
2096921,2096921,159285,665527,0
2096921,2096921,159475,665579,0
2096921,2096921,159602,665602,0
2096921,2096921,159363,665200,0
2096921,2096921,159496,665373,0
2096921,2096921,159356,665425,0
2096921,2096921,159203,665294,0
2096921,2096921,159571,665376,0
2096921,2096921,159421,665484,0
2096921,2096921,159407,665494,0
2096921,2096921,159486,665672,0
2096921,2096921,159420,665687,0
2096921,2096921,159461,665512,0
2096921,2096921,159389,665750,0
2096921,2096921,159549,665792,0
2096921,2096921,159767,665868,0
2096921,2096921,159460,665868,0
2096921,2096921,159400,665798,0
2096921,2096921,159611,665576,0
2096921,2096921,159538,665652,0
2096921,2096921,159416,665370,0
2096921,2096921,159274,665936,0
2096921,2096921,159475,665769,0
2096921,2096921,159450,665971,0
2096921,2096921,159481,666062,0
2096921,2096921,159358,666107,0
2096921,2096921,159444,665878,0
2096921,2096921,159463,666256,0
2096921,2096921,159318,665994,0
2096921,2096921,159422,666063,0
2096921,2096921,159436,666111,0
2096921,2096921,159334,666069,0
2096921,2096921,159585,666053,0
2096921,2096921,159511,666284,0
2096921,2096921,159611,666130,0
2096921,2096921,159664,666501,0
2096921,2096921,159463,666288,0
2096921,2096921,159531,666377,0
2096921,2096921,159498,666070,0
2096921,2096921,159478,666140,0
2096921,2096921,159620,666570,0
2096921,2096921,159658,666344,0
2096921,2096921,159685,666433,0
2096921,2096921,159881,665989,0
2096921,2096921,159615,666497,0
2096921,2096921,159566,665959,0
2096921,2096921,159545,665932,0
2096921,2096921,159623,665833,0
2096921,2096921,158981,665980,0
2096921,2096921,159258,665756,0
2096921,2096921,159237,665278,0
2096921,2096921,159256,665293,0
2096921,2096921,159167,665719,0
2096921,2096921,159183,665361,0
2096921,2096921,159015,664987,0
2096921,2096921,159102,664721,0
2096921,2096921,158863,664578,0
2096921,2096921,158988,664574,0
2096921,2096921,159094,664835,0
2096921,2096921,158802,664452,0
2096921,2096921,158955,663612,0
2096921,2096921,158701,663523,0
2096921,2096921,158562,663438,0
2096921,2096921,158644,663493,0
2096921,2096921,158016,663257,0
2096921,2096921,158210,662435,0
2096921,2096921,157981,662218,0
2096921,2096921,158322,662195,0
2096921,2096921,158260,662134,0
2096921,2096921,157644,661893,0
2096921,2096921,157580,659662,0
2096921,2096921,157376,659373,0
2096921,2096921,157071,659374,0
2096921,2096921,156993,658928,0
2096921,2096921,156309,658934,0
2096921,2096921,156281,656411,0
2096921,2096921,156386,655631,0
2096921,2096921,156196,655628,0
2096921,2096921,156053,655643,0
2096921,2096921,155754,655183,0
2096921,2096921,155427,653261,0
2096921,2096921,155384,653052,0
2096921,2096921,155050,652675,0
2096921,2096921,155154,652563,0
2096921,2096921,154506,652430,0
2096921,2096921,154319,650955,0
2096921,2096921,154371,650822,0
2096921,2096921,154827,650585,0
2096921,2096921,154413,650641,0
2096921,2096921,154459,650625,0
2096921,2096921,154225,649325,0
2096921,2096921,154063,649012,0
2096921,2096921,154207,649238,0
2096921,2096921,154077,648997,0
2096921,2096921,153763,649033,0
2096921,2096921,153618,648336,0
2096921,2096921,153740,648321,0
2096921,2096921,153707,648261,0
2096921,2096921,153637,648247,0
2096921,2096921,153707,647855,0
2096921,2096921,153275,647670,0
2096921,2096921,153418,647786,0
2096921,2096921,153500,647565,0
2096921,2096921,153456,647745,0
2096921,2096921,153557,647228,0
2096921,2096921,153404,647257,0
2096921,2096921,153529,647147,0
2096921,2096921,153317,647364,0
2096921,2096921,153348,647515,0
2096921,2096921,153287,647249,0
2096921,2096921,153396,647479,0
2096921,2096921,153355,647327,0
2096921,2096921,153557,647239,0
2096921,2096921,153386,647227,0
2096921,2096921,153318,647200,0
2096921,2096921,153138,647584,0
2096921,2096921,153082,647485,0
2096921,2096921,153139,647457,0
2096921,2096921,153115,647457,0
2096921,2096921,153232,647604,0
2096921,2096921,153282,647716,0
2096921,2096921,153742,647769,0
2096921,2096921,153907,648171,0
2096921,2096921,153658,648246,0
2096921,2096921,153615,648163,0
2096921,2096921,153827,648669,0
2096921,2096921,153840,648398,0
2096921,2096921,153823,648482,0
2096921,2096921,153619,648352,0
2096921,2096921,154143,648358,0
2096921,2096921,153760,648642,0
2096921,2096921,153753,648720,0
2096921,2096921,153746,648972,0
2096921,2096921,153983,649152,0
2096921,2096921,153920,649000,0
2096921,2096921,153947,649469,0
2096921,2096921,154185,649161,0
2096921,2096921,153904,649453,0
2096921,2096921,154042,649621,0
2096921,2096921,154218,649412,0
2096921,2096921,154304,650515,0
2096921,2096921,154354,650574,0
2096921,2096921,154355,650816,0
2096921,2096921,154519,650656,0
2096921,2096921,154258,650826,0
2096921,2096921,154651,651357,0
2096921,2096921,154476,651520,0
2096921,2096921,154500,651414,0
2096921,2096921,154562,651639,0
2096921,2096921,155009,651526,0
2096921,2096921,154874,652142,0
2096921,2096921,154758,652053,0
2096921,2096921,155113,652382,0
2096921,2096921,155083,652630,0
2096921,2096921,155413,652436,0
2096921,2096921,155365,653224,0
2096921,2096921,155090,653457,0
2096921,2096921,155292,653352,0
2096921,2096921,155365,653337,0
2096921,2096921,155416,653607,0
2096921,2096921,155334,654025,0
2096921,2096921,155513,654019,0
2096921,2096921,155474,654315,0
2096921,2096921,155589,654229,0
2096921,2096921,155531,654262,0
2096921,2096921,155430,655141,0
2096921,2096921,155683,654942,0
2096921,2096921,155837,654636,0
2096921,2096921,155918,655150,0
2096921,2096921,156159,654999,0
2096921,2096921,156053,655877,0
2096921,2096921,156084,656181,0
2096921,2096921,156073,656070,0
2096921,2096921,156075,655986,0
2096921,2096921,156174,656260,0
2096921,2096921,156534,656862,0
2096921,2096921,156278,656917,0
2096921,2096921,155828,657154,0
2096921,2096921,155932,657003,0
2096921,2096921,156272,656926,0
2096921,2096921,156455,657617,0
2096921,2096921,156569,657891,0
2096921,2096921,156557,657745,0
2096921,2096921,156500,657924,0
2096921,2096921,156517,658027,0
2096921,2096921,156913,658654,0
2096921,2096921,156613,658824,0
2096921,2096921,156614,658758,0
2096921,2096921,156588,658473,0
2096921,2096921,156958,658796,0
2096921,2096921,157015,659663,0
2096921,2096921,157146,659620,0
2096921,2096921,157192,659947,0
2096921,2096921,156958,660011,0
2096921,2096921,157412,660014,0
2096921,2096921,157258,660306,0
2096921,2096921,156995,660655,0
2096921,2096921,157494,660662,0
2096921,2096921,157644,660638,0
2096921,2096921,157797,660801,0
2096921,2096921,157845,661208,0
2096921,2096921,157798,661312,0
2096921,2096921,157619,661074,0
2096921,2096921,157651,661531,0
2096921,2096921,157940,661374,0
2096921,2096921,157700,661846,0
2096921,2096921,157851,662072,0
2096921,2096921,157459,661831,0
2096921,2096921,157920,662063,0
2096921,2096921,157961,661772,0
2096921,2096921,158374,662426,0
2096921,2096921,158028,662409,0
2096921,2096921,158016,662647,0
2096921,2096921,157978,662444,0
2096921,2096921,157721,662364,0
2096921,2096921,158150,663237,0
2096921,2096921,158113,663089,0
2096921,2096921,157785,663195,0
2096921,2096921,158003,663221,0
2096921,2096921,158140,662884,0
2096921,2096921,158130,663219,0
2096921,2096921,157991,663272,0
2096921,2096921,158266,663439,0
2096921,2096921,158250,663106,0
2096921,2096921,158276,663089,0
2096921,2096921,158325,663363,0
2096921,2096921,157882,663469,0
2096921,2096921,158116,663494,0
2096921,2096921,158112,663607,0
2096921,2096921,158273,663433,0
2096921,2096921,158226,663668,0
2096921,2096921,158140,663757,0
2096921,2096921,158090,663678,0
2096921,2096921,158112,663704,0
2096921,2096921,158129,663752,0
2096921,2096921,158385,663669,0
2096921,2096921,158064,663490,0
2096921,2096921,157934,663637,0
2096921,2096921,158250,663415,0
2096921,2096921,158094,663653,0
2096921,2096921,158089,663977,0
2096921,2096921,158190,663834,0
2096921,2096921,158484,663643,0
2096921,2096921,158264,663528,0
2096921,2096921,158131,663663,0
2096921,2096921,157991,663586,0
2096921,2096921,157967,663622,0
2096921,2096921,157911,663672,0
2096921,2096921,158084,663502,0
2096921,2096921,158133,663162,0
2096921,2096921,158210,663543,0
2096921,2096921,158389,663255,0
2096921,2096921,158327,663628,0
2096921,2096921,157985,663744,0
2096921,2096921,158188,663612,0
2096921,2096921,157994,663828,0
2096921,2096921,157869,663852,0
2096921,2096921,158035,663578,0
2096921,2096921,158119,663765,0
2096921,2096921,158209,664033,0
2096921,2096921,158125,664108,0
2096921,2096921,157989,664058,0
2096921,2096921,158166,664206,0
2096921,2096921,158252,664083,0
2096921,2096921,158204,664034,0
2096921,2096921,158387,664534,0
2096921,2096921,158302,664357,0
2096921,2096921,158186,664116,0
2096921,2096921,158208,664267,0
2096921,2096921,158606,664472,0
2096921,2096921,158306,664801,0
2096921,2096921,158329,664881,0
2096921,2096921,158274,664957,0
2096921,2096921,158465,664691,0
2096921,2096921,158384,664836,0
2096921,2096921,158681,665069,0
2096921,2096921,158485,665315,0
2096921,2096921,158795,665130,0
2096921,2096921,158565,665223,0
2096921,2096921,158842,665346,0
2096921,2096921,158687,666171,0
2096921,2096921,158963,665916,0
2096921,2096921,158960,665981,0
2096921,2096921,158763,666112,0
2096921,2096921,158956,666290,0
2096921,2096921,158979,666790,0
2096921,2096921,158991,666926,0
2096921,2096921,159162,667059,0
2096921,2096921,159148,666870,0
2096921,2096921,159300,666790,0
2096921,2096921,159398,667612,0
2096921,2096921,159187,667538,0
2096921,2096921,159091,667404,0
2096921,2096921,159145,667571,0
2096921,2096921,159330,667277,0
2096921,2096921,159357,667824,0
2096921,2096921,159302,668278,0
2096921,2096921,159402,668181,0
2096921,2096921,159625,667843,0
2096921,2096921,159597,668209,0
2096921,2096921,159791,669029,0
2096921,2096921,159760,668817,0
2096921,2096921,159590,668943,0
2096921,2096921,159690,668873,0
2096921,2096921,159679,668805,0
2096921,2096921,159776,669608,0
2096921,2096921,159848,669601,0
2096921,2096921,159904,669530,0
2096921,2096921,159659,669327,0
2096921,2096921,159798,669404,0
2096921,2096921,159869,669983,0
2096921,2096921,159997,670146,0
2096921,2096921,160149,669877,0
2096921,2096921,160032,669885,0
2096921,2096921,160311,670065,0
2096921,2096921,160112,670696,0
2096921,2096921,160217,670652,0
2096921,2096921,160310,670702,0
2096921,2096921,160151,670901,0
2096921,2096921,160373,670859,0
2096921,2096921,160462,671264,0
2096921,2096921,160627,671649,0
2096921,2096921,160586,671684,0
2096921,2096921,160264,671683,0
2096921,2096921,160518,671780,0
2096921,2096921,160742,672117,0
2096921,2096921,160458,672239,0
2096921,2096921,160479,671930,0
2096921,2096921,160529,672061,0
2096921,2096921,160689,672344,0
2096921,2096921,160793,672538,0
2096921,2096921,160925,672902,0
2096921,2096921,160972,672698,0
2096921,2096921,160956,672373,0
2096921,2096921,160695,672936,0
2096921,2096921,161010,673040,0
2096921,2096921,160746,673174,0
2096921,2096921,161007,673543,0
2096921,2096921,160965,673552,0
2096921,2096921,160998,673429,0
2096921,2096921,161175,673629,0
2096921,2096921,161340,673769,0
2096921,2096921,160997,674041,0
2096921,2096921,161434,673939,0
2096921,2096921,161319,674055,0
2096921,2096921,161140,674388,0
2096921,2096921,161102,674423,0
2096921,2096921,161097,674643,0
2096921,2096921,161322,674258,0
2096921,2096921,161170,674340,0
2096921,2096921,161506,674958,0
2096921,2096921,161544,674973,0
2096921,2096921,161414,674821,0
2096921,2096921,161556,674963,0
2096921,2096921,161527,675134,0
2096921,2096921,161500,675507,0
2096921,2096921,161560,675887,0
2096921,2096921,161671,675930,0
2096921,2096921,161508,675468,0
2096921,2096921,161648,675574,0
2096921,2096921,161729,676001,0
2096921,2096921,161985,675976,0
2096921,2096921,161782,676186,0
2096921,2096921,161599,676351,0
2096921,2096921,161992,676101,0
2096921,2096921,162012,676820,0
2096921,2096921,161746,676619,0
2096921,2096921,161690,676818,0
2096921,2096921,161617,676712,0
2096921,2096921,162125,676808,0
2096921,2096921,162303,676918,0
2096921,2096921,162429,676930,0
2096921,2096921,162213,677156,0
2096921,2096921,162248,677254,0
2096921,2096921,161972,677321,0
2096921,2096921,162194,677881,0
2096921,2096921,162179,677707,0
2096921,2096921,162127,677671,0
2096921,2096921,162421,678168,0
2096921,2096921,162281,677525,0
2096921,2096921,162584,678042,0
2096921,2096921,162542,678509,0
2096921,2096921,162430,678252,0
2096921,2096921,162301,678023,0
2096921,2096921,162312,678006,0
2096921,2096921,162491,678394,0
2096921,2096921,162313,678417,0
2096921,2096921,162481,678243,0
2096921,2096921,162503,678502,0
2096921,2096921,162631,678544,0
2096921,2096921,162608,679112,0
2096921,2096921,162492,679090,0
2096921,2096921,162757,679286,0
2096921,2096921,162472,679041,0
2096921,2096921,162566,679335,0
2096921,2096921,162939,679517,0
2096921,2096921,162660,679466,0
2096921,2096921,162699,679705,0
2096921,2096921,162953,679452,0
2096921,2096921,162791,679389,0
2096921,2096921,162957,679638,0
2096921,2096921,162878,679947,0
2096921,2096921,162985,680020,0
2096921,2096921,162644,680239,0
2096921,2096921,162885,680113,0
2096921,2096921,162936,680329,0
2096921,2096921,162542,680295,0
2096921,2096921,162973,680319,0
2096921,2096921,162930,680118,0
2096921,2096921,162929,680198,0
2096921,2096921,163181,680346,0
2096921,2096921,162944,680808,0
2096921,2096921,163153,680663,0
2096921,2096921,162862,681096,0
2096921,2096921,163042,680770,0
2096921,2096921,163077,681019,0
2096921,2096921,162971,681046,0
2096921,2096921,163445,681009,0
2096921,2096921,162898,680988,0
2096921,2096921,163246,681146,0
2096921,2096921,163305,681567,0
2096921,2096921,163500,681369,0
2096921,2096921,163263,681584,0
2096921,2096921,163210,681427,0
2096921,2096921,163241,681508,0
2096921,2096921,163265,681636,0
2096921,2096921,163130,681740,0
2096921,2096921,163617,681555,0
2096921,2096921,163110,681243,0
2096921,2096921,163105,681201,0
2096921,2096921,163158,681868,0
2096921,2096921,163721,681887,0
2096921,2096921,163333,682035,0
2096921,2096921,163248,682172,0
2096921,2096921,163519,682048,0
2096921,2096921,163420,682184,0
2096921,2096921,163445,682008,0
2096921,2096921,163351,682009,0
2096921,2096921,163550,682103,0
2096921,2096921,163463,682066,0
2096921,2096921,163614,682515,0
2096921,2096921,163590,682175,0
2096921,2096921,163589,682628,0
2096921,2096921,163331,682472,0
2096921,2096921,163557,682297,0
2096921,2096921,163488,682757,0
2096921,2096921,163783,682744,0
2096921,2096921,163685,682571,0
2096921,2096921,163607,682549,0
2096921,2096921,163599,682756,0
2096921,2096921,163834,682702,0
2096921,2096921,163743,683037,0
2096921,2096921,163837,683102,0
2096921,2096921,163708,683023,0
2096921,2096921,163897,683043,0
2096921,2096921,163908,683463,0
2096921,2096921,163800,683077,0
2096921,2096921,163703,682996,0
2096921,2096921,163651,683189,0
2096921,2096921,163771,683326,0
2096921,2096921,163467,683679,0
2096921,2096921,163664,683726,0
2096921,2096921,164046,683855,0
2096921,2096921,164138,683745,0
2096921,2096921,164044,683663,0
2096921,2096921,163862,683841,0
2096921,2096921,164069,683804,0
2096921,2096921,163894,684008,0
2096921,2096921,164084,683830,0
2096921,2096921,164175,683738,0
2096921,2096921,163813,683663,0
2096921,2096921,163888,684202,0
2096921,2096921,163984,683942,0
2096921,2096921,163831,684047,0
2096921,2096921,163978,684104,0
2096921,2096921,164226,684237,0
2096921,2096921,163902,683739,0
2096921,2096921,164164,684032,0
2096921,2096921,163853,683858,0
2096921,2096921,164043,684054,0
2096921,2096921,164100,684330,0
2096921,2096921,163983,684160,0
2096921,2096921,163836,684328,0
2096921,2096921,164161,684238,0
2096921,2096921,164193,684439,0
2096921,2096921,164308,684182,0
2096921,2096921,164203,684594,0
2096921,2096921,164108,684728,0
2096921,2096921,164257,684621,0
2096921,2096921,164133,684094,0
2096921,2096921,164095,684610,0
2096921,2096921,164134,684666,0
2096921,2096921,164275,684419,0
2096921,2096921,164292,684441,0
2096921,2096921,164307,684716,0
2096921,2096921,164290,684937,0
2096921,2096921,164198,684823,0
2096921,2096921,164238,684892,0
2096921,2096921,164397,684741,0
2096921,2096921,164149,684827,0
2096921,2096921,164309,684982,0
2096921,2096921,164246,685261,0
2096921,2096921,164554,685486,0
2096921,2096921,164428,684967,0
2096921,2096921,164326,685190,0
2096921,2096921,164337,685248,0
2096921,2096921,164283,685071,0
2096921,2096921,164063,685361,0
2096921,2096921,164451,684980,0
2096921,2096921,164502,684786,0
2096921,2096921,164369,685011,0
2096921,2096921,164313,684971,0
2096921,2096921,164506,685128,0
2096921,2096921,164438,685291,0
2096921,2096921,164245,685070,0
2096921,2096921,164214,685230,0
2096921,2096921,164255,685251,0
2096921,2096921,164544,685514,0
2096921,2096921,164477,685107,0
2096921,2096921,164446,685111,0
2096921,2096921,164163,685313,0
2096921,2096921,164299,685264,0
2096921,2096921,164415,685170,0
2096921,2096921,164432,685156,0
2096921,2096921,164172,685325,0
2096921,2096921,164454,685566,0
2096921,2096921,164543,685230,0
2096921,2096921,164262,685197,0
2096921,2096921,164294,685295,0
2096921,2096921,164236,685205,0
2096921,2096921,164122,685303,0
2096921,2096921,164243,685480,0
2096921,2096921,164505,685530,0
2096921,2096921,164466,685317,0
2096921,2096921,164533,685181,0
2096921,2096921,164240,685154,0
2096921,2096921,164446,685276,0
2096921,2096921,164154,685152,0
2096921,2096921,164329,685201,0
2096921,2096921,164371,685341,0
2096921,2096921,164314,685216,0
2096921,2096921,164171,685079,0
2096921,2096921,164314,685350,0
2096921,2096921,164171,685346,0
2096921,2096921,164200,684941,0
2096921,2096921,164052,684948,0
2096921,2096921,164008,684669,0
2096921,2096921,164015,684812,0
2096921,2096921,163953,684625,0
2096921,2096921,163978,684525,0
2096921,2096921,164028,684286,0
2096921,2096921,164087,684457,0
2096921,2096921,163809,684197,0
2096921,2096921,163880,684353,0
2096921,2096921,163834,684012,0
2096921,2096921,163618,683267,0
2096921,2096921,163712,682763,0
2096921,2096921,163856,682816,0
2096921,2096921,163441,682932,0
2096921,2096921,163111,682787,0
2096921,2096921,163202,681983,0
2096921,2096921,162942,682026,0
2096921,2096921,163209,681760,0
2096921,2096921,163361,681712,0
2096921,2096921,162736,681623,0
2096921,2096921,162835,680578,0
2096921,2096921,162599,680409,0
2096921,2096921,162489,680283,0
2096921,2096921,162729,680194,0
2096921,2096921,162094,679873,0
2096921,2096921,161940,677479,0
2096921,2096921,161616,677327,0
2096921,2096921,161569,677269,0
2096921,2096921,161796,677081,0
2096921,2096921,160874,676324,0
2096921,2096921,160699,673877,0
2096921,2096921,160411,673121,0
2096921,2096921,160255,673056,0
2096921,2096921,160549,673045,0
2096921,2096921,159544,672460,0
2096921,2096921,159527,670626,0
2096921,2096921,159750,670066,0
2096921,2096921,159251,669967,0
2096921,2096921,159440,670134,0
2096921,2096921,158862,669674,0
2096921,2096921,158837,668013,0
2096921,2096921,158700,667786,0
2096921,2096921,158701,667668,0
2096921,2096921,158952,667595,0
2096921,2096921,158243,667694,0
2096921,2096921,158403,666575,0
2096921,2096921,158068,666254,0
2096921,2096921,158337,666181,0
2096921,2096921,158412,666077,0
2096921,2096921,157988,665985,0
2096921,2096921,158047,665074,0
2096921,2096921,157888,665199,0
2096921,2096921,157540,664696,0
2096921,2096921,157891,664653,0
2096921,2096921,157514,664746,0
2096921,2096921,157608,664149,0
2096921,2096921,157548,663965,0
2096921,2096921,157649,664165,0
2096921,2096921,157743,664129,0
2096921,2096921,157433,664057,0
2096921,2096921,157583,663456,0
2096921,2096921,157642,663366,0
2096921,2096921,157583,663818,0
2096921,2096921,157710,663344,0
2096921,2096921,157486,663410,0
2096921,2096921,157258,663222,0
2096921,2096921,157457,663274,0
2096921,2096921,157222,663196,0
2096921,2096921,157437,663638,0
2096921,2096921,157225,663185,0
2096921,2096921,157569,663436,0
2096921,2096921,157329,663165,0
2096921,2096921,157150,663145,0
2096921,2096921,157224,663492,0
2096921,2096921,157314,663612,0
2096921,2096921,157179,663628,0
2096921,2096921,157649,663490,0
2096921,2096921,157631,663523,0
2096921,2096921,157396,663771,0
2096921,2096921,157356,663911,0
2096921,2096921,157406,663967,0
2096921,2096921,157499,663666,0
2096921,2096921,157702,663743,0
2096921,2096921,157743,663963,0
2096921,2096921,157523,664102,0
2096921,2096921,157580,664028,0
2096921,2096921,157509,664042,0
2096921,2096921,157597,664365,0
2096921,2096921,157767,664030,0
2096921,2096921,158084,664245,0
2096921,2096921,157856,664678,0
2096921,2096921,157883,664804,0
2096921,2096921,157849,664903,0
2096921,2096921,157923,664903,0
2096921,2096921,158145,664814,0
2096921,2096921,158364,665386,0
2096921,2096921,158240,665455,0
2096921,2096921,158283,665326,0
2096921,2096921,158092,665440,0
2096921,2096921,158273,665437,0
2096921,2096921,158110,665927,0
2096921,2096921,158241,666270,0
2096921,2096921,158348,666143,0
2096921,2096921,158239,666143,0
2096921,2096921,158268,666225,0
2096921,2096921,158450,666623,0
2096921,2096921,158332,666940,0
2096921,2096921,158371,666930,0
2096921,2096921,158503,666608,0
2096921,2096921,158633,666639,0
2096921,2096921,158752,667503,0
2096921,2096921,158930,667675,0
2096921,2096921,158750,667076,0
2096921,2096921,158711,667496,0
2096921,2096921,158499,667788,0
2096921,2096921,159248,668233,0
2096921,2096921,158932,668323,0
2096921,2096921,158810,668366,0
2096921,2096921,158928,668254,0
2096921,2096921,159054,668146,0
2096921,2096921,159007,668802,0
2096921,2096921,159141,668616,0
2096921,2096921,159073,668451,0
2096921,2096921,159211,668879,0
2096921,2096921,159224,669057,0
2096921,2096921,159180,669371,0
2096921,2096921,159400,669498,0
2096921,2096921,159502,669401,0
2096921,2096921,159441,669814,0
2096921,2096921,159408,669780,0
2096921,2096921,159503,670143,0
2096921,2096921,159621,670380,0
2096921,2096921,159665,670259,0
2096921,2096921,159526,670359,0
2096921,2096921,159599,670055,0
2096921,2096921,159622,670844,0
2096921,2096921,159699,670907,0
2096921,2096921,159892,670895,0
2096921,2096921,159927,671165,0
2096921,2096921,159943,671427,0
2096921,2096921,160077,671582,0
2096921,2096921,159948,671863,0
2096921,2096921,160120,671740,0
2096921,2096921,160093,671750,0
2096921,2096921,160402,672048,0
2096921,2096921,160402,672681,0
2096921,2096921,160227,672392,0
2096921,2096921,160329,672687,0
2096921,2096921,160345,672341,0
2096921,2096921,160554,672469,0
2096921,2096921,160321,672734,0
2096921,2096921,160363,672911,0
2096921,2096921,160399,673091,0
2096921,2096921,160530,673008,0
2096921,2096921,160840,673083,0
2096921,2096921,160692,673090,0
2096921,2096921,160801,673572,0
2096921,2096921,160674,673613,0
2096921,2096921,160619,673657,0
2096921,2096921,160631,673634,0
2096921,2096921,160588,673940,0
2096921,2096921,160715,673749,0
2096921,2096921,160617,673853,0
2096921,2096921,160853,673930,0
2096921,2096921,161116,674255,0
2096921,2096921,160997,674332,0
2096921,2096921,160970,674253,0
2096921,2096921,161115,674271,0
2096921,2096921,160906,674255,0
2096921,2096921,160957,674185,0
2096921,2096921,160855,674184,0
2096921,2096921,160828,674083,0
2096921,2096921,160658,674067,0
2096921,2096921,160680,674109,0
2096921,2096921,160714,674369,0
2096921,2096921,160869,674352,0
2096921,2096921,160833,674295,0
2096921,2096921,160904,674407,0
2096921,2096921,160827,674372,0
2096921,2096921,160901,674525,0
2096921,2096921,161292,674230,0
2096921,2096921,160840,674052,0
2096921,2096921,160938,674273,0
2096921,2096921,160857,674404,0
2096921,2096921,160897,674020,0
2096921,2096921,161024,674297,0
2096921,2096921,160968,673954,0
2096921,2096921,160810,674180,0
2096921,2096921,160599,673939,0
2096921,2096921,160570,674224,0
2096921,2096921,160779,673886,0
2096921,2096921,160717,673908,0
2096921,2096921,160547,674071,0
2096921,2096921,160790,673915,0
2096921,2096921,160460,673505,0
2096921,2096921,160835,673527,0
2096921,2096921,160648,673612,0
2096921,2096921,160789,673235,0
2096921,2096921,160424,673368,0
2096921,2096921,160287,673292,0
2096921,2096921,160272,673060,0
2096921,2096921,160416,673146,0
2096921,2096921,160396,673235,0
2096921,2096921,160382,672936,0
2096921,2096921,160008,672974,0
2096921,2096921,160277,672796,0
2096921,2096921,160294,672838,0
2096921,2096921,160421,672835,0
2096921,2096921,160464,672822,0
2096921,2096921,160502,672827,0
2096921,2096921,160410,672701,0
2096921,2096921,160127,672570,0
2096921,2096921,160297,672598,0
2096921,2096921,160474,672616,0
2096921,2096921,160307,672420,0
2096921,2096921,160629,672905,0
2096921,2096921,160841,672630,0
2096921,2096921,160383,672696,0
2096921,2096921,160270,672882,0
2096921,2096921,160310,672888,0
2096921,2096921,160175,672881,0
2096921,2096921,160094,672814,0
2096921,2096921,160162,672716,0
2096921,2096921,160368,672596,0
2096921,2096921,160423,672912,0
2096921,2096921,160445,672867,0
2096921,2096921,160656,672816,0
2096921,2096921,160400,672795,0
2096921,2096921,160600,672870,0
2096921,2096921,160595,672828,0
2096921,2096921,160486,672789,0
2096921,2096921,160572,673031,0
2096921,2096921,160774,672700,0
2096921,2096921,160428,672743,0
2096921,2096921,160494,672861,0
2096921,2096921,160447,673178,0
2096921,2096921,160225,673484,0
2096921,2096921,160751,673480,0
2096921,2096921,160604,673320,0
2096921,2096921,160514,673432,0
2096921,2096921,160606,673724,0
2096921,2096921,160713,673760,0
2096921,2096921,160724,673342,0
2096921,2096921,160916,673692,0
2096921,2096921,160719,673839,0
2096921,2096921,160785,674320,0
2096921,2096921,160779,674363,0
2096921,2096921,161050,674463,0
2096921,2096921,160896,673786,0
2096921,2096921,160768,674143,0
2096921,2096921,161028,674464,0
2096921,2096921,161023,674167,0
2096921,2096921,160971,674226,0
2096921,2096921,160919,674064,0
2096921,2096921,161070,674742,0
2096921,2096921,160767,674520,0
2096921,2096921,160969,674775,0
2096921,2096921,160952,674700,0
2096921,2096921,160896,674651,0
2096921,2096921,161057,674715,0
2096921,2096921,161260,674951,0
2096921,2096921,161150,674636,0
2096921,2096921,161272,674980,0
2096921,2096921,161186,674674,0
2096921,2096921,161041,674931,0
2096921,2096921,161216,675108,0
2096921,2096921,161407,675161,0
2096921,2096921,161425,675137,0
2096921,2096921,161349,675250,0
2096921,2096921,161176,675044,0
2096921,2096921,161300,675336,0
2096921,2096921,161100,675252,0
2096921,2096921,161053,675279,0
2096921,2096921,161208,675197,0
2096921,2096921,161199,675683,0
2096921,2096921,161260,675762,0
2096921,2096921,161422,675661,0
2096921,2096921,161794,675672,0
2096921,2096921,161542,675897,0
2096921,2096921,161696,675918,0
2096921,2096921,161773,675851,0
2096921,2096921,161392,675891,0
2096921,2096921,161625,676191,0
2096921,2096921,161473,676007,0
2096921,2096921,161627,675806,0
2096921,2096921,161821,676104,0
2096921,2096921,161601,676119,0
2096921,2096921,161914,676142,0
2096921,2096921,161670,675956,0
2096921,2096921,161920,676090,0
2096921,2096921,161642,676299,0
2096921,2096921,161541,676432,0
2096921,2096921,161627,675984,0
2096921,2096921,161634,676143,0
2096921,2096921,161573,676444,0
2096921,2096921,161821,676212,0
2096921,2096921,161703,676489,0
2096921,2096921,161599,676725,0
2096921,2096921,161775,676535,0
2096921,2096921,161703,676325,0
2096921,2096921,161878,676420,0
2096921,2096921,161679,676594,0
2096921,2096921,161767,676374,0
2096921,2096921,161878,676523,0
2096921,2096921,161948,677016,0
2096921,2096921,162262,676618,0
2096921,2096921,161928,676891,0
2096921,2096921,161850,676948,0
2096921,2096921,161857,676823,0
2096921,2096921,161900,677046,0
2096921,2096921,162047,677255,0
2096921,2096921,161989,676991,0
2096921,2096921,161928,676967,0
2096921,2096921,161975,677155,0
2096921,2096921,161947,677128,0
2096921,2096921,162049,677198,0
2096921,2096921,162216,677234,0
2096921,2096921,162047,677306,0
2096921,2096921,162096,677146,0
2096921,2096921,162020,677259,0
2096921,2096921,161933,677028,0
2096921,2096921,162053,677077,0
2096921,2096921,162021,677352,0
2096921,2096921,161793,677278,0
2096921,2096921,161830,677326,0
2096921,2096921,161835,677169,0
2096921,2096921,162012,677221,0
2096921,2096921,162173,676852,0
2096921,2096921,161941,676739,0
2096921,2096921,162094,676972,0
2096921,2096921,162062,677120,0
2096921,2096921,161955,677481,0
2096921,2096921,161876,677398,0
2096921,2096921,162133,677270,0
2096921,2096921,162192,677345,0
2096921,2096921,162230,677239,0
2096921,2096921,162020,677365,0
2096921,2096921,161948,677412,0
2096921,2096921,161938,677768,0
2096921,2096921,162267,677382,0
2096921,2096921,161929,677425,0
2096921,2096921,162251,677429,0
2096921,2096921,162286,677518,0
2096921,2096921,162115,677389,0
2096921,2096921,162163,677413,0
2096921,2096921,162169,677396,0
2096921,2096921,161955,677736,0
2096921,2096921,162187,677771,0
2096921,2096921,162111,677748,0
2096921,2096921,162113,677287,0
2096921,2096921,161937,677531,0
2096921,2096921,161945,677716,0
2096921,2096921,162220,677560,0
2096921,2096921,161924,677400,0
2096921,2096921,162048,677568,0
2096921,2096921,162091,677235,0
2096921,2096921,162064,677333,0
2096921,2096921,162162,677786,0
2096921,2096921,162452,677695,0
2096921,2096921,162343,677469,0
2096921,2096921,162239,677313,0
2096921,2096921,162307,677400,0
2096921,2096921,162250,677461,0
2096921,2096921,162040,677527,0
2096921,2096921,162140,677517,0
2096921,2096921,162137,677511,0
2096921,2096921,162413,677327,0
2096921,2096921,162244,677386,0
2096921,2096921,162354,677591,0
2096921,2096921,162278,677298,0
2096921,2096921,162072,677453,0
2096921,2096921,162269,677113,0
2096921,2096921,162278,677350,0
2096921,2096921,162266,677447,0
2096921,2096921,162477,677147,0
2096921,2096921,162483,676866,0
2096921,2096921,162114,677287,0
2096921,2096921,162101,677383,0
2096921,2096921,162202,677236,0
2096921,2096921,161951,677404,0
2096921,2096921,162081,677350,0
2096921,2096921,162237,677133,0
2096921,2096921,162027,676965,0
2096921,2096921,162151,677198,0
2096921,2096921,162164,677171,0
2096921,2096921,162397,676744,0
2096921,2096921,162232,677290,0
2096921,2096921,162203,676985,0
2096921,2096921,161927,677163,0
2096921,2096921,162189,677162,0
2096921,2096921,161865,676974,0
2096921,2096921,162059,677000,0
2096921,2096921,162157,677066,0
2096921,2096921,162209,677128,0
2096921,2096921,162010,677026,0
2096921,2096921,161746,676963,0
2096921,2096921,162154,676890,0
2096921,2096921,162311,676732,0
2096921,2096921,162018,676879,0
2096921,2096921,161937,676454,0
2096921,2096921,162020,676684,0
2096921,2096921,162081,677027,0
2096921,2096921,162149,676688,0
2096921,2096921,162099,676777,0
2096921,2096921,162118,676947,0
2096921,2096921,162198,676567,0
2096921,2096921,162291,676755,0
2096921,2096921,162079,676511,0
2096921,2096921,161999,676616,0
2096921,2096921,162175,676525,0
2096921,2096921,162118,676216,0
2096921,2096921,162000,676379,0
2096921,2096921,161997,676329,0
2096921,2096921,161898,676353,0
2096921,2096921,161811,676548,0
2096921,2096921,162090,676692,0
2096921,2096921,162122,676380,0
2096921,2096921,161967,676511,0
2096921,2096921,161838,676526,0
2096921,2096921,162078,676478,0
2096921,2096921,162059,676279,0
2096921,2096921,162153,676258,0
2096921,2096921,162080,676091,0
2096921,2096921,162130,676121,0
2096921,2096921,162180,675953,0
2096921,2096921,162101,676088,0
2096921,2096921,161974,676174,0
2096921,2096921,161800,676208,0
2096921,2096921,161964,676101,0
2096921,2096921,162068,675888,0
2096921,2096921,161776,675884,0
2096921,2096921,161859,675729,0
2096921,2096921,162108,675771,0
2096921,2096921,162053,676021,0
2096921,2096921,162087,675997,0
2096921,2096921,162035,675679,0
2096921,2096921,162079,675583,0
2096921,2096921,162033,675990,0
2096921,2096921,162157,675971,0
2096921,2096921,161936,675706,0
2096921,2096921,161920,675740,0
2096921,2096921,161678,675449,0
2096921,2096921,161967,675318,0
2096921,2096921,161795,675321,0
2096921,2096921,161949,675871,0
2096921,2096921,162022,675517,0
2096921,2096921,162151,675351,0
2096921,2096921,161918,675640,0
2096921,2096921,161900,675591,0
2096921,2096921,161978,675495,0
2096921,2096921,161830,675531,0
2096921,2096921,161931,675461,0
2096921,2096921,161715,674980,0
2096921,2096921,162039,675125,0
2096921,2096921,162072,675250,0
2096921,2096921,161946,675036,0
2096921,2096921,161895,675029,0
2096921,2096921,161946,674879,0
2096921,2096921,161850,675271,0
2096921,2096921,161509,675131,0
2096921,2096921,161607,674622,0
2096921,2096921,161601,674700,0
2096921,2096921,161699,674579,0
2096921,2096921,161268,674627,0
2096921,2096921,161489,674797,0
2096921,2096921,161633,674566,0
2096921,2096921,161557,674430,0
2096921,2096921,161543,674868,0
2096921,2096921,161714,674314,0
2096921,2096921,161509,674726,0
2096921,2096921,161596,674440,0
2096921,2096921,161653,674354,0
2096921,2096921,161986,674168,0
2096921,2096921,161747,674215,0
2096921,2096921,161475,674280,0
2096921,2096921,161170,673987,0
2096921,2096921,161164,673776,0
2096921,2096921,161542,674128,0
2096921,2096921,161607,674227,0
2096921,2096921,161742,673606,0
2096921,2096921,161365,673798,0
2096921,2096921,161639,673764,0
2096921,2096921,161367,673656,0
2096921,2096921,161268,673938,0
2096921,2096921,161361,673688,0
2096921,2096921,161164,673487,0
2096921,2096921,161165,673339,0
2096921,2096921,161228,673349,0
2096921,2096921,161254,673488,0
2096921,2096921,161261,673390,0
2096921,2096921,161454,672983,0
2096921,2096921,161424,673062,0
2096921,2096921,161355,673348,0
2096921,2096921,161364,673211,0
2096921,2096921,161209,673210,0
2096921,2096921,161283,673017,0
2096921,2096921,161296,673026,0
2096921,2096921,161365,673149,0
2096921,2096921,161475,673123,0
2096921,2096921,160977,672862,0
2096921,2096921,160788,671996,0
2096921,2096921,161262,672024,0
2096921,2096921,161193,671819,0
2096921,2096921,160995,672044,0
2096921,2096921,160920,671990,0
2096921,2096921,160712,671337,0
2096921,2096921,160633,671215,0
2096921,2096921,160655,671311,0
2096921,2096921,160869,671524,0
2096921,2096921,160322,670980,0
2096921,2096921,160300,670197,0
2096921,2096921,160191,669874,0
2096921,2096921,160378,669728,0
2096921,2096921,160451,670123,0
2096921,2096921,160057,669790,0
2096921,2096921,159985,668733,0
2096921,2096921,159929,668328,0
2096921,2096921,159989,668387,0
2096921,2096921,159562,668431,0
2096921,2096921,159458,668291,0
2096921,2096921,159607,666793,0
2096921,2096921,159219,666729,0
2096921,2096921,159203,666566,0
2096921,2096921,159355,666724,0
2096921,2096921,158677,665830,0
2096921,2096921,158443,664006,0
2096921,2096921,158203,663564,0
2096921,2096921,158222,663420,0
2096921,2096921,157994,663279,0
2096921,2096921,157202,662603,0
2096921,2096921,157004,659946,0
2096921,2096921,156925,659428,0
2096921,2096921,156887,659264,0
2096921,2096921,156970,658956,0
2096921,2096921,156110,658465,0
2096921,2096921,156108,656463,0
2096921,2096921,156180,656257,0
2096921,2096921,155724,656032,0
2096921,2096921,155648,656350,0
2096921,2096921,155136,655417,0
2096921,2096921,155273,654026,0
2096921,2096921,155217,653660,0
2096921,2096921,155408,653411,0
2096921,2096921,155464,653106,0
2096921,2096921,154795,652996,0
2096921,2096921,154661,652401,0
2096921,2096921,154862,651848,0
2096921,2096921,154654,651764,0
2096921,2096921,154778,651875,0
2096921,2096921,154330,651386,0
2096921,2096921,154387,650470,0
2096921,2096921,154059,650283,0
2096921,2096921,154322,650464,0
2096921,2096921,154099,650393,0
2096921,2096921,153923,650022,0
2096921,2096921,154074,649270,0
2096921,2096921,153854,649140,0
2096921,2096921,153866,649163,0
2096921,2096921,153778,649305,0
2096921,2096921,153542,649372,0
2096921,2096921,153674,648556,0
2096921,2096921,153690,648088,0
2096921,2096921,153832,648437,0
2096921,2096921,153620,648368,0
2096921,2096921,153816,648620,0
2096921,2096921,153621,648008,0
2096921,2096921,153635,648294,0
2096921,2096921,153852,648027,0
2096921,2096921,153551,647858,0
2096921,2096921,153598,647917,0
2096921,2096921,153392,647673,0
2096921,2096921,153414,647886,0
2096921,2096921,153512,647928,0
2096921,2096921,153570,647597,0
2096921,2096921,153486,648116,0
2096921,2096921,153567,648346,0
2096921,2096921,153693,648017,0
2096921,2096921,153337,648158,0
2096921,2096921,153419,647906,0
2096921,2096921,153597,648082,0
2096921,2096921,153304,647829,0
2096921,2096921,153525,647917,0
2096921,2096921,153675,648188,0
2096921,2096921,153321,648223,0
2096921,2096921,153574,648346,0
2096921,2096921,153583,647922,0
2096921,2096921,153547,648161,0
2096921,2096921,153468,648111,0
2096921,2096921,153359,647723,0
2096921,2096921,153606,648068,0
2096921,2096921,153650,648467,0
2096921,2096921,153701,648210,0
2096921,2096921,153739,648368,0
2096921,2096921,153633,648722,0
2096921,2096921,153960,648555,0
2096921,2096921,153958,648752,0
2096921,2096921,153708,649050,0
2096921,2096921,154035,649006,0
2096921,2096921,154078,649102,0
2096921,2096921,153946,649425,0
2096921,2096921,154126,649510,0
2096921,2096921,154069,649311,0
2096921,2096921,154263,649204,0
2096921,2096921,154282,649331,0
2096921,2096921,154091,649542,0
2096921,2096921,154229,650001,0
2096921,2096921,154266,650021,0
2096921,2096921,154188,649689,0
2096921,2096921,154182,649781,0
2096921,2096921,154402,649978,0
2096921,2096921,154341,650016,0
2096921,2096921,154561,650211,0
2096921,2096921,154432,650410,0
2096921,2096921,154367,649919,0
2096921,2096921,154579,650580,0
2096921,2096921,154443,650860,0
2096921,2096921,154773,650701,0
2096921,2096921,154716,650931,0
2096921,2096921,154489,650842,0
2096921,2096921,154656,651011,0
2096921,2096921,154129,651258,0
2096921,2096921,154418,651085,0
2096921,2096921,154751,651202,0
2096921,2096921,154310,651358,0
2096921,2096921,154520,651685,0
2096921,2096921,154874,651627,0
2096921,2096921,154848,651510,0
2096921,2096921,154930,651599,0
2096921,2096921,154838,652099,0
2096921,2096921,154934,652017,0
2096921,2096921,154678,652295,0
2096921,2096921,154866,652130,0
2096921,2096921,155049,652360,0
2096921,2096921,155074,652194,0
2096921,2096921,155173,652274,0
2096921,2096921,155173,652527,0
2096921,2096921,155502,652649,0
2096921,2096921,155542,652641,0
2096921,2096921,155232,652890,0
2096921,2096921,155485,653059,0
2096921,2096921,155578,653301,0
2096921,2096921,155613,653119,0
2096921,2096921,155532,653338,0
2096921,2096921,155386,653521,0
2096921,2096921,155942,653602,0
2096921,2096921,155617,653750,0
2096921,2096921,155756,654030,0
2096921,2096921,155604,653893,0
2096921,2096921,155685,654015,0
2096921,2096921,155480,654297,0
2096921,2096921,155692,654424,0
2096921,2096921,155719,654546,0
2096921,2096921,155707,654246,0
2096921,2096921,155814,654303,0
2096921,2096921,156049,654326,0
2096921,2096921,156116,654861,0
2096921,2096921,155900,654579,0
2096921,2096921,155955,654933,0
2096921,2096921,155943,654706,0
2096921,2096921,155973,654725,0
2096921,2096921,156033,654839,0
2096921,2096921,155949,655112,0
2096921,2096921,155870,655039,0
2096921,2096921,156023,655015,0
2096921,2096921,156311,655194,0
2096921,2096921,155918,655455,0
2096921,2096921,155902,655087,0
2096921,2096921,155954,654962,0
2096921,2096921,155985,655232,0
2096921,2096921,155808,655186,0
2096921,2096921,155799,655306,0
2096921,2096921,156016,655481,0
2096921,2096921,155911,655136,0
2096921,2096921,155911,655410,0
2096921,2096921,155856,654944,0
2096921,2096921,156125,654899,0
2096921,2096921,155801,654964,0
2096921,2096921,156209,655222,0
2096921,2096921,156320,655243,0
2096921,2096921,156181,655314,0
2096921,2096921,156047,655343,0
2096921,2096921,155843,654923,0
2096921,2096921,156029,655121,0
2096921,2096921,155917,655084,0
2096921,2096921,155841,654850,0
2096921,2096921,155804,654810,0
2096921,2096921,155878,654903,0
2096921,2096921,156159,654879,0
2096921,2096921,156114,654882,0
2096921,2096921,155825,654654,0
2096921,2096921,156179,654361,0
2096921,2096921,155761,654609,0
2096921,2096921,156111,654066,0
2096921,2096921,155938,654490,0
2096921,2096921,155756,654456,0
2096921,2096921,155717,654235,0
2096921,2096921,156058,654339,0
2096921,2096921,156010,654157,0
2096921,2096921,155859,654204,0
2096921,2096921,155691,654060,0
2096921,2096921,155708,653874,0
2096921,2096921,155411,653980,0
2096921,2096921,155640,653683,0
2096921,2096921,155416,653863,0
2096921,2096921,155709,653804,0
2096921,2096921,155448,653754,0
2096921,2096921,155795,653769,0
2096921,2096921,155459,653734,0
2096921,2096921,155775,653527,0
2096921,2096921,155727,653584,0
2096921,2096921,155632,653422,0
2096921,2096921,155194,653549,0
2096921,2096921,155667,653332,0
2096921,2096921,155551,653488,0
2096921,2096921,155443,653470,0
2096921,2096921,155603,653261,0
2096921,2096921,155309,653239,0
2096921,2096921,155451,653101,0
2096921,2096921,155337,653341,0
2096921,2096921,155605,653483,0
2096921,2096921,155509,653434,0
2096921,2096921,155283,653257,0
2096921,2096921,155399,653273,0
2096921,2096921,155494,653546,0
2096921,2096921,155607,653321,0
2096921,2096921,155653,653571,0
2096921,2096921,155580,653416,0
2096921,2096921,155673,653348,0
2096921,2096921,155572,653513,0
2096921,2096921,155817,653664,0
2096921,2096921,155618,653836,0
2096921,2096921,155590,653764,0
2096921,2096921,155440,653819,0
2096921,2096921,155508,653873,0
2096921,2096921,155773,653911,0
2096921,2096921,155737,654225,0
2096921,2096921,155767,654173,0
2096921,2096921,155822,654203,0
2096921,2096921,156066,654463,0
2096921,2096921,156093,654503,0
2096921,2096921,156153,654696,0
2096921,2096921,156043,654313,0
2096921,2096921,156209,654656,0
2096921,2096921,156171,654686,0
2096921,2096921,156141,654914,0
2096921,2096921,156160,655262,0
2096921,2096921,156352,655213,0
2096921,2096921,156182,655092,0
2096921,2096921,156093,655259,0
2096921,2096921,156028,655212,0
2096921,2096921,156253,655439,0
2096921,2096921,156268,655531,0
2096921,2096921,156258,655585,0
2096921,2096921,156003,655570,0
2096921,2096921,156337,655584,0
2096921,2096921,155991,655917,0
2096921,2096921,156350,655733,0
2096921,2096921,156345,656030,0
2096921,2096921,156425,656121,0
2096921,2096921,156757,655820,0
2096921,2096921,156590,656246,0
2096921,2096921,156802,656314,0
2096921,2096921,156567,655863,0
2096921,2096921,156682,655979,0
2096921,2096921,156585,656252,0
2096921,2096921,156669,656343,0
2096921,2096921,156527,656458,0
2096921,2096921,156743,656488,0
2096921,2096921,156698,656398,0
2096921,2096921,156511,656659,0
2096921,2096921,156660,656861,0
2096921,2096921,156834,657028,0
2096921,2096921,156953,657437,0
2096921,2096921,156717,657142,0
2096921,2096921,156685,657099,0
2096921,2096921,156795,657487,0
2096921,2096921,156988,657630,0
2096921,2096921,156975,657464,0
2096921,2096921,156814,657466,0
2096921,2096921,156755,657500,0
2096921,2096921,156833,658093,0
2096921,2096921,157030,657832,0
2096921,2096921,156955,657772,0
2096921,2096921,156995,657665,0
2096921,2096921,157254,657933,0
2096921,2096921,157280,658376,0
2096921,2096921,157092,658197,0
2096921,2096921,157608,658428,0
2096921,2096921,157447,658529,0
2096921,2096921,157209,658349,0
2096921,2096921,157284,658448,0
2096921,2096921,157342,658352,0
2096921,2096921,157477,658463,0
2096921,2096921,157055,658488,0
2096921,2096921,157257,659031,0
2096921,2096921,157357,659148,0
2096921,2096921,157384,659083,0
2096921,2096921,157457,658769,0
2096921,2096921,157377,658806,0
2096921,2096921,157503,658959,0
2096921,2096921,157344,659130,0
2096921,2096921,157273,659248,0
2096921,2096921,157430,659385,0
2096921,2096921,157409,659390,0
2096921,2096921,157373,659615,0
2096921,2096921,157614,659511,0
2096921,2096921,157291,659767,0
2096921,2096921,157644,659958,0
2096921,2096921,157488,659870,0
2096921,2096921,157728,659457,0
2096921,2096921,157341,660256,0
2096921,2096921,157587,659978,0
2096921,2096921,157663,659964,0
2096921,2096921,157702,660121,0
2096921,2096921,157587,659794,0
2096921,2096921,157464,660145,0
2096921,2096921,157842,660138,0
2096921,2096921,157774,660384,0
2096921,2096921,157704,660440,0
2096921,2096921,157860,660688,0
2096921,2096921,157833,660592,0
2096921,2096921,157931,660583,0
2096921,2096921,157770,660551,0
2096921,2096921,157693,660758,0
2096921,2096921,157806,660579,0
2096921,2096921,157794,660682,0
2096921,2096921,157874,661093,0
2096921,2096921,157892,660920,0
2096921,2096921,157830,660626,0
2096921,2096921,157653,660876,0
2096921,2096921,157951,661250,0
2096921,2096921,157972,660967,0
2096921,2096921,158058,660934,0
2096921,2096921,158153,661463,0
2096921,2096921,158363,661296,0
2096921,2096921,158101,661461,0
2096921,2096921,158063,661263,0
2096921,2096921,158071,661451,0
2096921,2096921,158148,661566,0
2096921,2096921,158293,661588,0
2096921,2096921,158042,661422,0
2096921,2096921,158043,661595,0
2096921,2096921,157958,661687,0
2096921,2096921,158264,661496,0
2096921,2096921,158137,661925,0
2096921,2096921,158174,662010,0
2096921,2096921,158268,661843,0
2096921,2096921,158397,662096,0
2096921,2096921,158225,662151,0
2096921,2096921,158480,662094,0
2096921,2096921,158466,662280,0
2096921,2096921,158041,662079,0
2096921,2096921,158308,662181,0
2096921,2096921,158097,662425,0
2096921,2096921,158532,662335,0
2096921,2096921,158465,662421,0
2096921,2096921,158730,662309,0
2096921,2096921,158500,662392,0
2096921,2096921,158467,662340,0
2096921,2096921,158587,662548,0
2096921,2096921,158454,662541,0
2096921,2096921,158317,662597,0
2096921,2096921,158503,662530,0
2096921,2096921,158672,662591,0
2096921,2096921,158233,662687,0
2096921,2096921,158512,662625,0
2096921,2096921,158691,662464,0
2096921,2096921,158497,662634,0
2096921,2096921,158561,662999,0
2096921,2096921,158798,662919,0
2096921,2096921,158951,663053,0
2096921,2096921,158569,662747,0
2096921,2096921,158562,662954,0
2096921,2096921,158484,663113,0
2096921,2096921,158447,662965,0
2096921,2096921,158699,663121,0
2096921,2096921,159051,662865,0
2096921,2096921,158824,663001,0
2096921,2096921,158920,663054,0
2096921,2096921,158857,663055,0
2096921,2096921,158865,662912,0
2096921,2096921,158620,663082,0
2096921,2096921,158529,663079,0
2096921,2096921,158616,663240,0
2096921,2096921,158926,663270,0
2096921,2096921,158479,663322,0
2096921,2096921,158762,663622,0
2096921,2096921,158824,663672,0
2096921,2096921,159000,663392,0
2096921,2096921,159133,663577,0
2096921,2096921,158672,663622,0
2096921,2096921,158752,663659,0
2096921,2096921,158616,663495,0
2096921,2096921,158710,663704,0
2096921,2096921,159026,663409,0
2096921,2096921,159155,663809,0
2096921,2096921,158807,663573,0
2096921,2096921,158638,663903,0
2096921,2096921,158847,663587,0
2096921,2096921,158939,664001,0
2096921,2096921,158971,663897,0
2096921,2096921,159148,663816,0
2096921,2096921,158905,663892,0
2096921,2096921,159036,663618,0
2096921,2096921,159231,663682,0
2096921,2096921,158889,663821,0
2096921,2096921,158985,663873,0
2096921,2096921,159035,663862,0
2096921,2096921,158613,663977,0
2096921,2096921,158897,664059,0
2096921,2096921,158743,664142,0
2096921,2096921,158972,664223,0
2096921,2096921,158762,664170,0
2096921,2096921,159064,663897,0
2096921,2096921,159167,663996,0
2096921,2096921,159207,663993,0
2096921,2096921,159081,664391,0
2096921,2096921,159054,664193,0
2096921,2096921,159104,664466,0
2096921,2096921,159281,664223,0
2096921,2096921,159059,664222,0
2096921,2096921,158877,664414,0
2096921,2096921,159090,664443,0
2096921,2096921,159137,664487,0
2096921,2096921,159063,664468,0
2096921,2096921,159389,664596,0
2096921,2096921,159001,664290,0
2096921,2096921,158924,664436,0
2096921,2096921,159371,664444,0
2096921,2096921,158949,664453,0
2096921,2096921,159322,664742,0
2096921,2096921,159611,664875,0
2096921,2096921,159188,664786,0
2096921,2096921,159171,664978,0
2096921,2096921,159018,664659,0
2096921,2096921,159288,664655,0
2096921,2096921,159171,664982,0
2096921,2096921,159155,664792,0
2096921,2096921,159302,665071,0
2096921,2096921,159159,664951,0
2096921,2096921,158893,664763,0
2096921,2096921,158943,664849,0
2096921,2096921,159309,664918,0
2096921,2096921,159182,665175,0
2096921,2096921,159408,664885,0
2096921,2096921,159411,665098,0
2096921,2096921,159409,665131,0
2096921,2096921,159310,665206,0
2096921,2096921,159432,665053,0
2096921,2096921,159254,665181,0
2096921,2096921,159119,665045,0
2096921,2096921,159442,665125,0
2096921,2096921,159028,664813,0
2096921,2096921,159216,665327,0
2096921,2096921,159549,665546,0
2096921,2096921,159392,665398,0
2096921,2096921,159257,665303,0
2096921,2096921,159372,665359,0
2096921,2096921,159468,665222,0
2096921,2096921,159634,665286,0
2096921,2096921,159441,665515,0
2096921,2096921,159586,665440,0
2096921,2096921,159356,665444,0
2096921,2096921,159290,665584,0
2096921,2096921,159331,665304,0
2096921,2096921,159454,665279,0
2096921,2096921,159320,665344,0
2096921,2096921,159279,665376,0
2096921,2096921,159214,665557,0
2096921,2096921,159547,665581,0
2096921,2096921,159387,665804,0
2096921,2096921,159280,665666,0
2096921,2096921,159057,665834,0
2096921,2096921,159014,665507,0
2096921,2096921,159559,665320,0
2096921,2096921,159103,665228,0
2096921,2096921,159267,665758,0
2096921,2096921,159308,665653,0
2096921,2096921,159767,665807,0
2096921,2096921,159344,665575,0
2096921,2096921,159505,665415,0
2096921,2096921,159376,665742,0
2096921,2096921,159491,665858,0
2096921,2096921,159507,665838,0
2096921,2096921,159478,665687,0
2096921,2096921,159205,666004,0
2096921,2096921,159194,665862,0
2096921,2096921,159258,665578,0
2096921,2096921,159498,665535,0
2096921,2096921,159341,665656,0
2096921,2096921,159170,666004,0
2096921,2096921,159135,665665,0
2096921,2096921,159191,665614,0
2096921,2096921,159322,665741,0
2096921,2096921,159156,665771,0
2096921,2096921,159537,666060,0
2096921,2096921,159630,665844,0
2096921,2096921,159661,665891,0
2096921,2096921,159316,666093,0
2096921,2096921,159249,665783,0
2096921,2096921,159079,665580,0
2096921,2096921,159198,665755,0
2096921,2096921,159273,665856,0
2096921,2096921,159410,665559,0
2096921,2096921,159284,665506,0
2096921,2096921,159232,665089,0
2096921,2096921,159137,665301,0
2096921,2096921,159336,665162,0
2096921,2096921,159111,665084,0
2096921,2096921,158896,664794,0
2096921,2096921,159023,664627,0
2096921,2096921,158878,664215,0
2096921,2096921,158937,664201,0
2096921,2096921,158887,664087,0
2096921,2096921,158829,663760,0
2096921,2096921,158581,663118,0
2096921,2096921,158565,663196,0
2096921,2096921,158589,663040,0
2096921,2096921,158796,663227,0
2096921,2096921,158155,662809,0
2096921,2096921,158243,662277,0
2096921,2096921,158060,661884,0
2096921,2096921,157785,661803,0
2096921,2096921,157896,661897,0
2096921,2096921,157092,660585,0
2096921,2096921,157030,659282,0
2096921,2096921,157278,658886,0
2096921,2096921,157472,658832,0
2096921,2096921,157160,659036,0
2096921,2096921,155985,657646,0
2096921,2096921,155838,655314,0
2096921,2096921,155681,655225,0
2096921,2096921,155871,655213,0
2096921,2096921,155905,655003,0
2096921,2096921,155187,654080,0
2096921,2096921,155122,652842,0
2096921,2096921,155125,652495,0
2096921,2096921,155036,652255,0
2096921,2096921,155033,652342,0
2096921,2096921,154612,651941,0
2096921,2096921,154588,650578,0
2096921,2096921,154439,650295,0
2096921,2096921,154438,649963,0
2096921,2096921,154360,650193,0
2096921,2096921,153913,649413,0
2096921,2096921,154093,648877,0
2096921,2096921,154147,649061,0
2096921,2096921,154094,649160,0
2096921,2096921,154145,648994,0
2096921,2096921,153559,648423,0
2096921,2096921,153500,648112,0
2096921,2096921,153673,647946,0
2096921,2096921,153418,647813,0
2096921,2096921,153332,647901,0
2096921,2096921,153579,647515,0
2096921,2096921,153576,647277,0
2096921,2096921,153536,647338,0
2096921,2096921,153518,647186,0
2096921,2096921,153503,647450,0
2096921,2096921,153717,647374,0
2096921,2096921,153650,647310,0
2096921,2096921,153296,647170,0
2096921,2096921,153232,647049,0
2096921,2096921,153643,646578,0
2096921,2096921,153244,646680,0
2096921,2096921,152965,646717,0
2096921,2096921,153140,646798,0
2096921,2096921,153093,646934,0
2096921,2096921,153485,646734,0
2096921,2096921,153214,646799,0
2096921,2096921,153188,647186,0
2096921,2096921,153312,646829,0
2096921,2096921,153464,646935,0
2096921,2096921,153315,646876,0
2096921,2096921,152987,646953,0
2096921,2096921,153277,647168,0
2096921,2096921,153308,647439,0
2096921,2096921,153643,647566,0
2096921,2096921,153458,647530,0
2096921,2096921,153594,647398,0
2096921,2096921,153637,647811,0
2096921,2096921,153639,647995,0
2096921,2096921,153614,647898,0
2096921,2096921,153602,648291,0
2096921,2096921,153618,648112,0
2096921,2096921,153597,648082,0
2096921,2096921,153881,648240,0
2096921,2096921,153694,648268,0
2096921,2096921,153625,648341,0
2096921,2096921,153894,648705,0
2096921,2096921,153997,649084,0
2096921,2096921,153975,649081,0
2096921,2096921,153694,649223,0
2096921,2096921,153991,649104,0
2096921,2096921,154223,649428,0
2096921,2096921,154325,650027,0
2096921,2096921,153995,649945,0
2096921,2096921,154394,649882,0
2096921,2096921,154399,650005,0
2096921,2096921,154223,650334,0
2096921,2096921,154378,650713,0
2096921,2096921,154531,650893,0
2096921,2096921,154368,651277,0
2096921,2096921,154455,650786,0
2096921,2096921,154565,651358,0
2096921,2096921,154763,651518,0
2096921,2096921,154639,651736,0
2096921,2096921,154577,651805,0
2096921,2096921,155060,651692,0
2096921,2096921,155281,652108,0
2096921,2096921,154915,652725,0
2096921,2096921,155007,652723,0
2096921,2096921,155001,653031,0
2096921,2096921,155108,652854,0
2096921,2096921,155666,652915,0
2096921,2096921,155129,653660,0
2096921,2096921,155364,653722,0
2096921,2096921,155405,653429,0
2096921,2096921,155227,653831,0
2096921,2096921,155582,654087,0
2096921,2096921,155328,654270,0
2096921,2096921,155303,654781,0
2096921,2096921,155563,654701,0
2096921,2096921,155624,654540,0
2096921,2096921,155786,654629,0
2096921,2096921,155802,655046,0
2096921,2096921,155976,655538,0
2096921,2096921,155906,655393,0
2096921,2096921,155606,655462,0
2096921,2096921,156004,655681,0
2096921,2096921,155720,656474,0
2096921,2096921,155958,656585,0
2096921,2096921,156226,656610,0
2096921,2096921,156371,656722,0
2096921,2096921,156237,656695,0
2096921,2096921,156237,657174,0
2096921,2096921,156372,657421,0
2096921,2096921,156062,657328,0
2096921,2096921,156369,657445,0
2096921,2096921,156796,657501,0
2096921,2096921,156536,658309,0
2096921,2096921,156595,658424,0
2096921,2096921,156509,658339,0
2096921,2096921,156627,658404,0
2096921,2096921,156640,658449,0
2096921,2096921,157115,659176,0
2096921,2096921,157081,659262,0
2096921,2096921,157090,659392,0
2096921,2096921,157202,659274,0
2096921,2096921,157270,659540,0
2096921,2096921,157170,660058,0
2096921,2096921,157111,660064,0
2096921,2096921,156900,660125,0
2096921,2096921,156919,660107,0
2096921,2096921,157080,660179,0
2096921,2096921,157367,660699,0
2096921,2096921,157752,661143,0
2096921,2096921,157443,660950,0
2096921,2096921,157663,660938,0
2096921,2096921,157500,660848,0
2096921,2096921,157597,661315,0
2096921,2096921,157667,661329,0
2096921,2096921,157477,661439,0
2096921,2096921,157685,661163,0
2096921,2096921,158092,661547,0
2096921,2096921,157600,662251,0
2096921,2096921,157733,662052,0
2096921,2096921,157970,661963,0
2096921,2096921,158026,662149,0
2096921,2096921,157885,662216,0
2096921,2096921,157956,662379,0
2096921,2096921,157927,662525,0
2096921,2096921,157831,662471,0
2096921,2096921,158045,662312,0
2096921,2096921,157836,662252,0
2096921,2096921,157905,662734,0
2096921,2096921,157925,662764,0
2096921,2096921,157752,662816,0
2096921,2096921,157889,662859,0
2096921,2096921,158229,662782,0
2096921,2096921,158004,662666,0
2096921,2096921,158021,662798,0
2096921,2096921,158088,662839,0
2096921,2096921,157868,662829,0
2096921,2096921,157835,662910,0
2096921,2096921,158136,662866,0
2096921,2096921,157951,663194,0
2096921,2096921,158019,663026,0
2096921,2096921,158057,663301,0
2096921,2096921,157933,663076,0
2096921,2096921,157677,662953,0
2096921,2096921,157786,662812,0
2096921,2096921,157695,663062,0
2096921,2096921,157718,663131,0
2096921,2096921,157665,662828,0
2096921,2096921,157976,663096,0
2096921,2096921,157877,663125,0
2096921,2096921,158009,663186,0
2096921,2096921,158127,663378,0
2096921,2096921,157875,663188,0
2096921,2096921,158043,663156,0
2096921,2096921,157994,663250,0
2096921,2096921,157920,663014,0
2096921,2096921,157830,663200,0
2096921,2096921,158143,663346,0
2096921,2096921,158256,663036,0
2096921,2096921,157934,663138,0
2096921,2096921,157808,663488,0
2096921,2096921,157928,663330,0
2096921,2096921,158103,663127,0
2096921,2096921,158135,662964,0
2096921,2096921,158136,663044,0
2096921,2096921,157999,663394,0
2096921,2096921,157954,663456,0
2096921,2096921,158080,663358,0
2096921,2096921,157979,663450,0
2096921,2096921,158403,663294,0
2096921,2096921,158189,663456,0
2096921,2096921,158308,663611,0
2096921,2096921,158298,663555,0
2096921,2096921,157962,663554,0
2096921,2096921,158096,663950,0
2096921,2096921,158068,664328,0
2096921,2096921,158021,663949,0
2096921,2096921,158098,663977,0
2096921,2096921,158506,664339,0
2096921,2096921,158264,664511,0
2096921,2096921,158360,664522,0
2096921,2096921,158204,664376,0
2096921,2096921,158545,664419,0
2096921,2096921,158335,664796,0
2096921,2096921,158376,664865,0
2096921,2096921,158411,664705,0
2096921,2096921,158068,664935,0
2096921,2096921,158462,664882,0
2096921,2096921,158692,665444,0
2096921,2096921,158829,665469,0
2096921,2096921,158743,665874,0
2096921,2096921,158385,665634,0
2096921,2096921,158873,665744,0
2096921,2096921,158794,666288,0
2096921,2096921,158989,666375,0
2096921,2096921,158874,666471,0
2096921,2096921,158737,666185,0
2096921,2096921,158908,666547,0
2096921,2096921,158974,666836,0
2096921,2096921,159280,667135,0
2096921,2096921,159392,667446,0
2096921,2096921,159551,666992,0
2096921,2096921,159275,667011,0
2096921,2096921,159641,667536,0
2096921,2096921,159460,667699,0
2096921,2096921,159420,668072,0
2096921,2096921,159539,667819,0
2096921,2096921,159423,668231,0
2096921,2096921,159121,668256,0
2096921,2096921,159254,668443,0
2096921,2096921,159332,668666,0
2096921,2096921,159587,668432,0
2096921,2096921,159441,668307,0
2096921,2096921,159291,668928,0
2096921,2096921,159630,668865,0
2096921,2096921,159783,668897,0
2096921,2096921,159723,669217,0
2096921,2096921,159988,669042,0
2096921,2096921,159974,669314,0
2096921,2096921,160058,669659,0
2096921,2096921,159884,669585,0
2096921,2096921,160044,669473,0
2096921,2096921,160325,669931,0
2096921,2096921,160265,670121,0
2096921,2096921,160131,670238,0
2096921,2096921,159970,670182,0
2096921,2096921,160080,670618,0
2096921,2096921,160310,670680,0
2096921,2096921,160030,670738,0
2096921,2096921,160376,671068,0
2096921,2096921,160398,671047,0
2096921,2096921,160470,670818,0
2096921,2096921,160473,671364,0
2096921,2096921,160439,671519,0
2096921,2096921,160242,671388,0
2096921,2096921,160300,671829,0
2096921,2096921,160662,671618,0
2096921,2096921,160880,671812,0
2096921,2096921,160694,672421,0
2096921,2096921,160660,672358,0
2096921,2096921,160742,672665,0
2096921,2096921,160595,672384,0
2096921,2096921,160797,672581,0
2096921,2096921,160623,673027,0
2096921,2096921,160519,672940,0
2096921,2096921,160630,672996,0
2096921,2096921,160646,672684,0
2096921,2096921,160970,672634,0
2096921,2096921,160978,673359,0
2096921,2096921,161084,673586,0
2096921,2096921,161004,673436,0
2096921,2096921,160948,673566,0
2096921,2096921,161095,673598,0
2096921,2096921,161195,673723,0
2096921,2096921,161012,674129,0
2096921,2096921,160965,674055,0
2096921,2096921,161099,674210,0
2096921,2096921,161293,674200,0
2096921,2096921,161335,674571,0
2096921,2096921,161481,674472,0
2096921,2096921,161438,674891,0
2096921,2096921,161149,674835,0
2096921,2096921,161413,675174,0
2096921,2096921,161508,675221,0
2096921,2096921,161450,675170,0
2096921,2096921,161379,675198,0
2096921,2096921,161283,675023,0
2096921,2096921,161260,675102,0
2096921,2096921,161633,675635,0
2096921,2096921,161721,675647,0
2096921,2096921,161541,676282,0
2096921,2096921,161730,675644,0
2096921,2096921,161879,675907,0
2096921,2096921,161841,676217,0
2096921,2096921,161813,676162,0
2096921,2096921,161927,676270,0
2096921,2096921,161742,676228,0
2096921,2096921,161771,676399,0
2096921,2096921,161810,676546,0
2096921,2096921,161826,676788,0
2096921,2096921,161943,676871,0
2096921,2096921,161983,676647,0
2096921,2096921,162120,676870,0
2096921,2096921,161896,677302,0
2096921,2096921,161958,677146,0
2096921,2096921,161960,677405,0
2096921,2096921,162040,677198,0
2096921,2096921,162135,677405,0
2096921,2096921,162079,677538,0
2096921,2096921,162134,677661,0
2096921,2096921,162135,677635,0
2096921,2096921,162383,677625,0
2096921,2096921,162267,677920,0
2096921,2096921,162456,678026,0
2096921,2096921,162115,678298,0
2096921,2096921,162294,678478,0
2096921,2096921,162298,678229,0
2096921,2096921,162466,678102,0
2096921,2096921,162538,678413,0
2096921,2096921,162449,678600,0
2096921,2096921,162811,678788,0
2096921,2096921,162878,678459,0
2096921,2096921,162680,679010,0
2096921,2096921,162685,679381,0
2096921,2096921,162715,679263,0
2096921,2096921,162721,679313,0
2096921,2096921,162469,679189,0
2096921,2096921,162656,679183,0
2096921,2096921,162474,679580,0
2096921,2096921,162858,679422,0
2096921,2096921,162776,679549,0
2096921,2096921,163023,679844,0
2096921,2096921,162892,679537,0
2096921,2096921,162896,679771,0
2096921,2096921,162733,679865,0
2096921,2096921,162630,680160,0
2096921,2096921,162748,679847,0
2096921,2096921,162746,679815,0
2096921,2096921,162848,680081,0
2096921,2096921,163132,680460,0
2096921,2096921,162988,680547,0
2096921,2096921,162966,680325,0
2096921,2096921,163045,680412,0
2096921,2096921,163250,680390,0
2096921,2096921,163018,680865,0
2096921,2096921,162958,680665,0
2096921,2096921,162999,680753,0
2096921,2096921,163120,680951,0
2096921,2096921,163277,681001,0
2096921,2096921,163212,681105,0
2096921,2096921,163019,681131,0
2096921,2096921,163165,681368,0
2096921,2096921,163326,681440,0
2096921,2096921,163020,681341,0
2096921,2096921,163229,681336,0
2096921,2096921,163701,680865,0
2096921,2096921,163542,680953,0
2096921,2096921,163088,681312,0
2096921,2096921,163278,681416,0
2096921,2096921,163567,681937,0
2096921,2096921,163182,681794,0
2096921,2096921,163025,681900,0
2096921,2096921,163255,681790,0
2096921,2096921,163138,681925,0
2096921,2096921,163071,681916,0
2096921,2096921,163220,681924,0
2096921,2096921,163462,681841,0
2096921,2096921,163390,681900,0
2096921,2096921,163368,682139,0
2096921,2096921,163514,682289,0
2096921,2096921,163519,682269,0
2096921,2096921,163643,682041,0
2096921,2096921,163478,682417,0
2096921,2096921,163438,682722,0
2096921,2096921,163545,682401,0
2096921,2096921,163488,682181,0
2096921,2096921,163308,682436,0
2096921,2096921,163688,682378,0
2096921,2096921,163461,682834,0
2096921,2096921,163470,683002,0
2096921,2096921,163625,683123,0
2096921,2096921,164021,682879,0
2096921,2096921,163791,682730,0
2096921,2096921,163452,682803,0
2096921,2096921,163859,682973,0
2096921,2096921,163531,683050,0
2096921,2096921,163547,682970,0
2096921,2096921,163695,683185,0
2096921,2096921,163743,683376,0
2096921,2096921,163900,683384,0
2096921,2096921,163876,683565,0
2096921,2096921,163718,683568,0
2096921,2096921,163670,683528,0
2096921,2096921,163917,683607,0
2096921,2096921,163599,683701,0
2096921,2096921,163811,683597,0
2096921,2096921,163924,683540,0
2096921,2096921,163714,683350,0
2096921,2096921,163852,683696,0
2096921,2096921,163739,684027,0
2096921,2096921,163977,683948,0
2096921,2096921,163947,683944,0
2096921,2096921,164045,684234,0
2096921,2096921,164258,683958,0
2096921,2096921,163982,683959,0
2096921,2096921,163821,684030,0
2096921,2096921,163815,683806,0
2096921,2096921,164254,684080,0
2096921,2096921,164073,684484,0
2096921,2096921,164328,684629,0
2096921,2096921,164185,684208,0
2096921,2096921,164077,684412,0
2096921,2096921,164240,684166,0
2096921,2096921,164017,684585,0
2096921,2096921,163938,683952,0
2096921,2096921,163701,684115,0
2096921,2096921,163975,684304,0
2096921,2096921,163921,684556,0
2096921,2096921,164100,684695,0
2096921,2096921,164031,684578,0
2096921,2096921,164122,684489,0
2096921,2096921,164184,684826,0
2096921,2096921,164280,684766,0
2096921,2096921,164587,684771,0
2096921,2096921,164060,684838,0
2096921,2096921,164337,684753,0
2096921,2096921,164116,684506,0
2096921,2096921,164179,684808,0
2096921,2096921,164039,684868,0
2096921,2096921,164478,684825,0
2096921,2096921,164406,684638,0
2096921,2096921,164560,684716,0
2096921,2096921,164356,685133,0
2096921,2096921,164110,684993,0
2096921,2096921,163905,684858,0
2096921,2096921,164005,684981,0
2096921,2096921,164201,685032,0
2096921,2096921,164399,684611,0
2096921,2096921,164160,684818,0
2096921,2096921,164086,684913,0
2096921,2096921,164234,684969,0
2096921,2096921,164083,685049,0
2096921,2096921,164495,684987,0
2096921,2096921,164256,684859,0
2096921,2096921,164489,684906,0
2096921,2096921,164158,684994,0
2096921,2096921,164459,684959,0
2096921,2096921,164166,684692,0
2096921,2096921,164382,685333,0
2096921,2096921,164222,685115,0
2096921,2096921,164414,685184,0
2096921,2096921,164297,685411,0
2096921,2096921,164460,685351,0
2096921,2096921,164171,685047,0
2096921,2096921,164206,685193,0
2096921,2096921,164204,685045,0
2096921,2096921,164348,684867,0
2096921,2096921,164328,685151,0
2096921,2096921,164480,684859,0
2096921,2096921,164414,685394,0
2096921,2096921,164516,685135,0
2096921,2096921,164367,685104,0
2096921,2096921,164284,684961,0
2096921,2096921,164234,685115,0
2096921,2096921,164292,684949,0
2096921,2096921,164287,685396,0
2096921,2096921,164228,685258,0
2096921,2096921,164397,685134,0
2096921,2096921,164279,685255,0
2096921,2096921,164368,685202,0
2096921,2096921,164437,685477,0
2096921,2096921,164493,685249,0
2096921,2096921,164252,685155,0
2096921,2096921,164359,684730,0
2096921,2096921,164127,684694,0
2096921,2096921,164096,684537,0
2096921,2096921,163967,684787,0
2096921,2096921,163870,684399,0
2096921,2096921,164051,683892,0
2096921,2096921,163973,683976,0
2096921,2096921,163829,684074,0
2096921,2096921,163998,683973,0
2096921,2096921,163517,683765,0
2096921,2096921,163172,683308,0
2096921,2096921,163445,683090,0
2096921,2096921,163557,682750,0
2096921,2096921,163598,683108,0
2096921,2096921,163349,682785,0
2096921,2096921,163500,681868,0
2096921,2096921,163340,681838,0
2096921,2096921,163483,681631,0
2096921,2096921,163245,681870,0
2096921,2096921,162804,681187,0
2096921,2096921,162342,680512,0
2096921,2096921,162768,680239,0
2096921,2096921,162576,680185,0
2096921,2096921,162748,680238,0
2096921,2096921,161776,678742,0
2096921,2096921,161583,677424,0
2096921,2096921,161556,677421,0
2096921,2096921,161694,676933,0
2096921,2096921,161674,676958,0
2096921,2096921,160519,675320,0
2096921,2096921,160397,673664,0
2096921,2096921,160338,672792,0
2096921,2096921,160423,673252,0
2096921,2096921,160371,673121,0
2096921,2096921,159623,671882,0
2096921,2096921,159520,670259,0
2096921,2096921,159451,670382,0
2096921,2096921,159791,670412,0
2096921,2096921,159585,670408,0
2096921,2096921,159094,669246,0
2096921,2096921,159023,668131,0
2096921,2096921,158849,667960,0
2096921,2096921,159019,667493,0
2096921,2096921,158689,667925,0
2096921,2096921,158383,667194,0
2096921,2096921,158210,666346,0
2096921,2096921,158084,665963,0
2096921,2096921,158224,665925,0
2096921,2096921,158204,666230,0
2096921,2096921,157730,665614,0
2096921,2096921,157888,665119,0
2096921,2096921,157812,665079,0
2096921,2096921,157722,664712,0
2096921,2096921,157641,664759,0
2096921,2096921,157419,664351,0
2096921,2096921,157426,663886,0
2096921,2096921,157705,664230,0
2096921,2096921,157784,664224,0
2096921,2096921,157783,664264,0
2096921,2096921,157305,664116,0
2096921,2096921,157652,663838,0
2096921,2096921,157541,663613,0
2096921,2096921,157312,663720,0
2096921,2096921,157367,663821,0
2096921,2096921,157445,663553,0
2096921,2096921,157357,663212,0
2096921,2096921,157527,663291,0
2096921,2096921,157464,663418,0
2096921,2096921,157278,663497,0
2096921,2096921,157536,663683,0
2096921,2096921,157272,663505,0
2096921,2096921,157355,663365,0
2096921,2096921,157449,663459,0
2096921,2096921,157740,663316,0
2096921,2096921,157477,663765,0
2096921,2096921,157388,663724,0
2096921,2096921,157490,663692,0
2096921,2096921,157437,663988,0
2096921,2096921,157551,663992,0
2096921,2096921,157612,663774,0
2096921,2096921,157472,664175,0
2096921,2096921,157574,664008,0
2096921,2096921,157634,664142,0
2096921,2096921,157590,663953,0
2096921,2096921,157410,664132,0
2096921,2096921,157316,664075,0
2096921,2096921,157607,664181,0
2096921,2096921,157694,664093,0
2096921,2096921,157669,664184,0
2096921,2096921,157788,664554,0
2096921,2096921,157850,664902,0
2096921,2096921,158099,664657,0
2096921,2096921,157909,664598,0
2096921,2096921,157562,665067,0
2096921,2096921,157906,665046,0
2096921,2096921,157900,665241,0
2096921,2096921,158039,665519,0
2096921,2096921,158007,665552,0
2096921,2096921,157780,665524,0
2096921,2096921,158120,665678,0
2096921,2096921,158329,666318,0
2096921,2096921,158283,666123,0
2096921,2096921,158067,665973,0
2096921,2096921,158054,665938,0
2096921,2096921,158306,666504,0
2096921,2096921,158380,666659,0
2096921,2096921,158269,666820,0
2096921,2096921,158272,666963,0
2096921,2096921,158033,667112,0
2096921,2096921,158365,667442,0
2096921,2096921,158693,667583,0
2096921,2096921,158626,667744,0
2096921,2096921,158582,667865,0
2096921,2096921,158641,667478,0
2096921,2096921,158621,667646,0
2096921,2096921,158991,668146,0
2096921,2096921,158727,668069,0
2096921,2096921,159149,668035,0
2096921,2096921,158716,668054,0
2096921,2096921,159228,668408,0
2096921,2096921,159125,668571,0
2096921,2096921,159241,668876,0
2096921,2096921,158931,668705,0
2096921,2096921,159257,668897,0
2096921,2096921,159162,669451,0
2096921,2096921,159393,669479,0
2096921,2096921,159349,669501,0
2096921,2096921,159292,669533,0
2096921,2096921,159490,669451,0
2096921,2096921,159606,669945,0
2096921,2096921,159380,670325,0
2096921,2096921,159812,670396,0
2096921,2096921,159500,670229,0
2096921,2096921,159713,670007,0
2096921,2096921,159989,670616,0
2096921,2096921,159835,670642,0
2096921,2096921,159785,670805,0
2096921,2096921,159954,671073,0
2096921,2096921,160081,671098,0
2096921,2096921,160246,671482,0
2096921,2096921,160305,671733,0
2096921,2096921,159842,671601,0
2096921,2096921,159904,671697,0
2096921,2096921,159909,671429,0
2096921,2096921,160051,671960,0
2096921,2096921,160017,672581,0
2096921,2096921,160085,672580,0
2096921,2096921,160244,672583,0
2096921,2096921,160148,672499,0
2096921,2096921,160489,672649,0
2096921,2096921,160431,672857,0
2096921,2096921,160333,672914,0
2096921,2096921,160280,673018,0
2096921,2096921,160490,673052,0
2096921,2096921,160494,673061,0
2096921,2096921,160595,673604,0
2096921,2096921,160417,673731,0
2096921,2096921,160643,673791,0
2096921,2096921,160599,673686,0
2096921,2096921,160685,673879,0
2096921,2096921,160636,674011,0
2096921,2096921,160390,673784,0
2096921,2096921,160660,674051,0
2096921,2096921,160668,673901,0
2096921,2096921,160658,674016,0
2096921,2096921,160598,673973,0
2096921,2096921,160712,673884,0
2096921,2096921,160827,674254,0
2096921,2096921,160600,674480,0
2096921,2096921,160701,674156,0
2096921,2096921,160760,674405,0
2096921,2096921,160935,674642,0
2096921,2096921,160867,674450,0
2096921,2096921,160846,674361,0
2096921,2096921,160815,674476,0
2096921,2096921,160789,674208,0
2096921,2096921,161152,674449,0
2096921,2096921,160848,674450,0
2096921,2096921,160959,674430,0
2096921,2096921,160922,674536,0
2096921,2096921,160936,674483,0
2096921,2096921,160840,674492,0
2096921,2096921,160951,674487,0
2096921,2096921,160948,674303,0
2096921,2096921,160850,674089,0
2096921,2096921,160611,673788,0
2096921,2096921,160542,674034,0
2096921,2096921,160563,674303,0
2096921,2096921,160544,674468,0
2096921,2096921,160398,674166,0
2096921,2096921,160543,673979,0
2096921,2096921,160809,673975,0
2096921,2096921,160640,673973,0
2096921,2096921,160630,673946,0
2096921,2096921,160197,673914,0
2096921,2096921,160463,673389,0
2096921,2096921,160552,673304,0
2096921,2096921,160534,673540,0
2096921,2096921,160599,673629,0
2096921,2096921,160564,673757,0
2096921,2096921,160620,673471,0
2096921,2096921,160465,673394,0
2096921,2096921,160541,673091,0
2096921,2096921,160519,672877,0
2096921,2096921,160393,673138,0
2096921,2096921,160371,673410,0
2096921,2096921,160491,673064,0
2096921,2096921,160286,672948,0
2096921,2096921,160111,673185,0
2096921,2096921,160309,672971,0
2096921,2096921,160375,672780,0
2096921,2096921,160393,672629,0
2096921,2096921,160126,672758,0
2096921,2096921,160328,673074,0
2096921,2096921,160350,672580,0
2096921,2096921,160483,672735,0
2096921,2096921,160485,673005,0
2096921,2096921,160462,672973,0
2096921,2096921,160177,672999,0
2096921,2096921,160295,672946,0
2096921,2096921,160201,672969,0
2096921,2096921,160346,673087,0
2096921,2096921,160552,672536,0
2096921,2096921,160334,672437,0
2096921,2096921,160134,672484,0
2096921,2096921,160616,672846,0
2096921,2096921,160673,672666,0
2096921,2096921,160207,673254,0
2096921,2096921,160457,673151,0
2096921,2096921,160707,672859,0
2096921,2096921,160353,672884,0
2096921,2096921,160178,673089,0
2096921,2096921,160207,673003,0
2096921,2096921,160221,672823,0
2096921,2096921,160529,673020,0
2096921,2096921,160332,673219,0
2096921,2096921,160517,673326,0
2096921,2096921,160491,673224,0
2096921,2096921,160450,673334,0
2096921,2096921,160714,673619,0
2096921,2096921,160871,673850,0
2096921,2096921,160892,673542,0
2096921,2096921,160865,673876,0
2096921,2096921,160720,674150,0
2096921,2096921,160649,674032,0
2096921,2096921,160826,674239,0
2096921,2096921,160663,674090,0
2096921,2096921,160717,674474,0
2096921,2096921,160908,674371,0
2096921,2096921,160818,674503,0
2096921,2096921,160752,674639,0
2096921,2096921,161250,674515,0
2096921,2096921,160785,674612,0
2096921,2096921,161280,674418,0
2096921,2096921,161234,674430,0
2096921,2096921,161190,674657,0
2096921,2096921,161186,674935,0
2096921,2096921,161504,674994,0
2096921,2096921,161163,675010,0
2096921,2096921,161386,675161,0
2096921,2096921,161379,675308,0
2096921,2096921,161482,674895,0
2096921,2096921,160705,675009,0
2096921,2096921,161224,675134,0
2096921,2096921,161430,675388,0
2096921,2096921,161058,675394,0
2096921,2096921,161384,675351,0
2096921,2096921,161084,675199,0
2096921,2096921,160952,675466,0
2096921,2096921,161281,675754,0
2096921,2096921,161313,675650,0
2096921,2096921,161295,675671,0
2096921,2096921,161209,675670,0
2096921,2096921,161391,675630,0
2096921,2096921,161509,675871,0
2096921,2096921,161143,675982,0
2096921,2096921,161559,675973,0
2096921,2096921,161449,675833,0
2096921,2096921,161454,676038,0
2096921,2096921,161516,676181,0
2096921,2096921,161554,676296,0
2096921,2096921,161540,676456,0
2096921,2096921,161787,676101,0
2096921,2096921,161591,676109,0
2096921,2096921,161784,676285,0
2096921,2096921,161652,676363,0
2096921,2096921,161775,676313,0
2096921,2096921,161849,676312,0
2096921,2096921,161706,676548,0
2096921,2096921,161904,676635,0
2096921,2096921,161763,676729,0
2096921,2096921,161960,676750,0
2096921,2096921,161941,676521,0
2096921,2096921,161794,676530,0
2096921,2096921,161815,676615,0
2096921,2096921,161539,676709,0
2096921,2096921,161646,676477,0
2096921,2096921,161821,676621,0
2096921,2096921,161893,676690,0
2096921,2096921,161848,676768,0
2096921,2096921,161952,676639,0
2096921,2096921,161641,676856,0
2096921,2096921,161677,676903,0
2096921,2096921,161901,677115,0
2096921,2096921,162186,677220,0
2096921,2096921,161860,677076,0
2096921,2096921,161767,677095,0
2096921,2096921,162079,677194,0
2096921,2096921,162115,677285,0
2096921,2096921,162011,677572,0
2096921,2096921,162162,677495,0
2096921,2096921,162282,677439,0
2096921,2096921,161926,677230,0
2096921,2096921,161898,677214,0
2096921,2096921,161952,677322,0
2096921,2096921,161948,677347,0
2096921,2096921,162029,677416,0
2096921,2096921,162094,677495,0
2096921,2096921,162351,677696,0
2096921,2096921,162216,677746,0
2096921,2096921,162189,677725,0
2096921,2096921,161980,677645,0
2096921,2096921,161919,677652,0
2096921,2096921,162177,677335,0
2096921,2096921,162278,677763,0
2096921,2096921,161999,677529,0
2096921,2096921,162222,677788,0
2096921,2096921,162116,677489,0
2096921,2096921,161976,677696,0
2096921,2096921,162205,677631,0
2096921,2096921,162396,677807,0
2096921,2096921,162138,677666,0
2096921,2096921,162151,677744,0
2096921,2096921,162214,677879,0
2096921,2096921,162315,677852,0
2096921,2096921,162072,677903,0
2096921,2096921,162190,677863,0
2096921,2096921,162124,677654,0
2096921,2096921,161942,677753,0
2096921,2096921,162158,677933,0
2096921,2096921,162260,677790,0
2096921,2096921,162250,677948,0
2096921,2096921,162227,678063,0
2096921,2096921,162065,677877,0
2096921,2096921,162020,678072,0
2096921,2096921,162321,678228,0
2096921,2096921,162303,677811,0
2096921,2096921,162191,677750,0
2096921,2096921,162389,677927,0
2096921,2096921,162608,677822,0
2096921,2096921,162034,678139,0
2096921,2096921,162356,678143,0
2096921,2096921,161997,677844,0
2096921,2096921,162588,677822,0
2096921,2096921,162274,678067,0
2096921,2096921,162464,677989,0
2096921,2096921,162162,677886,0
2096921,2096921,162378,677938,0
2096921,2096921,162255,677841,0
2096921,2096921,162511,678140,0
2096921,2096921,162336,678145,0
2096921,2096921,162676,678117,0
2096921,2096921,162567,677848,0
2096921,2096921,161989,677877,0
2096921,2096921,162364,677853,0
2096921,2096921,162206,677632,0
2096921,2096921,162208,678057,0
2096921,2096921,162138,677904,0
2096921,2096921,162292,677887,0
2096921,2096921,162151,677736,0
2096921,2096921,162396,678063,0
2096921,2096921,162452,677737,0
2096921,2096921,162395,677554,0
2096921,2096921,162182,677813,0
2096921,2096921,162373,677816,0
2096921,2096921,162492,677720,0
2096921,2096921,162187,677788,0
2096921,2096921,161987,677791,0
2096921,2096921,162261,677784,0
2096921,2096921,162415,677801,0
2096921,2096921,162150,677702,0
2096921,2096921,162086,677673,0
2096921,2096921,162236,677688,0
2096921,2096921,162223,677865,0
2096921,2096921,162350,677876,0
2096921,2096921,162191,677752,0
2096921,2096921,162639,677497,0
2096921,2096921,162444,677506,0
2096921,2096921,162486,677607,0
2096921,2096921,162122,677603,0
2096921,2096921,162299,677392,0
2096921,2096921,162333,677190,0
2096921,2096921,162197,677126,0
2096921,2096921,162073,677361,0
2096921,2096921,162327,677474,0
2096921,2096921,162037,677449,0
2096921,2096921,162206,677520,0
2096921,2096921,162437,677405,0
2096921,2096921,162406,677484,0
2096921,2096921,162392,677504,0
2096921,2096921,162342,676941,0
2096921,2096921,162279,677317,0
2096921,2096921,162395,677148,0
2096921,2096921,162129,677461,0
2096921,2096921,162323,677368,0
2096921,2096921,162303,677062,0
2096921,2096921,162478,677078,0
2096921,2096921,162211,677140,0
2096921,2096921,162046,677091,0
2096921,2096921,162291,677145,0
2096921,2096921,162227,677254,0
2096921,2096921,162375,677057,0
2096921,2096921,162094,677070,0
2096921,2096921,162310,677138,0
2096921,2096921,162223,677120,0
2096921,2096921,162140,677037,0
2096921,2096921,162431,677008,0
2096921,2096921,162053,676854,0
2096921,2096921,162085,676908,0
2096921,2096921,162405,676871,0
2096921,2096921,162328,676445,0
2096921,2096921,162001,676665,0
2096921,2096921,162103,676600,0
2096921,2096921,162260,676681,0
2096921,2096921,162164,676712,0
2096921,2096921,162147,676398,0
2096921,2096921,162457,676471,0
2096921,2096921,162248,676464,0
2096921,2096921,162198,676591,0
2096921,2096921,162264,676768,0
2096921,2096921,161926,676707,0
2096921,2096921,162020,676479,0
2096921,2096921,161998,676187,0
2096921,2096921,161832,676450,0
2096921,2096921,161778,676344,0
2096921,2096921,162169,676043,0
2096921,2096921,162192,676197,0
2096921,2096921,161832,676334,0
2096921,2096921,162085,676508,0
2096921,2096921,162000,676365,0
2096921,2096921,162087,676304,0
2096921,2096921,162004,676526,0
2096921,2096921,161896,675940,0
2096921,2096921,161677,676121,0
2096921,2096921,161781,675978,0
2096921,2096921,161784,675666,0
2096921,2096921,162133,675599,0
2096921,2096921,162318,676091,0
2096921,2096921,161980,675970,0
2096921,2096921,161896,675773,0
2096921,2096921,161951,676022,0
2096921,2096921,161704,676129,0
2096921,2096921,161571,675665,0
2096921,2096921,162072,675686,0
2096921,2096921,161865,676024,0
2096921,2096921,162021,675396,0
2096921,2096921,161879,675399,0
2096921,2096921,161744,675548,0
2096921,2096921,161705,675389,0
2096921,2096921,161843,675803,0
2096921,2096921,161867,675360,0
2096921,2096921,161742,675188,0
2096921,2096921,161806,675240,0
2096921,2096921,161482,675034,0
2096921,2096921,161532,675073,0
2096921,2096921,162022,675054,0
2096921,2096921,162174,675165,0
2096921,2096921,161551,675043,0
2096921,2096921,161777,674986,0
2096921,2096921,161810,674921,0
2096921,2096921,161676,675066,0
2096921,2096921,161266,674835,0
2096921,2096921,161696,674626,0
2096921,2096921,161491,675047,0
2096921,2096921,161712,674779,0
2096921,2096921,161799,674507,0
2096921,2096921,161722,674345,0
2096921,2096921,161556,674668,0
2096921,2096921,161364,674629,0
2096921,2096921,161569,674613,0
2096921,2096921,161422,674211,0
2096921,2096921,161659,674517,0
2096921,2096921,161745,674160,0
2096921,2096921,161338,674221,0
2096921,2096921,161261,674275,0
2096921,2096921,161496,673955,0
2096921,2096921,161533,673921,0
2096921,2096921,161531,674051,0
2096921,2096921,161511,673875,0
2096921,2096921,161454,674242,0
2096921,2096921,161330,674030,0
2096921,2096921,161537,673666,0
2096921,2096921,161111,673833,0
2096921,2096921,161538,673695,0
2096921,2096921,161497,673578,0
2096921,2096921,161331,673496,0
2096921,2096921,161185,673492,0
2096921,2096921,161397,673613,0
2096921,2096921,161627,673491,0
2096921,2096921,161349,673283,0
2096921,2096921,161100,672964,0
2096921,2096921,161186,672434,0
2096921,2096921,161112,672470,0
2096921,2096921,161257,672453,0
2096921,2096921,161027,672320,0
2096921,2096921,160811,671898,0
2096921,2096921,160990,671921,0
2096921,2096921,160646,671662,0
2096921,2096921,160764,671767,0
2096921,2096921,160400,671480,0
2096921,2096921,160645,670889,0
2096921,2096921,160571,670498,0
2096921,2096921,160508,670604,0
2096921,2096921,160205,670238,0
2096921,2096921,160099,669763,0
2096921,2096921,160032,669509,0
2096921,2096921,160201,669341,0
2096921,2096921,159938,669009,0
2096921,2096921,159992,669210,0
2096921,2096921,159561,668106,0
2096921,2096921,159400,667412,0
2096921,2096921,159347,667134,0
2096921,2096921,159507,667049,0
2096921,2096921,159303,667119,0
2096921,2096921,158448,665643,0
2096921,2096921,158604,663761,0
2096921,2096921,158482,663929,0
2096921,2096921,158084,663933,0
2096921,2096921,158670,663692,0
2096921,2096921,157340,662396,0
2096921,2096921,156783,660218,0
2096921,2096921,156965,659610,0
2096921,2096921,157054,659395,0
2096921,2096921,156676,659691,0
2096921,2096921,156556,658684,0
2096921,2096921,156084,656805,0
2096921,2096921,156401,656473,0
2096921,2096921,156346,656522,0
2096921,2096921,156304,656363,0
2096921,2096921,155615,655434,0
2096921,2096921,155558,654286,0
2096921,2096921,155268,654020,0
2096921,2096921,155241,654033,0
2096921,2096921,155490,654057,0
2096921,2096921,154648,653483,0
2096921,2096921,154882,652459,0
2096921,2096921,154904,652126,0
2096921,2096921,154852,652373,0
2096921,2096921,154723,652224,0
2096921,2096921,154565,651844,0
2096921,2096921,154314,650854,0
2096921,2096921,154277,650788,0
2096921,2096921,154058,650655,0
2096921,2096921,154072,650576,0
2096921,2096921,154129,650496,0
2096921,2096921,154225,649864,0
2096921,2096921,154173,649775,0
2096921,2096921,154006,649463,0
2096921,2096921,154283,649804,0
2096921,2096921,154125,649336,0
2096921,2096921,153598,649283,0
2096921,2096921,153693,648952,0
2096921,2096921,153744,648763,0
2096921,2096921,153611,648864,0
2096921,2096921,153736,648911,0
2096921,2096921,153490,648453,0
2096921,2096921,153329,648480,0
2096921,2096921,153613,648625,0
2096921,2096921,153755,648587,0
2096921,2096921,153689,648781,0
2096921,2096921,153724,648594,0
2096921,2096921,153520,648535,0
2096921,2096921,153340,648589,0
2096921,2096921,153364,648381,0
2096921,2096921,153581,648065,0
2096921,2096921,153731,648381,0
2096921,2096921,153717,648492,0
2096921,2096921,153743,648483,0
2096921,2096921,153695,648537,0
2096921,2096921,153616,648722,0
2096921,2096921,153725,648451,0
2096921,2096921,153474,648545,0
2096921,2096921,153587,648600,0
2096921,2096921,153832,648727,0
2096921,2096921,153828,648413,0
2096921,2096921,153733,648190,0
2096921,2096921,153617,648312,0
2096921,2096921,153795,648469,0
2096921,2096921,153729,648703,0
2096921,2096921,154004,648936,0
2096921,2096921,153975,648897,0
2096921,2096921,154132,648797,0
2096921,2096921,153799,649142,0
2096921,2096921,153620,648896,0
2096921,2096921,153837,649034,0
2096921,2096921,154123,649083,0
2096921,2096921,153922,649200,0
2096921,2096921,154109,649356,0
2096921,2096921,154131,649103,0
2096921,2096921,154214,649542,0
2096921,2096921,153998,649591,0
2096921,2096921,154216,649819,0
2096921,2096921,154155,649753,0
2096921,2096921,154165,649584,0
2096921,2096921,154129,650085,0
2096921,2096921,154223,650177,0
2096921,2096921,154105,650000,0
2096921,2096921,154341,650149,0
2096921,2096921,154276,650289,0
2096921,2096921,154217,650589,0
2096921,2096921,154415,650541,0
2096921,2096921,154217,650726,0
2096921,2096921,154437,651085,0
2096921,2096921,154433,650780,0
2096921,2096921,154813,650785,0
2096921,2096921,154441,651132,0
2096921,2096921,154902,651119,0
2096921,2096921,154921,651050,0
2096921,2096921,154612,651071,0
2096921,2096921,154881,651386,0
2096921,2096921,154766,651482,0
2096921,2096921,154840,651440,0
2096921,2096921,154739,651499,0
2096921,2096921,154705,651677,0
2096921,2096921,154897,651881,0
2096921,2096921,154884,652273,0
2096921,2096921,154823,652117,0
2096921,2096921,155094,652115,0
2096921,2096921,154900,652330,0
2096921,2096921,155126,652569,0
2096921,2096921,155253,652662,0
2096921,2096921,155190,652519,0
2096921,2096921,155146,652689,0
2096921,2096921,154919,652653,0
2096921,2096921,155171,653094,0
2096921,2096921,155602,653011,0
2096921,2096921,155252,653114,0
2096921,2096921,155207,653175,0
2096921,2096921,155431,653269,0
2096921,2096921,155690,653446,0
2096921,2096921,155612,653720,0
2096921,2096921,155323,653677,0
2096921,2096921,155326,653709,0
2096921,2096921,155419,653916,0
2096921,2096921,155650,654238,0
2096921,2096921,155324,654447,0
2096921,2096921,155587,654317,0
2096921,2096921,155393,654352,0
2096921,2096921,155619,654180,0
2096921,2096921,155785,654603,0
2096921,2096921,155638,654625,0
2096921,2096921,155905,654831,0
2096921,2096921,155966,654456,0
2096921,2096921,155862,654765,0
2096921,2096921,155687,654846,0
2096921,2096921,155794,655068,0
2096921,2096921,155974,655093,0
2096921,2096921,155914,654973,0
2096921,2096921,156021,654938,0
2096921,2096921,156162,655490,0
2096921,2096921,156130,655329,0
2096921,2096921,155956,655522,0
2096921,2096921,155910,655102,0
2096921,2096921,155665,655390,0
2096921,2096921,155954,655453,0
2096921,2096921,155987,655465,0
2096921,2096921,156300,655470,0
2096921,2096921,156019,655634,0
2096921,2096921,156104,655525,0
2096921,2096921,155732,655879,0
2096921,2096921,155914,655417,0
2096921,2096921,156040,655628,0
2096921,2096921,155994,655513,0
2096921,2096921,156159,655568,0
2096921,2096921,156422,655444,0
2096921,2096921,156262,655581,0
2096921,2096921,156266,655578,0
2096921,2096921,156366,655417,0
2096921,2096921,156372,655390,0
2096921,2096921,156068,655494,0
2096921,2096921,156095,655076,0
2096921,2096921,156194,655151,0
2096921,2096921,155862,654957,0
2096921,2096921,156002,655312,0
2096921,2096921,156237,655229,0
2096921,2096921,155865,655138,0
2096921,2096921,155884,654847,0
2096921,2096921,156076,655204,0
2096921,2096921,156039,655102,0
2096921,2096921,155944,654816,0
2096921,2096921,156008,654854,0
2096921,2096921,155771,654633,0
2096921,2096921,155838,654903,0
2096921,2096921,155997,654722,0
2096921,2096921,155719,654592,0
2096921,2096921,155625,654335,0
2096921,2096921,155674,654121,0
2096921,2096921,155904,654472,0
2096921,2096921,155761,654440,0
2096921,2096921,155788,654508,0
2096921,2096921,155594,653977,0
2096921,2096921,155671,653890,0
2096921,2096921,155638,654316,0
2096921,2096921,155913,654128,0
2096921,2096921,155658,653632,0
2096921,2096921,155493,653836,0
2096921,2096921,155868,653597,0
2096921,2096921,155702,653594,0
2096921,2096921,155688,653756,0
2096921,2096921,155749,653835,0
2096921,2096921,155777,653756,0
2096921,2096921,155526,653484,0
2096921,2096921,155625,653327,0
2096921,2096921,155481,653426,0
2096921,2096921,155319,653598,0
2096921,2096921,155291,653539,0
2096921,2096921,155631,653484,0
2096921,2096921,155570,653839,0
2096921,2096921,155437,653821,0
2096921,2096921,155543,653958,0
2096921,2096921,155628,653726,0
2096921,2096921,155655,653534,0
2096921,2096921,155731,653447,0
2096921,2096921,155432,653465,0
2096921,2096921,155575,653404,0
2096921,2096921,155553,653525,0
2096921,2096921,155681,653400,0
2096921,2096921,155971,653586,0
2096921,2096921,155659,653662,0
2096921,2096921,155739,653817,0
2096921,2096921,155427,653670,0
2096921,2096921,155486,653700,0
2096921,2096921,155427,653590,0
2096921,2096921,155729,653806,0
2096921,2096921,156135,654002,0
2096921,2096921,156208,654405,0
2096921,2096921,156075,654333,0
2096921,2096921,156061,654084,0
2096921,2096921,155842,654333,0
2096921,2096921,155982,654678,0
2096921,2096921,156191,654901,0
2096921,2096921,156207,655055,0
2096921,2096921,155943,654948,0
2096921,2096921,156286,654560,0
2096921,2096921,156336,654556,0
2096921,2096921,156116,654844,0
2096921,2096921,155977,655290,0
2096921,2096921,156015,655188,0
2096921,2096921,156148,655235,0
2096921,2096921,156144,655427,0
2096921,2096921,155952,655518,0
2096921,2096921,156368,655387,0
2096921,2096921,156560,655456,0
2096921,2096921,156366,655535,0
2096921,2096921,156232,656029,0
2096921,2096921,156287,655822,0
2096921,2096921,156721,656004,0
2096921,2096921,156791,655980,0
2096921,2096921,156403,656083,0
2096921,2096921,156474,656185,0
2096921,2096921,156628,656317,0
2096921,2096921,156491,656360,0
2096921,2096921,156271,656189,0
2096921,2096921,156171,656338,0
2096921,2096921,156400,656323,0
2096921,2096921,156816,656733,0
2096921,2096921,156713,656602,0
2096921,2096921,156326,656708,0
2096921,2096921,156467,656605,0
2096921,2096921,156527,656752,0
2096921,2096921,156627,656937,0
2096921,2096921,156856,657182,0
2096921,2096921,156514,656884,0
2096921,2096921,156327,657249,0
2096921,2096921,157137,657425,0
2096921,2096921,156800,657163,0
2096921,2096921,156851,657266,0
2096921,2096921,157053,657618,0
2096921,2096921,156819,657330,0
2096921,2096921,156912,657447,0
2096921,2096921,156921,657839,0
2096921,2096921,157294,657942,0
2096921,2096921,157026,657715,0
2096921,2096921,156934,657861,0
2096921,2096921,157193,657958,0
2096921,2096921,157242,658130,0
2096921,2096921,157146,658117,0
2096921,2096921,156913,658049,0
2096921,2096921,156870,658382,0
2096921,2096921,157067,658510,0
2096921,2096921,157104,658353,0
2096921,2096921,157015,658813,0
2096921,2096921,157424,658683,0
2096921,2096921,157179,658473,0
2096921,2096921,157069,658463,0
2096921,2096921,157300,658929,0
2096921,2096921,157372,658869,0
2096921,2096921,157379,658819,0
2096921,2096921,157515,659086,0
2096921,2096921,157499,659118,0
2096921,2096921,157522,659232,0
2096921,2096921,157614,659385,0
2096921,2096921,157521,659196,0
2096921,2096921,157533,659255,0
2096921,2096921,157510,659343,0
2096921,2096921,157557,659776,0
2096921,2096921,157665,659945,0
2096921,2096921,157689,659697,0
2096921,2096921,157452,659629,0
2096921,2096921,157563,660048,0
2096921,2096921,157691,660056,0
2096921,2096921,157428,659916,0
2096921,2096921,157529,659900,0
2096921,2096921,157728,659960,0
2096921,2096921,157739,660371,0
2096921,2096921,158047,660663,0
2096921,2096921,157735,660304,0
2096921,2096921,157744,660560,0
2096921,2096921,157845,660425,0
2096921,2096921,158000,660364,0
2096921,2096921,158131,660763,0
2096921,2096921,158283,660688,0
2096921,2096921,157900,660604,0
2096921,2096921,157964,660712,0
2096921,2096921,157847,660620,0
2096921,2096921,157850,660944,0
2096921,2096921,157725,660764,0
2096921,2096921,157797,660913,0
2096921,2096921,158040,660839,0
2096921,2096921,158320,661042,0
2096921,2096921,158006,660698,0
2096921,2096921,158157,661326,0
2096921,2096921,157767,661126,0
2096921,2096921,157589,661032,0
2096921,2096921,158051,661189,0
2096921,2096921,158020,661421,0
2096921,2096921,158149,661659,0
2096921,2096921,158145,661418,0
2096921,2096921,158246,661380,0
2096921,2096921,158327,661626,0
2096921,2096921,158264,661637,0
2096921,2096921,158244,661725,0
2096921,2096921,158450,661968,0
2096921,2096921,158647,661587,0
2096921,2096921,158303,661763,0
2096921,2096921,158298,661953,0
2096921,2096921,158489,662038,0
2096921,2096921,158576,661695,0
2096921,2096921,158467,662110,0
2096921,2096921,158277,662408,0
2096921,2096921,158685,662210,0
2096921,2096921,158315,662339,0
2096921,2096921,158608,662222,0
2096921,2096921,158590,662248,0
2096921,2096921,158474,662495,0
2096921,2096921,158385,662510,0
2096921,2096921,158554,662322,0
2096921,2096921,158305,662560,0
2096921,2096921,158481,662680,0
2096921,2096921,158374,662794,0
2096921,2096921,158386,662469,0
2096921,2096921,158729,662764,0
2096921,2096921,158558,662733,0
2096921,2096921,158690,662767,0
2096921,2096921,158684,662428,0
2096921,2096921,158541,662675,0
2096921,2096921,158523,662779,0
2096921,2096921,158432,662876,0
2096921,2096921,158550,662630,0
2096921,2096921,158846,663069,0
2096921,2096921,158572,663138,0
2096921,2096921,158580,663141,0
2096921,2096921,158760,662878,0
2096921,2096921,158588,662856,0
2096921,2096921,158381,662906,0
2096921,2096921,158701,662993,0
2096921,2096921,158519,663091,0
2096921,2096921,158826,662930,0
2096921,2096921,158662,663072,0
2096921,2096921,158584,663258,0
2096921,2096921,158769,663351,0
2096921,2096921,158705,663385,0
2096921,2096921,158807,663257,0
2096921,2096921,158530,663186,0
2096921,2096921,158655,663411,0
2096921,2096921,158671,663265,0
2096921,2096921,158937,663448,0
2096921,2096921,158891,663227,0
2096921,2096921,158827,663479,0
2096921,2096921,158824,663405,0
2096921,2096921,158796,663519,0
2096921,2096921,158644,663714,0
2096921,2096921,158865,663562,0
2096921,2096921,158355,663304,0
2096921,2096921,158636,663200,0
2096921,2096921,158767,663428,0
2096921,2096921,158894,663854,0
2096921,2096921,158699,663657,0
2096921,2096921,159036,663717,0
2096921,2096921,158875,663505,0
2096921,2096921,159110,663786,0
2096921,2096921,158866,663586,0
2096921,2096921,158878,663767,0
2096921,2096921,158716,663962,0
2096921,2096921,158775,663702,0
2096921,2096921,158944,663749,0
2096921,2096921,158729,663904,0
2096921,2096921,158860,664040,0
2096921,2096921,158756,663705,0
2096921,2096921,159079,664031,0
2096921,2096921,158983,663907,0
2096921,2096921,158829,664234,0
2096921,2096921,158810,664269,0
2096921,2096921,158781,664102,0
2096921,2096921,159056,664164,0
2096921,2096921,159229,664185,0
2096921,2096921,158904,664170,0
2096921,2096921,158766,664330,0
2096921,2096921,158747,664546,0
2096921,2096921,159177,664274,0
2096921,2096921,159181,664461,0
2096921,2096921,158948,664477,0
2096921,2096921,159071,664316,0
2096921,2096921,159040,664292,0
2096921,2096921,158796,664410,0
2096921,2096921,159142,664649,0
2096921,2096921,159085,664319,0
2096921,2096921,159350,664559,0
2096921,2096921,159108,664770,0
2096921,2096921,159067,664499,0
2096921,2096921,159360,664772,0
2096921,2096921,159249,664722,0
2096921,2096921,159066,664842,0
2096921,2096921,159155,664790,0
2096921,2096921,159389,665001,0
2096921,2096921,159508,664674,0
2096921,2096921,159505,664925,0
2096921,2096921,159367,664945,0
2096921,2096921,159403,664850,0
2096921,2096921,159078,664743,0
2096921,2096921,159222,664885,0
2096921,2096921,159315,664817,0
2096921,2096921,159138,665016,0
2096921,2096921,159105,664988,0
2096921,2096921,159326,664840,0
2096921,2096921,159375,665071,0
2096921,2096921,159544,665238,0
2096921,2096921,159651,665443,0
2096921,2096921,159291,665186,0
2096921,2096921,159002,665118,0
2096921,2096921,159259,664940,0
2096921,2096921,159189,665203,0
2096921,2096921,159210,665305,0
2096921,2096921,159458,665310,0
2096921,2096921,159435,665000,0
2096921,2096921,159496,665145,0
2096921,2096921,159087,665074,0
2096921,2096921,159505,665020,0
2096921,2096921,159316,665148,0
2096921,2096921,159148,665278,0
2096921,2096921,159512,665283,0
2096921,2096921,159385,665412,0
2096921,2096921,159376,665240,0
2096921,2096921,159168,665341,0
2096921,2096921,159329,665258,0
2096921,2096921,159371,665302,0
2096921,2096921,159244,665686,0
2096921,2096921,159367,665535,0
2096921,2096921,159605,665460,0
2096921,2096921,159856,665583,0
2096921,2096921,159461,665594,0
2096921,2096921,159649,665511,0
2096921,2096921,159355,665284,0
2096921,2096921,159373,665215,0
2096921,2096921,159399,665269,0
2096921,2096921,159371,665320,0
2096921,2096921,159461,665461,0
2096921,2096921,159520,665392,0
2096921,2096921,159257,665454,0
2096921,2096921,159619,665745,0
2096921,2096921,159308,665661,0
2096921,2096921,159463,665529,0
2096921,2096921,159458,665814,0
2096921,2096921,159400,665677,0
2096921,2096921,159420,665579,0
2096921,2096921,159489,665548,0
2096921,2096921,159467,665744,0
2096921,2096921,159743,665685,0
2096921,2096921,159408,665612,0
2096921,2096921,159401,665870,0
2096921,2096921,159688,665713,0
2096921,2096921,159464,665886,0
2096921,2096921,159645,665668,0
2096921,2096921,159335,665491,0
2096921,2096921,159610,666070,0
2096921,2096921,159419,666054,0
2096921,2096921,159565,665962,0
2096921,2096921,159409,666023,0
2096921,2096921,159437,666088,0
2096921,2096921,159220,665598,0
2096921,2096921,159051,665281,0
2096921,2096921,159343,665392,0
2096921,2096921,159262,665192,0
2096921,2096921,159042,665261,0
2096921,2096921,159245,664969,0
2096921,2096921,159198,665105,0
2096921,2096921,159327,664722,0
2096921,2096921,159299,664976,0
2096921,2096921,159303,665046,0
2096921,2096921,158996,664611,0
2096921,2096921,158806,664131,0
2096921,2096921,158780,663974,0
2096921,2096921,159174,664049,0
2096921,2096921,159449,664087,0
2096921,2096921,158527,663683,0
2096921,2096921,158396,662729,0
2096921,2096921,158205,662688,0
2096921,2096921,158497,662869,0
2096921,2096921,158531,662735,0
2096921,2096921,157955,662413,0
2096921,2096921,158069,661719,0
2096921,2096921,158110,661778,0
2096921,2096921,157884,661588,0
2096921,2096921,158250,661635,0
2096921,2096921,157206,660076,0
2096921,2096921,156993,658767,0
2096921,2096921,157184,658535,0
2096921,2096921,157138,658484,0
2096921,2096921,157003,658579,0
2096921,2096921,155935,656729,0
2096921,2096921,155923,655681,0
2096921,2096921,155823,655100,0
2096921,2096921,155867,654987,0
2096921,2096921,155656,654804,0
2096921,2096921,155098,653496,0
2096921,2096921,155002,652238,0
2096921,2096921,155227,652163,0
2096921,2096921,155060,652048,0
2096921,2096921,154962,651914,0
2096921,2096921,154673,650920,0
2096921,2096921,154396,650277,0
2096921,2096921,154450,649949,0
2096921,2096921,154388,649929,0
2096921,2096921,154263,649876,0
2096921,2096921,154109,649207,0
2096921,2096921,153924,648564,0
2096921,2096921,154194,648311,0
2096921,2096921,153896,648591,0
2096921,2096921,153648,648689,0
2096921,2096921,153386,647951,0
2096921,2096921,153481,647472,0
2096921,2096921,153503,647396,0
2096921,2096921,153567,647560,0
2096921,2096921,153477,647530,0
2096921,2096921,153392,647227,0
2096921,2096921,153097,646834,0
2096921,2096921,153421,646996,0
2096921,2096921,153230,647035,0
2096921,2096921,153258,647116,0
2096921,2096921,153112,646985,0
2096921,2096921,153043,646800,0
2096921,2096921,153391,646452,0
2096921,2096921,153204,646424,0
2096921,2096921,153223,646338,0
