2096921,2096921,155748,663910,0
2096921,2096921,155454,663558,0
2096921,2096921,155531,663895,0
2096921,2096921,155710,664024,0
2096921,2096921,155710,664012,0
2096921,2096921,155820,664152,0
2096921,2096921,155687,664323,0
2096921,2096921,155793,664368,0
2096921,2096921,155964,664734,0
2096921,2096921,156171,664756,0
2096921,2096921,155991,664539,0
2096921,2096921,155880,664718,0
2096921,2096921,155838,664582,0
2096921,2096921,156517,665290,0
2096921,2096921,156245,665137,0
2096921,2096921,156354,665123,0
2096921,2096921,156231,665227,0
2096921,2096921,156417,665155,0
2096921,2096921,156447,665563,0
2096921,2096921,156790,665485,0
2096921,2096921,156895,665698,0
2096921,2096921,156853,665840,0
2096921,2096921,156531,665896,0
2096921,2096921,156976,666231,0
2096921,2096921,156764,666459,0
2096921,2096921,156809,666531,0
2096921,2096921,156806,666509,0
2096921,2096921,156891,666358,0
2096921,2096921,157070,666402,0
2096921,2096921,157168,666809,0
2096921,2096921,157559,667166,0
2096921,2096921,157267,667008,0
2096921,2096921,157206,667028,0
2096921,2096921,157604,667116,0
2096921,2096921,157486,667660,0
2096921,2096921,157528,667618,0
2096921,2096921,157353,667600,0
2096921,2096921,157274,667214,0
2096921,2096921,157342,667623,0
2096921,2096921,157674,667660,0
2096921,2096921,157418,668002,0
2096921,2096921,157711,667870,0
2096921,2096921,157787,668104,0
2096921,2096921,157896,668283,0
2096921,2096921,157606,668156,0
2096921,2096921,157693,668044,0
2096921,2096921,157713,667967,0
2096921,2096921,157476,668180,0
2096921,2096921,157819,668173,0
2096921,2096921,157906,668039,0
2096921,2096921,157425,668148,0
2096921,2096921,157926,668022,0
2096921,2096921,158023,668114,0
2096921,2096921,157983,668180,0
2096921,2096921,157814,668318,0
2096921,2096921,157813,668403,0
2096921,2096921,157858,668419,0
2096921,2096921,157926,668269,0
2096921,2096921,158135,668391,0
2096921,2096921,158038,668567,0
2096921,2096921,158123,668317,0
2096921,2096921,157837,668432,0
2096921,2096921,158132,668421,0
2096921,2096921,158086,668669,0
2096921,2096921,158107,668508,0
2096921,2096921,157780,668514,0
2096921,2096921,158099,668229,0
2096921,2096921,157755,668361,0
2096921,2096921,157743,668174,0
2096921,2096921,157974,667991,0
2096921,2096921,157815,668345,0
2096921,2096921,157944,668328,0
2096921,2096921,158045,668445,0
2096921,2096921,157835,668309,0
2096921,2096921,157631,668399,0
2096921,2096921,157614,668062,0
2096921,2096921,157644,667527,0
2096921,2096921,157802,667820,0
2096921,2096921,158025,667895,0
2096921,2096921,157705,668106,0
2096921,2096921,157834,668056,0
2096921,2096921,157559,668318,0
2096921,2096921,157788,668079,0
2096921,2096921,157910,667988,0
2096921,2096921,157461,667503,0
2096921,2096921,157398,667608,0
2096921,2096921,157374,667631,0
2096921,2096921,157410,667843,0
2096921,2096921,157697,667822,0
2096921,2096921,157604,667478,0
2096921,2096921,157567,667075,0
2096921,2096921,157590,667717,0
2096921,2096921,157767,667601,0
2096921,2096921,157322,667738,0
2096921,2096921,157354,667394,0
2096921,2096921,157705,667612,0
2096921,2096921,157664,667573,0
2096921,2096921,157750,667546,0
2096921,2096921,157464,667629,0
2096921,2096921,157723,667919,0
2096921,2096921,157343,667736,0
2096921,2096921,157642,667853,0
2096921,2096921,157459,667758,0
2096921,2096921,157783,667820,0
2096921,2096921,157570,667714,0
2096921,2096921,157745,667712,0
2096921,2096921,157802,667496,0
2096921,2096921,157696,667600,0
2096921,2096921,157547,667820,0
2096921,2096921,157773,667742,0
2096921,2096921,157680,667960,0
2096921,2096921,157790,667682,0
2096921,2096921,157904,667536,0
2096921,2096921,157737,667611,0
2096921,2096921,157726,668037,0
2096921,2096921,157446,668046,0
2096921,2096921,157501,667860,0
2096921,2096921,157626,667983,0
2096921,2096921,157638,667991,0
2096921,2096921,157936,668265,0
2096921,2096921,157973,668702,0
2096921,2096921,158074,668573,0
2096921,2096921,157992,668399,0
2096921,2096921,158268,668710,0
2096921,2096921,158140,668427,0
2096921,2096921,157911,668743,0
2096921,2096921,158125,668726,0
2096921,2096921,158049,668796,0
2096921,2096921,158333,669114,0
2096921,2096921,158542,669152,0
2096921,2096921,158464,669091,0
2096921,2096921,158614,668944,0
2096921,2096921,158857,668889,0
2096921,2096921,158744,668920,0
2096921,2096921,158652,669273,0
2096921,2096921,158785,669712,0
2096921,2096921,158930,669424,0
2096921,2096921,158605,669345,0
2096921,2096921,158879,669660,0
2096921,2096921,158772,669868,0
2096921,2096921,158600,669764,0
2096921,2096921,158745,669543,0
2096921,2096921,158732,669768,0
2096921,2096921,158861,670131,0
2096921,2096921,158964,670240,0
2096921,2096921,158802,670059,0
2096921,2096921,158769,670054,0
2096921,2096921,158753,670271,0
2096921,2096921,159042,670550,0
2096921,2096921,158866,670450,0
2096921,2096921,158972,670427,0
2096921,2096921,158751,670370,0
2096921,2096921,159020,670329,0
2096921,2096921,159264,670668,0
2096921,2096921,159267,670892,0
2096921,2096921,159132,671020,0
2096921,2096921,159253,670908,0
2096921,2096921,159126,670577,0
2096921,2096921,159266,670933,0
2096921,2096921,159250,671111,0
2096921,2096921,159069,670838,0
2096921,2096921,159491,671090,0
2096921,2096921,159357,671088,0
2096921,2096921,159426,671556,0
2096921,2096921,159464,671538,0
2096921,2096921,159408,671239,0
2096921,2096921,159507,671259,0
2096921,2096921,159815,671265,0
2096921,2096921,159665,671586,0
2096921,2096921,159795,671405,0
2096921,2096921,159627,671470,0
2096921,2096921,159695,671716,0
2096921,2096921,159623,671377,0
2096921,2096921,159815,671734,0
2096921,2096921,159692,672001,0
2096921,2096921,159917,672064,0
2096921,2096921,159786,672207,0
2096921,2096921,159748,672369,0
2096921,2096921,159780,672369,0
2096921,2096921,159984,672269,0
2096921,2096921,160107,672054,0
2096921,2096921,160009,672198,0
2096921,2096921,160070,672025,0
2096921,2096921,160302,672491,0
2096921,2096921,160220,672856,0
2096921,2096921,160285,672626,0
2096921,2096921,160213,672603,0
2096921,2096921,160057,672348,0
2096921,2096921,160486,672563,0
2096921,2096921,160337,672620,0
2096921,2096921,160071,672795,0
2096921,2096921,160182,672499,0
2096921,2096921,160425,672993,0
2096921,2096921,160478,672866,0
2096921,2096921,160510,672950,0
2096921,2096921,160273,673062,0
2096921,2096921,160387,673326,0
2096921,2096921,160485,673453,0
2096921,2096921,160294,673318,0
2096921,2096921,160542,673306,0
2096921,2096921,160385,673140,0
2096921,2096921,160406,673118,0
2096921,2096921,160573,673570,0
2096921,2096921,160443,673580,0
2096921,2096921,160432,673752,0
2096921,2096921,160590,673504,0
2096921,2096921,160673,673469,0
2096921,2096921,160842,673259,0
2096921,2096921,160623,673662,0
2096921,2096921,160544,673423,0
2096921,2096921,160602,673792,0
2096921,2096921,160629,673628,0
2096921,2096921,160733,673651,0
2096921,2096921,160570,673849,0
2096921,2096921,160700,673549,0
2096921,2096921,160850,673941,0
2096921,2096921,161014,673552,0
2096921,2096921,161194,673891,0
2096921,2096921,160970,674037,0
2096921,2096921,160875,674331,0
2096921,2096921,160848,674178,0
2096921,2096921,160837,674202,0
2096921,2096921,160793,674174,0
2096921,2096921,161093,674227,0
2096921,2096921,161419,674466,0
2096921,2096921,161338,674451,0
2096921,2096921,161219,674498,0
2096921,2096921,160985,674276,0
2096921,2096921,161075,674393,0
2096921,2096921,161386,674312,0
2096921,2096921,161022,674211,0
2096921,2096921,160808,674707,0
2096921,2096921,161134,674431,0
2096921,2096921,161312,674416,0
2096921,2096921,161191,674689,0
2096921,2096921,161280,674677,0
2096921,2096921,161417,674886,0
2096921,2096921,161173,674702,0
2096921,2096921,161417,674827,0
2096921,2096921,161398,674771,0
2096921,2096921,161394,674838,0
2096921,2096921,161550,674785,0
2096921,2096921,161398,674915,0
2096921,2096921,161385,675091,0
2096921,2096921,161627,675160,0
2096921,2096921,161536,674700,0
2096921,2096921,161285,674955,0
2096921,2096921,161266,674706,0
2096921,2096921,161332,675183,0
2096921,2096921,161557,675468,0
2096921,2096921,161381,675207,0
2096921,2096921,161504,675166,0
2096921,2096921,161413,675226,0
2096921,2096921,161606,675292,0
2096921,2096921,161657,675156,0
2096921,2096921,161598,675107,0
2096921,2096921,161732,675237,0
2096921,2096921,161596,675152,0
2096921,2096921,161486,675283,0
2096921,2096921,161661,675415,0
2096921,2096921,161595,675237,0
2096921,2096921,161613,675289,0
2096921,2096921,161577,675579,0
2096921,2096921,161913,675568,0
2096921,2096921,161408,675398,0
2096921,2096921,161798,675406,0
2096921,2096921,161673,674978,0
2096921,2096921,161630,675341,0
2096921,2096921,161772,675198,0
2096921,2096921,161631,675551,0
2096921,2096921,161743,675466,0
2096921,2096921,161876,675488,0
2096921,2096921,161846,675980,0
2096921,2096921,161758,675607,0
2096921,2096921,161594,675788,0
2096921,2096921,161832,675611,0
2096921,2096921,162006,675660,0
2096921,2096921,161763,675368,0
2096921,2096921,161642,675631,0
2096921,2096921,162027,675809,0
2096921,2096921,161879,676110,0
2096921,2096921,161711,675846,0
2096921,2096921,161808,675989,0
2096921,2096921,161662,675919,0
2096921,2096921,161871,675806,0
2096921,2096921,161925,675769,0
2096921,2096921,161813,675833,0
2096921,2096921,161750,676010,0
2096921,2096921,161673,675934,0
2096921,2096921,161965,676323,0
2096921,2096921,162093,676087,0
2096921,2096921,161909,675949,0
2096921,2096921,162290,675697,0
2096921,2096921,162054,676024,0
2096921,2096921,162145,675700,0
2096921,2096921,161967,676122,0
2096921,2096921,161944,676521,0
2096921,2096921,161807,676402,0
2096921,2096921,161951,676092,0
2096921,2096921,162076,675905,0
2096921,2096921,161923,676160,0
2096921,2096921,161742,676189,0
2096921,2096921,161917,676596,0
2096921,2096921,161975,676159,0
2096921,2096921,162171,676203,0
2096921,2096921,162223,676308,0
2096921,2096921,162353,676460,0
2096921,2096921,162065,676597,0
2096921,2096921,161980,676272,0
2096921,2096921,162312,676456,0
2096921,2096921,162258,676096,0
2096921,2096921,162387,676720,0
2096921,2096921,162215,676272,0
2096921,2096921,162084,676359,0
2096921,2096921,162052,676496,0
2096921,2096921,162192,676549,0
2096921,2096921,162235,676406,0
2096921,2096921,161784,676726,0
2096921,2096921,162141,676570,0
2096921,2096921,162515,676442,0
2096921,2096921,162377,676538,0
2096921,2096921,162408,676498,0
2096921,2096921,162540,676361,0
2096921,2096921,162531,676740,0
2096921,2096921,162123,676505,0
2096921,2096921,162512,676586,0
2096921,2096921,162312,676706,0
2096921,2096921,162000,676483,0
2096921,2096921,162268,676371,0
2096921,2096921,161914,676673,0
2096921,2096921,162184,676448,0
2096921,2096921,162384,676811,0
2096921,2096921,162522,676754,0
2096921,2096921,162437,676991,0
2096921,2096921,162272,676763,0
2096921,2096921,162349,676887,0
2096921,2096921,162598,676568,0
2096921,2096921,162162,676471,0
2096921,2096921,162317,676638,0
2096921,2096921,162531,676497,0
2096921,2096921,162122,676529,0
2096921,2096921,162533,676533,0
2096921,2096921,162505,676894,0
2096921,2096921,162387,676504,0
2096921,2096921,162359,676507,0
2096921,2096921,162363,676784,0
2096921,2096921,161916,676718,0
2096921,2096921,162279,676812,0
2096921,2096921,162562,676568,0
2096921,2096921,162410,676829,0
2096921,2096921,162465,676974,0
2096921,2096921,162537,676964,0
2096921,2096921,162356,676907,0
2096921,2096921,162357,676532,0
2096921,2096921,162262,677057,0
2096921,2096921,162345,676892,0
2096921,2096921,162257,676517,0
2096921,2096921,162431,676675,0
2096921,2096921,162271,676889,0
2096921,2096921,162238,676730,0
2096921,2096921,162437,676960,0
2096921,2096921,162272,676692,0
2096921,2096921,162201,676867,0
2096921,2096921,162505,676712,0
2096921,2096921,162366,676664,0
2096921,2096921,162305,676250,0
2096921,2096921,162339,676580,0
2096921,2096921,162100,676669,0
2096921,2096921,162300,676899,0
2096921,2096921,162442,676729,0
2096921,2096921,162265,676607,0
2096921,2096921,162191,676547,0
2096921,2096921,162196,676676,0
2096921,2096921,162292,676571,0
2096921,2096921,162586,676385,0
2096921,2096921,161992,676654,0
2096921,2096921,162237,676769,0
2096921,2096921,162438,676842,0
2096921,2096921,162686,676726,0
2096921,2096921,162197,676935,0
2096921,2096921,162156,676832,0
2096921,2096921,162254,676649,0
2096921,2096921,162359,676537,0
2096921,2096921,162131,676218,0
2096921,2096921,161831,675822,0
2096921,2096921,162018,675836,0
2096921,2096921,162033,676281,0
2096921,2096921,162073,676193,0
2096921,2096921,161731,675965,0
2096921,2096921,162018,675988,0
2096921,2096921,161872,675707,0
2096921,2096921,161752,676050,0
2096921,2096921,161596,675937,0
2096921,2096921,161282,675260,0
2096921,2096921,161401,674936,0
2096921,2096921,161221,674789,0
2096921,2096921,161498,674799,0
2096921,2096921,161604,674802,0
2096921,2096921,160912,674347,0
2096921,2096921,160867,673833,0
2096921,2096921,161107,673943,0
2096921,2096921,161190,674049,0
2096921,2096921,160931,673856,0
2096921,2096921,160790,673346,0
2096921,2096921,160195,672677,0
2096921,2096921,160120,672893,0
2096921,2096921,160049,672937,0
2096921,2096921,160276,673030,0
2096921,2096921,159048,671234,0
2096921,2096921,159293,670501,0
2096921,2096921,159247,670556,0
2096921,2096921,159127,670160,0
2096921,2096921,158907,670563,0
2096921,2096921,157706,668442,0
2096921,2096921,157531,667441,0
2096921,2096921,157381,667190,0
2096921,2096921,157287,667467,0
2096921,2096921,157625,667651,0
2096921,2096921,156230,665899,0
2096921,2096921,156539,665259,0
2096921,2096921,156310,665333,0
2096921,2096921,156497,665522,0
2096921,2096921,156214,665303,0
2096921,2096921,155604,664260,0
2096921,2096921,155178,663851,0
2096921,2096921,155253,663689,0
2096921,2096921,155296,663442,0
2096921,2096921,155575,663591,0
2096921,2096921,154874,662445,0
2096921,2096921,154805,662253,0
2096921,2096921,155050,662396,0
2096921,2096921,154665,662480,0
2096921,2096921,154528,662291,0
2096921,2096921,154425,661612,0
2096921,2096921,154250,661593,0
2096921,2096921,154287,661355,0
2096921,2096921,154049,661372,0
2096921,2096921,154208,661424,0
2096921,2096921,153908,660794,0
2096921,2096921,153731,660585,0
2096921,2096921,153748,660548,0
2096921,2096921,154003,660682,0
2096921,2096921,154262,660747,0
2096921,2096921,154011,660814,0
2096921,2096921,153915,660422,0
2096921,2096921,153739,660342,0
2096921,2096921,153832,660291,0
2096921,2096921,153699,660476,0
2096921,2096921,153746,660051,0
2096921,2096921,153625,660267,0
2096921,2096921,153495,660360,0
2096921,2096921,153593,660240,0
2096921,2096921,153992,660294,0
2096921,2096921,153820,660247,0
2096921,2096921,153679,660133,0
2096921,2096921,154004,659985,0
2096921,2096921,154016,660140,0
2096921,2096921,153987,660384,0
2096921,2096921,153912,660538,0
2096921,2096921,153833,660620,0
2096921,2096921,153920,660303,0
2096921,2096921,154119,660402,0
2096921,2096921,154086,660671,0
2096921,2096921,153814,660572,0
2096921,2096921,154014,660546,0
2096921,2096921,153809,660577,0
2096921,2096921,153943,660663,0
2096921,2096921,153701,660839,0
2096921,2096921,154105,660942,0
2096921,2096921,153999,660656,0
2096921,2096921,153750,660554,0
2096921,2096921,154181,660984,0
2096921,2096921,154224,660709,0
2096921,2096921,154207,661316,0
2096921,2096921,154268,661221,0
2096921,2096921,154377,661434,0
2096921,2096921,154204,661192,0
2096921,2096921,154084,661232,0
2096921,2096921,154520,661486,0
2096921,2096921,154486,661762,0
2096921,2096921,154193,661599,0
2096921,2096921,154323,661774,0
2096921,2096921,154596,661856,0
2096921,2096921,154691,662031,0
2096921,2096921,154571,662260,0
2096921,2096921,154769,662477,0
2096921,2096921,154964,662148,0
2096921,2096921,155115,662220,0
2096921,2096921,154850,662608,0
2096921,2096921,154985,662841,0
2096921,2096921,155191,662859,0
2096921,2096921,155430,663011,0
2096921,2096921,155007,662534,0
2096921,2096921,155418,663147,0
2096921,2096921,155498,663294,0
2096921,2096921,155567,663608,0
2096921,2096921,155592,663362,0
2096921,2096921,155443,663648,0
2096921,2096921,155477,663281,0
2096921,2096921,155439,663772,0
2096921,2096921,155862,663811,0
2096921,2096921,155627,663467,0
2096921,2096921,155528,663596,0
2096921,2096921,155766,664132,0
2096921,2096921,155792,664246,0
2096921,2096921,155895,664114,0
2096921,2096921,155727,664628,0
2096921,2096921,155725,664249,0
2096921,2096921,155831,664386,0
2096921,2096921,155790,664717,0
2096921,2096921,156102,664553,0
2096921,2096921,156214,664595,0
2096921,2096921,156104,664746,0
2096921,2096921,156439,665007,0
2096921,2096921,156371,665389,0
2096921,2096921,156424,665224,0
2096921,2096921,156344,665586,0
2096921,2096921,156320,665236,0
2096921,2096921,156936,665865,0
2096921,2096921,157034,665870,0
2096921,2096921,156811,666022,0
2096921,2096921,156707,666048,0
2096921,2096921,156733,665739,0
2096921,2096921,156850,665940,0
2096921,2096921,157065,666325,0
2096921,2096921,156997,666473,0
2096921,2096921,156862,666458,0
2096921,2096921,156690,666342,0
2096921,2096921,156933,666896,0
2096921,2096921,156864,666741,0
2096921,2096921,157149,666698,0
2096921,2096921,157322,667022,0
2096921,2096921,157395,666942,0
2096921,2096921,157613,667265,0
2096921,2096921,157625,667553,0
2096921,2096921,157380,667775,0
2096921,2096921,157245,667533,0
2096921,2096921,157552,667630,0
2096921,2096921,157504,668053,0
2096921,2096921,157428,667770,0
2096921,2096921,157751,667951,0
2096921,2096921,157598,667662,0
2096921,2096921,157486,667959,0
2096921,2096921,157739,668578,0
2096921,2096921,158198,668172,0
2096921,2096921,157684,668056,0
2096921,2096921,157565,667855,0
2096921,2096921,157868,667949,0
2096921,2096921,157919,668066,0
2096921,2096921,158084,668185,0
2096921,2096921,157867,667867,0
2096921,2096921,157901,668122,0
2096921,2096921,158003,668343,0
2096921,2096921,158002,668542,0
2096921,2096921,158230,668487,0
2096921,2096921,158164,668423,0
2096921,2096921,158060,668386,0
2096921,2096921,158149,668309,0
2096921,2096921,158155,668076,0
2096921,2096921,157945,668308,0
2096921,2096921,158156,668331,0
2096921,2096921,158139,668475,0
2096921,2096921,158298,668336,0
2096921,2096921,158223,668613,0
2096921,2096921,157974,668544,0
2096921,2096921,158155,668562,0
2096921,2096921,157831,668265,0
2096921,2096921,157781,668365,0
2096921,2096921,157934,668333,0
2096921,2096921,158081,668207,0
2096921,2096921,158070,668161,0
2096921,2096921,158408,668580,0
2096921,2096921,158203,668611,0
2096921,2096921,158182,668375,0
2096921,2096921,157857,667962,0
2096921,2096921,158038,668370,0
2096921,2096921,157960,668306,0
2096921,2096921,157972,668091,0
2096921,2096921,157811,667801,0
2096921,2096921,157915,667696,0
2096921,2096921,157574,667866,0
2096921,2096921,157883,667680,0
2096921,2096921,157700,668065,0
2096921,2096921,157612,667584,0
2096921,2096921,157777,667712,0
2096921,2096921,157647,667773,0
2096921,2096921,157494,667770,0
2096921,2096921,158040,667625,0
2096921,2096921,157714,667601,0
2096921,2096921,157591,667578,0
2096921,2096921,157515,667847,0
2096921,2096921,157649,667892,0
2096921,2096921,157651,667582,0
2096921,2096921,157847,667678,0
2096921,2096921,157679,667320,0
2096921,2096921,157316,667624,0
2096921,2096921,157409,667467,0
2096921,2096921,157310,667290,0
2096921,2096921,157233,667548,0
2096921,2096921,157345,667715,0
2096921,2096921,157611,667754,0
2096921,2096921,157363,667729,0
2096921,2096921,157550,667572,0
2096921,2096921,157774,667640,0
2096921,2096921,157719,667465,0
2096921,2096921,157660,667556,0
2096921,2096921,157802,667452,0
2096921,2096921,157541,667604,0
2096921,2096921,157669,667767,0
2096921,2096921,157789,668138,0
2096921,2096921,157710,667881,0
2096921,2096921,157788,668015,0
2096921,2096921,157824,668134,0
2096921,2096921,158016,667937,0
2096921,2096921,157833,668114,0
2096921,2096921,157709,668018,0
2096921,2096921,157621,667898,0
2096921,2096921,157534,667940,0
2096921,2096921,157719,668335,0
2096921,2096921,157728,668476,0
2096921,2096921,158053,668236,0
2096921,2096921,158250,668246,0
2096921,2096921,157834,668343,0
2096921,2096921,158345,668685,0
2096921,2096921,158212,668472,0
2096921,2096921,157944,668606,0
2096921,2096921,158160,668708,0
2096921,2096921,158149,668709,0
2096921,2096921,158009,668759,0
2096921,2096921,158259,669018,0
2096921,2096921,158307,668901,0
2096921,2096921,158369,668904,0
2096921,2096921,158211,669127,0
2096921,2096921,158411,669317,0
2096921,2096921,158664,669576,0
2096921,2096921,158642,669362,0
2096921,2096921,158809,669231,0
2096921,2096921,158550,669522,0
2096921,2096921,158735,669639,0
2096921,2096921,158455,669461,0
2096921,2096921,158440,669542,0
2096921,2096921,158917,669709,0
2096921,2096921,158656,669835,0
2096921,2096921,158730,669965,0
2096921,2096921,158666,670160,0
2096921,2096921,158732,670053,0
2096921,2096921,158827,669930,0
2096921,2096921,158887,670093,0
2096921,2096921,158943,670308,0
2096921,2096921,159350,670448,0
2096921,2096921,159185,670349,0
2096921,2096921,159208,670212,0
2096921,2096921,159155,670268,0
2096921,2096921,159354,670485,0
2096921,2096921,159200,670458,0
2096921,2096921,159139,670522,0
2096921,2096921,159266,670526,0
2096921,2096921,159268,670536,0
2096921,2096921,158949,670922,0
2096921,2096921,159361,671052,0
2096921,2096921,159469,671332,0
2096921,2096921,159221,671197,0
2096921,2096921,159415,671125,0
2096921,2096921,159441,671385,0
2096921,2096921,159300,671417,0
2096921,2096921,159397,670878,0
2096921,2096921,159473,671247,0
2096921,2096921,159637,671344,0
2096921,2096921,159798,671695,0
2096921,2096921,159238,671823,0
2096921,2096921,159712,671905,0
2096921,2096921,159653,671532,0
2096921,2096921,159590,671660,0
2096921,2096921,159715,672002,0
2096921,2096921,159821,672040,0
2096921,2096921,159776,671942,0
2096921,2096921,159886,671611,0
2096921,2096921,159921,671609,0
2096921,2096921,160212,672478,0
2096921,2096921,160348,672026,0
2096921,2096921,159837,672110,0
2096921,2096921,159918,672324,0
2096921,2096921,160020,672324,0
2096921,2096921,160031,672484,0
2096921,2096921,160226,672181,0
2096921,2096921,160061,672188,0
2096921,2096921,160145,672497,0
2096921,2096921,159830,672372,0
2096921,2096921,160131,672677,0
2096921,2096921,160149,672510,0
2096921,2096921,159876,672576,0
2096921,2096921,160047,672752,0
2096921,2096921,159983,672542,0
2096921,2096921,160389,672491,0
2096921,2096921,160423,672878,0
2096921,2096921,160478,672744,0
2096921,2096921,160479,672783,0
2096921,2096921,160470,672901,0
2096921,2096921,160508,673174,0
2096921,2096921,160826,673191,0
2096921,2096921,160581,673173,0
2096921,2096921,160478,673586,0
2096921,2096921,160494,673439,0
2096921,2096921,160695,673313,0
2096921,2096921,160766,673276,0
2096921,2096921,160663,673292,0
2096921,2096921,160724,673161,0
2096921,2096921,160843,673379,0
2096921,2096921,160561,673394,0
2096921,2096921,160835,673570,0
2096921,2096921,160731,673837,0
2096921,2096921,160590,673742,0
2096921,2096921,160647,673650,0
2096921,2096921,160896,673846,0
2096921,2096921,160981,673884,0
2096921,2096921,160632,673772,0
2096921,2096921,160892,674006,0
2096921,2096921,161124,674037,0
2096921,2096921,161009,673911,0
2096921,2096921,161151,674065,0
2096921,2096921,160822,673862,0
2096921,2096921,161148,673761,0
2096921,2096921,160802,674097,0
2096921,2096921,160973,674019,0
2096921,2096921,160911,674109,0
2096921,2096921,161008,674075,0
2096921,2096921,160944,674216,0
2096921,2096921,161295,673969,0
2096921,2096921,161355,674427,0
2096921,2096921,161446,674436,0
2096921,2096921,161148,674682,0
2096921,2096921,161386,674202,0
2096921,2096921,161251,674202,0
2096921,2096921,161327,674417,0
2096921,2096921,161036,674973,0
2096921,2096921,161126,674610,0
2096921,2096921,161136,674569,0
2096921,2096921,161391,674703,0
2096921,2096921,161441,674689,0
2096921,2096921,161235,674813,0
2096921,2096921,161323,674680,0
2096921,2096921,161436,674612,0
2096921,2096921,161455,674802,0
2096921,2096921,161476,674862,0
2096921,2096921,161421,675197,0
2096921,2096921,161415,675442,0
2096921,2096921,161618,675149,0
2096921,2096921,161109,675301,0
2096921,2096921,161507,675342,0
2096921,2096921,161485,674977,0
2096921,2096921,161789,675152,0
2096921,2096921,161312,674885,0
2096921,2096921,161388,675152,0
2096921,2096921,161488,675136,0
2096921,2096921,161465,675337,0
2096921,2096921,161405,675378,0
2096921,2096921,161728,675173,0
2096921,2096921,161522,675187,0
2096921,2096921,161719,675071,0
2096921,2096921,161521,675371,0
2096921,2096921,161442,675182,0
2096921,2096921,161464,675283,0
2096921,2096921,161480,675106,0
2096921,2096921,161851,675092,0
2096921,2096921,161877,675372,0
2096921,2096921,161743,675307,0
2096921,2096921,161767,675272,0
2096921,2096921,161676,675487,0
2096921,2096921,161626,675645,0
2096921,2096921,161601,675198,0
2096921,2096921,161766,675555,0
2096921,2096921,161784,675675,0
2096921,2096921,161693,675784,0
2096921,2096921,161771,675501,0
2096921,2096921,161979,675403,0
2096921,2096921,162068,675599,0
2096921,2096921,161721,675651,0
2096921,2096921,161690,675854,0
2096921,2096921,161610,675716,0
2096921,2096921,161654,675496,0
2096921,2096921,161788,675510,0
2096921,2096921,161809,675924,0
2096921,2096921,161955,675530,0
2096921,2096921,162067,675798,0
2096921,2096921,161986,675817,0
2096921,2096921,161937,676063,0
2096921,2096921,161917,675704,0
2096921,2096921,161848,675948,0
2096921,2096921,161968,675953,0
2096921,2096921,161953,675966,0
2096921,2096921,161942,675854,0
2096921,2096921,161938,675974,0
2096921,2096921,161899,675685,0
2096921,2096921,162234,676122,0
2096921,2096921,162089,676172,0
2096921,2096921,162016,675978,0
2096921,2096921,162030,676063,0
2096921,2096921,162147,676045,0
2096921,2096921,161940,676160,0
2096921,2096921,162142,676014,0
2096921,2096921,162085,676058,0
2096921,2096921,162247,676437,0
2096921,2096921,161947,676136,0
2096921,2096921,162116,676110,0
2096921,2096921,162180,676159,0
2096921,2096921,162113,676310,0
2096921,2096921,162093,676299,0
2096921,2096921,162060,676176,0
2096921,2096921,161989,676093,0
2096921,2096921,162205,676259,0
2096921,2096921,162283,676376,0
2096921,2096921,162492,676600,0
2096921,2096921,162244,676174,0
2096921,2096921,162327,676399,0
2096921,2096921,162146,676515,0
2096921,2096921,162119,676300,0
2096921,2096921,162049,676302,0
2096921,2096921,162199,676315,0
2096921,2096921,162355,676504,0
2096921,2096921,162234,676247,0
2096921,2096921,162226,676540,0
2096921,2096921,162524,676627,0
2096921,2096921,161965,676708,0
2096921,2096921,162373,676523,0
2096921,2096921,162204,676583,0
2096921,2096921,162269,676843,0
2096921,2096921,161981,676820,0
2096921,2096921,162225,676434,0
2096921,2096921,162440,676802,0
2096921,2096921,162561,676669,0
2096921,2096921,162443,676763,0
2096921,2096921,162596,676788,0
2096921,2096921,162133,676703,0
2096921,2096921,162455,676411,0
2096921,2096921,162180,676554,0
2096921,2096921,162011,676654,0
2096921,2096921,162214,676576,0
2096921,2096921,162342,676719,0
2096921,2096921,162162,676782,0
2096921,2096921,161946,676799,0
2096921,2096921,162523,676710,0
2096921,2096921,162347,676891,0
2096921,2096921,162334,676810,0
2096921,2096921,162197,676539,0
2096921,2096921,162251,676614,0
2096921,2096921,162317,676323,0
2096921,2096921,162483,676452,0
2096921,2096921,162544,676713,0
2096921,2096921,162496,676609,0
2096921,2096921,162453,676741,0
2096921,2096921,162217,676720,0
2096921,2096921,162104,676598,0
2096921,2096921,162294,676844,0
2096921,2096921,162086,676574,0
2096921,2096921,162480,676853,0
2096921,2096921,162549,676555,0
2096921,2096921,162404,676785,0
2096921,2096921,162343,677137,0
2096921,2096921,162177,676991,0
2096921,2096921,162152,676791,0
2096921,2096921,162117,676524,0
2096921,2096921,162336,676538,0
2096921,2096921,162319,676674,0
2096921,2096921,162051,676877,0
2096921,2096921,162493,676666,0
2096921,2096921,162381,676793,0
2096921,2096921,162401,676824,0
2096921,2096921,162475,676548,0
2096921,2096921,162256,676740,0
2096921,2096921,162192,676793,0
2096921,2096921,162368,676670,0
2096921,2096921,162420,676756,0
2096921,2096921,162429,676842,0
2096921,2096921,162494,676699,0
2096921,2096921,162117,676613,0
2096921,2096921,162427,676863,0
2096921,2096921,162537,676838,0
2096921,2096921,162281,676594,0
2096921,2096921,162378,676649,0
2096921,2096921,162197,676814,0
2096921,2096921,162103,676498,0
2096921,2096921,162429,676410,0
2096921,2096921,162466,676828,0
2096921,2096921,162262,676333,0
2096921,2096921,162226,676541,0
2096921,2096921,162170,676268,0
2096921,2096921,162289,676343,0
2096921,2096921,162301,676222,0
2096921,2096921,161762,675525,0
2096921,2096921,161749,675580,0
2096921,2096921,161732,675808,0
2096921,2096921,161668,675635,0
2096921,2096921,162083,675551,0
2096921,2096921,161462,675294,0
2096921,2096921,161852,675072,0
2096921,2096921,161652,674751,0
2096921,2096921,161542,675001,0
2096921,2096921,161428,674787,0
2096921,2096921,160794,674413,0
2096921,2096921,160757,674092,0
2096921,2096921,160865,674117,0
2096921,2096921,160999,673884,0
2096921,2096921,161058,673917,0
2096921,2096921,160702,673276,0
2096921,2096921,160407,673210,0
2096921,2096921,160218,672707,0
2096921,2096921,160114,672815,0
2096921,2096921,160388,672560,0
2096921,2096921,159187,671191,0
2096921,2096921,159098,670488,0
2096921,2096921,158980,670611,0
2096921,2096921,159207,670587,0
2096921,2096921,159196,670765,0
2096921,2096921,158088,668620,0
2096921,2096921,157847,667642,0
2096921,2096921,157301,667585,0
2096921,2096921,157581,667311,0
2096921,2096921,157384,667361,0
2096921,2096921,156668,665737,0
2096921,2096921,156422,665469,0
2096921,2096921,156471,665224,0
2096921,2096921,156326,665298,0
2096921,2096921,156467,665463,0
2096921,2096921,155739,664127,0
2096921,2096921,155748,663790,0
2096921,2096921,155588,663640,0
2096921,2096921,155546,663603,0
2096921,2096921,155490,663499,0
2096921,2096921,155208,662650,0
2096921,2096921,154883,662337,0
2096921,2096921,154624,662113,0
2096921,2096921,154624,662278,0
2096921,2096921,154798,661910,0
2096921,2096921,154392,661662,0
2096921,2096921,154262,661325,0
2096921,2096921,154455,661491,0
2096921,2096921,154298,661321,0
2096921,2096921,154255,661463,0
2096921,2096921,154082,660933,0
2096921,2096921,153794,660677,0
2096921,2096921,153912,660554,0
2096921,2096921,154118,660729,0
2096921,2096921,154300,660687,0
2096921,2096921,153735,660681,0
2096921,2096921,153928,660295,0
2096921,2096921,153999,660163,0
2096921,2096921,153781,660374,0
2096921,2096921,153633,660301,0
2096921,2096921,153542,660379,0
2096921,2096921,153614,660196,0
2096921,2096921,153678,660276,0
2096921,2096921,153856,660183,0
2096921,2096921,153865,660244,0
2096921,2096921,153871,660297,0
2096921,2096921,153579,660170,0
2096921,2096921,153662,660119,0
2096921,2096921,153739,660268,0
2096921,2096921,153701,660441,0
2096921,2096921,153642,660697,0
2096921,2096921,154086,660545,0
2096921,2096921,154004,660433,0
2096921,2096921,154012,660339,0
2096921,2096921,153937,660559,0
2096921,2096921,154051,660569,0
2096921,2096921,154138,660662,0
2096921,2096921,154214,660731,0
2096921,2096921,153943,660476,0
2096921,2096921,153843,660604,0
2096921,2096921,153995,660758,0
2096921,2096921,154104,660577,0
2096921,2096921,154181,660800,0
2096921,2096921,154222,660722,0
2096921,2096921,154194,660780,0
2096921,2096921,154212,661171,0
2096921,2096921,154477,661128,0
2096921,2096921,154164,661097,0
2096921,2096921,153999,661359,0
2096921,2096921,154320,661072,0
2096921,2096921,154473,661451,0
2096921,2096921,154634,661742,0
2096921,2096921,154760,661732,0
2096921,2096921,154766,661937,0
2096921,2096921,154735,661828,0
2096921,2096921,154711,662004,0
2096921,2096921,154765,662568,0
2096921,2096921,154798,662240,0
2096921,2096921,154992,662283,0
2096921,2096921,154723,662317,0
2096921,2096921,154811,662648,0
2096921,2096921,154952,662835,0
2096921,2096921,155161,662675,0
2096921,2096921,155013,662817,0
2096921,2096921,155210,662807,0
2096921,2096921,155192,662949,0
2096921,2096921,155312,663238,0
2096921,2096921,155394,663229,0
2096921,2096921,155408,663200,0
2096921,2096921,155271,663340,0
2096921,2096921,155388,663650,0
2096921,2096921,155686,663655,0
2096921,2096921,155669,663961,0
2096921,2096921,155652,663660,0
2096921,2096921,155615,663759,0
2096921,2096921,155957,664017,0
2096921,2096921,155777,664210,0
2096921,2096921,155849,664288,0
2096921,2096921,155688,663789,0
2096921,2096921,155765,664174,0
2096921,2096921,156047,664746,0
2096921,2096921,156014,664740,0
2096921,2096921,156085,664842,0
2096921,2096921,156292,664717,0
2096921,2096921,155903,664631,0
2096921,2096921,156373,665520,0
2096921,2096921,156671,665662,0
2096921,2096921,156554,665319,0
2096921,2096921,156353,665589,0
2096921,2096921,156467,665398,0
2096921,2096921,156631,665638,0
2096921,2096921,156475,665747,0
2096921,2096921,156452,665728,0
2096921,2096921,156793,665904,0
2096921,2096921,156557,665916,0
2096921,2096921,157181,666270,0
2096921,2096921,157091,666194,0
2096921,2096921,156919,666146,0
2096921,2096921,157147,666109,0
2096921,2096921,156597,666450,0
2096921,2096921,157275,666763,0
2096921,2096921,157208,666900,0
2096921,2096921,157193,666995,0
2096921,2096921,157269,667013,0
2096921,2096921,157272,667082,0
2096921,2096921,157360,667060,0
2096921,2096921,157274,667325,0
2096921,2096921,157405,667206,0
2096921,2096921,157192,667166,0
2096921,2096921,157321,667308,0
2096921,2096921,157553,667468,0
2096921,2096921,157784,667668,0
2096921,2096921,157745,667998,0
2096921,2096921,157469,667807,0
2096921,2096921,157569,668074,0
2096921,2096921,157781,668112,0
2096921,2096921,157825,667545,0
2096921,2096921,157845,667952,0
2096921,2096921,157780,667872,0
2096921,2096921,157757,667829,0
2096921,2096921,158096,668002,0
2096921,2096921,157760,668015,0
2096921,2096921,157996,668194,0
2096921,2096921,157905,668106,0
2096921,2096921,158204,668515,0
2096921,2096921,157983,668488,0
2096921,2096921,157787,668361,0
2096921,2096921,157830,668437,0
2096921,2096921,157970,668484,0
2096921,2096921,157885,668458,0
2096921,2096921,158126,668523,0
2096921,2096921,158042,668407,0
2096921,2096921,158191,668423,0
2096921,2096921,158141,668258,0
2096921,2096921,157835,668604,0
2096921,2096921,157697,668806,0
2096921,2096921,158135,668375,0
2096921,2096921,158334,668318,0
2096921,2096921,158072,668205,0
2096921,2096921,158178,668379,0
2096921,2096921,158099,668409,0
2096921,2096921,158149,668443,0
2096921,2096921,158113,668445,0
2096921,2096921,158323,668530,0
2096921,2096921,158269,668267,0
2096921,2096921,157906,668314,0
2096921,2096921,158061,668097,0
2096921,2096921,158036,667992,0
2096921,2096921,157942,667936,0
2096921,2096921,157763,668046,0
2096921,2096921,157885,668375,0
2096921,2096921,157746,668143,0
2096921,2096921,158044,668055,0
2096921,2096921,157910,668099,0
2096921,2096921,157777,668295,0
2096921,2096921,157761,667913,0
2096921,2096921,157632,667980,0
2096921,2096921,157549,667697,0
2096921,2096921,157729,667773,0
2096921,2096921,157812,667608,0
2096921,2096921,157697,667701,0
2096921,2096921,157795,667734,0
2096921,2096921,157809,667459,0
2096921,2096921,157601,667563,0
2096921,2096921,157577,667725,0
2096921,2096921,157594,667760,0
2096921,2096921,157431,667583,0
2096921,2096921,157603,667480,0
2096921,2096921,157335,667660,0
2096921,2096921,157831,667547,0
2096921,2096921,157555,667389,0
2096921,2096921,157448,667337,0
2096921,2096921,157740,667661,0
2096921,2096921,157419,667679,0
2096921,2096921,157415,667543,0
2096921,2096921,157528,667634,0
2096921,2096921,157300,667754,0
2096921,2096921,157589,667528,0
2096921,2096921,157658,667630,0
2096921,2096921,157511,667987,0
2096921,2096921,157740,667862,0
2096921,2096921,157716,667939,0
2096921,2096921,157657,668066,0
2096921,2096921,157532,668023,0
2096921,2096921,157824,668017,0
2096921,2096921,157664,668078,0
2096921,2096921,157994,667990,0
2096921,2096921,157816,667904,0
2096921,2096921,157584,667703,0
2096921,2096921,157561,667816,0
2096921,2096921,157624,668351,0
2096921,2096921,157653,668434,0
2096921,2096921,157650,668277,0
2096921,2096921,157918,668455,0
2096921,2096921,157821,668276,0
2096921,2096921,158307,668620,0
2096921,2096921,158225,668741,0
2096921,2096921,158076,668851,0
2096921,2096921,158254,668577,0
2096921,2096921,157882,668860,0
2096921,2096921,158181,669051,0
2096921,2096921,158386,669177,0
2096921,2096921,158303,669153,0
2096921,2096921,158429,669135,0
2096921,2096921,158226,669162,0
2096921,2096921,158573,669020,0
2096921,2096921,158430,669510,0
2096921,2096921,158537,669339,0
2096921,2096921,158645,669195,0
2096921,2096921,158756,669060,0
2096921,2096921,158622,669574,0
2096921,2096921,158795,669539,0
2096921,2096921,158771,669586,0
2096921,2096921,158558,669850,0
2096921,2096921,158633,669488,0
2096921,2096921,158835,669829,0
2096921,2096921,158710,670204,0
2096921,2096921,158925,669793,0
2096921,2096921,158746,670518,0
2096921,2096921,159081,670230,0
2096921,2096921,159099,670359,0
2096921,2096921,159100,670510,0
2096921,2096921,159045,670443,0
2096921,2096921,159080,670259,0
2096921,2096921,159194,670055,0
2096921,2096921,159151,670456,0
2096921,2096921,159257,670808,0
2096921,2096921,159501,670751,0
2096921,2096921,159322,670492,0
2096921,2096921,159118,670541,0
2096921,2096921,159360,670933,0
2096921,2096921,159193,671124,0
2096921,2096921,159127,671060,0
2096921,2096921,159244,670829,0
2096921,2096921,159348,670723,0
2096921,2096921,159420,671201,0
2096921,2096921,159656,671385,0
2096921,2096921,159541,671601,0
2096921,2096921,159481,671806,0
2096921,2096921,159266,671235,0
2096921,2096921,159446,671401,0
2096921,2096921,159710,671566,0
2096921,2096921,159400,671616,0
2096921,2096921,159642,671697,0
2096921,2096921,159542,671616,0
2096921,2096921,160000,671720,0
2096921,2096921,159792,671958,0
2096921,2096921,159988,672234,0
2096921,2096921,159699,672041,0
2096921,2096921,160120,671942,0
2096921,2096921,159938,671837,0
2096921,2096921,160023,672014,0
2096921,2096921,160271,671894,0
2096921,2096921,160150,671991,0
2096921,2096921,160115,672148,0
2096921,2096921,160235,672273,0
2096921,2096921,160525,672373,0
2096921,2096921,160064,672603,0
2096921,2096921,159997,672391,0
2096921,2096921,160334,672273,0
2096921,2096921,160212,672577,0
2096921,2096921,160039,672582,0
2096921,2096921,159939,672655,0
2096921,2096921,160316,672981,0
2096921,2096921,159931,672659,0
2096921,2096921,160397,673084,0
2096921,2096921,160300,672971,0
2096921,2096921,160465,673077,0
2096921,2096921,160525,672931,0
2096921,2096921,160305,673434,0
2096921,2096921,160483,673074,0
2096921,2096921,160457,673464,0
2096921,2096921,160340,673160,0
2096921,2096921,160480,673348,0
2096921,2096921,160336,673083,0
2096921,2096921,160545,673416,0
2096921,2096921,160568,673349,0
2096921,2096921,160908,673511,0
2096921,2096921,160858,673633,0
2096921,2096921,160668,673311,0
2096921,2096921,160433,673231,0
2096921,2096921,160788,673314,0
2096921,2096921,160652,673401,0
2096921,2096921,160812,673755,0
2096921,2096921,160882,673625,0
2096921,2096921,160942,673946,0
2096921,2096921,161038,674089,0
2096921,2096921,160817,673912,0
2096921,2096921,160965,673811,0
2096921,2096921,160843,673747,0
2096921,2096921,161325,673854,0
2096921,2096921,160951,673946,0
2096921,2096921,161009,674080,0
2096921,2096921,160942,674165,0
2096921,2096921,161009,673930,0
2096921,2096921,161263,673910,0
2096921,2096921,161040,674468,0
2096921,2096921,161036,674213,0
2096921,2096921,161174,674173,0
2096921,2096921,161165,674219,0
2096921,2096921,161295,674420,0
2096921,2096921,160997,674405,0
2096921,2096921,161126,674410,0
2096921,2096921,161423,674395,0
2096921,2096921,161277,674313,0
2096921,2096921,161073,674654,0
2096921,2096921,161246,674608,0
2096921,2096921,161281,674871,0
2096921,2096921,161204,674352,0
2096921,2096921,161296,674498,0
2096921,2096921,161340,674734,0
2096921,2096921,161425,674768,0
2096921,2096921,161316,674692,0
2096921,2096921,161387,674977,0
2096921,2096921,161667,674794,0
2096921,2096921,161640,675014,0
2096921,2096921,161606,675106,0
2096921,2096921,161462,675427,0
2096921,2096921,161504,674900,0
2096921,2096921,161432,674848,0
2096921,2096921,161316,674681,0
2096921,2096921,161434,675194,0
2096921,2096921,161600,675056,0
2096921,2096921,161935,675117,0
2096921,2096921,161740,675051,0
2096921,2096921,161404,675014,0
2096921,2096921,161740,675198,0
2096921,2096921,161392,675080,0
2096921,2096921,161500,675251,0
2096921,2096921,161541,675225,0
2096921,2096921,161626,675113,0
2096921,2096921,161839,675384,0
2096921,2096921,161699,675231,0
2096921,2096921,161518,675657,0
2096921,2096921,161555,675579,0
2096921,2096921,161796,675547,0
2096921,2096921,161895,675751,0
2096921,2096921,161935,675384,0
2096921,2096921,161486,675392,0
2096921,2096921,161561,675329,0
2096921,2096921,161704,675183,0
2096921,2096921,161712,675285,0
2096921,2096921,161599,675638,0
2096921,2096921,161822,675455,0
2096921,2096921,161743,675358,0
2096921,2096921,161547,675540,0
2096921,2096921,161692,675539,0
2096921,2096921,161788,675654,0
2096921,2096921,161876,675692,0
2096921,2096921,161978,675712,0
2096921,2096921,162004,675832,0
2096921,2096921,161805,675781,0
2096921,2096921,161909,676148,0
2096921,2096921,161890,675717,0
2096921,2096921,161637,675999,0
2096921,2096921,161736,675647,0
2096921,2096921,161812,675715,0
2096921,2096921,161967,675973,0
2096921,2096921,161655,675735,0
2096921,2096921,161892,675714,0
2096921,2096921,161980,675992,0
2096921,2096921,162155,676177,0
2096921,2096921,162098,675860,0
2096921,2096921,162035,675785,0
2096921,2096921,162027,675862,0
2096921,2096921,162098,675864,0
2096921,2096921,162098,675788,0
2096921,2096921,162021,676238,0
2096921,2096921,162327,676010,0
2096921,2096921,161946,675672,0
2096921,2096921,162026,675777,0
2096921,2096921,161970,675923,0
2096921,2096921,161993,675995,0
2096921,2096921,161972,676010,0
2096921,2096921,162141,676212,0
2096921,2096921,162412,676155,0
2096921,2096921,162157,676241,0
2096921,2096921,161691,676197,0
2096921,2096921,162351,676009,0
2096921,2096921,162113,675888,0
2096921,2096921,162329,676152,0
2096921,2096921,162116,676432,0
2096921,2096921,162242,676368,0
2096921,2096921,162329,676259,0
2096921,2096921,162169,676215,0
2096921,2096921,162216,676537,0
2096921,2096921,162282,676425,0
2096921,2096921,162156,676330,0
2096921,2096921,162083,676277,0
2096921,2096921,162223,676148,0
2096921,2096921,162252,676460,0
2096921,2096921,162276,676611,0
2096921,2096921,162242,676653,0
2096921,2096921,162235,676433,0
2096921,2096921,162134,676571,0
2096921,2096921,162111,676556,0
2096921,2096921,162334,676553,0
2096921,2096921,162602,676726,0
2096921,2096921,162633,676218,0
2096921,2096921,162346,676739,0
2096921,2096921,162204,676907,0
2096921,2096921,162294,676514,0
2096921,2096921,162270,676284,0
2096921,2096921,162376,676833,0
2096921,2096921,162555,676862,0
2096921,2096921,162275,677074,0
2096921,2096921,162569,676991,0
2096921,2096921,162397,676796,0
2096921,2096921,162417,676589,0
2096921,2096921,162346,676340,0
2096921,2096921,161938,676591,0
2096921,2096921,162452,676423,0
2096921,2096921,162277,676302,0
2096921,2096921,162383,676637,0
2096921,2096921,162305,676582,0
2096921,2096921,162351,676600,0
2096921,2096921,162355,676908,0
2096921,2096921,162267,676644,0
2096921,2096921,162420,676571,0
2096921,2096921,162355,676659,0
2096921,2096921,162136,676630,0
2096921,2096921,162224,677050,0
2096921,2096921,162505,676710,0
2096921,2096921,162798,676759,0
2096921,2096921,162384,676610,0
2096921,2096921,162430,676700,0
2096921,2096921,162358,676743,0
2096921,2096921,162462,676259,0
2096921,2096921,162061,676647,0
2096921,2096921,162447,676668,0
2096921,2096921,162470,676482,0
2096921,2096921,162293,676819,0
2096921,2096921,162108,676931,0
2096921,2096921,162503,676827,0
2096921,2096921,162236,676371,0
2096921,2096921,162441,676350,0
2096921,2096921,162294,676632,0
2096921,2096921,162465,676637,0
2096921,2096921,162396,676550,0
2096921,2096921,162141,676542,0
2096921,2096921,162423,676440,0
2096921,2096921,162352,676534,0
2096921,2096921,162309,676382,0
2096921,2096921,162175,676628,0
2096921,2096921,162410,676881,0
2096921,2096921,162154,676728,0
2096921,2096921,162131,676537,0
2096921,2096921,162102,676433,0
2096921,2096921,162429,676642,0
2096921,2096921,162591,676495,0
2096921,2096921,162306,676725,0
2096921,2096921,162060,676847,0
2096921,2096921,162449,676763,0
2096921,2096921,162548,676809,0
2096921,2096921,162460,676827,0
2096921,2096921,162114,676118,0
2096921,2096921,162023,675995,0
2096921,2096921,162163,675986,0
2096921,2096921,162315,675881,0
2096921,2096921,161892,676098,0
2096921,2096921,161863,675954,0
2096921,2096921,161837,675924,0
2096921,2096921,162014,675732,0
2096921,2096921,161890,675568,0
2096921,2096921,161942,675434,0
2096921,2096921,161297,674956,0
2096921,2096921,161621,674787,0
2096921,2096921,161439,674706,0
2096921,2096921,161322,675016,0
2096921,2096921,161308,674860,0
2096921,2096921,161064,674255,0
2096921,2096921,160981,673793,0
2096921,2096921,160821,674158,0
2096921,2096921,160741,673877,0
2096921,2096921,161187,673487,0
2096921,2096921,160121,673143,0
2096921,2096921,159801,672749,0
2096921,2096921,160184,672774,0
2096921,2096921,159988,672936,0
2096921,2096921,160142,672941,0
2096921,2096921,159402,671195,0
2096921,2096921,159217,670680,0
2096921,2096921,159149,670342,0
2096921,2096921,159252,670459,0
2096921,2096921,159026,670406,0
2096921,2096921,157839,668383,0
2096921,2096921,157447,667630,0
2096921,2096921,157654,667201,0
2096921,2096921,157316,667230,0
2096921,2096921,157052,667367,0
2096921,2096921,156688,665893,0
2096921,2096921,156354,665103,0
2096921,2096921,156151,665046,0
2096921,2096921,156207,665309,0
2096921,2096921,156510,664996,0
2096921,2096921,155663,664099,0
2096921,2096921,155630,663272,0
2096921,2096921,155452,663233,0
2096921,2096921,155144,663395,0
2096921,2096921,155342,663186,0
2096921,2096921,154862,662567,0
2096921,2096921,154922,662048,0
2096921,2096921,154982,662124,0
2096921,2096921,155061,662298,0
2096921,2096921,154820,662272,0
2096921,2096921,154320,661846,0
2096921,2096921,154167,661435,0
2096921,2096921,154347,661289,0
2096921,2096921,154150,661363,0
2096921,2096921,154412,661281,0
2096921,2096921,154057,661056,0
2096921,2096921,154126,661080,0
2096921,2096921,153938,660750,0
2096921,2096921,153845,660961,0
2096921,2096921,153787,660468,0
2096921,2096921,153789,660356,0
2096921,2096921,153648,660359,0
2096921,2096921,153848,660339,0
2096921,2096921,153618,660344,0
2096921,2096921,153623,660298,0
2096921,2096921,153682,660269,0
2096921,2096921,154086,660200,0
2096921,2096921,153954,660555,0
2096921,2096921,153644,660511,0
2096921,2096921,153748,660369,0
2096921,2096921,153828,660127,0
2096921,2096921,153735,660336,0
2096921,2096921,153607,660340,0
2096921,2096921,153759,660528,0
2096921,2096921,153607,660104,0
2096921,2096921,154185,660548,0
2096921,2096921,153908,660506,0
2096921,2096921,153832,660492,0
2096921,2096921,153752,660691,0
2096921,2096921,153877,660591,0
2096921,2096921,153677,660564,0
2096921,2096921,153941,660558,0
2096921,2096921,153730,660521,0
2096921,2096921,153580,660635,0
2096921,2096921,153669,660561,0
2096921,2096921,154019,660657,0
2096921,2096921,153923,660814,0
2096921,2096921,154146,660809,0
2096921,2096921,153993,660649,0
2096921,2096921,154196,660706,0
2096921,2096921,154306,661177,0
2096921,2096921,154493,661419,0
2096921,2096921,154217,661028,0
2096921,2096921,154301,661236,0
2096921,2096921,153966,661196,0
2096921,2096921,154347,661461,0
2096921,2096921,154449,661746,0
2096921,2096921,154632,661839,0
2096921,2096921,154526,661936,0
2096921,2096921,154479,661803,0
2096921,2096921,154725,662500,0
2096921,2096921,154768,662264,0
2096921,2096921,154766,661612,0
2096921,2096921,154769,662062,0
2096921,2096921,154693,662070,0
2096921,2096921,154927,662606,0
2096921,2096921,154877,662603,0
2096921,2096921,155056,663052,0
2096921,2096921,155116,662890,0
2096921,2096921,155277,662942,0
2096921,2096921,155403,663097,0
2096921,2096921,155553,663495,0
2096921,2096921,155307,663313,0
2096921,2096921,155229,663216,0
2096921,2096921,155380,663339,0
2096921,2096921,155815,663752,0
2096921,2096921,155714,663905,0
2096921,2096921,155480,663482,0
2096921,2096921,155667,663816,0
2096921,2096921,155463,663840,0
2096921,2096921,155528,664108,0
2096921,2096921,155633,664162,0
2096921,2096921,156033,664243,0
2096921,2096921,155814,664148,0
2096921,2096921,155816,664047,0
2096921,2096921,155957,664648,0
2096921,2096921,156152,664707,0
2096921,2096921,155962,664814,0
2096921,2096921,156097,664804,0
2096921,2096921,156285,664619,0
2096921,2096921,156414,665395,0
2096921,2096921,156355,665532,0
2096921,2096921,156332,665428,0
2096921,2096921,156488,665511,0
2096921,2096921,156590,665577,0
2096921,2096921,156628,665621,0
2096921,2096921,156574,666038,0
2096921,2096921,156418,665898,0
2096921,2096921,156942,666164,0
2096921,2096921,156785,665944,0
2096921,2096921,156873,666235,0
2096921,2096921,157070,666437,0
2096921,2096921,156910,666373,0
2096921,2096921,156775,666674,0
2096921,2096921,156839,666158,0
2096921,2096921,157165,666455,0
2096921,2096921,157224,666563,0
2096921,2096921,157408,666746,0
2096921,2096921,157274,666714,0
2096921,2096921,157546,666774,0
2096921,2096921,157444,667363,0
2096921,2096921,157372,667540,0
2096921,2096921,157204,667408,0
2096921,2096921,157455,667503,0
2096921,2096921,157516,667345,0
2096921,2096921,157613,667834,0
2096921,2096921,157819,667584,0
2096921,2096921,157543,667790,0
2096921,2096921,157661,667669,0
2096921,2096921,157341,667826,0
2096921,2096921,157817,667889,0
2096921,2096921,158199,668255,0
2096921,2096921,157856,667994,0
2096921,2096921,157916,667813,0
2096921,2096921,157705,667869,0
2096921,2096921,157760,668122,0
2096921,2096921,157940,668206,0
2096921,2096921,157716,668345,0
2096921,2096921,158059,668447,0
2096921,2096921,158154,668247,0
2096921,2096921,158118,668430,0
2096921,2096921,158011,668383,0
2096921,2096921,157746,668554,0
2096921,2096921,157841,668003,0
2096921,2096921,157889,668409,0
2096921,2096921,158005,668316,0
2096921,2096921,157923,668447,0
2096921,2096921,158144,668294,0
2096921,2096921,158034,668663,0
2096921,2096921,158255,668679,0
2096921,2096921,158152,668531,0
2096921,2096921,158071,668468,0
2096921,2096921,158162,668603,0
2096921,2096921,157909,668187,0
2096921,2096921,158097,668587,0
2096921,2096921,157931,668411,0
2096921,2096921,157902,668451,0
2096921,2096921,158115,667917,0
2096921,2096921,158045,668397,0
2096921,2096921,158288,668264,0
2096921,2096921,158209,668472,0
2096921,2096921,157787,668026,0
2096921,2096921,157977,668206,0
2096921,2096921,157694,667812,0
2096921,2096921,157830,668123,0
2096921,2096921,158084,667971,0
2096921,2096921,157776,668165,0
2096921,2096921,157585,668075,0
2096921,2096921,157512,667924,0
2096921,2096921,157750,667962,0
2096921,2096921,157601,667754,0
2096921,2096921,157597,667750,0
2096921,2096921,157653,667583,0
2096921,2096921,157890,667515,0
2096921,2096921,157899,667446,0
2096921,2096921,157585,667428,0
2096921,2096921,157701,667457,0
2096921,2096921,157802,667622,0
2096921,2096921,157907,667644,0
2096921,2096921,157515,667455,0
2096921,2096921,157627,667782,0
2096921,2096921,157496,667422,0
2096921,2096921,157446,667276,0
2096921,2096921,157387,667241,0
2096921,2096921,157585,667436,0
2096921,2096921,157711,667447,0
2096921,2096921,157361,667615,0
2096921,2096921,157425,667630,0
2096921,2096921,157484,667669,0
2096921,2096921,157523,667555,0
2096921,2096921,157615,667764,0
2096921,2096921,157649,667683,0
2096921,2096921,157125,667462,0
2096921,2096921,157353,667429,0
2096921,2096921,157479,667630,0
2096921,2096921,157681,667599,0
2096921,2096921,157538,667427,0
2096921,2096921,157684,667664,0
2096921,2096921,157756,667802,0
2096921,2096921,157678,667760,0
2096921,2096921,157749,667513,0
2096921,2096921,157721,668050,0
2096921,2096921,157578,667827,0
2096921,2096921,157462,667999,0
2096921,2096921,157553,667936,0
2096921,2096921,157953,668212,0
2096921,2096921,157914,668273,0
2096921,2096921,158303,668359,0
2096921,2096921,157943,668226,0
2096921,2096921,158025,668497,0
2096921,2096921,157808,668451,0
2096921,2096921,158078,668674,0
2096921,2096921,157919,668400,0
2096921,2096921,158079,668478,0
2096921,2096921,157945,668652,0
2096921,2096921,158451,669194,0
2096921,2096921,158531,668878,0
2096921,2096921,158410,668910,0
2096921,2096921,158443,669062,0
2096921,2096921,158500,669161,0
2096921,2096921,158420,669262,0
2096921,2096921,158505,669285,0
2096921,2096921,158689,669471,0
2096921,2096921,158676,669387,0
2096921,2096921,158521,669593,0
2096921,2096921,158796,669648,0
2096921,2096921,158599,669786,0
2096921,2096921,158641,669728,0
2096921,2096921,158654,669380,0
2096921,2096921,158711,669861,0
2096921,2096921,158653,670134,0
2096921,2096921,158599,670028,0
2096921,2096921,159017,669936,0
2096921,2096921,158929,670019,0
2096921,2096921,158730,670015,0
2096921,2096921,159023,670118,0
2096921,2096921,159047,670395,0
2096921,2096921,159144,670404,0
2096921,2096921,158956,670193,0
2096921,2096921,158883,670134,0
2096921,2096921,159045,670604,0
2096921,2096921,159217,670541,0
2096921,2096921,159376,670688,0
2096921,2096921,159101,670577,0
2096921,2096921,159276,670842,0
2096921,2096921,159743,670897,0
2096921,2096921,159366,670966,0
2096921,2096921,159405,671076,0
2096921,2096921,159295,671027,0
2096921,2096921,159355,670651,0
2096921,2096921,159532,671144,0
2096921,2096921,159805,671285,0
2096921,2096921,159459,671258,0
2096921,2096921,159447,671056,0
2096921,2096921,159454,671386,0
2096921,2096921,159661,671516,0
2096921,2096921,159698,671526,0
2096921,2096921,159825,671344,0
2096921,2096921,159802,671388,0
2096921,2096921,159479,671446,0
2096921,2096921,159838,671328,0
2096921,2096921,159867,671742,0
2096921,2096921,159819,671906,0
2096921,2096921,159527,671927,0
2096921,2096921,159589,672080,0
2096921,2096921,159971,671837,0
2096921,2096921,159777,672475,0
2096921,2096921,159757,671944,0
2096921,2096921,159968,672054,0
2096921,2096921,159619,671970,0
2096921,2096921,159784,672108,0
2096921,2096921,159985,671928,0
2096921,2096921,160148,672258,0
2096921,2096921,159895,672587,0
2096921,2096921,160058,672484,0
2096921,2096921,160266,672559,0
2096921,2096921,160460,672429,0
2096921,2096921,160343,672651,0
2096921,2096921,160290,672888,0
2096921,2096921,160389,672890,0
2096921,2096921,160806,672737,0
2096921,2096921,160303,672881,0
2096921,2096921,160245,672828,0
2096921,2096921,160428,672855,0
2096921,2096921,160496,672642,0
2096921,2096921,160730,673002,0
2096921,2096921,160563,672942,0
2096921,2096921,160534,673011,0
2096921,2096921,160436,673332,0
2096921,2096921,160162,673195,0
2096921,2096921,160432,673427,0
2096921,2096921,160512,673743,0
2096921,2096921,160677,673800,0
2096921,2096921,160760,673534,0
2096921,2096921,160500,673450,0
2096921,2096921,160681,673537,0
2096921,2096921,160474,673399,0
2096921,2096921,160628,673746,0
2096921,2096921,160735,673648,0
2096921,2096921,160929,673689,0
2096921,2096921,160806,673909,0
2096921,2096921,160872,673953,0
2096921,2096921,160770,673690,0
2096921,2096921,161004,673759,0
2096921,2096921,160896,673824,0
2096921,2096921,160925,673777,0
2096921,2096921,161124,674022,0
2096921,2096921,161079,674113,0
2096921,2096921,161100,673904,0
2096921,2096921,160908,673746,0
2096921,2096921,161305,674061,0
2096921,2096921,161067,674097,0
2096921,2096921,160887,674466,0
2096921,2096921,160726,674159,0
2096921,2096921,161325,674398,0
2096921,2096921,161379,674770,0
2096921,2096921,161009,674423,0
2096921,2096921,161195,674380,0
2096921,2096921,161328,674418,0
2096921,2096921,161026,674484,0
2096921,2096921,161271,674532,0
2096921,2096921,161260,674678,0
2096921,2096921,161212,674456,0
2096921,2096921,161298,674623,0
2096921,2096921,161117,674719,0
2096921,2096921,161328,674905,0
2096921,2096921,161518,674768,0
2096921,2096921,161217,674601,0
2096921,2096921,161712,674798,0
2096921,2096921,161165,675000,0
2096921,2096921,161505,675109,0
2096921,2096921,161302,675109,0
2096921,2096921,161361,675043,0
2096921,2096921,161349,674887,0
2096921,2096921,161404,674710,0
2096921,2096921,161482,674867,0
2096921,2096921,161556,675060,0
2096921,2096921,161445,675026,0
2096921,2096921,161438,675148,0
2096921,2096921,161472,674921,0
2096921,2096921,161729,675095,0
2096921,2096921,161429,675245,0
2096921,2096921,161576,675249,0
2096921,2096921,161429,675404,0
2096921,2096921,161753,675067,0
2096921,2096921,161517,675301,0
2096921,2096921,161773,675202,0
2096921,2096921,161762,675167,0
2096921,2096921,161698,675442,0
2096921,2096921,161552,675447,0
2096921,2096921,161637,675207,0
2096921,2096921,161729,675450,0
2096921,2096921,161609,675714,0
2096921,2096921,161599,675440,0
2096921,2096921,161778,675458,0
2096921,2096921,161726,675773,0
2096921,2096921,161732,675677,0
2096921,2096921,161820,675669,0
2096921,2096921,161801,675408,0
2096921,2096921,161906,675822,0
2096921,2096921,161908,675420,0
2096921,2096921,161963,675738,0
2096921,2096921,161801,675551,0
2096921,2096921,161737,675727,0
2096921,2096921,161839,675614,0
2096921,2096921,162062,675872,0
2096921,2096921,161722,675802,0
2096921,2096921,161833,675736,0
2096921,2096921,161617,675522,0
2096921,2096921,161852,675523,0
2096921,2096921,161933,675634,0
2096921,2096921,161784,675765,0
2096921,2096921,161757,675784,0
2096921,2096921,161640,675822,0
2096921,2096921,161833,675907,0
2096921,2096921,161811,675669,0
2096921,2096921,162155,675834,0
2096921,2096921,162020,676096,0
2096921,2096921,161883,676024,0
2096921,2096921,162191,676071,0
2096921,2096921,162003,676266,0
2096921,2096921,161958,676217,0
2096921,2096921,162046,675768,0
2096921,2096921,161948,676047,0
2096921,2096921,161766,676228,0
2096921,2096921,161868,676278,0
2096921,2096921,161921,676176,0
2096921,2096921,162023,676105,0
2096921,2096921,162151,676514,0
2096921,2096921,162325,676291,0
2096921,2096921,162550,676521,0
2096921,2096921,162234,676295,0
2096921,2096921,161957,676586,0
2096921,2096921,161814,676274,0
2096921,2096921,161893,676182,0
2096921,2096921,162305,676259,0
2096921,2096921,161892,676336,0
2096921,2096921,162072,676148,0
2096921,2096921,162220,676213,0
2096921,2096921,162118,676377,0
2096921,2096921,162249,676393,0
2096921,2096921,162040,676277,0
2096921,2096921,162272,676165,0
2096921,2096921,162132,676394,0
2096921,2096921,162003,676292,0
2096921,2096921,162170,676378,0
2096921,2096921,162394,676370,0
2096921,2096921,162375,676583,0
2096921,2096921,162284,676454,0
2096921,2096921,162237,676447,0
2096921,2096921,162003,676617,0
2096921,2096921,162142,676618,0
2096921,2096921,162471,676484,0
2096921,2096921,162208,676675,0
2096921,2096921,162203,676559,0
2096921,2096921,162470,676682,0
2096921,2096921,162271,676487,0
2096921,2096921,162157,677024,0
2096921,2096921,162321,676577,0
2096921,2096921,162398,676468,0
2096921,2096921,162435,676193,0
2096921,2096921,162271,676477,0
2096921,2096921,162415,676346,0
2096921,2096921,162463,676574,0
2096921,2096921,162410,676314,0
2096921,2096921,162078,676557,0
2096921,2096921,162292,676703,0
2096921,2096921,162197,676784,0
2096921,2096921,162334,676734,0
2096921,2096921,162460,676746,0
2096921,2096921,162286,676845,0
2096921,2096921,162216,676839,0
2096921,2096921,161955,676609,0
2096921,2096921,162336,676479,0
2096921,2096921,162469,676693,0
2096921,2096921,162575,676950,0
2096921,2096921,162027,676598,0
2096921,2096921,162449,676668,0
2096921,2096921,162343,676457,0
2096921,2096921,162253,676685,0
2096921,2096921,162347,676585,0
2096921,2096921,162277,676563,0
2096921,2096921,162205,676276,0
2096921,2096921,162131,676695,0
2096921,2096921,162018,676462,0
2096921,2096921,161934,676665,0
2096921,2096921,162238,676432,0
2096921,2096921,162466,676582,0
2096921,2096921,162311,676764,0
2096921,2096921,162252,676463,0
2096921,2096921,162410,676523,0
2096921,2096921,162590,676553,0
2096921,2096921,162275,676653,0
2096921,2096921,162428,676660,0
2096921,2096921,162123,676384,0
2096921,2096921,162373,676657,0
2096921,2096921,162410,676386,0
2096921,2096921,162337,676701,0
2096921,2096921,162427,676833,0
2096921,2096921,162422,676770,0
2096921,2096921,162503,676811,0
2096921,2096921,162105,676738,0
2096921,2096921,162401,676875,0
2096921,2096921,162132,676519,0
2096921,2096921,162149,676947,0
2096921,2096921,162349,676437,0
2096921,2096921,162492,676496,0
2096921,2096921,162138,676603,0
2096921,2096921,162284,676676,0
2096921,2096921,162540,676473,0
2096921,2096921,162412,676355,0
2096921,2096921,162133,675879,0
2096921,2096921,161839,676090,0
2096921,2096921,162071,675696,0
2096921,2096921,162164,675884,0
2096921,2096921,161756,675526,0
2096921,2096921,161746,675715,0
2096921,2096921,161707,675680,0
2096921,2096921,161982,675760,0
2096921,2096921,161672,675938,0
2096921,2096921,161281,675267,0
2096921,2096921,161519,674859,0
2096921,2096921,161513,674623,0
2096921,2096921,161246,674764,0
2096921,2096921,161387,674660,0
2096921,2096921,160848,674192,0
2096921,2096921,160897,673981,0
2096921,2096921,160941,674098,0
2096921,2096921,161033,674007,0
2096921,2096921,160918,674071,0
2096921,2096921,160560,673071,0
2096921,2096921,160156,673112,0
2096921,2096921,160357,672642,0
2096921,2096921,160331,672642,0
2096921,2096921,160287,672727,0
2096921,2096921,159166,670958,0
2096921,2096921,158939,670207,0
2096921,2096921,159079,670586,0
2096921,2096921,159139,670438,0
2096921,2096921,159044,670078,0
2096921,2096921,157749,668124,0
2096921,2096921,157561,667762,0
2096921,2096921,157484,667386,0
2096921,2096921,157258,667167,0
2096921,2096921,157304,667676,0
2096921,2096921,156562,666049,0
2096921,2096921,156458,665291,0
2096921,2096921,156283,664893,0
2096921,2096921,156444,665174,0
2096921,2096921,156417,665109,0
2096921,2096921,155859,663911,0
2096921,2096921,155710,663340,0
2096921,2096921,155462,663174,0
2096921,2096921,155503,663435,0
2096921,2096921,155395,663223,0
2096921,2096921,154754,662426,0
2096921,2096921,154911,662180,0
2096921,2096921,154802,662219,0
2096921,2096921,154655,661953,0
2096921,2096921,154571,662040,0
2096921,2096921,154381,661416,0
2096921,2096921,154491,661353,0
2096921,2096921,154162,661064,0
2096921,2096921,154197,661327,0
2096921,2096921,154678,661212,0
2096921,2096921,154067,660602,0
2096921,2096921,153776,660892,0
2096921,2096921,154273,660639,0
2096921,2096921,154076,660666,0
2096921,2096921,154046,660661,0
2096921,2096921,153861,660594,0
2096921,2096921,153861,660308,0
2096921,2096921,153838,660037,0
2096921,2096921,153949,660345,0
2096921,2096921,153598,660097,0
2096921,2096921,153930,659964,0
2096921,2096921,153534,659763,0
2096921,2096921,154006,660252,0
2096921,2096921,153585,660226,0
2096921,2096921,153857,660237,0
2096921,2096921,153774,660434,0
2096921,2096921,153856,659949,0
2096921,2096921,153734,659880,0
2096921,2096921,153873,660302,0
2096921,2096921,153786,660048,0
2096921,2096921,153874,659961,0
2096921,2096921,153786,660171,0
2096921,2096921,153657,660419,0
2096921,2096921,153549,660453,0
2096921,2096921,153763,660584,0
2096921,2096921,154068,660448,0
2096921,2096921,153990,660380,0
2096921,2096921,153841,660384,0
2096921,2096921,153723,660550,0
2096921,2096921,153810,660827,0
2096921,2096921,153850,660766,0
2096921,2096921,154062,660851,0
2096921,2096921,154165,660762,0
2096921,2096921,153990,660899,0
2096921,2096921,154094,660916,0
2096921,2096921,154382,661325,0
2096921,2096921,154327,661213,0
2096921,2096921,154147,661224,0
2096921,2096921,154165,661019,0
2096921,2096921,154131,661396,0
2096921,2096921,154469,661467,0
2096921,2096921,154430,661766,0
2096921,2096921,154627,661486,0
2096921,2096921,154638,661767,0
2096921,2096921,154543,661906,0
2096921,2096921,154780,662015,0
2096921,2096921,154479,662457,0
2096921,2096921,154737,662016,0
2096921,2096921,154488,662191,0
2096921,2096921,154906,662146,0
2096921,2096921,154727,662637,0
2096921,2096921,154972,662677,0
2096921,2096921,154785,662676,0
2096921,2096921,154880,662502,0
2096921,2096921,154965,662190,0
2096921,2096921,155446,663076,0
2096921,2096921,155174,663203,0
2096921,2096921,155289,663089,0
2096921,2096921,155558,663212,0
2096921,2096921,155463,663069,0
2096921,2096921,155578,663530,0
2096921,2096921,155198,663616,0
2096921,2096921,155447,664270,0
2096921,2096921,155363,663932,0
2096921,2096921,155556,664021,0
2096921,2096921,155922,663966,0
2096921,2096921,155817,664063,0
2096921,2096921,155712,663958,0
2096921,2096921,155598,664224,0
2096921,2096921,155800,663956,0
2096921,2096921,156083,664602,0
2096921,2096921,156125,664469,0
2096921,2096921,156094,664874,0
2096921,2096921,156209,665064,0
2096921,2096921,156340,664652,0
2096921,2096921,156118,664901,0
2096921,2096921,156082,665119,0
2096921,2096921,156165,665072,0
2096921,2096921,156389,664818,0
2096921,2096921,156245,665074,0
2096921,2096921,156503,665492,0
2096921,2096921,156635,665684,0
2096921,2096921,156493,665616,0
2096921,2096921,156430,665536,0
2096921,2096921,156528,666018,0
2096921,2096921,157105,666431,0
2096921,2096921,157206,666336,0
2096921,2096921,156917,666370,0
2096921,2096921,156994,666348,0
2096921,2096921,156743,666537,0
2096921,2096921,157095,666638,0
2096921,2096921,157193,666970,0
2096921,2096921,157276,666797,0
2096921,2096921,157303,666889,0
2096921,2096921,157126,666910,0
2096921,2096921,157260,667339,0
2096921,2096921,157303,667244,0
2096921,2096921,157183,667148,0
2096921,2096921,157411,667308,0
2096921,2096921,157328,667116,0
2096921,2096921,157326,667567,0
2096921,2096921,157549,667645,0
2096921,2096921,157715,667730,0
2096921,2096921,157517,667980,0
2096921,2096921,157879,668219,0
2096921,2096921,157999,668006,0
2096921,2096921,157808,667939,0
2096921,2096921,157956,667936,0
2096921,2096921,157791,668141,0
2096921,2096921,157745,667947,0
2096921,2096921,157925,667999,0
2096921,2096921,157645,668246,0
2096921,2096921,157745,668617,0
2096921,2096921,158211,668687,0
2096921,2096921,158300,668176,0
2096921,2096921,157874,668713,0
2096921,2096921,157846,668476,0
2096921,2096921,158233,668435,0
2096921,2096921,157903,668330,0
2096921,2096921,157877,668148,0
2096921,2096921,157725,668432,0
2096921,2096921,158150,668382,0
2096921,2096921,158362,668393,0
2096921,2096921,158020,668411,0
2096921,2096921,158190,668672,0
2096921,2096921,158234,668369,0
2096921,2096921,157998,668325,0
2096921,2096921,157855,668225,0
2096921,2096921,157719,668313,0
2096921,2096921,157899,668588,0
2096921,2096921,157933,668330,0
2096921,2096921,157958,668190,0
2096921,2096921,157782,668258,0
2096921,2096921,157945,668454,0
2096921,2096921,157995,668699,0
2096921,2096921,157891,668257,0
2096921,2096921,157703,668443,0
2096921,2096921,157807,668074,0
2096921,2096921,157469,668083,0
2096921,2096921,157599,667846,0
2096921,2096921,157470,667574,0
2096921,2096921,157853,667505,0
2096921,2096921,157801,667687,0
2096921,2096921,157728,667755,0
2096921,2096921,157852,667831,0
2096921,2096921,157767,667828,0
2096921,2096921,157720,667846,0
2096921,2096921,157626,667810,0
2096921,2096921,157647,667655,0
2096921,2096921,157280,667519,0
2096921,2096921,157242,667436,0
2096921,2096921,157876,667435,0
2096921,2096921,157459,667711,0
2096921,2096921,157618,668017,0
2096921,2096921,157550,667506,0
2096921,2096921,157336,667809,0
2096921,2096921,157543,667924,0
2096921,2096921,157479,667408,0
2096921,2096921,157570,667629,0
2096921,2096921,157459,667532,0
2096921,2096921,157645,667639,0
2096921,2096921,157628,667542,0
2096921,2096921,157712,667574,0
2096921,2096921,157552,667405,0
2096921,2096921,157624,667459,0
2096921,2096921,157743,667570,0
2096921,2096921,157325,667538,0
2096921,2096921,157579,667562,0
2096921,2096921,157399,667758,0
2096921,2096921,157570,667500,0
2096921,2096921,157683,667338,0
2096921,2096921,157863,667497,0
2096921,2096921,157750,667680,0
2096921,2096921,157669,668043,0
2096921,2096921,157719,667952,0
2096921,2096921,157876,667729,0
2096921,2096921,157694,667595,0
2096921,2096921,157524,667822,0
2096921,2096921,157567,667853,0
2096921,2096921,157762,667990,0
2096921,2096921,157606,667778,0
2096921,2096921,157984,668050,0
2096921,2096921,157836,668301,0
2096921,2096921,158067,668334,0
2096921,2096921,158326,668283,0
2096921,2096921,158305,668620,0
2096921,2096921,157943,668589,0
2096921,2096921,158194,668737,0
2096921,2096921,158145,668738,0
2096921,2096921,158309,668571,0
2096921,2096921,157990,669043,0
2096921,2096921,158308,669298,0
2096921,2096921,158516,668739,0
2096921,2096921,158381,669238,0
2096921,2096921,158341,668838,0
2096921,2096921,158429,669476,0
2096921,2096921,158571,669519,0
2096921,2096921,158357,669414,0
2096921,2096921,158267,669513,0
2096921,2096921,158359,669262,0
2096921,2096921,158655,669784,0
2096921,2096921,158558,669962,0
2096921,2096921,158603,669952,0
2096921,2096921,158552,669934,0
2096921,2096921,158891,669806,0
2096921,2096921,158752,670018,0
2096921,2096921,158673,669823,0
2096921,2096921,158811,669686,0
2096921,2096921,158801,670104,0
2096921,2096921,158992,669907,0
2096921,2096921,159255,670143,0
2096921,2096921,159285,670068,0
2096921,2096921,158967,670212,0
2096921,2096921,158944,670329,0
2096921,2096921,159013,670363,0
2096921,2096921,159218,670727,0
2096921,2096921,159111,670515,0
2096921,2096921,159150,670614,0
2096921,2096921,159403,670541,0
2096921,2096921,159166,670470,0
2096921,2096921,159402,670997,0
2096921,2096921,159266,670969,0
2096921,2096921,159185,671187,0
2096921,2096921,159509,670803,0
2096921,2096921,159395,670817,0
2096921,2096921,159487,671274,0
2096921,2096921,159513,671405,0
2096921,2096921,159481,671399,0
2096921,2096921,159453,671034,0
2096921,2096921,159451,671168,0
2096921,2096921,159435,671361,0
2096921,2096921,159774,671455,0
2096921,2096921,159797,671694,0
2096921,2096921,159783,671744,0
2096921,2096921,159712,671479,0
2096921,2096921,159702,671687,0
2096921,2096921,159800,671948,0
2096921,2096921,159761,671708,0
2096921,2096921,159671,671947,0
2096921,2096921,159792,671994,0
2096921,2096921,159717,672212,0
2096921,2096921,159803,672148,0
2096921,2096921,159915,672035,0
2096921,2096921,160040,671987,0
2096921,2096921,159783,671956,0
2096921,2096921,159982,672505,0
2096921,2096921,160099,672547,0
2096921,2096921,160244,672531,0
2096921,2096921,160197,672322,0
2096921,2096921,159888,672550,0
2096921,2096921,160099,672528,0
2096921,2096921,160039,672795,0
2096921,2096921,160087,672519,0
2096921,2096921,160076,672512,0
2096921,2096921,160472,672844,0
2096921,2096921,160442,673053,0
2096921,2096921,160421,673163,0
2096921,2096921,160466,672907,0
2096921,2096921,160270,672761,0
2096921,2096921,160305,672889,0
2096921,2096921,160404,672797,0
2096921,2096921,160549,673169,0
2096921,2096921,160664,673123,0
2096921,2096921,160580,673368,0
2096921,2096921,160499,672914,0
2096921,2096921,160564,673295,0
2096921,2096921,160507,673125,0
2096921,2096921,160857,673484,0
2096921,2096921,160821,673195,0
2096921,2096921,160817,673348,0
2096921,2096921,160678,673532,0
2096921,2096921,160782,673627,0
2096921,2096921,160763,673338,0
2096921,2096921,160573,673411,0
2096921,2096921,160614,673715,0
2096921,2096921,160639,673675,0
2096921,2096921,160750,673693,0
2096921,2096921,160893,673685,0
2096921,2096921,160651,673931,0
2096921,2096921,160440,673697,0
2096921,2096921,160610,673926,0
2096921,2096921,160815,673961,0
2096921,2096921,160874,673804,0
2096921,2096921,160807,674094,0
2096921,2096921,160921,673966,0
2096921,2096921,160888,674263,0
2096921,2096921,161032,674099,0
2096921,2096921,160909,674591,0
2096921,2096921,160860,674280,0
2096921,2096921,160980,674268,0
2096921,2096921,161049,674177,0
2096921,2096921,160945,674307,0
2096921,2096921,160927,674284,0
2096921,2096921,161308,674560,0
2096921,2096921,161233,674605,0
2096921,2096921,161445,674410,0
2096921,2096921,161517,674857,0
2096921,2096921,161217,674519,0
2096921,2096921,161172,674725,0
2096921,2096921,161609,674832,0
2096921,2096921,161350,674813,0
2096921,2096921,161202,674749,0
2096921,2096921,161387,674618,0
2096921,2096921,161388,674733,0
2096921,2096921,161433,674676,0
2096921,2096921,161572,675004,0
2096921,2096921,161800,674951,0
2096921,2096921,161622,674811,0
2096921,2096921,161386,674916,0
2096921,2096921,161340,674801,0
2096921,2096921,161288,674727,0
2096921,2096921,161394,675064,0
2096921,2096921,161631,675238,0
2096921,2096921,161253,674913,0
2096921,2096921,161545,675112,0
2096921,2096921,161440,674912,0
2096921,2096921,161609,675097,0
2096921,2096921,161820,675164,0
2096921,2096921,161610,675249,0
2096921,2096921,161656,675117,0
2096921,2096921,161607,675099,0
2096921,2096921,161505,675391,0
2096921,2096921,161593,675280,0
2096921,2096921,161693,675174,0
2096921,2096921,161993,675123,0
2096921,2096921,161669,675458,0
2096921,2096921,161627,675430,0
2096921,2096921,161795,675357,0
2096921,2096921,161676,675269,0
2096921,2096921,161612,675482,0
2096921,2096921,161794,675521,0
2096921,2096921,161537,675804,0
2096921,2096921,161941,675388,0
2096921,2096921,161813,675345,0
2096921,2096921,161910,675334,0
2096921,2096921,161730,675589,0
2096921,2096921,161398,675592,0
2096921,2096921,161577,675494,0
2096921,2096921,161568,675237,0
2096921,2096921,162056,675133,0
2096921,2096921,161838,675616,0
2096921,2096921,161682,675706,0
2096921,2096921,161798,675586,0
2096921,2096921,162232,675640,0
2096921,2096921,161883,675663,0
2096921,2096921,161770,675556,0
2096921,2096921,161675,675371,0
2096921,2096921,161544,675474,0
2096921,2096921,161747,675581,0
2096921,2096921,161803,675842,0
2096921,2096921,161761,675991,0
2096921,2096921,161931,675890,0
2096921,2096921,161899,676116,0
2096921,2096921,162094,676004,0
2096921,2096921,161894,676000,0
2096921,2096921,161975,675962,0
2096921,2096921,161941,676005,0
2096921,2096921,162099,675967,0
2096921,2096921,161942,675849,0
2096921,2096921,161642,675980,0
2096921,2096921,161772,675887,0
2096921,2096921,161978,675994,0
2096921,2096921,162106,676073,0
2096921,2096921,162172,676277,0
2096921,2096921,162002,676033,0
2096921,2096921,162241,675992,0
2096921,2096921,161872,676275,0
2096921,2096921,162144,676319,0
2096921,2096921,162090,676328,0
2096921,2096921,161972,676196,0
2096921,2096921,161980,676128,0
2096921,2096921,162336,676577,0
2096921,2096921,162066,676556,0
2096921,2096921,162318,676325,0
2096921,2096921,161943,676547,0
2096921,2096921,162228,676532,0
2096921,2096921,162311,676419,0
2096921,2096921,162100,676413,0
2096921,2096921,162208,676499,0
2096921,2096921,162231,676503,0
2096921,2096921,162203,676460,0
2096921,2096921,162186,676525,0
2096921,2096921,162359,676589,0
2096921,2096921,162289,676455,0
2096921,2096921,162390,676499,0
2096921,2096921,162375,676585,0
2096921,2096921,162207,676517,0
2096921,2096921,162219,676513,0
2096921,2096921,162141,676593,0
2096921,2096921,162124,676557,0
2096921,2096921,162182,676437,0
2096921,2096921,162515,676214,0
2096921,2096921,162049,676712,0
2096921,2096921,162125,676421,0
2096921,2096921,162544,676445,0
2096921,2096921,162319,676727,0
2096921,2096921,162098,676676,0
2096921,2096921,162270,677035,0
2096921,2096921,162372,676432,0
2096921,2096921,162464,676625,0
2096921,2096921,162281,676567,0
2096921,2096921,162172,676883,0
2096921,2096921,162338,676523,0
2096921,2096921,161924,676506,0
2096921,2096921,162196,676668,0
2096921,2096921,162319,676276,0
2096921,2096921,162368,676537,0
2096921,2096921,162388,676893,0
2096921,2096921,162374,676707,0
2096921,2096921,162309,676471,0
2096921,2096921,162539,676657,0
2096921,2096921,162632,676450,0
2096921,2096921,162337,676986,0
2096921,2096921,162248,676792,0
2096921,2096921,162223,676708,0
2096921,2096921,162439,676811,0
2096921,2096921,162566,676742,0
2096921,2096921,162617,676659,0
2096921,2096921,162495,676625,0
2096921,2096921,162440,676614,0
2096921,2096921,162544,676261,0
2096921,2096921,162404,676564,0
2096921,2096921,162557,676738,0
2096921,2096921,162483,676772,0
2096921,2096921,162471,676637,0
2096921,2096921,162220,676830,0
2096921,2096921,162301,676778,0
2096921,2096921,162002,676514,0
2096921,2096921,161958,676689,0
2096921,2096921,162172,676590,0
2096921,2096921,162326,676613,0
2096921,2096921,162404,676369,0
2096921,2096921,162304,676494,0
2096921,2096921,162134,676346,0
2096921,2096921,162067,676683,0
2096921,2096921,162400,676687,0
2096921,2096921,162228,676604,0
2096921,2096921,162342,676555,0
2096921,2096921,162524,676644,0
2096921,2096921,162643,676946,0
2096921,2096921,162196,676690,0
2096921,2096921,162189,676690,0
2096921,2096921,162504,676613,0
2096921,2096921,162480,676712,0
2096921,2096921,162328,676784,0
2096921,2096921,162211,676078,0
2096921,2096921,161953,676328,0
2096921,2096921,161934,676198,0
2096921,2096921,161972,675812,0
2096921,2096921,161838,675915,0
2096921,2096921,161738,675968,0
2096921,2096921,161994,675468,0
2096921,2096921,161704,675616,0
2096921,2096921,161702,675713,0
2096921,2096921,161642,675663,0
2096921,2096921,161712,675377,0
2096921,2096921,161524,674919,0
2096921,2096921,161360,675044,0
2096921,2096921,161460,675060,0
2096921,2096921,161373,675001,0
2096921,2096921,161078,674280,0
2096921,2096921,160895,674128,0
2096921,2096921,161037,674077,0
2096921,2096921,160812,674050,0
2096921,2096921,161035,674005,0
2096921,2096921,160375,673311,0
2096921,2096921,160243,673250,0
2096921,2096921,160469,672992,0
2096921,2096921,160158,672721,0
2096921,2096921,160125,672528,0
2096921,2096921,159101,670937,0
2096921,2096921,158831,670502,0
2096921,2096921,158943,670180,0
2096921,2096921,159017,670531,0
2096921,2096921,159067,670357,0
2096921,2096921,157720,668083,0
2096921,2096921,157649,667677,0
2096921,2096921,157413,667440,0
2096921,2096921,157522,667288,0
2096921,2096921,157606,667566,0
2096921,2096921,156447,665655,0
2096921,2096921,156336,665391,0
2096921,2096921,156434,665336,0
2096921,2096921,156078,665448,0
2096921,2096921,156605,665324,0
2096921,2096921,155932,664099,0
2096921,2096921,155405,663606,0
2096921,2096921,155298,663666,0
2096921,2096921,155223,663309,0
2096921,2096921,155302,663404,0
2096921,2096921,154879,662381,0
2096921,2096921,154866,662304,0
2096921,2096921,154775,662371,0
2096921,2096921,154778,662214,0
2096921,2096921,154924,662203,0
2096921,2096921,154449,661715,0
2096921,2096921,154401,661291,0
2096921,2096921,154360,661156,0
2096921,2096921,154214,661260,0
2096921,2096921,153984,661407,0
2096921,2096921,154078,660774,0
2096921,2096921,153908,661048,0
2096921,2096921,154063,660837,0
2096921,2096921,153848,660840,0
2096921,2096921,154061,660555,0
2096921,2096921,153949,660486,0
2096921,2096921,153591,660347,0
2096921,2096921,153899,660206,0
2096921,2096921,153888,660199,0
2096921,2096921,154130,660374,0
2096921,2096921,153898,660335,0
2096921,2096921,153745,660400,0
2096921,2096921,153890,660378,0
2096921,2096921,153746,659986,0
2096921,2096921,153463,660241,0
2096921,2096921,153690,660341,0
2096921,2096921,153805,660272,0
2096921,2096921,153534,660165,0
2096921,2096921,153444,660187,0
2096921,2096921,153811,660153,0
2096921,2096921,153607,660180,0
2096921,2096921,153939,660051,0
2096921,2096921,153974,660367,0
2096921,2096921,153807,660597,0
2096921,2096921,153679,660310,0
2096921,2096921,153781,660622,0
2096921,2096921,153550,660564,0
2096921,2096921,153779,660895,0
2096921,2096921,153999,660702,0
2096921,2096921,154043,660507,0
2096921,2096921,153930,661160,0
2096921,2096921,154110,660766,0
2096921,2096921,153782,660667,0
2096921,2096921,153855,660589,0
2096921,2096921,154269,660705,0
2096921,2096921,154262,661383,0
2096921,2096921,154385,661345,0
2096921,2096921,154156,661407,0
2096921,2096921,154232,661391,0
2096921,2096921,154340,661173,0
2096921,2096921,154477,661717,0
2096921,2096921,154768,661799,0
2096921,2096921,154594,661687,0
2096921,2096921,154664,661691,0
2096921,2096921,154611,661855,0
2096921,2096921,154706,661999,0
2096921,2096921,154714,662196,0
2096921,2096921,154864,662303,0
2096921,2096921,154781,662266,0
2096921,2096921,154610,662339,0
2096921,2096921,154953,662588,0
2096921,2096921,154808,662708,0
2096921,2096921,155207,662509,0
2096921,2096921,155092,662690,0
2096921,2096921,155106,662727,0
2096921,2096921,155116,663123,0
2096921,2096921,155246,662990,0
2096921,2096921,155374,663123,0
2096921,2096921,155409,663381,0
2096921,2096921,155223,663439,0
2096921,2096921,155547,663521,0
2096921,2096921,155356,663242,0
2096921,2096921,155488,663482,0
2096921,2096921,155486,663646,0
2096921,2096921,155652,663944,0
2096921,2096921,155793,664555,0
2096921,2096921,155797,664533,0
2096921,2096921,155825,664416,0
2096921,2096921,155868,664012,0
2096921,2096921,155986,664421,0
2096921,2096921,155925,664468,0
2096921,2096921,156202,664920,0
2096921,2096921,156292,664658,0
2096921,2096921,156033,664568,0
2096921,2096921,156123,664441,0
2096921,2096921,156280,665046,0
2096921,2096921,156104,664959,0
2096921,2096921,156407,665070,0
2096921,2096921,156351,665177,0
2096921,2096921,156181,665625,0
2096921,2096921,156501,665804,0
2096921,2096921,156695,665686,0
2096921,2096921,156556,665769,0
2096921,2096921,156812,665701,0
2096921,2096921,156583,665727,0
2096921,2096921,157035,666242,0
2096921,2096921,156595,666467,0
2096921,2096921,156954,666508,0
2096921,2096921,156955,666568,0
2096921,2096921,156662,666380,0
2096921,2096921,157180,666719,0
2096921,2096921,157123,666971,0
2096921,2096921,157078,666900,0
2096921,2096921,157346,666849,0
2096921,2096921,157254,667027,0
2096921,2096921,157406,667229,0
2096921,2096921,157611,667390,0
2096921,2096921,157762,667437,0
2096921,2096921,157500,667345,0
2096921,2096921,157173,667333,0
2096921,2096921,157618,667407,0
2096921,2096921,158026,667734,0
2096921,2096921,157711,667500,0
2096921,2096921,157688,667623,0
2096921,2096921,157693,667505,0
2096921,2096921,157926,668130,0
2096921,2096921,157760,668249,0
2096921,2096921,157893,668136,0
2096921,2096921,157704,667997,0
2096921,2096921,157712,668015,0
2096921,2096921,157991,668230,0
2096921,2096921,158000,668199,0
2096921,2096921,157890,668120,0
2096921,2096921,157951,668214,0
2096921,2096921,157579,668389,0
2096921,2096921,157877,668436,0
2096921,2096921,158044,668424,0
2096921,2096921,158229,668480,0
2096921,2096921,158084,668538,0
2096921,2096921,157794,668450,0
2096921,2096921,157970,668372,0
2096921,2096921,157964,668321,0
2096921,2096921,158292,668340,0
2096921,2096921,158149,668651,0
2096921,2096921,158258,668480,0
2096921,2096921,157932,668536,0
2096921,2096921,157957,668322,0
2096921,2096921,158020,668718,0
2096921,2096921,158052,668364,0
2096921,2096921,157784,668232,0
2096921,2096921,157858,668161,0
2096921,2096921,157680,667980,0
2096921,2096921,158102,668157,0
2096921,2096921,157809,668097,0
2096921,2096921,158289,668393,0
2096921,2096921,157881,668263,0
2096921,2096921,158070,668246,0
2096921,2096921,157608,668223,0
2096921,2096921,157918,667843,0
2096921,2096921,157734,667958,0
2096921,2096921,157745,668164,0
2096921,2096921,157695,668281,0
2096921,2096921,157753,668194,0
2096921,2096921,157829,668151,0
2096921,2096921,157734,668024,0
2096921,2096921,157567,667872,0
2096921,2096921,157598,667894,0
2096921,2096921,157561,667938,0
2096921,2096921,157877,667619,0
2096921,2096921,158012,667711,0
2096921,2096921,157529,667520,0
2096921,2096921,157510,667305,0
2096921,2096921,157599,667575,0
2096921,2096921,157628,667817,0
2096921,2096921,157680,667700,0
2096921,2096921,157541,667630,0
2096921,2096921,157341,667824,0
2096921,2096921,157686,667492,0
2096921,2096921,157482,667404,0
2096921,2096921,157523,667492,0
2096921,2096921,157173,667831,0
2096921,2096921,157812,667277,0
2096921,2096921,157333,667561,0
2096921,2096921,157353,667765,0
2096921,2096921,157455,667579,0
2096921,2096921,157860,667777,0
2096921,2096921,157593,667526,0
2096921,2096921,157776,667675,0
2096921,2096921,157330,667168,0
2096921,2096921,157393,667471,0
2096921,2096921,157593,667611,0
2096921,2096921,157968,667709,0
2096921,2096921,157576,668017,0
2096921,2096921,157710,667767,0
2096921,2096921,157604,668141,0
2096921,2096921,157648,667800,0
2096921,2096921,157944,667887,0
2096921,2096921,157549,667868,0
2096921,2096921,157616,667960,0
2096921,2096921,157549,667735,0
2096921,2096921,157813,668249,0
2096921,2096921,158194,668598,0
2096921,2096921,158149,668553,0
2096921,2096921,158140,668501,0
2096921,2096921,157751,668542,0
2096921,2096921,157808,668751,0
2096921,2096921,158169,668517,0
2096921,2096921,158021,668319,0
2096921,2096921,158149,668724,0
2096921,2096921,158119,668578,0
2096921,2096921,158272,669041,0
2096921,2096921,158413,669250,0
2096921,2096921,158325,669176,0
2096921,2096921,158376,669202,0
2096921,2096921,158576,669093,0
2096921,2096921,158455,669218,0
2096921,2096921,158571,669370,0
2096921,2096921,158497,669039,0
2096921,2096921,158542,669362,0
2096921,2096921,158522,669345,0
2096921,2096921,158664,669678,0
2096921,2096921,158733,670134,0
2096921,2096921,158986,669752,0
2096921,2096921,158847,669818,0
2096921,2096921,158796,669712,0
2096921,2096921,158827,670309,0
2096921,2096921,159066,669972,0
2096921,2096921,158630,670185,0
2096921,2096921,158665,669845,0
2096921,2096921,159067,669970,0
2096921,2096921,158914,670244,0
2096921,2096921,159039,670195,0
2096921,2096921,159212,670298,0
2096921,2096921,159167,670036,0
2096921,2096921,159092,670088,0
2096921,2096921,159228,670534,0
2096921,2096921,159095,670365,0
2096921,2096921,159104,670561,0
2096921,2096921,159017,670456,0
2096921,2096921,159513,670478,0
2096921,2096921,159257,670738,0
2096921,2096921,159267,671038,0
2096921,2096921,159519,670778,0
2096921,2096921,159483,671115,0
2096921,2096921,159267,671039,0
2096921,2096921,159068,671119,0
2096921,2096921,159485,671038,0
2096921,2096921,159389,671200,0
2096921,2096921,159468,671277,0
2096921,2096921,159494,671304,0
2096921,2096921,159476,671238,0
2096921,2096921,159585,671650,0
2096921,2096921,159575,671428,0
2096921,2096921,159974,671585,0
2096921,2096921,159576,671468,0
2096921,2096921,159927,671996,0
2096921,2096921,160041,671754,0
2096921,2096921,159808,671692,0
2096921,2096921,159791,671746,0
2096921,2096921,159761,671892,0
2096921,2096921,160004,672273,0
2096921,2096921,159984,672239,0
2096921,2096921,160191,672147,0
2096921,2096921,160063,672028,0
2096921,2096921,160101,672106,0
2096921,2096921,160064,672147,0
2096921,2096921,159871,672345,0
2096921,2096921,160016,672201,0
2096921,2096921,159999,672414,0
2096921,2096921,159826,672183,0
2096921,2096921,159938,672623,0
2096921,2096921,160261,672657,0
2096921,2096921,160252,672540,0
2096921,2096921,160128,672514,0
2096921,2096921,159966,672689,0
2096921,2096921,160305,672850,0
2096921,2096921,160191,673069,0
2096921,2096921,160315,673281,0
2096921,2096921,160326,672693,0
2096921,2096921,160312,672884,0
2096921,2096921,160324,672977,0
2096921,2096921,160709,673444,0
2096921,2096921,160597,673167,0
2096921,2096921,160709,673043,0
2096921,2096921,160580,673192,0
2096921,2096921,160616,673323,0
2096921,2096921,160559,673661,0
2096921,2096921,160600,673328,0
2096921,2096921,160430,673356,0
2096921,2096921,160614,673345,0
2096921,2096921,160748,673850,0
2096921,2096921,160777,673544,0
2096921,2096921,160863,673741,0
2096921,2096921,160927,673571,0
2096921,2096921,160743,673707,0
2096921,2096921,160776,673917,0
2096921,2096921,160792,673934,0
2096921,2096921,160852,673684,0
2096921,2096921,160967,673749,0
2096921,2096921,160937,673791,0
2096921,2096921,160899,674143,0
2096921,2096921,161023,674162,0
2096921,2096921,161125,673908,0
2096921,2096921,161107,674106,0
2096921,2096921,160978,674016,0
2096921,2096921,160955,673893,0
2096921,2096921,160942,674079,0
2096921,2096921,160871,674253,0
2096921,2096921,160799,674152,0
2096921,2096921,160955,674005,0
2096921,2096921,161233,674318,0
2096921,2096921,161217,674463,0
2096921,2096921,161220,674614,0
2096921,2096921,161184,674501,0
2096921,2096921,161061,674541,0
2096921,2096921,161143,674643,0
2096921,2096921,160959,674493,0
2096921,2096921,161048,674767,0
2096921,2096921,161148,674645,0
2096921,2096921,161291,674507,0
2096921,2096921,161338,674728,0
2096921,2096921,161480,675092,0
2096921,2096921,161441,674981,0
2096921,2096921,161037,674775,0
2096921,2096921,161519,674917,0
2096921,2096921,161415,674989,0
2096921,2096921,161203,674660,0
2096921,2096921,161551,675021,0
2096921,2096921,161557,675188,0
2096921,2096921,161499,675186,0
2096921,2096921,161315,674996,0
2096921,2096921,161672,675192,0
2096921,2096921,161417,675074,0
2096921,2096921,161811,675136,0
2096921,2096921,161555,675115,0
2096921,2096921,161774,675399,0
2096921,2096921,161445,674945,0
2096921,2096921,161772,675081,0
2096921,2096921,161673,675014,0
2096921,2096921,161485,675284,0
2096921,2096921,161623,675625,0
2096921,2096921,161642,675187,0
2096921,2096921,161622,675333,0
2096921,2096921,161576,675323,0
2096921,2096921,161439,675120,0
2096921,2096921,161564,675459,0
2096921,2096921,161436,675631,0
2096921,2096921,161640,675448,0
2096921,2096921,161672,675344,0
2096921,2096921,161661,675353,0
2096921,2096921,161673,675599,0
2096921,2096921,161901,675542,0
2096921,2096921,161640,675950,0
2096921,2096921,161481,675684,0
2096921,2096921,161878,675724,0
2096921,2096921,161698,675693,0
2096921,2096921,161552,675739,0
2096921,2096921,161749,675769,0
2096921,2096921,161724,675641,0
2096921,2096921,161595,675559,0
2096921,2096921,161743,675942,0
2096921,2096921,161786,675541,0
2096921,2096921,161913,675756,0
2096921,2096921,161792,675455,0
2096921,2096921,161712,675796,0
2096921,2096921,162025,675662,0
2096921,2096921,161837,676030,0
2096921,2096921,161926,675765,0
2096921,2096921,161682,676057,0
2096921,2096921,162044,675893,0
2096921,2096921,162320,675773,0
2096921,2096921,162209,676217,0
2096921,2096921,162066,675784,0
2096921,2096921,161947,676106,0
2096921,2096921,161789,675825,0
2096921,2096921,161747,675973,0
2096921,2096921,162072,675924,0
2096921,2096921,161994,676099,0
2096921,2096921,161950,676096,0
2096921,2096921,162164,676105,0
2096921,2096921,162285,676091,0
2096921,2096921,161918,676018,0
2096921,2096921,162362,676234,0
2096921,2096921,161962,676330,0
2096921,2096921,162008,676023,0
2096921,2096921,162129,676205,0
2096921,2096921,162372,676109,0
2096921,2096921,162319,675928,0
2096921,2096921,161828,676109,0
2096921,2096921,162120,676341,0
2096921,2096921,161992,676359,0
2096921,2096921,162439,676283,0
2096921,2096921,162406,676017,0
2096921,2096921,162130,676259,0
2096921,2096921,162250,676396,0
2096921,2096921,162121,676669,0
2096921,2096921,162213,676400,0
2096921,2096921,162223,676661,0
2096921,2096921,162283,676393,0
2096921,2096921,162295,676454,0
2096921,2096921,162341,676417,0
2096921,2096921,162361,676352,0
2096921,2096921,162421,676567,0
2096921,2096921,162128,676632,0
2096921,2096921,162182,676566,0
2096921,2096921,162395,676350,0
2096921,2096921,162116,676310,0
2096921,2096921,162332,676604,0
2096921,2096921,162476,676625,0
2096921,2096921,162359,677028,0
2096921,2096921,162090,676366,0
2096921,2096921,162103,676553,0
2096921,2096921,162257,676453,0
2096921,2096921,162500,676586,0
2096921,2096921,162353,676633,0
2096921,2096921,162236,676824,0
2096921,2096921,162106,676678,0
2096921,2096921,162351,676696,0
2096921,2096921,162275,676653,0
2096921,2096921,162063,676528,0
2096921,2096921,162073,676664,0
2096921,2096921,162033,676439,0
2096921,2096921,162496,676453,0
2096921,2096921,162767,676687,0
2096921,2096921,162275,676941,0
2096921,2096921,162159,676798,0
2096921,2096921,162501,676975,0
2096921,2096921,162597,676920,0
2096921,2096921,162196,676632,0
2096921,2096921,162445,676592,0
2096921,2096921,162135,676636,0
2096921,2096921,162262,676715,0
2096921,2096921,162094,676598,0
2096921,2096921,162165,676732,0
2096921,2096921,162124,676852,0
2096921,2096921,162385,676659,0
2096921,2096921,162323,676791,0
2096921,2096921,162459,676773,0
2096921,2096921,162703,676640,0
2096921,2096921,162250,676454,0
2096921,2096921,162286,676774,0
2096921,2096921,162549,676803,0
2096921,2096921,162462,676694,0
2096921,2096921,162320,676398,0
2096921,2096921,162386,676718,0
2096921,2096921,162293,676204,0
2096921,2096921,162130,676728,0
2096921,2096921,162430,676657,0
2096921,2096921,162474,676602,0
2096921,2096921,162561,676586,0
2096921,2096921,162335,676522,0
2096921,2096921,162002,676688,0
2096921,2096921,162074,676787,0
2096921,2096921,162373,676599,0
2096921,2096921,162302,676661,0
2096921,2096921,162163,676323,0
2096921,2096921,162487,676582,0
2096921,2096921,162440,676586,0
2096921,2096921,162664,676639,0
2096921,2096921,162215,676882,0
2096921,2096921,162245,676644,0
2096921,2096921,162320,676807,0
2096921,2096921,162299,676686,0
2096921,2096921,162334,676571,0
2096921,2096921,162441,676601,0
2096921,2096921,162167,676197,0
2096921,2096921,162073,676453,0
2096921,2096921,162303,676306,0
2096921,2096921,162137,676292,0
2096921,2096921,161982,676148,0
2096921,2096921,162115,675822,0
2096921,2096921,161842,675858,0
2096921,2096921,161763,675905,0
2096921,2096921,161879,675795,0
2096921,2096921,161892,675670,0
2096921,2096921,161335,675182,0
2096921,2096921,161343,675204,0
2096921,2096921,161335,675131,0
2096921,2096921,161522,675051,0
2096921,2096921,161391,674893,0
2096921,2096921,161201,674042,0
2096921,2096921,161019,674161,0
2096921,2096921,160900,674037,0
2096921,2096921,160677,673863,0
2096921,2096921,160720,673878,0
2096921,2096921,160698,673096,0
2096921,2096921,160336,672928,0
2096921,2096921,160326,672969,0
2096921,2096921,160367,673066,0
2096921,2096921,160461,673051,0
2096921,2096921,159358,670942,0
2096921,2096921,159118,670507,0
2096921,2096921,158899,670317,0
2096921,2096921,159318,670392,0
2096921,2096921,158967,670351,0
2096921,2096921,157611,668148,0
2096921,2096921,157432,667639,0
2096921,2096921,157686,667180,0
2096921,2096921,157719,667324,0
2096921,2096921,157509,667114,0
2096921,2096921,156417,665716,0
2096921,2096921,156363,665341,0
2096921,2096921,156305,665342,0
2096921,2096921,156455,665297,0
2096921,2096921,156072,665284,0
2096921,2096921,155513,664095,0
2096921,2096921,155221,663500,0
2096921,2096921,155285,663293,0
2096921,2096921,155375,663335,0
2096921,2096921,155696,663470,0
2096921,2096921,154944,662273,0
2096921,2096921,154717,662335,0
2096921,2096921,154462,662144,0
2096921,2096921,154805,662040,0
2096921,2096921,154799,662294,0
2096921,2096921,154523,661359,0
2096921,2096921,154338,661319,0
2096921,2096921,154223,661134,0
2096921,2096921,154522,661214,0
2096921,2096921,154291,661343,0
2096921,2096921,154116,660910,0
2096921,2096921,153991,660662,0
2096921,2096921,153925,661025,0
2096921,2096921,154004,660803,0
2096921,2096921,153839,660815,0
2096921,2096921,153777,660455,0
2096921,2096921,153797,660562,0
2096921,2096921,153942,660035,0
2096921,2096921,153980,659992,0
2096921,2096921,153693,660209,0
2096921,2096921,153951,659941,0
2096921,2096921,153686,660114,0
2096921,2096921,153610,660220,0
2096921,2096921,153548,660116,0
2096921,2096921,153687,660212,0
2096921,2096921,153678,659938,0
2096921,2096921,153635,660411,0
2096921,2096921,153618,660239,0
2096921,2096921,153905,659968,0
2096921,2096921,153959,660079,0
2096921,2096921,153803,660353,0
2096921,2096921,154131,660467,0
2096921,2096921,154046,660521,0
2096921,2096921,153637,660309,0
2096921,2096921,153681,660161,0
2096921,2096921,153716,660247,0
2096921,2096921,153854,660458,0
2096921,2096921,153870,660320,0
2096921,2096921,153682,660105,0
2096921,2096921,153965,660416,0
2096921,2096921,154097,660582,0
2096921,2096921,154237,660722,0
2096921,2096921,154119,660542,0
2096921,2096921,154193,660844,0
2096921,2096921,153850,660517,0
2096921,2096921,154198,661037,0
2096921,2096921,153942,661355,0
2096921,2096921,154122,661321,0
2096921,2096921,154198,661303,0
2096921,2096921,154384,661276,0
2096921,2096921,154472,661551,0
2096921,2096921,154702,661662,0
2096921,2096921,154274,661829,0
2096921,2096921,154369,661685,0
2096921,2096921,154372,661782,0
2096921,2096921,154814,662278,0
2096921,2096921,154644,661787,0
2096921,2096921,154714,662021,0
2096921,2096921,154660,662179,0
2096921,2096921,154612,662430,0
2096921,2096921,154815,662551,0
2096921,2096921,154899,662952,0
2096921,2096921,154840,662772,0
2096921,2096921,155029,662615,0
2096921,2096921,154946,662666,0
2096921,2096921,155271,663093,0
2096921,2096921,155175,663358,0
2096921,2096921,155166,662972,0
2096921,2096921,155241,663161,0
2096921,2096921,155451,663245,0
2096921,2096921,155586,663386,0
2096921,2096921,155463,663623,0
2096921,2096921,155703,664051,0
2096921,2096921,155763,664010,0
2096921,2096921,155484,663759,0
2096921,2096921,155787,664159,0
2096921,2096921,155471,664148,0
2096921,2096921,155634,664277,0
2096921,2096921,155737,664168,0
2096921,2096921,155712,664061,0
2096921,2096921,156127,664611,0
2096921,2096921,156275,664727,0
2096921,2096921,155980,664764,0
2096921,2096921,156000,664504,0
2096921,2096921,156234,664575,0
2096921,2096921,156152,664995,0
2096921,2096921,156303,665098,0
2096921,2096921,155997,665244,0
2096921,2096921,156224,665102,0
2096921,2096921,156567,665580,0
2096921,2096921,156561,665944,0
2096921,2096921,156935,665604,0
2096921,2096921,157129,665682,0
2096921,2096921,156627,665798,0
2096921,2096921,156681,665753,0
2096921,2096921,157029,666110,0
2096921,2096921,156907,666114,0
2096921,2096921,156823,666138,0
2096921,2096921,156813,666182,0
2096921,2096921,156823,666526,0
2096921,2096921,157058,666927,0
2096921,2096921,157224,666932,0
2096921,2096921,157314,666993,0
2096921,2096921,157051,667070,0
2096921,2096921,157116,666971,0
2096921,2096921,157242,667140,0
2096921,2096921,157427,667252,0
2096921,2096921,157511,667015,0
2096921,2096921,157438,667198,0
2096921,2096921,157597,667227,0
2096921,2096921,157670,667417,0
2096921,2096921,157845,667807,0
2096921,2096921,157902,668124,0
2096921,2096921,157410,667895,0
2096921,2096921,157438,668104,0
2096921,2096921,157736,667948,0
2096921,2096921,157903,668121,0
2096921,2096921,157976,668067,0
2096921,2096921,157833,667763,0
2096921,2096921,157723,668118,0
2096921,2096921,157875,668445,0
2096921,2096921,158063,668441,0
2096921,2096921,157953,668214,0
2096921,2096921,157806,668244,0
2096921,2096921,157802,668331,0
2096921,2096921,158097,668346,0
2096921,2096921,157737,668236,0
2096921,2096921,157908,668060,0
2096921,2096921,158172,668190,0
2096921,2096921,158401,668656,0
2096921,2096921,158277,668511,0
2096921,2096921,158357,668561,0
2096921,2096921,158055,668584,0
2096921,2096921,157899,668526,0
2096921,2096921,157956,668089,0
2096921,2096921,157984,668418,0
2096921,2096921,158095,668406,0
2096921,2096921,158133,668561,0
2096921,2096921,158311,668429,0
2096921,2096921,158101,668475,0
2096921,2096921,157867,668336,0
2096921,2096921,158130,668128,0
2096921,2096921,158131,668313,0
2096921,2096921,157973,668001,0
2096921,2096921,157909,668097,0
2096921,2096921,157889,668084,0
2096921,2096921,157681,668065,0
2096921,2096921,157857,668006,0
2096921,2096921,157824,668372,0
2096921,2096921,157938,668182,0
2096921,2096921,158095,667824,0
2096921,2096921,157647,667726,0
2096921,2096921,157880,667766,0
2096921,2096921,157620,667767,0
2096921,2096921,157855,667593,0
2096921,2096921,157604,667752,0
2096921,2096921,157500,667824,0
2096921,2096921,157666,667579,0
2096921,2096921,157742,667994,0
2096921,2096921,157650,667741,0
2096921,2096921,157524,667370,0
2096921,2096921,157662,667482,0
2096921,2096921,157785,667407,0
2096921,2096921,157645,667448,0
2096921,2096921,157576,667713,0
2096921,2096921,157686,667470,0
2096921,2096921,157394,667327,0
2096921,2096921,157612,667431,0
2096921,2096921,157556,667470,0
2096921,2096921,157504,667735,0
2096921,2096921,157650,667531,0
2096921,2096921,157661,667490,0
2096921,2096921,157684,667348,0
2096921,2096921,157737,667421,0
2096921,2096921,157971,667696,0
2096921,2096921,157612,667754,0
2096921,2096921,157739,667514,0
2096921,2096921,157433,667549,0
2096921,2096921,157559,667745,0
2096921,2096921,157621,667531,0
2096921,2096921,157798,667547,0
2096921,2096921,157756,667548,0
2096921,2096921,157842,667754,0
2096921,2096921,157480,667342,0
2096921,2096921,157770,667755,0
2096921,2096921,157850,668059,0
2096921,2096921,157874,668239,0
2096921,2096921,157837,668179,0
2096921,2096921,157876,668027,0
2096921,2096921,157522,667934,0
2096921,2096921,157906,667833,0
2096921,2096921,157762,668381,0
2096921,2096921,157918,668096,0
2096921,2096921,158032,668037,0
2096921,2096921,157824,668094,0
2096921,2096921,158189,668639,0
2096921,2096921,158298,668916,0
2096921,2096921,157950,668914,0
2096921,2096921,158150,668765,0
2096921,2096921,158148,668839,0
2096921,2096921,157926,669003,0
2096921,2096921,158222,669025,0
2096921,2096921,158358,668889,0
2096921,2096921,158327,668989,0
2096921,2096921,158547,669058,0
2096921,2096921,158521,669222,0
2096921,2096921,158389,669471,0
2096921,2096921,158468,669590,0
2096921,2096921,158544,669392,0
2096921,2096921,158684,669441,0
2096921,2096921,158686,669947,0
2096921,2096921,158725,669827,0
2096921,2096921,158643,669802,0
2096921,2096921,158876,669788,0
2096921,2096921,158752,670097,0
2096921,2096921,158803,669911,0
2096921,2096921,159113,670268,0
2096921,2096921,158771,669850,0
2096921,2096921,158834,669810,0
2096921,2096921,158721,669880,0
2096921,2096921,158989,670311,0
2096921,2096921,158935,670256,0
2096921,2096921,158968,670170,0
2096921,2096921,158931,670098,0
2096921,2096921,159069,670523,0
2096921,2096921,159182,670627,0
2096921,2096921,159025,670939,0
2096921,2096921,158992,670864,0
2096921,2096921,159259,670366,0
2096921,2096921,159028,670814,0
2096921,2096921,159393,670703,0
2096921,2096921,159211,671064,0
2096921,2096921,159373,671185,0
2096921,2096921,159335,671126,0
2096921,2096921,159392,671115,0
2096921,2096921,159512,671192,0
2096921,2096921,159643,671443,0
2096921,2096921,159377,671156,0
2096921,2096921,159350,671283,0
2096921,2096921,159442,671198,0
2096921,2096921,159763,671385,0
2096921,2096921,159898,671616,0
2096921,2096921,159302,671960,0
2096921,2096921,159640,671557,0
2096921,2096921,159546,671846,0
2096921,2096921,159599,671776,0
2096921,2096921,159927,671669,0
2096921,2096921,159813,671723,0
2096921,2096921,159542,671803,0
2096921,2096921,159363,671858,0
2096921,2096921,160007,671734,0
2096921,2096921,159790,672045,0
2096921,2096921,160094,672172,0
2096921,2096921,159937,672089,0
2096921,2096921,160293,672072,0
2096921,2096921,160020,672199,0
2096921,2096921,160042,672512,0
2096921,2096921,159916,672188,0
2096921,2096921,160001,672171,0
2096921,2096921,159975,672357,0
2096921,2096921,160111,672383,0
2096921,2096921,160366,672593,0
2096921,2096921,160278,672377,0
2096921,2096921,160333,672202,0
2096921,2096921,160449,672592,0
2096921,2096921,160362,673008,0
2096921,2096921,160197,672855,0
2096921,2096921,160266,672967,0
2096921,2096921,160002,673186,0
2096921,2096921,160459,672972,0
2096921,2096921,160343,673088,0
2096921,2096921,160732,673179,0
2096921,2096921,160483,673117,0
2096921,2096921,160739,673111,0
2096921,2096921,160337,673119,0
2096921,2096921,160684,673307,0
2096921,2096921,160544,673328,0
2096921,2096921,160749,673214,0
2096921,2096921,160868,673373,0
2096921,2096921,160529,673176,0
2096921,2096921,160734,673084,0
2096921,2096921,160662,673501,0
2096921,2096921,160910,673599,0
2096921,2096921,160981,673693,0
2096921,2096921,160749,673595,0
2096921,2096921,160973,674000,0
2096921,2096921,161071,673723,0
2096921,2096921,160739,673793,0
2096921,2096921,160848,673721,0
2096921,2096921,160723,673837,0
2096921,2096921,160737,673799,0
2096921,2096921,160922,673725,0
2096921,2096921,160806,673717,0
2096921,2096921,161156,673840,0
2096921,2096921,161057,673787,0
2096921,2096921,161038,674066,0
2096921,2096921,160833,674276,0
2096921,2096921,161035,674392,0
2096921,2096921,160929,674119,0
2096921,2096921,161176,674275,0
2096921,2096921,161172,674465,0
2096921,2096921,161289,674358,0
2096921,2096921,161110,674349,0
2096921,2096921,161274,674596,0
2096921,2096921,161152,674374,0
2096921,2096921,161064,674661,0
2096921,2096921,161194,674710,0
2096921,2096921,161265,674678,0
2096921,2096921,161215,674726,0
2096921,2096921,161199,674499,0
2096921,2096921,161268,674787,0
2096921,2096921,161453,674654,0
2096921,2096921,161303,674815,0
2096921,2096921,161151,674770,0
2096921,2096921,161354,675004,0
2096921,2096921,161531,674819,0
2096921,2096921,161413,675057,0
2096921,2096921,161158,674546,0
2096921,2096921,161458,674725,0
2096921,2096921,161469,674604,0
2096921,2096921,161556,674790,0
2096921,2096921,161640,674929,0
2096921,2096921,161469,674943,0
2096921,2096921,161477,675220,0
2096921,2096921,161452,675282,0
2096921,2096921,161366,675193,0
2096921,2096921,161334,675275,0
2096921,2096921,161407,675263,0
2096921,2096921,161612,675122,0
2096921,2096921,161536,674936,0
2096921,2096921,161914,675061,0
2096921,2096921,161508,675556,0
2096921,2096921,161453,675167,0
2096921,2096921,161357,675368,0
2096921,2096921,161373,675273,0
2096921,2096921,161612,675391,0
2096921,2096921,161532,675376,0
2096921,2096921,161172,675371,0
2096921,2096921,161491,675240,0
2096921,2096921,161500,675310,0
2096921,2096921,161932,675420,0
2096921,2096921,161696,675678,0
2096921,2096921,161701,675494,0
2096921,2096921,161624,675623,0
2096921,2096921,161800,675297,0
2096921,2096921,161787,675546,0
2096921,2096921,161645,675647,0
2096921,2096921,161814,675529,0
2096921,2096921,161964,675463,0
2096921,2096921,161793,675616,0
2096921,2096921,161789,675572,0
2096921,2096921,162013,675763,0
2096921,2096921,161740,675580,0
2096921,2096921,161727,675830,0
2096921,2096921,161633,675800,0
2096921,2096921,161992,675702,0
2096921,2096921,161959,675846,0
2096921,2096921,161878,675823,0
2096921,2096921,161669,675688,0
2096921,2096921,161972,675906,0
2096921,2096921,161820,675819,0
2096921,2096921,161864,675853,0
2096921,2096921,161994,675791,0
2096921,2096921,161810,675712,0
2096921,2096921,161640,675818,0
2096921,2096921,161926,675903,0
2096921,2096921,161861,675905,0
2096921,2096921,161959,675812,0
2096921,2096921,161912,676084,0
2096921,2096921,161954,675758,0
2096921,2096921,162021,675881,0
2096921,2096921,162151,676174,0
2096921,2096921,162113,676530,0
2096921,2096921,162120,676158,0
2096921,2096921,162022,675976,0
2096921,2096921,162080,676208,0
2096921,2096921,162018,676176,0
2096921,2096921,162253,676333,0
2096921,2096921,162055,676287,0
2096921,2096921,161921,676072,0
2096921,2096921,161915,676276,0
2096921,2096921,162278,676294,0
2096921,2096921,162198,676299,0
2096921,2096921,162137,676105,0
2096921,2096921,162120,676290,0
2096921,2096921,162158,676387,0
2096921,2096921,162087,676436,0
2096921,2096921,162022,676376,0
2096921,2096921,162199,676302,0
2096921,2096921,161798,676034,0
2096921,2096921,162210,676627,0
2096921,2096921,161991,676269,0
2096921,2096921,162046,676369,0
2096921,2096921,162128,676114,0
2096921,2096921,162015,676256,0
2096921,2096921,161978,676140,0
2096921,2096921,162413,676498,0
2096921,2096921,162105,676768,0
2096921,2096921,162323,676648,0
2096921,2096921,162166,676559,0
2096921,2096921,162326,676533,0
2096921,2096921,162149,676537,0
2096921,2096921,162306,676732,0
2096921,2096921,162168,676580,0
2096921,2096921,162487,676589,0
2096921,2096921,162134,676755,0
2096921,2096921,162325,676522,0
2096921,2096921,162335,676280,0
2096921,2096921,162418,676573,0
2096921,2096921,162401,676547,0
2096921,2096921,162371,676791,0
2096921,2096921,162260,676482,0
2096921,2096921,162701,676250,0
2096921,2096921,162600,676712,0
2096921,2096921,162334,676803,0
2096921,2096921,162211,677045,0
2096921,2096921,162478,676590,0
2096921,2096921,162696,676370,0
2096921,2096921,162200,676408,0
2096921,2096921,162214,676815,0
2096921,2096921,162466,676511,0
2096921,2096921,162264,676396,0
2096921,2096921,162439,676761,0
2096921,2096921,162476,676499,0
2096921,2096921,162388,676693,0
2096921,2096921,162415,676596,0
2096921,2096921,162359,676660,0
2096921,2096921,162039,676725,0
2096921,2096921,162208,676258,0
2096921,2096921,161933,676481,0
2096921,2096921,162077,676572,0
2096921,2096921,161974,676840,0
2096921,2096921,162147,676547,0
2096921,2096921,162187,676703,0
2096921,2096921,162335,676738,0
2096921,2096921,162388,676781,0
2096921,2096921,162642,677099,0
2096921,2096921,162252,676681,0
2096921,2096921,162156,676620,0
2096921,2096921,162388,676434,0
2096921,2096921,162267,676240,0
2096921,2096921,162521,676313,0
2096921,2096921,162379,676638,0
2096921,2096921,162579,676586,0
2096921,2096921,162449,676591,0
2096921,2096921,162296,676750,0
2096921,2096921,162409,676741,0
2096921,2096921,162199,676522,0
2096921,2096921,162196,676476,0
2096921,2096921,162518,676463,0
2096921,2096921,162194,676343,0
2096921,2096921,162603,676606,0
2096921,2096921,162346,676827,0
2096921,2096921,162863,676555,0
2096921,2096921,162417,676798,0
2096921,2096921,162218,676376,0
2096921,2096921,161945,676252,0
2096921,2096921,162193,676021,0
2096921,2096921,161938,675871,0
2096921,2096921,161705,676172,0
2096921,2096921,161930,675799,0
2096921,2096921,161705,675536,0
2096921,2096921,161786,675747,0
2096921,2096921,161958,675762,0
2096921,2096921,161790,675966,0
2096921,2096921,161261,674954,0
2096921,2096921,161573,675001,0
2096921,2096921,161387,674978,0
2096921,2096921,161486,675048,0
2096921,2096921,161320,674942,0
2096921,2096921,160930,673977,0
2096921,2096921,161002,674056,0
2096921,2096921,160816,673710,0
2096921,2096921,160636,673808,0
2096921,2096921,160407,673914,0
2096921,2096921,160396,673044,0
2096921,2096921,160283,672675,0
2096921,2096921,160273,672898,0
2096921,2096921,160247,672318,0
2096921,2096921,160177,672849,0
2096921,2096921,159436,670952,0
2096921,2096921,158960,670369,0
2096921,2096921,159155,670364,0
2096921,2096921,159142,670579,0
2096921,2096921,159301,670581,0
2096921,2096921,157807,668005,0
2096921,2096921,157536,667521,0
2096921,2096921,157494,667336,0
2096921,2096921,157291,667459,0
2096921,2096921,157450,667438,0
2096921,2096921,156609,665329,0
2096921,2096921,156459,665109,0
2096921,2096921,156487,665134,0
2096921,2096921,156300,665303,0
2096921,2096921,156379,665251,0
2096921,2096921,155860,663834,0
2096921,2096921,155705,663475,0
2096921,2096921,155525,663397,0
2096921,2096921,155511,663424,0
2096921,2096921,155497,663484,0
2096921,2096921,154887,662602,0
2096921,2096921,154746,662248,0
2096921,2096921,154751,662320,0
2096921,2096921,154851,662304,0
2096921,2096921,154822,662370,0
2096921,2096921,154345,661396,0
2096921,2096921,154561,661142,0
2096921,2096921,154323,661062,0
2096921,2096921,154345,661453,0
2096921,2096921,154250,661030,0
2096921,2096921,153984,660621,0
2096921,2096921,153930,660819,0
2096921,2096921,153895,660664,0
2096921,2096921,153859,660767,0
2096921,2096921,153847,660398,0
2096921,2096921,153688,660396,0
2096921,2096921,153478,660405,0
2096921,2096921,153443,660298,0
2096921,2096921,153599,660206,0
2096921,2096921,153677,660090,0
2096921,2096921,153392,659767,0
2096921,2096921,153576,659957,0
2096921,2096921,153738,659914,0
2096921,2096921,153647,660013,0
2096921,2096921,153465,660257,0
2096921,2096921,153461,660058,0
2096921,2096921,153574,660135,0
2096921,2096921,153689,660242,0
2096921,2096921,153594,660226,0
2096921,2096921,154061,660122,0
2096921,2096921,153973,660264,0
2096921,2096921,153700,660350,0
2096921,2096921,153551,660405,0
2096921,2096921,153633,660370,0
2096921,2096921,153655,660310,0
2096921,2096921,153867,660652,0
2096921,2096921,153624,660541,0
2096921,2096921,153719,660603,0
2096921,2096921,153730,660674,0
2096921,2096921,153716,660396,0
2096921,2096921,154115,660767,0
2096921,2096921,153995,660396,0
2096921,2096921,154164,660742,0
2096921,2096921,153874,660701,0
2096921,2096921,153744,660600,0
2096921,2096921,154089,661066,0
2096921,2096921,153904,661260,0
2096921,2096921,154437,661169,0
2096921,2096921,154364,660921,0
2096921,2096921,154052,661472,0
2096921,2096921,154109,661662,0
2096921,2096921,154455,661670,0
2096921,2096921,154514,661521,0
2096921,2096921,154253,661551,0
2096921,2096921,154463,661558,0
2096921,2096921,154895,662007,0
2096921,2096921,154753,662107,0
2096921,2096921,154518,662166,0
2096921,2096921,154733,662150,0
2096921,2096921,154744,661987,0
2096921,2096921,154897,662720,0
2096921,2096921,154918,662782,0
2096921,2096921,155134,662820,0
2096921,2096921,154783,662819,0
2096921,2096921,154783,662536,0
2096921,2096921,155037,662939,0
2096921,2096921,155207,663183,0
2096921,2096921,155161,663344,0
2096921,2096921,155405,663346,0
2096921,2096921,155218,663345,0
2096921,2096921,155543,663693,0
2096921,2096921,155358,663655,0
2096921,2096921,155584,663759,0
2096921,2096921,155482,663523,0
2096921,2096921,155502,663493,0
2096921,2096921,155642,664168,0
2096921,2096921,155799,664189,0
2096921,2096921,155729,664070,0
2096921,2096921,155679,664329,0
2096921,2096921,155741,664352,0
2096921,2096921,155880,664632,0
2096921,2096921,155941,664913,0
2096921,2096921,156173,664946,0
2096921,2096921,156092,664870,0
2096921,2096921,156194,664731,0
2096921,2096921,156145,665217,0
2096921,2096921,156107,665411,0
2096921,2096921,156324,665370,0
2096921,2096921,156463,665401,0
2096921,2096921,156384,665333,0
2096921,2096921,156519,665584,0
2096921,2096921,156647,665929,0
2096921,2096921,156585,665903,0
2096921,2096921,156604,666094,0
2096921,2096921,156483,665701,0
2096921,2096921,156966,666092,0
2096921,2096921,156946,666446,0
2096921,2096921,157049,666467,0
2096921,2096921,156855,666598,0
2096921,2096921,156796,666296,0
2096921,2096921,157176,666889,0
2096921,2096921,157431,666951,0
2096921,2096921,157188,666946,0
2096921,2096921,156926,666842,0
2096921,2096921,157305,666916,0
2096921,2096921,157309,667197,0
2096921,2096921,157356,667161,0
2096921,2096921,157559,667168,0
2096921,2096921,157372,667418,0
2096921,2096921,157609,667357,0
2096921,2096921,157496,667765,0
2096921,2096921,157600,667718,0
2096921,2096921,157712,667731,0
2096921,2096921,157645,667641,0
2096921,2096921,157585,667614,0
2096921,2096921,157685,667858,0
2096921,2096921,157665,667923,0
2096921,2096921,157709,667697,0
2096921,2096921,157801,667864,0
2096921,2096921,157959,667701,0
2096921,2096921,157871,668131,0
2096921,2096921,157757,668583,0
2096921,2096921,157967,668403,0
2096921,2096921,158331,668325,0
2096921,2096921,158084,668277,0
2096921,2096921,157984,668343,0
2096921,2096921,158139,668432,0
2096921,2096921,157833,668255,0
2096921,2096921,157892,668400,0
2096921,2096921,157937,668536,0
2096921,2096921,158172,668462,0
2096921,2096921,158020,668441,0
2096921,2096921,158139,668458,0
2096921,2096921,158156,668398,0
2096921,2096921,158025,668608,0
2096921,2096921,157819,668328,0
2096921,2096921,158060,668547,0
2096921,2096921,158109,668465,0
2096921,2096921,158061,668451,0
2096921,2096921,158029,668636,0
2096921,2096921,157689,668505,0
2096921,2096921,158155,668099,0
2096921,2096921,158137,668279,0
2096921,2096921,157939,668194,0
2096921,2096921,157853,668542,0
2096921,2096921,158069,668087,0
2096921,2096921,157716,668153,0
2096921,2096921,157988,668152,0
2096921,2096921,157832,668043,0
2096921,2096921,157921,667958,0
2096921,2096921,157694,667849,0
2096921,2096921,157582,668090,0
2096921,2096921,157628,667767,0
2096921,2096921,157761,668103,0
2096921,2096921,157592,668148,0
2096921,2096921,157760,667659,0
2096921,2096921,157921,667743,0
2096921,2096921,157515,667613,0
2096921,2096921,157601,667649,0
2096921,2096921,157628,667706,0
2096921,2096921,157371,667457,0
2096921,2096921,157562,667848,0
2096921,2096921,157636,667516,0
2096921,2096921,157501,667497,0
2096921,2096921,157635,667545,0
2096921,2096921,157704,667612,0
2096921,2096921,157809,667410,0
2096921,2096921,157570,667743,0
2096921,2096921,157743,667936,0
2096921,2096921,157704,668156,0
2096921,2096921,157539,667696,0
2096921,2096921,157970,667477,0
2096921,2096921,157764,667714,0
2096921,2096921,157906,667529,0
2096921,2096921,157396,667433,0
2096921,2096921,157477,667790,0
2096921,2096921,157509,667687,0
2096921,2096921,157594,667429,0
2096921,2096921,157372,667516,0
2096921,2096921,157568,667682,0
2096921,2096921,157492,667900,0
2096921,2096921,157771,667872,0
2096921,2096921,157633,667797,0
2096921,2096921,157661,667831,0
2096921,2096921,157856,667673,0
2096921,2096921,157617,667834,0
2096921,2096921,157608,667737,0
2096921,2096921,157771,667857,0
2096921,2096921,157663,668073,0
2096921,2096921,157852,667728,0
2096921,2096921,157791,668228,0
2096921,2096921,157971,668096,0
2096921,2096921,158118,668477,0
2096921,2096921,157727,668175,0
2096921,2096921,158101,668535,0
2096921,2096921,158120,668727,0
2096921,2096921,158172,668735,0
2096921,2096921,158330,668391,0
2096921,2096921,158336,668760,0
2096921,2096921,158387,668745,0
2096921,2096921,158533,668739,0
2096921,2096921,158463,668650,0
2096921,2096921,158622,669191,0
2096921,2096921,158551,669038,0
2096921,2096921,158285,668959,0
2096921,2096921,158514,669405,0
2096921,2096921,158557,669488,0
2096921,2096921,158772,669437,0
2096921,2096921,158411,669493,0
2096921,2096921,158545,669410,0
2096921,2096921,158682,669829,0
2096921,2096921,158740,669891,0
2096921,2096921,158861,669920,0
2096921,2096921,158606,669742,0
2096921,2096921,158707,669592,0
2096921,2096921,158802,669847,0
2096921,2096921,158811,669820,0
2096921,2096921,158835,670081,0
2096921,2096921,158977,669860,0
2096921,2096921,158736,670300,0
2096921,2096921,159066,670041,0
2096921,2096921,159082,670262,0
2096921,2096921,159336,670306,0
2096921,2096921,158868,670530,0
2096921,2096921,158846,670343,0
2096921,2096921,159014,670624,0
2096921,2096921,158956,670619,0
2096921,2096921,159103,670459,0
2096921,2096921,158956,670580,0
2096921,2096921,158862,670786,0
2096921,2096921,159403,671076,0
2096921,2096921,159457,671128,0
2096921,2096921,159217,670551,0
2096921,2096921,159363,670841,0
2096921,2096921,159286,671173,0
2096921,2096921,159664,671218,0
2096921,2096921,159514,671616,0
2096921,2096921,159383,671415,0
2096921,2096921,159292,671289,0
2096921,2096921,159382,671662,0
2096921,2096921,159523,671405,0
2096921,2096921,159799,671571,0
2096921,2096921,159750,671446,0
2096921,2096921,159800,671398,0
2096921,2096921,159852,671363,0
2096921,2096921,159643,671545,0
2096921,2096921,159865,671878,0
2096921,2096921,159890,671762,0
2096921,2096921,160099,671899,0
2096921,2096921,159916,671961,0
2096921,2096921,159940,672230,0
2096921,2096921,159970,672270,0
2096921,2096921,160030,672123,0
2096921,2096921,160166,672112,0
2096921,2096921,159794,672030,0
2096921,2096921,159999,672202,0
2096921,2096921,160149,672510,0
2096921,2096921,160396,672438,0
2096921,2096921,160311,672520,0
2096921,2096921,159958,672593,0
2096921,2096921,160408,672633,0
2096921,2096921,160341,672479,0
2096921,2096921,160333,672537,0
2096921,2096921,160220,672816,0
2096921,2096921,160304,672673,0
2096921,2096921,160493,672800,0
2096921,2096921,160271,673350,0
2096921,2096921,160514,673184,0
2096921,2096921,160447,672925,0
2096921,2096921,160197,672798,0
2096921,2096921,160333,673032,0
2096921,2096921,160582,673058,0
2096921,2096921,160617,673394,0
2096921,2096921,160447,673232,0
2096921,2096921,160521,672964,0
2096921,2096921,160810,673188,0
2096921,2096921,160516,673333,0
2096921,2096921,160820,673599,0
2096921,2096921,160797,673594,0
2096921,2096921,160666,673204,0
2096921,2096921,160917,673464,0
2096921,2096921,160468,673686,0
2096921,2096921,160418,673650,0
2096921,2096921,160524,673664,0
2096921,2096921,160884,673527,0
2096921,2096921,160705,673392,0
2096921,2096921,161014,673736,0
2096921,2096921,160831,673739,0
2096921,2096921,160964,673713,0
2096921,2096921,160722,674051,0
2096921,2096921,160979,674170,0
2096921,2096921,160784,674045,0
2096921,2096921,160577,674019,0
2096921,2096921,160723,673913,0
2096921,2096921,160910,674020,0
2096921,2096921,161022,673927,0
2096921,2096921,160931,674451,0
2096921,2096921,160770,674004,0
2096921,2096921,161115,674202,0
2096921,2096921,160803,674149,0
2096921,2096921,161074,674233,0
2096921,2096921,161146,674275,0
2096921,2096921,161155,674485,0
2096921,2096921,160908,674544,0
2096921,2096921,161043,674448,0
2096921,2096921,161166,674859,0
2096921,2096921,161136,674787,0
2096921,2096921,161254,674622,0
2096921,2096921,161080,674524,0
2096921,2096921,161276,674746,0
2096921,2096921,161447,674554,0
2096921,2096921,161515,674648,0
2096921,2096921,161332,674685,0
2096921,2096921,161065,674776,0
2096921,2096921,161446,674603,0
2096921,2096921,161339,675058,0
2096921,2096921,161362,675092,0
2096921,2096921,161331,674955,0
2096921,2096921,161141,674813,0
2096921,2096921,161263,674782,0
2096921,2096921,161623,674830,0
2096921,2096921,161423,675038,0
