
2096921,2096921, 308273, 391809
2096921,2096921, 308316, 391681
2096921,2096921, 308120, 391917
2096921,2096921, 308160, 391602
2096921,2096921, 308387, 391585
2096921,2096921, 307996, 391452
2096921,2096921, 308291, 391763
2096921,2096921, 308560, 391836
2096921,2096921, 308490, 391677
2096921,2096921, 308522, 392081
2096921,2096921, 308172, 391899
2096921,2096921, 308292, 392022
2096921,2096921, 308687, 392257
2096921,2096921, 308490, 391963
2096921,2096921, 308638, 392089
2096921,2096921, 308802, 391927
2096921,2096921, 308845, 391922
2096921,2096921, 308571, 392241
2096921,2096921, 308968, 392011
2096921,2096921, 308944, 392429
2096921,2096921, 308732, 392390
2096921,2096921, 308671, 392421
2096921,2096921, 308654, 392123
2096921,2096921, 309105, 391850
2096921,2096921, 308792, 391999
2096921,2096921, 308752, 392208
2096921,2096921, 308891, 391972
2096921,2096921, 308909, 392122
2096921,2096921, 309009, 392372
2096921,2096921, 309270, 392192
2096921,2096921, 309331, 392587
2096921,2096921, 308995, 392458
2096921,2096921, 309216, 392272
2096921,2096921, 309014, 392408
2096921,2096921, 309380, 392476
2096921,2096921, 309055, 392204
2096921,2096921, 309025, 392090
2096921,2096921, 309043, 392216
2096921,2096921, 309151, 392153
2096921,2096921, 309207, 392636
2096921,2096921, 309370, 392800
2096921,2096921, 309214, 392361
2096921,2096921, 309508, 392606
2096921,2096921, 309431, 392490
2096921,2096921, 309351, 392460
2096921,2096921, 309430, 392639
2096921,2096921, 309455, 392359
2096921,2096921, 309370, 392366
2096921,2096921, 309366, 392532
2096921,2096921, 309283, 392525
2096921,2096921, 309370, 392452
2096921,2096921, 309224, 392502
2096921,2096921, 309707, 392571
2096921,2096921, 309490, 392708
2096921,2096921, 309549, 392462
2096921,2096921, 309447, 392531
2096921,2096921, 309490, 392498
2096921,2096921, 309391, 392542
2096921,2096921, 309722, 392686
2096921,2096921, 309792, 392464
2096921,2096921, 309536, 392495
2096921,2096921, 309323, 392684
2096921,2096921, 309701, 392681
2096921,2096921, 309737, 392458
2096921,2096921, 309617, 392650
2096921,2096921, 309689, 392693
2096921,2096921, 309721, 392967
2096921,2096921, 309505, 392682
2096921,2096921, 309822, 392796
2096921,2096921, 309850, 392852
2096921,2096921, 309658, 392890
2096921,2096921, 309521, 392766
2096921,2096921, 309656, 392512
2096921,2096921, 309697, 392746
2096921,2096921, 309661, 392746
2096921,2096921, 309617, 392719
2096921,2096921, 309998, 392711
2096921,2096921, 310032, 392849
2096921,2096921, 310012, 392935
2096921,2096921, 309887, 392840
2096921,2096921, 309906, 392847
2096921,2096921, 309837, 392954
2096921,2096921, 309770, 392729
2096921,2096921, 309610, 392423
2096921,2096921, 309776, 392763
2096921,2096921, 310043, 392742
2096921,2096921, 310139, 392904
2096921,2096921, 310028, 393011
2096921,2096921, 310088, 392772
2096921,2096921, 309898, 393064
2096921,2096921, 310516, 393124
2096921,2096921, 310410, 393069
2096921,2096921, 310050, 392837
2096921,2096921, 310175, 393012
2096921,2096921, 309979, 393220
2096921,2096921, 310112, 393203
2096921,2096921, 310328, 393026
2096921,2096921, 310141, 393163
2096921,2096921, 310233, 393147
2096921,2096921, 310180, 393001
2096921,2096921, 310170, 393045
2096921,2096921, 310286, 392902
2096921,2096921, 310270, 393106
2096921,2096921, 310408, 393148
2096921,2096921, 310364, 393296
2096921,2096921, 310436, 393256
2096921,2096921, 310201, 393095
2096921,2096921, 310465, 392945
2096921,2096921, 310260, 393146
2096921,2096921, 310056, 393063
2096921,2096921, 310245, 393006
2096921,2096921, 310272, 393081
2096921,2096921, 310528, 393108
2096921,2096921, 310506, 393135
2096921,2096921, 310489, 393339
2096921,2096921, 310396, 393019
2096921,2096921, 310204, 393344
2096921,2096921, 310600, 392958
2096921,2096921, 310386, 393069
2096921,2096921, 310421, 392929
2096921,2096921, 310380, 393416
2096921,2096921, 310495, 393282
2096921,2096921, 310202, 393135
2096921,2096921, 310149, 393005
2096921,2096921, 310403, 393072
2096921,2096921, 310552, 393068
2096921,2096921, 310565, 393195
2096921,2096921, 310288, 393188
2096921,2096921, 310093, 393301
2096921,2096921, 310424, 393211
2096921,2096921, 310238, 393200
2096921,2096921, 310320, 392896
2096921,2096921, 310094, 392832
2096921,2096921, 310211, 392630
2096921,2096921, 310333, 392840
2096921,2096921, 310342, 393220
2096921,2096921, 310377, 393251
2096921,2096921, 310278, 393105
2096921,2096921, 310391, 393240
2096921,2096921, 310523, 393265
2096921,2096921, 310603, 393629
2096921,2096921, 310603, 393298
2096921,2096921, 310457, 393191
2096921,2096921, 310550, 393203
2096921,2096921, 310368, 393040
2096921,2096921, 310376, 392960
2096921,2096921, 310458, 392764
2096921,2096921, 310234, 392978
2096921,2096921, 310452, 393202
2096921,2096921, 310567, 393427
2096921,2096921, 310446, 393380
2096921,2096921, 310406, 393244
2096921,2096921, 310507, 393406
2096921,2096921, 310634, 393196
2096921,2096921, 310449, 393380
2096921,2096921, 310406, 393172
2096921,2096921, 310514, 392978
2096921,2096921, 310209, 392955
2096921,2096921, 309966, 393189
2096921,2096921, 310145, 393321
2096921,2096921, 310390, 393429
2096921,2096921, 310166, 393417
2096921,2096921, 310270, 393194
2096921,2096921, 310361, 393370
2096921,2096921, 310290, 393316
2096921,2096921, 310498, 393161
2096921,2096921, 310552, 393175
2096921,2096921, 310197, 393143
2096921,2096921, 309977, 393243
2096921,2096921, 309887, 393151
2096921,2096921, 309912, 392805
2096921,2096921, 309938, 392934
2096921,2096921, 310097, 393099
2096921,2096921, 309739, 392977
2096921,2096921, 309708, 392731
2096921,2096921, 309469, 392584
2096921,2096921, 309842, 392662
2096921,2096921, 309838, 392414
2096921,2096921, 309450, 392892
2096921,2096921, 309231, 392227
2096921,2096921, 309101, 392309
2096921,2096921, 309087, 392245
2096921,2096921, 309082, 392185
2096921,2096921, 308708, 392566
2096921,2096921, 308569, 392207
2096921,2096921, 308618, 392079
2096921,2096921, 308401, 391882
2096921,2096921, 308223, 391857
2096921,2096921, 307801, 392188
2096921,2096921, 307580, 391376
2096921,2096921, 307615, 391243
2096921,2096921, 307476, 390983
2096921,2096921, 307360, 391113
2096921,2096921, 306208, 390958
2096921,2096921, 305652, 390504
2096921,2096921, 305527, 389978
2096921,2096921, 305569, 390094
2096921,2096921, 305651, 389921
2096921,2096921, 304008, 390138
2096921,2096921, 303396, 388730
2096921,2096921, 303468, 388528
2096921,2096921, 303120, 388237
2096921,2096921, 303269, 388347
2096921,2096921, 303309, 388225
2096921,2096921, 302050, 387594
2096921,2096921, 301572, 387498
2096921,2096921, 301528, 387518
2096921,2096921, 301686, 387288
2096921,2096921, 300698, 387438
2096921,2096921, 300218, 386867
2096921,2096921, 299877, 386626
2096921,2096921, 299951, 386422
2096921,2096921, 300223, 386654
2096921,2096921, 299456, 386462
2096921,2096921, 299316, 385990
2096921,2096921, 299112, 386037
2096921,2096921, 299366, 385812
2096921,2096921, 299397, 385868
2096921,2096921, 298688, 386067
2096921,2096921, 298809, 385551
2096921,2096921, 298530, 385504
2096921,2096921, 298421, 385476
2096921,2096921, 298397, 385521
2096921,2096921, 298247, 385313
2096921,2096921, 297993, 385339
2096921,2096921, 298053, 385198
2096921,2096921, 297959, 385340
2096921,2096921, 298082, 385265
2096921,2096921, 297742, 385195
2096921,2096921, 297525, 385053
2096921,2096921, 297879, 384770
2096921,2096921, 297503, 384728
2096921,2096921, 297547, 384906
2096921,2096921, 297489, 384977
2096921,2096921, 297837, 385366
2096921,2096921, 297761, 385084
2096921,2096921, 297325, 384964
2096921,2096921, 297544, 384945
2096921,2096921, 297394, 384818
2096921,2096921, 297788, 384714
2096921,2096921, 297658, 384957
2096921,2096921, 297656, 384755
2096921,2096921, 297436, 384828
2096921,2096921, 297813, 385039
2096921,2096921, 297605, 385064
2096921,2096921, 297905, 385042
2096921,2096921, 298047, 385215
2096921,2096921, 297957, 385050
2096921,2096921, 297874, 385042
2096921,2096921, 298133, 384907
2096921,2096921, 297941, 384789
2096921,2096921, 297588, 385051
2096921,2096921, 297777, 384975
2096921,2096921, 298089, 385114
2096921,2096921, 298280, 385415
2096921,2096921, 297912, 385182
2096921,2096921, 298003, 385433
2096921,2096921, 298039, 385071
2096921,2096921, 298222, 385245
2096921,2096921, 298474, 385306
2096921,2096921, 298163, 385414
2096921,2096921, 298342, 385212
2096921,2096921, 298441, 385209
2096921,2096921, 298552, 385267
2096921,2096921, 298723, 385698
2096921,2096921, 298676, 385697
2096921,2096921, 298978, 385691
2096921,2096921, 298708, 385758
2096921,2096921, 298873, 385714
2096921,2096921, 299212, 385342
2096921,2096921, 299285, 385807
2096921,2096921, 299187, 385917
2096921,2096921, 299108, 385722
2096921,2096921, 299507, 385797
2096921,2096921, 299643, 386209
2096921,2096921, 299683, 386137
2096921,2096921, 299950, 386115
2096921,2096921, 299783, 386234
2096921,2096921, 300032, 386271
2096921,2096921, 300064, 386509
2096921,2096921, 299859, 386412
2096921,2096921, 300014, 386454
2096921,2096921, 300071, 386510
2096921,2096921, 300147, 386463
2096921,2096921, 300267, 386453
2096921,2096921, 300468, 386414
2096921,2096921, 300429, 386545
2096921,2096921, 300153, 386711
2096921,2096921, 300529, 386602
2096921,2096921, 300636, 386709
2096921,2096921, 300819, 386977
2096921,2096921, 300732, 386825
2096921,2096921, 300659, 386810
2096921,2096921, 300760, 386758
2096921,2096921, 301293, 387160
2096921,2096921, 301429, 387132
2096921,2096921, 301313, 387433
2096921,2096921, 301358, 387484
2096921,2096921, 301463, 387233
2096921,2096921, 301633, 387615
2096921,2096921, 301750, 387668
2096921,2096921, 301723, 387540
2096921,2096921, 301533, 387435
2096921,2096921, 301820, 387614
2096921,2096921, 302143, 387838
2096921,2096921, 301930, 387602
2096921,2096921, 301878, 387740
2096921,2096921, 301933, 387766
2096921,2096921, 302100, 387759
2096921,2096921, 302354, 387967
2096921,2096921, 302323, 388054
2096921,2096921, 302178, 388104
2096921,2096921, 302286, 387804
2096921,2096921, 302634, 387876
2096921,2096921, 302932, 388442
2096921,2096921, 303030, 388115
2096921,2096921, 302988, 388394
2096921,2096921, 302973, 388211
2096921,2096921, 302962, 388587
2096921,2096921, 303133, 388490
2096921,2096921, 303143, 388673
2096921,2096921, 303127, 388417
2096921,2096921, 303246, 388607
2096921,2096921, 303289, 388432
2096921,2096921, 303373, 388603
2096921,2096921, 303328, 388814
2096921,2096921, 303462, 388630
2096921,2096921, 303403, 388890
2096921,2096921, 303452, 388916
2096921,2096921, 303938, 388872
2096921,2096921, 303966, 388914
2096921,2096921, 303740, 388704
2096921,2096921, 303549, 388553
2096921,2096921, 303810, 388434
2096921,2096921, 303851, 388769
2096921,2096921, 304043, 388837
2096921,2096921, 303800, 389026
2096921,2096921, 303794, 388978
2096921,2096921, 304000, 389260
2096921,2096921, 304248, 388981
2096921,2096921, 303911, 388981
2096921,2096921, 303806, 388990
2096921,2096921, 303944, 388946
2096921,2096921, 303938, 388707
2096921,2096921, 303684, 389015
2096921,2096921, 303919, 388877
2096921,2096921, 304254, 388753
2096921,2096921, 303958, 388967
2096921,2096921, 303811, 389044
2096921,2096921, 303981, 389029
2096921,2096921, 304024, 389210
2096921,2096921, 304057, 388935
2096921,2096921, 303897, 389098
2096921,2096921, 303919, 388906
2096921,2096921, 303637, 388798
2096921,2096921, 303696, 389027
2096921,2096921, 303736, 388845
2096921,2096921, 303968, 388791
2096921,2096921, 303858, 388898
2096921,2096921, 303922, 388803
2096921,2096921, 303876, 388878
2096921,2096921, 303667, 389046
2096921,2096921, 303954, 388829
2096921,2096921, 303637, 389014
2096921,2096921, 303498, 388747
2096921,2096921, 303655, 388745
2096921,2096921, 303561, 388619
2096921,2096921, 303645, 388680
2096921,2096921, 303656, 388696
2096921,2096921, 303582, 388634
2096921,2096921, 303613, 388696
2096921,2096921, 303535, 389060
2096921,2096921, 303400, 388782
2096921,2096921, 303372, 388848
2096921,2096921, 303038, 388441
2096921,2096921, 303527, 388383
2096921,2096921, 303395, 388482
2096921,2096921, 303140, 388507
2096921,2096921, 303485, 388656
2096921,2096921, 303132, 388515
2096921,2096921, 303180, 388635
2096921,2096921, 303224, 388673
2096921,2096921, 303408, 388533
2096921,2096921, 303358, 388656
2096921,2096921, 303480, 388485
2096921,2096921, 303544, 388500
2096921,2096921, 303309, 388728
2096921,2096921, 303464, 388702
2096921,2096921, 303333, 388558
2096921,2096921, 303478, 388574
2096921,2096921, 303485, 388575
2096921,2096921, 303487, 389087
2096921,2096921, 303537, 388881
2096921,2096921, 303564, 388622
2096921,2096921, 303460, 388713
2096921,2096921, 303350, 388539
2096921,2096921, 303437, 388521
2096921,2096921, 303430, 388448
2096921,2096921, 303458, 388435
2096921,2096921, 303594, 388586
2096921,2096921, 303877, 388564
2096921,2096921, 303888, 388616
2096921,2096921, 303725, 388833
2096921,2096921, 303718, 388766
2096921,2096921, 303589, 388937
2096921,2096921, 303701, 388798
2096921,2096921, 303676, 388861
2096921,2096921, 303712, 388772
2096921,2096921, 304000, 388782
2096921,2096921, 304136, 389083
2096921,2096921, 304002, 389255
2096921,2096921, 304137, 389178
2096921,2096921, 304179, 389175
2096921,2096921, 304767, 389420
2096921,2096921, 304514, 389579
2096921,2096921, 304706, 389462
2096921,2096921, 304555, 389539
2096921,2096921, 304948, 389454
2096921,2096921, 304794, 389667
2096921,2096921, 304829, 389468
2096921,2096921, 304728, 389437
2096921,2096921, 304825, 389481
2096921,2096921, 304583, 389611
2096921,2096921, 304850, 389640
2096921,2096921, 305004, 389611
2096921,2096921, 305237, 389482
2096921,2096921, 305068, 389690
2096921,2096921, 305253, 389377
2096921,2096921, 305074, 389444
2096921,2096921, 305362, 389696
2096921,2096921, 305378, 389905
2096921,2096921, 305360, 389765
2096921,2096921, 305091, 389832
2096921,2096921, 305382, 389448
2096921,2096921, 305344, 389811
2096921,2096921, 305399, 389919
2096921,2096921, 305458, 390109
2096921,2096921, 305716, 390108
2096921,2096921, 305550, 390091
2096921,2096921, 305573, 390353
2096921,2096921, 305490, 389981
2096921,2096921, 305657, 389758
2096921,2096921, 305802, 390012
2096921,2096921, 305840, 390101
2096921,2096921, 305886, 390282
2096921,2096921, 306152, 390208
2096921,2096921, 306058, 390348
2096921,2096921, 305862, 390301
2096921,2096921, 306246, 390492
2096921,2096921, 306111, 390585
2096921,2096921, 306118, 390708
2096921,2096921, 306123, 390451
2096921,2096921, 306139, 390075
2096921,2096921, 306429, 390378
2096921,2096921, 306498, 390675
2096921,2096921, 306440, 390647
2096921,2096921, 306406, 390603
2096921,2096921, 306556, 390436
2096921,2096921, 306508, 390722
2096921,2096921, 306681, 390845
2096921,2096921, 306479, 390672
2096921,2096921, 306736, 390540
2096921,2096921, 306788, 391078
2096921,2096921, 306826, 390826
2096921,2096921, 306713, 391012
2096921,2096921, 306886, 390920
2096921,2096921, 306896, 390864
2096921,2096921, 307059, 390477
2096921,2096921, 306802, 390561
2096921,2096921, 307043, 390736
2096921,2096921, 307067, 390723
2096921,2096921, 306938, 390938
2096921,2096921, 306818, 390869
2096921,2096921, 307315, 391153
2096921,2096921, 307114, 391186
2096921,2096921, 307142, 390899
2096921,2096921, 306844, 390996
2096921,2096921, 307327, 391096
2096921,2096921, 307521, 391129
2096921,2096921, 307296, 391340
2096921,2096921, 307449, 391132
2096921,2096921, 307728, 391318
2096921,2096921, 307478, 391160
2096921,2096921, 307877, 391417
2096921,2096921, 307545, 391594
2096921,2096921, 307967, 391484
2096921,2096921, 307734, 391363
2096921,2096921, 307732, 391376
2096921,2096921, 307727, 391132
2096921,2096921, 308103, 391243
2096921,2096921, 307968, 391483
2096921,2096921, 307714, 391390
2096921,2096921, 307585, 391442
2096921,2096921, 307664, 391475
2096921,2096921, 308123, 391529
2096921,2096921, 307818, 391594
2096921,2096921, 307665, 391288
2096921,2096921, 308162, 391464
2096921,2096921, 308087, 391626
2096921,2096921, 308143, 391743
2096921,2096921, 308048, 391639
2096921,2096921, 308292, 391623
2096921,2096921, 308278, 391486
2096921,2096921, 308320, 391642
2096921,2096921, 308210, 391859
2096921,2096921, 308074, 391828
2096921,2096921, 308206, 391968
2096921,2096921, 308367, 391912
2096921,2096921, 308392, 391910
2096921,2096921, 308553, 391980
2096921,2096921, 308336, 391878
2096921,2096921, 308678, 391849
2096921,2096921, 308416, 391918
2096921,2096921, 308526, 391989
2096921,2096921, 308509, 392202
2096921,2096921, 308494, 392273
2096921,2096921, 308602, 392072
2096921,2096921, 308652, 391961
2096921,2096921, 308662, 392199
2096921,2096921, 308629, 392132
2096921,2096921, 308643, 392075
2096921,2096921, 308843, 392262
2096921,2096921, 308650, 391976
2096921,2096921, 309085, 391957
2096921,2096921, 308825, 392389
2096921,2096921, 309016, 392113
2096921,2096921, 308905, 392030
2096921,2096921, 308780, 392285
2096921,2096921, 309102, 392165
2096921,2096921, 308721, 392382
2096921,2096921, 308968, 392432
2096921,2096921, 308967, 392330
2096921,2096921, 308893, 392409
2096921,2096921, 309111, 392309
2096921,2096921, 308758, 392236
2096921,2096921, 309132, 392381
2096921,2096921, 309202, 392468
2096921,2096921, 309131, 392638
2096921,2096921, 309446, 392551
2096921,2096921, 309458, 392381
2096921,2096921, 309367, 392574
2096921,2096921, 309172, 392255
2096921,2096921, 309268, 392178
2096921,2096921, 309173, 392206
2096921,2096921, 309163, 392275
2096921,2096921, 309297, 392441
2096921,2096921, 309341, 392207
2096921,2096921, 309443, 392468
2096921,2096921, 309599, 392472
2096921,2096921, 309720, 392616
2096921,2096921, 309194, 392522
2096921,2096921, 309514, 392671
2096921,2096921, 309291, 392597
2096921,2096921, 309242, 392526
2096921,2096921, 309324, 392622
2096921,2096921, 309475, 392455
2096921,2096921, 309409, 392200
2096921,2096921, 309362, 392403
2096921,2096921, 309486, 392613
2096921,2096921, 309873, 392616
2096921,2096921, 309740, 392605
2096921,2096921, 309737, 392860
2096921,2096921, 309492, 392806
2096921,2096921, 309799, 392652
2096921,2096921, 309780, 392469
2096921,2096921, 309540, 392524
2096921,2096921, 309554, 392708
2096921,2096921, 309808, 392918
2096921,2096921, 309756, 392678
2096921,2096921, 309943, 392637
2096921,2096921, 309826, 392839
2096921,2096921, 309735, 392638
2096921,2096921, 310069, 392884
2096921,2096921, 310063, 392745
2096921,2096921, 309614, 392715
2096921,2096921, 309877, 392604
2096921,2096921, 309655, 392421
2096921,2096921, 309783, 392576
2096921,2096921, 309815, 392707
2096921,2096921, 309848, 392769
2096921,2096921, 309730, 392671
2096921,2096921, 309969, 392676
2096921,2096921, 309732, 392968
2096921,2096921, 309974, 392778
2096921,2096921, 309684, 393038
2096921,2096921, 309705, 392638
2096921,2096921, 310271, 392953
2096921,2096921, 310079, 392734
2096921,2096921, 310014, 392998
2096921,2096921, 310326, 392900
2096921,2096921, 309837, 392741
2096921,2096921, 309952, 392858
2096921,2096921, 309924, 392826
2096921,2096921, 310347, 393077
2096921,2096921, 310120, 392954
2096921,2096921, 310006, 392670
2096921,2096921, 310114, 393146
2096921,2096921, 310081, 393179
2096921,2096921, 310086, 393225
2096921,2096921, 310240, 393045
2096921,2096921, 310372, 393056
2096921,2096921, 310379, 393100
2096921,2096921, 310296, 393088
2096921,2096921, 310235, 393048
2096921,2096921, 310306, 392980
2096921,2096921, 310444, 393140
2096921,2096921, 310216, 393182
2096921,2096921, 310466, 392730
2096921,2096921, 310389, 393123
2096921,2096921, 310124, 392984
2096921,2096921, 310156, 393133
2096921,2096921, 310071, 393217
2096921,2096921, 310180, 393066
2096921,2096921, 310256, 392883
2096921,2096921, 310403, 392851
2096921,2096921, 310203, 392836
2096921,2096921, 310471, 392969
2096921,2096921, 310488, 393104
2096921,2096921, 310380, 392858
2096921,2096921, 310695, 393266
2096921,2096921, 310511, 393197
2096921,2096921, 310862, 393248
2096921,2096921, 310611, 393110
2096921,2096921, 310422, 393142
2096921,2096921, 310550, 393002
2096921,2096921, 310372, 393009
2096921,2096921, 310375, 393060
2096921,2096921, 310649, 393058
2096921,2096921, 310330, 393078
2096921,2096921, 310167, 392974
2096921,2096921, 310157, 393277
2096921,2096921, 310233, 393122
2096921,2096921, 310235, 392837
2096921,2096921, 310181, 392946
2096921,2096921, 310379, 393026
2096921,2096921, 310274, 392909
2096921,2096921, 310404, 393196
2096921,2096921, 310368, 393316
2096921,2096921, 310423, 393407
2096921,2096921, 310199, 393213
2096921,2096921, 310360, 393310
2096921,2096921, 310446, 393456
2096921,2096921, 310276, 393256
2096921,2096921, 309876, 393156
2096921,2096921, 310349, 393074
2096921,2096921, 310248, 393052
2096921,2096921, 310327, 392994
2096921,2096921, 310216, 393054
2096921,2096921, 310569, 393013
2096921,2096921, 310606, 393108
2096921,2096921, 310563, 393337
2096921,2096921, 310590, 393131
2096921,2096921, 310423, 393032
2096921,2096921, 310216, 392995
2096921,2096921, 310115, 393181
2096921,2096921, 310047, 393047
2096921,2096921, 310266, 393148
2096921,2096921, 310260, 393174
2096921,2096921, 310255, 393028
2096921,2096921, 310477, 393052
2096921,2096921, 310599, 393359
2096921,2096921, 310461, 393401
2096921,2096921, 310362, 393193
2096921,2096921, 310454, 393294
2096921,2096921, 310390, 392862
2096921,2096921, 310516, 392917
2096921,2096921, 310128, 392924
2096921,2096921, 310477, 393286
2096921,2096921, 310416, 392926
2096921,2096921, 309941, 392765
2096921,2096921, 309473, 392731
2096921,2096921, 309903, 393001
2096921,2096921, 310164, 392790
2096921,2096921, 309816, 392757
2096921,2096921, 309542, 392599
2096921,2096921, 309698, 392589
2096921,2096921, 309749, 392444
2096921,2096921, 309522, 392565
2096921,2096921, 309219, 392669
2096921,2096921, 309182, 392398
2096921,2096921, 308921, 391996
2096921,2096921, 308819, 391912
2096921,2096921, 309125, 392133
2096921,2096921, 308433, 392321
2096921,2096921, 308394, 391747
2096921,2096921, 308345, 391711
2096921,2096921, 308582, 391739
2096921,2096921, 308447, 391766
2096921,2096921, 307733, 391913
2096921,2096921, 307568, 391273
2096921,2096921, 307505, 391186
2096921,2096921, 307380, 391203
2096921,2096921, 307179, 391304
2096921,2096921, 306135, 390963
2096921,2096921, 305630, 390029
2096921,2096921, 305740, 389835
2096921,2096921, 305780, 390083
2096921,2096921, 305953, 390293
2096921,2096921, 304136, 390359
2096921,2096921, 303307, 389068
2096921,2096921, 303069, 388387
2096921,2096921, 303201, 388365
2096921,2096921, 303226, 388389
2096921,2096921, 301994, 388595
2096921,2096921, 301751, 387476
2096921,2096921, 301637, 387597
2096921,2096921, 301767, 387270
2096921,2096921, 301491, 387162
2096921,2096921, 301336, 387114
2096921,2096921, 300282, 386758
2096921,2096921, 300304, 386318
2096921,2096921, 299926, 386523
2096921,2096921, 299926, 386309
2096921,2096921, 299662, 386415
2096921,2096921, 299123, 386220
2096921,2096921, 299276, 385837
2096921,2096921, 299214, 385891
2096921,2096921, 299270, 386168
2096921,2096921, 298610, 385737
2096921,2096921, 298404, 385497
2096921,2096921, 298434, 385220
2096921,2096921, 298664, 385545
2096921,2096921, 298583, 385644
2096921,2096921, 298210, 385455
2096921,2096921, 298055, 385134
2096921,2096921, 298188, 385027
2096921,2096921, 298073, 385156
2096921,2096921, 298035, 385473
2096921,2096921, 297794, 385187
2096921,2096921, 297758, 384972
2096921,2096921, 297484, 384937
2096921,2096921, 297721, 384935
2096921,2096921, 297615, 384646
2096921,2096921, 297562, 384787
2096921,2096921, 297455, 384805
2096921,2096921, 297519, 385027
2096921,2096921, 297470, 384943
2096921,2096921, 297435, 384795
2096921,2096921, 297443, 384832
2096921,2096921, 297362, 385250
2096921,2096921, 297437, 384738
2096921,2096921, 297390, 384907
2096921,2096921, 297233, 384873
2096921,2096921, 297720, 384735
2096921,2096921, 297752, 384668
2096921,2096921, 297991, 384869
2096921,2096921, 297735, 384893
2096921,2096921, 297627, 385021
2096921,2096921, 297628, 385019
2096921,2096921, 297831, 384923
2096921,2096921, 297865, 384915
2096921,2096921, 297846, 384681
2096921,2096921, 297457, 384701
2096921,2096921, 297743, 384968
2096921,2096921, 297878, 385015
2096921,2096921, 298016, 385183
2096921,2096921, 297830, 384883
2096921,2096921, 298154, 385230
2096921,2096921, 298165, 384838
2096921,2096921, 298482, 385399
2096921,2096921, 298355, 385293
2096921,2096921, 298458, 385309
2096921,2096921, 298174, 385282
2096921,2096921, 298306, 385446
2096921,2096921, 298461, 385247
2096921,2096921, 298764, 385191
2096921,2096921, 298707, 385384
2096921,2096921, 298508, 385688
2096921,2096921, 298896, 385565
2096921,2096921, 299185, 385853
2096921,2096921, 299264, 385849
2096921,2096921, 299415, 385994
2096921,2096921, 299154, 385736
2096921,2096921, 299346, 385855
2096921,2096921, 299416, 385930
2096921,2096921, 299316, 386083
2096921,2096921, 299623, 386087
2096921,2096921, 299601, 386092
2096921,2096921, 300085, 386390
2096921,2096921, 300184, 386461
2096921,2096921, 299994, 386475
2096921,2096921, 300163, 386303
2096921,2096921, 299924, 386352
2096921,2096921, 300259, 386578
2096921,2096921, 300205, 386553
2096921,2096921, 300237, 386580
2096921,2096921, 300410, 386474
2096921,2096921, 300317, 386738
2096921,2096921, 300611, 386738
2096921,2096921, 300909, 387117
2096921,2096921, 300861, 387005
2096921,2096921, 300652, 387157
2096921,2096921, 300729, 386861
2096921,2096921, 300907, 386902
2096921,2096921, 301011, 386952
2096921,2096921, 300907, 387028
2096921,2096921, 301020, 386992
2096921,2096921, 301111, 386970
2096921,2096921, 301195, 387045
2096921,2096921, 301352, 387131
2096921,2096921, 301351, 387495
2096921,2096921, 301361, 387307
2096921,2096921, 301626, 387315
2096921,2096921, 301814, 387490
2096921,2096921, 301972, 387336
2096921,2096921, 301857, 387667
2096921,2096921, 301763, 387507
2096921,2096921, 302081, 387768
2096921,2096921, 302332, 387489
2096921,2096921, 302216, 387815
2096921,2096921, 302183, 387992
2096921,2096921, 302239, 388038
2096921,2096921, 302317, 388185
2096921,2096921, 302583, 388380
2096921,2096921, 302883, 388180
2096921,2096921, 302911, 388275
2096921,2096921, 302965, 388298
2096921,2096921, 303016, 388349
2096921,2096921, 302946, 388385
2096921,2096921, 303077, 388687
2096921,2096921, 303153, 388349
2096921,2096921, 303107, 388506
2096921,2096921, 303240, 388271
2096921,2096921, 303572, 388197
2096921,2096921, 303429, 388333
2096921,2096921, 303547, 388925
2096921,2096921, 303620, 388858
2096921,2096921, 303619, 388581
2096921,2096921, 303654, 388398
2096921,2096921, 303690, 389031
2096921,2096921, 303645, 388829
2096921,2096921, 303705, 388618
2096921,2096921, 303554, 388763
2096921,2096921, 303341, 388746
2096921,2096921, 303675, 388942
2096921,2096921, 303744, 388894
2096921,2096921, 303935, 388982
2096921,2096921, 304219, 388815
2096921,2096921, 304254, 388787
2096921,2096921, 304031, 389078
2096921,2096921, 304098, 388916
2096921,2096921, 304068, 388946
2096921,2096921, 304187, 388798
2096921,2096921, 303948, 388925
2096921,2096921, 303864, 388821
2096921,2096921, 303828, 388880
2096921,2096921, 304297, 388899
2096921,2096921, 304088, 389196
2096921,2096921, 303935, 388877
2096921,2096921, 304323, 389114
2096921,2096921, 304258, 389134
2096921,2096921, 304167, 389069
2096921,2096921, 303783, 388923
2096921,2096921, 303773, 389116
2096921,2096921, 303940, 389030
2096921,2096921, 303808, 388856
2096921,2096921, 303884, 389022
2096921,2096921, 303879, 389156
2096921,2096921, 303905, 388962
2096921,2096921, 303999, 389167
2096921,2096921, 303681, 389009
2096921,2096921, 303571, 388773
2096921,2096921, 303874, 388627
2096921,2096921, 303518, 388609
2096921,2096921, 303256, 388595
2096921,2096921, 303520, 389033
2096921,2096921, 303641, 389008
2096921,2096921, 303429, 389090
2096921,2096921, 303371, 388774
2096921,2096921, 303369, 388720
2096921,2096921, 303624, 388572
2096921,2096921, 303637, 388672
2096921,2096921, 303309, 388516
2096921,2096921, 303098, 388821
2096921,2096921, 303237, 388671
2096921,2096921, 303467, 388646
2096921,2096921, 303314, 388891
2096921,2096921, 303308, 388846
2096921,2096921, 303416, 388807
2096921,2096921, 303614, 388711
2096921,2096921, 303640, 388541
2096921,2096921, 303953, 388786
2096921,2096921, 303563, 388642
2096921,2096921, 303377, 388900
2096921,2096921, 303447, 388547
2096921,2096921, 303280, 388403
2096921,2096921, 303551, 388330
2096921,2096921, 303521, 388645
2096921,2096921, 303443, 388452
2096921,2096921, 303350, 388719
2096921,2096921, 303207, 388888
2096921,2096921, 303356, 389008
2096921,2096921, 303429, 388727
2096921,2096921, 303320, 388670
2096921,2096921, 303593, 388712
2096921,2096921, 303483, 388413
2096921,2096921, 303723, 388660
2096921,2096921, 303340, 388603
2096921,2096921, 303324, 388756
2096921,2096921, 303710, 388976
2096921,2096921, 303730, 388672
2096921,2096921, 303600, 388881
2096921,2096921, 303655, 388640
2096921,2096921, 303938, 388464
2096921,2096921, 304093, 389178
2096921,2096921, 304137, 388823
2096921,2096921, 304057, 388917
2096921,2096921, 303880, 389118
2096921,2096921, 303920, 389159
2096921,2096921, 304526, 389289
2096921,2096921, 304605, 389094
2096921,2096921, 304156, 389394
2096921,2096921, 304044, 389111
2096921,2096921, 304349, 389250
2096921,2096921, 304624, 389460
2096921,2096921, 304643, 389428
2096921,2096921, 304657, 389473
2096921,2096921, 304762, 389374
2096921,2096921, 304661, 389301
2096921,2096921, 304845, 389522
2096921,2096921, 304856, 389385
2096921,2096921, 304757, 389455
2096921,2096921, 304670, 389538
2096921,2096921, 304541, 389828
2096921,2096921, 304880, 389769
2096921,2096921, 305024, 389736
2096921,2096921, 305276, 389738
2096921,2096921, 305382, 389788
2096921,2096921, 305072, 389810
2096921,2096921, 305186, 389685
2096921,2096921, 305252, 389381
2096921,2096921, 305276, 389868
2096921,2096921, 305330, 389782
2096921,2096921, 305039, 389991
2096921,2096921, 305203, 389786
2096921,2096921, 305250, 389986
2096921,2096921, 305444, 389880
2096921,2096921, 305635, 390230
2096921,2096921, 305455, 390088
2096921,2096921, 305711, 390188
2096921,2096921, 305728, 390462
2096921,2096921, 305697, 390219
2096921,2096921, 305523, 390265
2096921,2096921, 305787, 390146
2096921,2096921, 305838, 390088
2096921,2096921, 305859, 390232
2096921,2096921, 305914, 390117
2096921,2096921, 305937, 390185
2096921,2096921, 306181, 390332
2096921,2096921, 306261, 390487
2096921,2096921, 306103, 390294
2096921,2096921, 306278, 390484
2096921,2096921, 306478, 390578
2096921,2096921, 306481, 390476
2096921,2096921, 306496, 390468
2096921,2096921, 306351, 390519
2096921,2096921, 306226, 390556
2096921,2096921, 306285, 390551
2096921,2096921, 306323, 390496
2096921,2096921, 306597, 390651
2096921,2096921, 306925, 390676
2096921,2096921, 306775, 390989
2096921,2096921, 306650, 390732
2096921,2096921, 306945, 390948
2096921,2096921, 306894, 390820
2096921,2096921, 306940, 390693
2096921,2096921, 306783, 390706
2096921,2096921, 306677, 390966
2096921,2096921, 306956, 390739
2096921,2096921, 306922, 391127
2096921,2096921, 307033, 390904
2096921,2096921, 307073, 390913
2096921,2096921, 307099, 390880
2096921,2096921, 307298, 391024
2096921,2096921, 307204, 390824
2096921,2096921, 307364, 391282
2096921,2096921, 307489, 391092
2096921,2096921, 307332, 391301
2096921,2096921, 307191, 391048
2096921,2096921, 307364, 391140
2096921,2096921, 307462, 391074
2096921,2096921, 307395, 391097
2096921,2096921, 307565, 391100
2096921,2096921, 307690, 391009
2096921,2096921, 307606, 391007
2096921,2096921, 307626, 391522
2096921,2096921, 307982, 391270
2096921,2096921, 307935, 391529
2096921,2096921, 308002, 391622
2096921,2096921, 308030, 391535
2096921,2096921, 307930, 391707
2096921,2096921, 307939, 391713
2096921,2096921, 307791, 391831
2096921,2096921, 308052, 391641
2096921,2096921, 308032, 391829
2096921,2096921, 308125, 391743
2096921,2096921, 308009, 391815
2096921,2096921, 307854, 391762
2096921,2096921, 308060, 392008
2096921,2096921, 308036, 392182
2096921,2096921, 308228, 391957
2096921,2096921, 308055, 391696
2096921,2096921, 307930, 391637
2096921,2096921, 308458, 391725
2096921,2096921, 308651, 391674
2096921,2096921, 308346, 391979
2096921,2096921, 308670, 392036
2096921,2096921, 308636, 392046
2096921,2096921, 308597, 392048
2096921,2096921, 308682, 392260
2096921,2096921, 308791, 391972
2096921,2096921, 308564, 392190
2096921,2096921, 308418, 392015
2096921,2096921, 308348, 392033
2096921,2096921, 308774, 392275
2096921,2096921, 308718, 392091
2096921,2096921, 308805, 392357
2096921,2096921, 308839, 392365
2096921,2096921, 308794, 392203
2096921,2096921, 308590, 392357
2096921,2096921, 308729, 392097
2096921,2096921, 308597, 392268
2096921,2096921, 308801, 392063
2096921,2096921, 308407, 392287
2096921,2096921, 308714, 392181
2096921,2096921, 308860, 392126
2096921,2096921, 309189, 392070
2096921,2096921, 309064, 392082
2096921,2096921, 309267, 392232
2096921,2096921, 309208, 392227
2096921,2096921, 309005, 392143
2096921,2096921, 309005, 392420
2096921,2096921, 308903, 392109
2096921,2096921, 308886, 392149
2096921,2096921, 308912, 392353
2096921,2096921, 309021, 392426
2096921,2096921, 309018, 392454
2096921,2096921, 308746, 392154
2096921,2096921, 309109, 392008
2096921,2096921, 309301, 392371
2096921,2096921, 309506, 392287
2096921,2096921, 309456, 392462
2096921,2096921, 309187, 392565
2096921,2096921, 309299, 392545
2096921,2096921, 309369, 392556
2096921,2096921, 309146, 392260
2096921,2096921, 309264, 392468
2096921,2096921, 309148, 392605
2096921,2096921, 309096, 392450
2096921,2096921, 309285, 392625
2096921,2096921, 309381, 392567
2096921,2096921, 309460, 392249
2096921,2096921, 309460, 392466
2096921,2096921, 309663, 392479
2096921,2096921, 309502, 392416
2096921,2096921, 309534, 392799
2096921,2096921, 309460, 392889
2096921,2096921, 309123, 392814
2096921,2096921, 309735, 392646
2096921,2096921, 309704, 392376
2096921,2096921, 309757, 392509
2096921,2096921, 309670, 392273
2096921,2096921, 309835, 392561
2096921,2096921, 309812, 392557
2096921,2096921, 309805, 392721
2096921,2096921, 309633, 392703
2096921,2096921, 309779, 392678
2096921,2096921, 309749, 392823
2096921,2096921, 309826, 392627
2096921,2096921, 309773, 392674
2096921,2096921, 309941, 392694
2096921,2096921, 309509, 392654
2096921,2096921, 309538, 392629
2096921,2096921, 309636, 392727
2096921,2096921, 309807, 392860
2096921,2096921, 309662, 392613
2096921,2096921, 309889, 392691
2096921,2096921, 309877, 392869
2096921,2096921, 309982, 392768
2096921,2096921, 310054, 392840
2096921,2096921, 310257, 392955
2096921,2096921, 309797, 393190
2096921,2096921, 309720, 392919
2096921,2096921, 309665, 392829
2096921,2096921, 310134, 392735
2096921,2096921, 309758, 393004
2096921,2096921, 309954, 392988
2096921,2096921, 310162, 392825
2096921,2096921, 310159, 393037
2096921,2096921, 310222, 393132
2096921,2096921, 309874, 393054
2096921,2096921, 309893, 393154
2096921,2096921, 310047, 392854
2096921,2096921, 310205, 392682
2096921,2096921, 310264, 393065
2096921,2096921, 310033, 392763
2096921,2096921, 310167, 392887
2096921,2096921, 310258, 392921
2096921,2096921, 310043, 393038
2096921,2096921, 310072, 393013
2096921,2096921, 310381, 393157
2096921,2096921, 310428, 393108
2096921,2096921, 310121, 393058
2096921,2096921, 310252, 393091
2096921,2096921, 310064, 392954
2096921,2096921, 310304, 392976
2096921,2096921, 310040, 393390
2096921,2096921, 310159, 393069
2096921,2096921, 310325, 392940
2096921,2096921, 310192, 392848
2096921,2096921, 310356, 393036
2096921,2096921, 309994, 393152
2096921,2096921, 310211, 392876
2096921,2096921, 310425, 393098
2096921,2096921, 310416, 393191
2096921,2096921, 310261, 392775
2096921,2096921, 310539, 393004
2096921,2096921, 310306, 392962
2096921,2096921, 310316, 393176
2096921,2096921, 310435, 393334
2096921,2096921, 310505, 393435
2096921,2096921, 310393, 393334
2096921,2096921, 310159, 393269
2096921,2096921, 310131, 393223
2096921,2096921, 309947, 393229
2096921,2096921, 310340, 393172
2096921,2096921, 310222, 393274
2096921,2096921, 310273, 393308
2096921,2096921, 310408, 393208
2096921,2096921, 310457, 393059
2096921,2096921, 310535, 393352
2096921,2096921, 310447, 393363
2096921,2096921, 310491, 393188
2096921,2096921, 310467, 393271
2096921,2096921, 310471, 392985
2096921,2096921, 310478, 393095
2096921,2096921, 310541, 392969
2096921,2096921, 310265, 392921
2096921,2096921, 310199, 393133
2096921,2096921, 310533, 393463
2096921,2096921, 310349, 393422
2096921,2096921, 310560, 393248
2096921,2096921, 310618, 393285
2096921,2096921, 310452, 393174
2096921,2096921, 310142, 392995
2096921,2096921, 310323, 393010
2096921,2096921, 310238, 393054
2096921,2096921, 310333, 393185
2096921,2096921, 310441, 392924
2096921,2096921, 310547, 392997
2096921,2096921, 310657, 393364
2096921,2096921, 310406, 393296
2096921,2096921, 310403, 393254
2096921,2096921, 310367, 393061
2096921,2096921, 310416, 393176
2096921,2096921, 310133, 393139
2096921,2096921, 310465, 393367
2096921,2096921, 310413, 393182
2096921,2096921, 310611, 393023
2096921,2096921, 310275, 393092
2096921,2096921, 310329, 392900
2096921,2096921, 310366, 393082
2096921,2096921, 310285, 393165
2096921,2096921, 310330, 393448
2096921,2096921, 310352, 393244
2096921,2096921, 310405, 393333
2096921,2096921, 310566, 393159
2096921,2096921, 310357, 393316
2096921,2096921, 310296, 393097
2096921,2096921, 310155, 392962
2096921,2096921, 310208, 392888
2096921,2096921, 309790, 392923
2096921,2096921, 310151, 393196
2096921,2096921, 309876, 393116
2096921,2096921, 309569, 392585
2096921,2096921, 309721, 392681
2096921,2096921, 309708, 392786
2096921,2096921, 309618, 392605
2096921,2096921, 309151, 392755
2096921,2096921, 309005, 392325
2096921,2096921, 309067, 392327
2096921,2096921, 309002, 392259
2096921,2096921, 308823, 392157
2096921,2096921, 308174, 392126
2096921,2096921, 308359, 391973
2096921,2096921, 308273, 391493
2096921,2096921, 308599, 391801
2096921,2096921, 308141, 391859
2096921,2096921, 307698, 391710
2096921,2096921, 307257, 391334
2096921,2096921, 307539, 391377
2096921,2096921, 307349, 391561
2096921,2096921, 307529, 391570
2096921,2096921, 306262, 390956
2096921,2096921, 305432, 390153
2096921,2096921, 305541, 389934
2096921,2096921, 305585, 389726
2096921,2096921, 305734, 389830
2096921,2096921, 303863, 389770
2096921,2096921, 303564, 388945
2096921,2096921, 303277, 388586
2096921,2096921, 303069, 388328
2096921,2096921, 303188, 388246
2096921,2096921, 301877, 388293
2096921,2096921, 301769, 387531
2096921,2096921, 301472, 387211
2096921,2096921, 301520, 387142
2096921,2096921, 301228, 387501
2096921,2096921, 300533, 387602
2096921,2096921, 300131, 386658
2096921,2096921, 300351, 386560
2096921,2096921, 300203, 386475
2096921,2096921, 300355, 386622
2096921,2096921, 300260, 386713
2096921,2096921, 299473, 385665
2096921,2096921, 298922, 385902
2096921,2096921, 299017, 385777
2096921,2096921, 299177, 385668
2096921,2096921, 298824, 385813
2096921,2096921, 298557, 385419
2096921,2096921, 298466, 385365
2096921,2096921, 298491, 385333
2096921,2096921, 298576, 385575
2096921,2096921, 298122, 385386
2096921,2096921, 297892, 385138
2096921,2096921, 298175, 384948
2096921,2096921, 297909, 384993
2096921,2096921, 298083, 385098
2096921,2096921, 297844, 385093
2096921,2096921, 297740, 384774
2096921,2096921, 297701, 385026
2096921,2096921, 297397, 384898
2096921,2096921, 297607, 384938
2096921,2096921, 297619, 385093
2096921,2096921, 297768, 384708
2096921,2096921, 297645, 384705
2096921,2096921, 297677, 384806
2096921,2096921, 297486, 385090
2096921,2096921, 297287, 384852
2096921,2096921, 297733, 384733
2096921,2096921, 297941, 384842
2096921,2096921, 297521, 384875
2096921,2096921, 297682, 384848
2096921,2096921, 297764, 384852
2096921,2096921, 297848, 385096
2096921,2096921, 297840, 384995
2096921,2096921, 297912, 385072
2096921,2096921, 297770, 385025
2096921,2096921, 298058, 384991
2096921,2096921, 297974, 385296
2096921,2096921, 298171, 385059
2096921,2096921, 297891, 385198
2096921,2096921, 297987, 384953
2096921,2096921, 297981, 385194
2096921,2096921, 298014, 385243
2096921,2096921, 298225, 385135
2096921,2096921, 298321, 385241
2096921,2096921, 298073, 384977
2096921,2096921, 298429, 385176
2096921,2096921, 298259, 385266
2096921,2096921, 298345, 385291
2096921,2096921, 298413, 385296
2096921,2096921, 298502, 385459
2096921,2096921, 298808, 385385
2096921,2096921, 298618, 385757
2096921,2096921, 298855, 385881
2096921,2096921, 298859, 385571
2096921,2096921, 298994, 385563
2096921,2096921, 299235, 385668
2096921,2096921, 299088, 385642
2096921,2096921, 299232, 385703
2096921,2096921, 299151, 385941
2096921,2096921, 299282, 385754
2096921,2096921, 299220, 386024
2096921,2096921, 299629, 386161
2096921,2096921, 299610, 386203
2096921,2096921, 299613, 386255
2096921,2096921, 299530, 386156
2096921,2096921, 299761, 386049
2096921,2096921, 300097, 386019
2096921,2096921, 299896, 386302
2096921,2096921, 299937, 386514
2096921,2096921, 299874, 386339
2096921,2096921, 300137, 386422
2096921,2096921, 300506, 386642
2096921,2096921, 300543, 386640
2096921,2096921, 300365, 386697
2096921,2096921, 300462, 386743
2096921,2096921, 300696, 386569
2096921,2096921, 300671, 386957
2096921,2096921, 300800, 386689
2096921,2096921, 300799, 386855
2096921,2096921, 300758, 386961
2096921,2096921, 301142, 387080
2096921,2096921, 301040, 387126
2096921,2096921, 301273, 387209
2096921,2096921, 301187, 387367
2096921,2096921, 301142, 387201
2096921,2096921, 301621, 387306
2096921,2096921, 301835, 387370
2096921,2096921, 301479, 387448
2096921,2096921, 301234, 387205
2096921,2096921, 301335, 387222
2096921,2096921, 302074, 387486
2096921,2096921, 301845, 387668
2096921,2096921, 301997, 387741
2096921,2096921, 302063, 387577
2096921,2096921, 302059, 387633
2096921,2096921, 302351, 387630
2096921,2096921, 302410, 387702
2096921,2096921, 302247, 387945
2096921,2096921, 302201, 387964
2096921,2096921, 301987, 387991
2096921,2096921, 302788, 387915
2096921,2096921, 302508, 388433
2096921,2096921, 302779, 388202
2096921,2096921, 302732, 388104
2096921,2096921, 302942, 388251
2096921,2096921, 303070, 388483
2096921,2096921, 303430, 388378
2096921,2096921, 303158, 388906
2096921,2096921, 303191, 388351
2096921,2096921, 302886, 388213
2096921,2096921, 303271, 388148
2096921,2096921, 303305, 388469
2096921,2096921, 303345, 388360
2096921,2096921, 303513, 388805
2096921,2096921, 303464, 388828
2096921,2096921, 303655, 388738
2096921,2096921, 303805, 388813
2096921,2096921, 303767, 388781
2096921,2096921, 303810, 388701
2096921,2096921, 303923, 389070
2096921,2096921, 303898, 388611
2096921,2096921, 303764, 388936
2096921,2096921, 303881, 388549
2096921,2096921, 303765, 388848
2096921,2096921, 303761, 388749
2096921,2096921, 303679, 388789
2096921,2096921, 304095, 389067
2096921,2096921, 304273, 388971
2096921,2096921, 304208, 388956
2096921,2096921, 304164, 388763
2096921,2096921, 303925, 388912
2096921,2096921, 304244, 389220
2096921,2096921, 304244, 388898
2096921,2096921, 304218, 388996
2096921,2096921, 304065, 388984
2096921,2096921, 304021, 388954
2096921,2096921, 304047, 389191
2096921,2096921, 304154, 389196
2096921,2096921, 303957, 389035
2096921,2096921, 303640, 389137
2096921,2096921, 303838, 389035
2096921,2096921, 303960, 389259
2096921,2096921, 303930, 388987
2096921,2096921, 303695, 388981
2096921,2096921, 303746, 388790
2096921,2096921, 303700, 388805
2096921,2096921, 303823, 388752
2096921,2096921, 303876, 388737
2096921,2096921, 303230, 388869
2096921,2096921, 303351, 388949
2096921,2096921, 303758, 388967
2096921,2096921, 303676, 388810
2096921,2096921, 303446, 388713
2096921,2096921, 303751, 388901
2096921,2096921, 303806, 388749
2096921,2096921, 303699, 388817
2096921,2096921, 303655, 388559
2096921,2096921, 303476, 388824
2096921,2096921, 303359, 388617
2096921,2096921, 303446, 388634
2096921,2096921, 303481, 388464
2096921,2096921, 303481, 388498
2096921,2096921, 303494, 388656
2096921,2096921, 303555, 388922
2096921,2096921, 303568, 388713
2096921,2096921, 303456, 388729
2096921,2096921, 303445, 388772
2096921,2096921, 303758, 388656
2096921,2096921, 303425, 388629
2096921,2096921, 303210, 388474
2096921,2096921, 303142, 388489
2096921,2096921, 303276, 388609
2096921,2096921, 303393, 388361
2096921,2096921, 303581, 388647
2096921,2096921, 303473, 388759
2096921,2096921, 303746, 388721
2096921,2096921, 303442, 388689
2096921,2096921, 303582, 388689
2096921,2096921, 303767, 388586
2096921,2096921, 303391, 388914
2096921,2096921, 303426, 388776
2096921,2096921, 303386, 388628
2096921,2096921, 303408, 388490
2096921,2096921, 303288, 388430
2096921,2096921, 303399, 388651
2096921,2096921, 303606, 388895
2096921,2096921, 303635, 389045
2096921,2096921, 303524, 388658
2096921,2096921, 303644, 388502
2096921,2096921, 303555, 388764
2096921,2096921, 303674, 388701
2096921,2096921, 303972, 388868
2096921,2096921, 303926, 388924
2096921,2096921, 303915, 388924
2096921,2096921, 303934, 388877
2096921,2096921, 304007, 388877
2096921,2096921, 304076, 389028
2096921,2096921, 304305, 389474
2096921,2096921, 304164, 389311
2096921,2096921, 304270, 389306
2096921,2096921, 304510, 389390
2096921,2096921, 304591, 389400
2096921,2096921, 304412, 389337
2096921,2096921, 304631, 389189
2096921,2096921, 304556, 389383
2096921,2096921, 304715, 389525
2096921,2096921, 304849, 389581
2096921,2096921, 304663, 389422
2096921,2096921, 305036, 389660
2096921,2096921, 304623, 389371
2096921,2096921, 304836, 389292
2096921,2096921, 304910, 389616
2096921,2096921, 305053, 389898
2096921,2096921, 305088, 390000
2096921,2096921, 305081, 389761
2096921,2096921, 305137, 389669
2096921,2096921, 305521, 389789
2096921,2096921, 305207, 389687
2096921,2096921, 304909, 389378
2096921,2096921, 305064, 389713
2096921,2096921, 305562, 389756
2096921,2096921, 305567, 390037
2096921,2096921, 305667, 389876
2096921,2096921, 305369, 389826
2096921,2096921, 305327, 389834
2096921,2096921, 305333, 389778
2096921,2096921, 305452, 390279
2096921,2096921, 305635, 390049
2096921,2096921, 305871, 389920
2096921,2096921, 305872, 390058
2096921,2096921, 305882, 389919
2096921,2096921, 305987, 390224
2096921,2096921, 305942, 390168
2096921,2096921, 305996, 390413
2096921,2096921, 306150, 390221
2096921,2096921, 306159, 390352
2096921,2096921, 306285, 390227
2096921,2096921, 306173, 390519
2096921,2096921, 306092, 390049
2096921,2096921, 306070, 390226
2096921,2096921, 306394, 390339
2096921,2096921, 306286, 390668
2096921,2096921, 306396, 390555
2096921,2096921, 306602, 390506
2096921,2096921, 306431, 390439
2096921,2096921, 306823, 390634
2096921,2096921, 306929, 390914
2096921,2096921, 306818, 390592
2096921,2096921, 306624, 390682
2096921,2096921, 306711, 390701
2096921,2096921, 306653, 390609
2096921,2096921, 306668, 390740
2096921,2096921, 306912, 390736
2096921,2096921, 307048, 390975
2096921,2096921, 306831, 390894
2096921,2096921, 307146, 390789
2096921,2096921, 307188, 391070
2096921,2096921, 307240, 391016
2096921,2096921, 307210, 391096
2096921,2096921, 307103, 391303
2096921,2096921, 307327, 391091
2096921,2096921, 307205, 391097
2096921,2096921, 307230, 391038
2096921,2096921, 307133, 391040
2096921,2096921, 307251, 391218
2096921,2096921, 307306, 391416
2096921,2096921, 307667, 391305
2096921,2096921, 307446, 391288
2096921,2096921, 307682, 391345
2096921,2096921, 307588, 391405
2096921,2096921, 307626, 391288
2096921,2096921, 307836, 391479
2096921,2096921, 307756, 391076
2096921,2096921, 307534, 391316
2096921,2096921, 307766, 391296
2096921,2096921, 307817, 391295
2096921,2096921, 307774, 391389
2096921,2096921, 308051, 391640
2096921,2096921, 308000, 391551
2096921,2096921, 307931, 391614
2096921,2096921, 308071, 391643
2096921,2096921, 308253, 391827
2096921,2096921, 308177, 391502
2096921,2096921, 308046, 391820
2096921,2096921, 307914, 391678
2096921,2096921, 308103, 391408
2096921,2096921, 308326, 391688
2096921,2096921, 308194, 391664
2096921,2096921, 308024, 391701
2096921,2096921, 308015, 391728
2096921,2096921, 308464, 391882
2096921,2096921, 308302, 391623
2096921,2096921, 308598, 391852
2096921,2096921, 308474, 391981
2096921,2096921, 308564, 391802
2096921,2096921, 308504, 392012
2096921,2096921, 308292, 391777
2096921,2096921, 308430, 391786
2096921,2096921, 308485, 391742
2096921,2096921, 308450, 391976
2096921,2096921, 308569, 391926
2096921,2096921, 308680, 392013
2096921,2096921, 308794, 392022
2096921,2096921, 308946, 392096
2096921,2096921, 308709, 391902
2096921,2096921, 308749, 392106
2096921,2096921, 308554, 392096
2096921,2096921, 308575, 392067
2096921,2096921, 308651, 392054
2096921,2096921, 308483, 391826
2096921,2096921, 308870, 391863
2096921,2096921, 309048, 392223
2096921,2096921, 308971, 392266
2096921,2096921, 308981, 392230
2096921,2096921, 308771, 392321
2096921,2096921, 309125, 392414
2096921,2096921, 309099, 392350
2096921,2096921, 308896, 392346
2096921,2096921, 308940, 392085
2096921,2096921, 308900, 392246
2096921,2096921, 308916, 392417
2096921,2096921, 308866, 392416
2096921,2096921, 309088, 392457
2096921,2096921, 309038, 392667
2096921,2096921, 309244, 392399
2096921,2096921, 309450, 392462
2096921,2096921, 309246, 392601
2096921,2096921, 309386, 392755
2096921,2096921, 309260, 392562
2096921,2096921, 309207, 392660
2096921,2096921, 309181, 392441
2096921,2096921, 309374, 392200
2096921,2096921, 309298, 392249
2096921,2096921, 309355, 392404
2096921,2096921, 309262, 392445
2096921,2096921, 309509, 392647
2096921,2096921, 309352, 392596
2096921,2096921, 309367, 392881
2096921,2096921, 309373, 392699
2096921,2096921, 309590, 392530
2096921,2096921, 309496, 392687
2096921,2096921, 309571, 392581
2096921,2096921, 309639, 392793
2096921,2096921, 309527, 392609
2096921,2096921, 309564, 392970
2096921,2096921, 309677, 392729
2096921,2096921, 309520, 392545
2096921,2096921, 309728, 392635
2096921,2096921, 309677, 392754
2096921,2096921, 309503, 392704
2096921,2096921, 309500, 392629
2096921,2096921, 309430, 392765
2096921,2096921, 309681, 392803
2096921,2096921, 309762, 393091
2096921,2096921, 309400, 392550
2096921,2096921, 309579, 392767
2096921,2096921, 309761, 392655
2096921,2096921, 309720, 392767
2096921,2096921, 309636, 392691
2096921,2096921, 309706, 392685
2096921,2096921, 309712, 392719
2096921,2096921, 309848, 392768
2096921,2096921, 309985, 392782
2096921,2096921, 310022, 392917
2096921,2096921, 309955, 392958
2096921,2096921, 309712, 393013
2096921,2096921, 309858, 392967
2096921,2096921, 309801, 392812
2096921,2096921, 309681, 392918
2096921,2096921, 309769, 392558
2096921,2096921, 309917, 392754
2096921,2096921, 310014, 392901
2096921,2096921, 310065, 392772
2096921,2096921, 310155, 392713
2096921,2096921, 310334, 392883
2096921,2096921, 310019, 393194
2096921,2096921, 310119, 393251
2096921,2096921, 309879, 393151
2096921,2096921, 310172, 393026
2096921,2096921, 310138, 392872
2096921,2096921, 310081, 392994
2096921,2096921, 310124, 392824
2096921,2096921, 310292, 392883
2096921,2096921, 310130, 392993
2096921,2096921, 310137, 392887
2096921,2096921, 310122, 392939
2096921,2096921, 310189, 393194
2096921,2096921, 310123, 393114
2096921,2096921, 310341, 393235
2096921,2096921, 310388, 392852
2096921,2096921, 310199, 392957
2096921,2096921, 310132, 392954
2096921,2096921, 310097, 392950
2096921,2096921, 310124, 392847
2096921,2096921, 310241, 392945
2096921,2096921, 310243, 393066
2096921,2096921, 310250, 393009
2096921,2096921, 310295, 393303
2096921,2096921, 310321, 393120
2096921,2096921, 310317, 393122
2096921,2096921, 310575, 393095
2096921,2096921, 310516, 393073
2096921,2096921, 310406, 393000
2096921,2096921, 310419, 393298
2096921,2096921, 310404, 392663
2096921,2096921, 310213, 393081
2096921,2096921, 310342, 392834
2096921,2096921, 310550, 393063
2096921,2096921, 310249, 393018
2096921,2096921, 310534, 393163
2096921,2096921, 310493, 393331
2096921,2096921, 310579, 393149
2096921,2096921, 310217, 393324
2096921,2096921, 310320, 393363
2096921,2096921, 310347, 393274
2096921,2096921, 310379, 393225
2096921,2096921, 310379, 393377
2096921,2096921, 310387, 393330
2096921,2096921, 310251, 393273
2096921,2096921, 310163, 393123
2096921,2096921, 310259, 393388
2096921,2096921, 310209, 393345
2096921,2096921, 310482, 393237
2096921,2096921, 310644, 393231
2096921,2096921, 310734, 393208
2096921,2096921, 310513, 392916
2096921,2096921, 310508, 393285
2096921,2096921, 310354, 393066
2096921,2096921, 310578, 393154
2096921,2096921, 310498, 393114
2096921,2096921, 310344, 392947
2096921,2096921, 310327, 393164
2096921,2096921, 310188, 392972
2096921,2096921, 310257, 393197
2096921,2096921, 310337, 393130
2096921,2096921, 310412, 393117
2096921,2096921, 310328, 393327
2096921,2096921, 310510, 393184
2096921,2096921, 310422, 393133
2096921,2096921, 310425, 393210
2096921,2096921, 310458, 393163
2096921,2096921, 310304, 393372
2096921,2096921, 310138, 393430
2096921,2096921, 310321, 393218
2096921,2096921, 310534, 393495
2096921,2096921, 310173, 393061
2096921,2096921, 310357, 393277
2096921,2096921, 310444, 393209
2096921,2096921, 310326, 393390
2096921,2096921, 310462, 393127
2096921,2096921, 310427, 393046
2096921,2096921, 310596, 393251
2096921,2096921, 310511, 393052
2096921,2096921, 310454, 393152
2096921,2096921, 310410, 393417
2096921,2096921, 310206, 393296
2096921,2096921, 310046, 392932
2096921,2096921, 310204, 392934
2096921,2096921, 309949, 392990
2096921,2096921, 309611, 392804
2096921,2096921, 309708, 393166
2096921,2096921, 309473, 392902
2096921,2096921, 309560, 392531
2096921,2096921, 309970, 392428
2096921,2096921, 309619, 392721
2096921,2096921, 309311, 392731
2096921,2096921, 309150, 392640
2096921,2096921, 309045, 392340
2096921,2096921, 308850, 392380
2096921,2096921, 308838, 392405
2096921,2096921, 308517, 392289
2096921,2096921, 308422, 392055
2096921,2096921, 308429, 391582
2096921,2096921, 308212, 391755
2096921,2096921, 308179, 392171
2096921,2096921, 307443, 392032
2096921,2096921, 307467, 391397
2096921,2096921, 307464, 391416
2096921,2096921, 307276, 391260
2096921,2096921, 307215, 391161
2096921,2096921, 305964, 391390
2096921,2096921, 305338, 390678
2096921,2096921, 305391, 390299
2096921,2096921, 305621, 389776
2096921,2096921, 305640, 389864
2096921,2096921, 303746, 389900
2096921,2096921, 303359, 388714
2096921,2096921, 303326, 388793
2096921,2096921, 303394, 388326
2096921,2096921, 303450, 388342
2096921,2096921, 302059, 388234
2096921,2096921, 301591, 387338
2096921,2096921, 301822, 387425
2096921,2096921, 301329, 387194
2096921,2096921, 301565, 387311
2096921,2096921, 300621, 387554
2096921,2096921, 300168, 387071
2096921,2096921, 300185, 386743
2096921,2096921, 300155, 386530
2096921,2096921, 300204, 386474
2096921,2096921, 299666, 386334
2096921,2096921, 299144, 385893
2096921,2096921, 299217, 385887
2096921,2096921, 299152, 385793
2096921,2096921, 299334, 386096
2096921,2096921, 299210, 385943
2096921,2096921, 298846, 385019
2096921,2096921, 298631, 385285
2096921,2096921, 298647, 385328
2096921,2096921, 298597, 385514
2096921,2096921, 298167, 385268
2096921,2096921, 297642, 385246
2096921,2096921, 297806, 385089
2096921,2096921, 297788, 385009
2096921,2096921, 298140, 385075
2096921,2096921, 297748, 385112
2096921,2096921, 297874, 385053
2096921,2096921, 297514, 384839
2096921,2096921, 297804, 384776
2096921,2096921, 297501, 384836
2096921,2096921, 297523, 384908
2096921,2096921, 297529, 384696
2096921,2096921, 297433, 385143
2096921,2096921, 297605, 384594
2096921,2096921, 297615, 384988
2096921,2096921, 297770, 384748
2096921,2096921, 297556, 384846
2096921,2096921, 297613, 385009
2096921,2096921, 297546, 385008
2096921,2096921, 297465, 384938
2096921,2096921, 297677, 384964
2096921,2096921, 297447, 384906
2096921,2096921, 297717, 384537
2096921,2096921, 297819, 384896
2096921,2096921, 297764, 384993
2096921,2096921, 297662, 384862
2096921,2096921, 297652, 385235
2096921,2096921, 297791, 385197
2096921,2096921, 297712, 385042
2096921,2096921, 297872, 385007
2096921,2096921, 297983, 384825
2096921,2096921, 297840, 385051
2096921,2096921, 298048, 385351
2096921,2096921, 297869, 385098
2096921,2096921, 297920, 385182
2096921,2096921, 298153, 384950
2096921,2096921, 298545, 385471
2096921,2096921, 298506, 385298
2096921,2096921, 298311, 385275
2096921,2096921, 298616, 385309
2096921,2096921, 298851, 385363
2096921,2096921, 298673, 385585
2096921,2096921, 298682, 385971
2096921,2096921, 298691, 385622
2096921,2096921, 298771, 385384
2096921,2096921, 298806, 385622
2096921,2096921, 299089, 385758
2096921,2096921, 299068, 386227
2096921,2096921, 299437, 386135
2096921,2096921, 299085, 386135
2096921,2096921, 299560, 386043
2096921,2096921, 299327, 385992
2096921,2096921, 299388, 386105
2096921,2096921, 299572, 386095
2096921,2096921, 299483, 386249
2096921,2096921, 299649, 386048
2096921,2096921, 300046, 386337
2096921,2096921, 299947, 386552
2096921,2096921, 300253, 386384
2096921,2096921, 299726, 386059
2096921,2096921, 300360, 386373
2096921,2096921, 300092, 386695
2096921,2096921, 300536, 386535
2096921,2096921, 300334, 386672
2096921,2096921, 300310, 386556
2096921,2096921, 300288, 386583
2096921,2096921, 300706, 386929
2096921,2096921, 300527, 386735
2096921,2096921, 300492, 386838
2096921,2096921, 300704, 386977
2096921,2096921, 301222, 387000
2096921,2096921, 301257, 387022
2096921,2096921, 301287, 387153
2096921,2096921, 301176, 387224
2096921,2096921, 301231, 387347
2096921,2096921, 301310, 387316
2096921,2096921, 301614, 387102
2096921,2096921, 301543, 387307
2096921,2096921, 301610, 387107
2096921,2096921, 301772, 387193
2096921,2096921, 301744, 387401
2096921,2096921, 301781, 387703
2096921,2096921, 301668, 387819
2096921,2096921, 301880, 387860
2096921,2096921, 302132, 387576
2096921,2096921, 302339, 387692
2096921,2096921, 302426, 387842
2096921,2096921, 302182, 387892
2096921,2096921, 302484, 387986
2096921,2096921, 302539, 388117
2096921,2096921, 302635, 387992
2096921,2096921, 302797, 388130
2096921,2096921, 303170, 388162
2096921,2096921, 302839, 388318
2096921,2096921, 303003, 388398
2096921,2096921, 303257, 388363
2096921,2096921, 303058, 388589
2096921,2096921, 302955, 388528
2096921,2096921, 303179, 388425
2096921,2096921, 303139, 388246
2096921,2096921, 303516, 388429
2096921,2096921, 303399, 388708
2096921,2096921, 303565, 388681
2096921,2096921, 303422, 388466
2096921,2096921, 303482, 388642
2096921,2096921, 303683, 388749
2096921,2096921, 303730, 388981
2096921,2096921, 303638, 388906
2096921,2096921, 303806, 388869
2096921,2096921, 303849, 388820
2096921,2096921, 303662, 388937
2096921,2096921, 303718, 389047
2096921,2096921, 304091, 389043
2096921,2096921, 303927, 389207
2096921,2096921, 303754, 389090
2096921,2096921, 303825, 388908
2096921,2096921, 304176, 389102
2096921,2096921, 303898, 389097
2096921,2096921, 304074, 388947
2096921,2096921, 303871, 388953
2096921,2096921, 303840, 388860
2096921,2096921, 303821, 388879
2096921,2096921, 303927, 388795
2096921,2096921, 303975, 388869
2096921,2096921, 303989, 389056
2096921,2096921, 303815, 389188
2096921,2096921, 304041, 389012
2096921,2096921, 303840, 389069
2096921,2096921, 304175, 388897
2096921,2096921, 303901, 388859
2096921,2096921, 303810, 388970
2096921,2096921, 304006, 388918
2096921,2096921, 303812, 388773
2096921,2096921, 303777, 389019
2096921,2096921, 303928, 389036
2096921,2096921, 303864, 389013
2096921,2096921, 303708, 388925
2096921,2096921, 303670, 388713
2096921,2096921, 304025, 388533
2096921,2096921, 303931, 388636
2096921,2096921, 303792, 388663
2096921,2096921, 303252, 388585
2096921,2096921, 303702, 388616
2096921,2096921, 303624, 388758
2096921,2096921, 303494, 388919
2096921,2096921, 303637, 388963
2096921,2096921, 303649, 389053
2096921,2096921, 303359, 388957
2096921,2096921, 303704, 389017
2096921,2096921, 303481, 388965
2096921,2096921, 303511, 388879
2096921,2096921, 303435, 388810
2096921,2096921, 303429, 388662
2096921,2096921, 303451, 388858
2096921,2096921, 303435, 388740
2096921,2096921, 303241, 388774
2096921,2096921, 303258, 388635
2096921,2096921, 303324, 388570
2096921,2096921, 303702, 388593
2096921,2096921, 303487, 388508
2096921,2096921, 303520, 388493
2096921,2096921, 303299, 388476
2096921,2096921, 303180, 388726
2096921,2096921, 303536, 388671
2096921,2096921, 303435, 388835
2096921,2096921, 303389, 388639
2096921,2096921, 303471, 388632
2096921,2096921, 303467, 388694
2096921,2096921, 303604, 388540
2096921,2096921, 303444, 388533
2096921,2096921, 303619, 388464
2096921,2096921, 303735, 388704
2096921,2096921, 303693, 388643
2096921,2096921, 303513, 388839
2096921,2096921, 303726, 388886
2096921,2096921, 303743, 388728
2096921,2096921, 303691, 388893
2096921,2096921, 303642, 388683
2096921,2096921, 303539, 388447
2096921,2096921, 303513, 388378
2096921,2096921, 303621, 388749
2096921,2096921, 303602, 388747
2096921,2096921, 304170, 388910
2096921,2096921, 304039, 388899
2096921,2096921, 303739, 389140
2096921,2096921, 303842, 389033
2096921,2096921, 304258, 389240
2096921,2096921, 304276, 388962
2096921,2096921, 304141, 389056
2096921,2096921, 304015, 389067
2096921,2096921, 304275, 389229
2096921,2096921, 304511, 389192
2096921,2096921, 304426, 389153
2096921,2096921, 304994, 389284
2096921,2096921, 304586, 389489
2096921,2096921, 304761, 389359
2096921,2096921, 305007, 389551
2096921,2096921, 304774, 389627
2096921,2096921, 304589, 389332
2096921,2096921, 304520, 389430
2096921,2096921, 304783, 389547
2096921,2096921, 305117, 389660
2096921,2096921, 305176, 389599
2096921,2096921, 305185, 389572
2096921,2096921, 305152, 389837
2096921,2096921, 305106, 389868
2096921,2096921, 305324, 389803
2096921,2096921, 305376, 389870
2096921,2096921, 305133, 389713
2096921,2096921, 305004, 389705
2096921,2096921, 305401, 389623
2096921,2096921, 305442, 389666
2096921,2096921, 305698, 389893
2096921,2096921, 305360, 390198
2096921,2096921, 305409, 390028
2096921,2096921, 305856, 390134
2096921,2096921, 305727, 390254
2096921,2096921, 305688, 389921
2096921,2096921, 305773, 390353
2096921,2096921, 305606, 390275
2096921,2096921, 305780, 390123
2096921,2096921, 305813, 390200
2096921,2096921, 305960, 390295
2096921,2096921, 305869, 390392
2096921,2096921, 306095, 390476
2096921,2096921, 306119, 390435
2096921,2096921, 306182, 390366
2096921,2096921, 306237, 390523
2096921,2096921, 306449, 390444
2096921,2096921, 306101, 390649
2096921,2096921, 306496, 390527
2096921,2096921, 306267, 390561
2096921,2096921, 306347, 390564
2096921,2096921, 306346, 390414
2096921,2096921, 306430, 390526
2096921,2096921, 306309, 390419
2096921,2096921, 306613, 390624
2096921,2096921, 306881, 390669
2096921,2096921, 306773, 390817
2096921,2096921, 306497, 390752
2096921,2096921, 306749, 390818
2096921,2096921, 307183, 390948
2096921,2096921, 307085, 390734
2096921,2096921, 306882, 390931
2096921,2096921, 306753, 390489
2096921,2096921, 306976, 391021
2096921,2096921, 307109, 390924
2096921,2096921, 306989, 390954
2096921,2096921, 307265, 391199
2096921,2096921, 307057, 391118
2096921,2096921, 307179, 390768
2096921,2096921, 307264, 391112
2096921,2096921, 307509, 391179
2096921,2096921, 307197, 391125
2096921,2096921, 307437, 391187
2096921,2096921, 307678, 391285
2096921,2096921, 307238, 390890
2096921,2096921, 307282, 391248
2096921,2096921, 307352, 391196
2096921,2096921, 307453, 391178
2096921,2096921, 307691, 391347
2096921,2096921, 307657, 391302
2096921,2096921, 307713, 391333
2096921,2096921, 307711, 391517
2096921,2096921, 307766, 391448
2096921,2096921, 307875, 391350
2096921,2096921, 307419, 391696
2096921,2096921, 307405, 391209
2096921,2096921, 307586, 391128
2096921,2096921, 307815, 391229
2096921,2096921, 307739, 391425
2096921,2096921, 307728, 391652
2096921,2096921, 308064, 391611
2096921,2096921, 308143, 391655
2096921,2096921, 308148, 391758
2096921,2096921, 308138, 391959
2096921,2096921, 308004, 391858
2096921,2096921, 308229, 391536
2096921,2096921, 308075, 391676
2096921,2096921, 308057, 391757
2096921,2096921, 308505, 391635
2096921,2096921, 308531, 391817
2096921,2096921, 308426, 392141
2096921,2096921, 308560, 392024
2096921,2096921, 308599, 391977
2096921,2096921, 308784, 391680
2096921,2096921, 308487, 391913
2096921,2096921, 308366, 391879
2096921,2096921, 308328, 392016
2096921,2096921, 308669, 391862
2096921,2096921, 308579, 391749
2096921,2096921, 308722, 392058
2096921,2096921, 308840, 391876
2096921,2096921, 308753, 392011
2096921,2096921, 308628, 392017
2096921,2096921, 308982, 392283
2096921,2096921, 308825, 392220
2096921,2096921, 308528, 392320
2096921,2096921, 308680, 392252
2096921,2096921, 308871, 392051
2096921,2096921, 308953, 392079
2096921,2096921, 308919, 391915
2096921,2096921, 308833, 392184
2096921,2096921, 308865, 392236
2096921,2096921, 309216, 392465
2096921,2096921, 309195, 392068
2096921,2096921, 309193, 392332
2096921,2096921, 308981, 392399
2096921,2096921, 308937, 392423
2096921,2096921, 308974, 392143
2096921,2096921, 309152, 392106
2096921,2096921, 309131, 392362
2096921,2096921, 308996, 392099
2096921,2096921, 308991, 392168
2096921,2096921, 309251, 392327
2096921,2096921, 309384, 392319
2096921,2096921, 309250, 392286
2096921,2096921, 309286, 392330
2096921,2096921, 309815, 392194
2096921,2096921, 309190, 392430
2096921,2096921, 309187, 392302
2096921,2096921, 309207, 392281
2096921,2096921, 309070, 392694
2096921,2096921, 309335, 392749
2096921,2096921, 309331, 392492
2096921,2096921, 309416, 392254
2096921,2096921, 309440, 392415
2096921,2096921, 309489, 392468
2096921,2096921, 309414, 392604
2096921,2096921, 309738, 392546
2096921,2096921, 309814, 392518
2096921,2096921, 309755, 392659
2096921,2096921, 309647, 392637
2096921,2096921, 309471, 392643
2096921,2096921, 309660, 392792
2096921,2096921, 309542, 392588
2096921,2096921, 309614, 392679
2096921,2096921, 309491, 392596
2096921,2096921, 309758, 392442
2096921,2096921, 309575, 392585
2096921,2096921, 309569, 392763
2096921,2096921, 309695, 392600
2096921,2096921, 309879, 392785
2096921,2096921, 309502, 392796
2096921,2096921, 309553, 392896
2096921,2096921, 309738, 392595
2096921,2096921, 309713, 392815
2096921,2096921, 309844, 392858
2096921,2096921, 310226, 392862
2096921,2096921, 309602, 392717
2096921,2096921, 309749, 392741
2096921,2096921, 309750, 392772
2096921,2096921, 309824, 392915
2096921,2096921, 309820, 393049
2096921,2096921, 309843, 392833
2096921,2096921, 310073, 392908
2096921,2096921, 310084, 393026
2096921,2096921, 309828, 392768
2096921,2096921, 309972, 392864
2096921,2096921, 309692, 392782
2096921,2096921, 310011, 392783
2096921,2096921, 309883, 392736
2096921,2096921, 309991, 392891
2096921,2096921, 309739, 392787
2096921,2096921, 309992, 392795
2096921,2096921, 309849, 392903
2096921,2096921, 310110, 393277
2096921,2096921, 309953, 392896
2096921,2096921, 310176, 393068
2096921,2096921, 310151, 392888
2096921,2096921, 310134, 393004
2096921,2096921, 310137, 392802
2096921,2096921, 310140, 392998
2096921,2096921, 310077, 392737
2096921,2096921, 310156, 392773
2096921,2096921, 309955, 392724
2096921,2096921, 310010, 393087
2096921,2096921, 310335, 393034
2096921,2096921, 310402, 393107
2096921,2096921, 310368, 393088
2096921,2096921, 310516, 393077
2096921,2096921, 310291, 393352
2096921,2096921, 310386, 393168
2096921,2096921, 310267, 392975
2096921,2096921, 310198, 393057
2096921,2096921, 310432, 393053
2096921,2096921, 310013, 393032
2096921,2096921, 309985, 392964
2096921,2096921, 310219, 393001
2096921,2096921, 310183, 393064
2096921,2096921, 310197, 393145
2096921,2096921, 310325, 393063
2096921,2096921, 310643, 393009
2096921,2096921, 310531, 393142
2096921,2096921, 310395, 393371
2096921,2096921, 310354, 393181
2096921,2096921, 310491, 393248
2096921,2096921, 310528, 393039
2096921,2096921, 310257, 393227
2096921,2096921, 310319, 393116
2096921,2096921, 310318, 393111
2096921,2096921, 310323, 393087
2096921,2096921, 310304, 393176
2096921,2096921, 310213, 393299
2096921,2096921, 310186, 393347
2096921,2096921, 310612, 393125
2096921,2096921, 310447, 393276
2096921,2096921, 310601, 392983
2096921,2096921, 310439, 393169
2096921,2096921, 310409, 393128
2096921,2096921, 310347, 392967
2096921,2096921, 310353, 392844
2096921,2096921, 310404, 393132
2096921,2096921, 310321, 393128
2096921,2096921, 310479, 393100
2096921,2096921, 310515, 392991
2096921,2096921, 310697, 393044
2096921,2096921, 310239, 392984
2096921,2096921, 310606, 393248
2096921,2096921, 310584, 393077
2096921,2096921, 310369, 393241
2096921,2096921, 310540, 393092
2096921,2096921, 310390, 392831
2096921,2096921, 310339, 393135
2096921,2096921, 310568, 393134
2096921,2096921, 310513, 392997
2096921,2096921, 310609, 393322
2096921,2096921, 310151, 392986
2096921,2096921, 310062, 393104
2096921,2096921, 310265, 393020
2096921,2096921, 310345, 393108
2096921,2096921, 310346, 393058
2096921,2096921, 310180, 393381
2096921,2096921, 310544, 393056
2096921,2096921, 310627, 393345
2096921,2096921, 310362, 393163
2096921,2096921, 310321, 393046
2096921,2096921, 310146, 393102
2096921,2096921, 310300, 393206
2096921,2096921, 310207, 392996
2096921,2096921, 310254, 393045
2096921,2096921, 310143, 392970
2096921,2096921, 310405, 393276
2096921,2096921, 310425, 393369
2096921,2096921, 310455, 393334
2096921,2096921, 309951, 393427
2096921,2096921, 310137, 392703
2096921,2096921, 310016, 392854
2096921,2096921, 309820, 392741
2096921,2096921, 309872, 392702
2096921,2096921, 309473, 392710
2096921,2096921, 309371, 392625
2096921,2096921, 309748, 392628
2096921,2096921, 309443, 392539
2096921,2096921, 309568, 392673
2096921,2096921, 309219, 392633
2096921,2096921, 308927, 392482
2096921,2096921, 308701, 392145
2096921,2096921, 308840, 392196
2096921,2096921, 308939, 392113
2096921,2096921, 308424, 392393
2096921,2096921, 308217, 391879
2096921,2096921, 308349, 391473
2096921,2096921, 308156, 391768
2096921,2096921, 308123, 391715
2096921,2096921, 307762, 391593
2096921,2096921, 307506, 391285
2096921,2096921, 307603, 391578
2096921,2096921, 307418, 391367
2096921,2096921, 307200, 391529
2096921,2096921, 306001, 391309
2096921,2096921, 305514, 390213
2096921,2096921, 305582, 389992
2096921,2096921, 305446, 389839
2096921,2096921, 305412, 389832
2096921,2096921, 303583, 389871
2096921,2096921, 303316, 389076
2096921,2096921, 303427, 388373
2096921,2096921, 303335, 388330
2096921,2096921, 303364, 388094
2096921,2096921, 301898, 388587
2096921,2096921, 301582, 387461
2096921,2096921, 301280, 387101
2096921,2096921, 301264, 387425
2096921,2096921, 301443, 387362
2096921,2096921, 300244, 387296
2096921,2096921, 299827, 386973
2096921,2096921, 299917, 386690
2096921,2096921, 300108, 386419
2096921,2096921, 299987, 386509
2096921,2096921, 299299, 386578
2096921,2096921, 299307, 385912
2096921,2096921, 299092, 385758
2096921,2096921, 299083, 385862
2096921,2096921, 298989, 385877
2096921,2096921, 298463, 385675
2096921,2096921, 298477, 385386
2096921,2096921, 298461, 385576
2096921,2096921, 298433, 385384
2096921,2096921, 298613, 385397
2096921,2096921, 298438, 385422
2096921,2096921, 297985, 385327
2096921,2096921, 297840, 384974
2096921,2096921, 297729, 384920
2096921,2096921, 297820, 385268
2096921,2096921, 297866, 385334
2096921,2096921, 297818, 384824
2096921,2096921, 297825, 384732
2096921,2096921, 297741, 384448
2096921,2096921, 297847, 384866
2096921,2096921, 297545, 385016
2096921,2096921, 297794, 384923
2096921,2096921, 297608, 385054
2096921,2096921, 297529, 384698
2096921,2096921, 297359, 385026
2096921,2096921, 297447, 384819
2096921,2096921, 297402, 384780
2096921,2096921, 297600, 384618
2096921,2096921, 297338, 384862
2096921,2096921, 297581, 384854
2096921,2096921, 297812, 385076
2096921,2096921, 297894, 385156
2096921,2096921, 297707, 385213
2096921,2096921, 297703, 385292
2096921,2096921, 297350, 384706
2096921,2096921, 297649, 384934
2096921,2096921, 297701, 384903
2096921,2096921, 298098, 385265
2096921,2096921, 297445, 384609
2096921,2096921, 297836, 385025
2096921,2096921, 297712, 385210
2096921,2096921, 297779, 385062
2096921,2096921, 297751, 385015
2096921,2096921, 298066, 385147
2096921,2096921, 297757, 385454
2096921,2096921, 298274, 385277
2096921,2096921, 298227, 385414
2096921,2096921, 298360, 385268
2096921,2096921, 298305, 385207
2096921,2096921, 298536, 385385
2096921,2096921, 298667, 385595
2096921,2096921, 298894, 385666
2096921,2096921, 298724, 385653
2096921,2096921, 298873, 385631
2096921,2096921, 298637, 385575
2096921,2096921, 299021, 385632
2096921,2096921, 299142, 385973
2096921,2096921, 298936, 385657
2096921,2096921, 299048, 385716
2096921,2096921, 299066, 385633
2096921,2096921, 299099, 385663
2096921,2096921, 299474, 385845
2096921,2096921, 299551, 386045
2096921,2096921, 299617, 385898
2096921,2096921, 299685, 386007
2096921,2096921, 300014, 386060
2096921,2096921, 299992, 386360
2096921,2096921, 300048, 386175
2096921,2096921, 299879, 386366
2096921,2096921, 299967, 386254
2096921,2096921, 300100, 386370
2096921,2096921, 300287, 386440
2096921,2096921, 300340, 386574
2096921,2096921, 300489, 386706
2096921,2096921, 300228, 386560
2096921,2096921, 300633, 386709
2096921,2096921, 300622, 387006
2096921,2096921, 300817, 387075
2096921,2096921, 300667, 386782
2096921,2096921, 300764, 386847
2096921,2096921, 300956, 387132
2096921,2096921, 300875, 387214
2096921,2096921, 300836, 387003
2096921,2096921, 301351, 387156
2096921,2096921, 301371, 387333
2096921,2096921, 301619, 387313
2096921,2096921, 301481, 387352
2096921,2096921, 301576, 387344
2096921,2096921, 301592, 387595
2096921,2096921, 301602, 387856
2096921,2096921, 301560, 387646
2096921,2096921, 301970, 387484
2096921,2096921, 301896, 387804
2096921,2096921, 301877, 387568
2096921,2096921, 301659, 387311
2096921,2096921, 302139, 387628
2096921,2096921, 302314, 388075
2096921,2096921, 302559, 388139
2096921,2096921, 302484, 387924
2096921,2096921, 302496, 387623
2096921,2096921, 302564, 387802
2096921,2096921, 302743, 387942
2096921,2096921, 302527, 388325
2096921,2096921, 302782, 387924
2096921,2096921, 302947, 388275
2096921,2096921, 303310, 388249
2096921,2096921, 303224, 388397
2096921,2096921, 303397, 388440
2096921,2096921, 303347, 388676
2096921,2096921, 303304, 388416
2096921,2096921, 303167, 388433
2096921,2096921, 303130, 388726
2096921,2096921, 303444, 388583
2096921,2096921, 303310, 388542
2096921,2096921, 303299, 388636
2096921,2096921, 303648, 388491
2096921,2096921, 303303, 388749
2096921,2096921, 303696, 388953
2096921,2096921, 303412, 388625
2096921,2096921, 303738, 388666
2096921,2096921, 303940, 388741
2096921,2096921, 304104, 388787
2096921,2096921, 303820, 388715
2096921,2096921, 303918, 388869
2096921,2096921, 303842, 388944
2096921,2096921, 304085, 388943
2096921,2096921, 303948, 388777
2096921,2096921, 303998, 388883
2096921,2096921, 303897, 388891
2096921,2096921, 303732, 388913
2096921,2096921, 304140, 388875
2096921,2096921, 304174, 388918
2096921,2096921, 304050, 389090
2096921,2096921, 304166, 388935
2096921,2096921, 304058, 388810
2096921,2096921, 303956, 389087
2096921,2096921, 303698, 388961
2096921,2096921, 304059, 388815
2096921,2096921, 303961, 389044
2096921,2096921, 303911, 389175
2096921,2096921, 303803, 389026
2096921,2096921, 303921, 388796
2096921,2096921, 304270, 388852
2096921,2096921, 303929, 388924
2096921,2096921, 303911, 388934
2096921,2096921, 303648, 388933
2096921,2096921, 303956, 389029
2096921,2096921, 303741, 388729
2096921,2096921, 303578, 388630
2096921,2096921, 303507, 388660
2096921,2096921, 303376, 388714
2096921,2096921, 303419, 388783
2096921,2096921, 303539, 388734
2096921,2096921, 303654, 388643
2096921,2096921, 303617, 388805
2096921,2096921, 303484, 388893
2096921,2096921, 303494, 388731
2096921,2096921, 303501, 388861
2096921,2096921, 303396, 388825
2096921,2096921, 303343, 388686
2096921,2096921, 302936, 388709
2096921,2096921, 303384, 388334
2096921,2096921, 303367, 388499
2096921,2096921, 303381, 388413
2096921,2096921, 303167, 388501
2096921,2096921, 303403, 388450
2096921,2096921, 303391, 388850
2096921,2096921, 303488, 388537
2096921,2096921, 303339, 388579
2096921,2096921, 303411, 388702
2096921,2096921, 303435, 388372
2096921,2096921, 303240, 388472
2096921,2096921, 303187, 388311
2096921,2096921, 303208, 388567
2096921,2096921, 303166, 388659
2096921,2096921, 303227, 388599
2096921,2096921, 303142, 388703
2096921,2096921, 303440, 388419
2096921,2096921, 303326, 388577
2096921,2096921, 303318, 388622
2096921,2096921, 303285, 388507
2096921,2096921, 303300, 388482
2096921,2096921, 303470, 388668
2096921,2096921, 303671, 388761
2096921,2096921, 303597, 388790
2096921,2096921, 303531, 388455
2096921,2096921, 303440, 388791
2096921,2096921, 303495, 388666
2096921,2096921, 303524, 388571
2096921,2096921, 303702, 388583
2096921,2096921, 303797, 388576
2096921,2096921, 304015, 389179
2096921,2096921, 303961, 389035
2096921,2096921, 303864, 388876
2096921,2096921, 303704, 388594
2096921,2096921, 304158, 388980
2096921,2096921, 303945, 389186
2096921,2096921, 304027, 389275
2096921,2096921, 304205, 388986
2096921,2096921, 303891, 388882
2096921,2096921, 304212, 388875
2096921,2096921, 304551, 389000
2096921,2096921, 304417, 389284
2096921,2096921, 304768, 389267
2096921,2096921, 304609, 389095
2096921,2096921, 304900, 389447
2096921,2096921, 304732, 389614
2096921,2096921, 304663, 389662
2096921,2096921, 304591, 389531
2096921,2096921, 304760, 389161
2096921,2096921, 304731, 389255
2096921,2096921, 304950, 389702
2096921,2096921, 305013, 389494
2096921,2096921, 305079, 389762
2096921,2096921, 305044, 389527
2096921,2096921, 305449, 389685
2096921,2096921, 305576, 389922
2096921,2096921, 305583, 389778
2096921,2096921, 305055, 389497
2096921,2096921, 305310, 389773
2096921,2096921, 305234, 389692
2096921,2096921, 305501, 389652
2096921,2096921, 305532, 389885
2096921,2096921, 305547, 390052
2096921,2096921, 305248, 390048
2096921,2096921, 305848, 390197
2096921,2096921, 305981, 390139
2096921,2096921, 305768, 389990
2096921,2096921, 305835, 389982
2096921,2096921, 305567, 390265
2096921,2096921, 305753, 390142
2096921,2096921, 305906, 390159
2096921,2096921, 305971, 390108
2096921,2096921, 306128, 390113
2096921,2096921, 306090, 390136
2096921,2096921, 306460, 390242
2096921,2096921, 306365, 390315
2096921,2096921, 306315, 390812
2096921,2096921, 306363, 390453
2096921,2096921, 306382, 390526
2096921,2096921, 306251, 390444
2096921,2096921, 306532, 390675
2096921,2096921, 306285, 390529
2096921,2096921, 306268, 390158
2096921,2096921, 306080, 390487
2096921,2096921, 306047, 390515
2096921,2096921, 306533, 390522
2096921,2096921, 306622, 390625
2096921,2096921, 306586, 390762
2096921,2096921, 306857, 390836
2096921,2096921, 307043, 390554
2096921,2096921, 306968, 390885
2096921,2096921, 306831, 390953
2096921,2096921, 307009, 390784
2096921,2096921, 306915, 390933
2096921,2096921, 306916, 390897
2096921,2096921, 307103, 390923
2096921,2096921, 306991, 390851
2096921,2096921, 306921, 390982
2096921,2096921, 306854, 391032
2096921,2096921, 307138, 390904
2096921,2096921, 307157, 391016
2096921,2096921, 307231, 391046
2096921,2096921, 307539, 391151
2096921,2096921, 307478, 391181
2096921,2096921, 307445, 391249
2096921,2096921, 307432, 391275
2096921,2096921, 307365, 390989
2096921,2096921, 307650, 391183
2096921,2096921, 307486, 391312
2096921,2096921, 307527, 391092
2096921,2096921, 307756, 391206
2096921,2096921, 307752, 391297
2096921,2096921, 307778, 391468
2096921,2096921, 307723, 391496
2096921,2096921, 307910, 391596
2096921,2096921, 308055, 391509
2096921,2096921, 307852, 391264
2096921,2096921, 307688, 391318
2096921,2096921, 307690, 391331
2096921,2096921, 307503, 391068
2096921,2096921, 307526, 391393
2096921,2096921, 307790, 391316
2096921,2096921, 308018, 391565
2096921,2096921, 308304, 391436
2096921,2096921, 308097, 391664
2096921,2096921, 308163, 391543
2096921,2096921, 308178, 391692
2096921,2096921, 308166, 391579
2096921,2096921, 308072, 391618
2096921,2096921, 308229, 391519
2096921,2096921, 308229, 392025
2096921,2096921, 308283, 391803
2096921,2096921, 308480, 391755
2096921,2096921, 308498, 391763
2096921,2096921, 308394, 391829
2096921,2096921, 308511, 392002
2096921,2096921, 308599, 392082
2096921,2096921, 308376, 392057
2096921,2096921, 308436, 391938
2096921,2096921, 308502, 391934
2096921,2096921, 308567, 392206
2096921,2096921, 308637, 391959
2096921,2096921, 308621, 392228
2096921,2096921, 308721, 392091
2096921,2096921, 308182, 391876
2096921,2096921, 308655, 392053
2096921,2096921, 308601, 392232
2096921,2096921, 308594, 392082
2096921,2096921, 308735, 392010
2096921,2096921, 309039, 392288
2096921,2096921, 308984, 392168
2096921,2096921, 308835, 391955
2096921,2096921, 308960, 392134
2096921,2096921, 308874, 392107
2096921,2096921, 309071, 392222
2096921,2096921, 308835, 392092
2096921,2096921, 308950, 392238
2096921,2096921, 309140, 392405
2096921,2096921, 308793, 391959
2096921,2096921, 308868, 392016
2096921,2096921, 309126, 392209
2096921,2096921, 309142, 392429
2096921,2096921, 308801, 392379
2096921,2096921, 309057, 392152
2096921,2096921, 309226, 392329
2096921,2096921, 309163, 392366
2096921,2096921, 309293, 392268
2096921,2096921, 309050, 392123
2096921,2096921, 309214, 392136
2096921,2096921, 309116, 392430
2096921,2096921, 309306, 392583
2096921,2096921, 309204, 392420
2096921,2096921, 309380, 392506
2096921,2096921, 309578, 392667
2096921,2096921, 309597, 392666
2096921,2096921, 309293, 392418
2096921,2096921, 309220, 392271
2096921,2096921, 309488, 392100
2096921,2096921, 309397, 392404
2096921,2096921, 309235, 392452
2096921,2096921, 309453, 392523
2096921,2096921, 309561, 392630
2096921,2096921, 309401, 392712
2096921,2096921, 309576, 392638
2096921,2096921, 309722, 392703
2096921,2096921, 309626, 392788
2096921,2096921, 309585, 392770
2096921,2096921, 309564, 392393
2096921,2096921, 309510, 392587
2096921,2096921, 309556, 392642
2096921,2096921, 309663, 392509
2096921,2096921, 309536, 392512
2096921,2096921, 309395, 392426
2096921,2096921, 309672, 392634
2096921,2096921, 309985, 393106
2096921,2096921, 309829, 392622
2096921,2096921, 309574, 392872
2096921,2096921, 309499, 392668
2096921,2096921, 309886, 392634
2096921,2096921, 309533, 392608
2096921,2096921, 309780, 392625
2096921,2096921, 309485, 392601
2096921,2096921, 309793, 392724
2096921,2096921, 309657, 392780
2096921,2096921, 309705, 392883
2096921,2096921, 309958, 392800
2096921,2096921, 309787, 392787
2096921,2096921, 309869, 392763
2096921,2096921, 309965, 392816
2096921,2096921, 310038, 392756
2096921,2096921, 310001, 392909
2096921,2096921, 309881, 393078
2096921,2096921, 309968, 392767
2096921,2096921, 310034, 392724
2096921,2096921, 309816, 392694
2096921,2096921, 310185, 392829
2096921,2096921, 309885, 393036
2096921,2096921, 309739, 393139
2096921,2096921, 310087, 392957
2096921,2096921, 310115, 392785
2096921,2096921, 310022, 393239
2096921,2096921, 310111, 392784
2096921,2096921, 310394, 392890
2096921,2096921, 310155, 393063
2096921,2096921, 310181, 392826
2096921,2096921, 310111, 393134
2096921,2096921, 309935, 393286
2096921,2096921, 310063, 393023
2096921,2096921, 310108, 393078
2096921,2096921, 310219, 393111
2096921,2096921, 310266, 392935
2096921,2096921, 310376, 393114
2096921,2096921, 310364, 393402
2096921,2096921, 310176, 393130
2096921,2096921, 310272, 393503
2096921,2096921, 310221, 393382
2096921,2096921, 310257, 393307
2096921,2096921, 310132, 393296
2096921,2096921, 310217, 392932
2096921,2096921, 310384, 393031
2096921,2096921, 310207, 393128
2096921,2096921, 310072, 393120
2096921,2096921, 310130, 393213
2096921,2096921, 310268, 393191
2096921,2096921, 310206, 393199
2096921,2096921, 310291, 393317
2096921,2096921, 310312, 393027
2096921,2096921, 310493, 393137
2096921,2096921, 310386, 393267
2096921,2096921, 310581, 393235
2096921,2096921, 310442, 393107
2096921,2096921, 310420, 393287
2096921,2096921, 310352, 393332
2096921,2096921, 310257, 393338
2096921,2096921, 310576, 393121
2096921,2096921, 310511, 393213
2096921,2096921, 310319, 392956
2096921,2096921, 310245, 392960
2096921,2096921, 310076, 393151
2096921,2096921, 310275, 392838
2096921,2096921, 310230, 393099
2096921,2096921, 310148, 393043
2096921,2096921, 310379, 393222
2096921,2096921, 310377, 393103
2096921,2096921, 310401, 393014
2096921,2096921, 310355, 393216
2096921,2096921, 310251, 393111
2096921,2096921, 310424, 393328
2096921,2096921, 310151, 393299
2096921,2096921, 310274, 393207
2096921,2096921, 310204, 393257
2096921,2096921, 310358, 393069
2096921,2096921, 310287, 393138
2096921,2096921, 310499, 393125
2096921,2096921, 310656, 393623
2096921,2096921, 310505, 393117
2096921,2096921, 310378, 393369
2096921,2096921, 310636, 393264
2096921,2096921, 310223, 393247
2096921,2096921, 310300, 392972
2096921,2096921, 310290, 393074
2096921,2096921, 310422, 393179
2096921,2096921, 310090, 393206
2096921,2096921, 310376, 393144
2096921,2096921, 310096, 393068
2096921,2096921, 310440, 393020
2096921,2096921, 310363, 393229
2096921,2096921, 310532, 393120
2096921,2096921, 310665, 393148
2096921,2096921, 310478, 393287
2096921,2096921, 310282, 393215
2096921,2096921, 310513, 393179
2096921,2096921, 310330, 393250
2096921,2096921, 310306, 393474
2096921,2096921, 309994, 393436
2096921,2096921, 309798, 393143
2096921,2096921, 310072, 392844
2096921,2096921, 310083, 392855
2096921,2096921, 310108, 392984
2096921,2096921, 309774, 392713
2096921,2096921, 309695, 392599
2096921,2096921, 309470, 392788
2096921,2096921, 309564, 392756
2096921,2096921, 309742, 392785
2096921,2096921, 309207, 392619
2096921,2096921, 309145, 392329
2096921,2096921, 308991, 392384
2096921,2096921, 308973, 392074
2096921,2096921, 308996, 392217
2096921,2096921, 308530, 392227
2096921,2096921, 308259, 391884
2096921,2096921, 308377, 391845
2096921,2096921, 308486, 391797
2096921,2096921, 308339, 391633
2096921,2096921, 307355, 391475
2096921,2096921, 307356, 391377
2096921,2096921, 307112, 391240
2096921,2096921, 307222, 391164
2096921,2096921, 307222, 391119
2096921,2096921, 305930, 391287
2096921,2096921, 305652, 390145
2096921,2096921, 305558, 389983
2096921,2096921, 305462, 389951
2096921,2096921, 305737, 390074
2096921,2096921, 303812, 390261
2096921,2096921, 303283, 388801
2096921,2096921, 303001, 388490
2096921,2096921, 303025, 388270
2096921,2096921, 303013, 388373
2096921,2096921, 301986, 388278
2096921,2096921, 301401, 387503
2096921,2096921, 301519, 387195
2096921,2096921, 301421, 387350
2096921,2096921, 301537, 387529
2096921,2096921, 300370, 387414
2096921,2096921, 299933, 386777
2096921,2096921, 300270, 386467
2096921,2096921, 299950, 386327
2096921,2096921, 300126, 386280
2096921,2096921, 299078, 386365
2096921,2096921, 298689, 385830
2096921,2096921, 299026, 385965
2096921,2096921, 299208, 385796
2096921,2096921, 299042, 386113
2096921,2096921, 298804, 385873
2096921,2096921, 298810, 385448
2096921,2096921, 298595, 385286
2096921,2096921, 298477, 385352
2096921,2096921, 298498, 385369
2096921,2096921, 297881, 385436
2096921,2096921, 297758, 385094
2096921,2096921, 297890, 385026
2096921,2096921, 297821, 384926
2096921,2096921, 298107, 384944
2096921,2096921, 297950, 385157
2096921,2096921, 297802, 384856
2096921,2096921, 297464, 384837
2096921,2096921, 297778, 385174
2096921,2096921, 297496, 384949
2096921,2096921, 297596, 384955
2096921,2096921, 297452, 384812
2096921,2096921, 297771, 384694
2096921,2096921, 297559, 384907
2096921,2096921, 297793, 384685
2096921,2096921, 297835, 384627
2096921,2096921, 297648, 384964
2096921,2096921, 297512, 384975
2096921,2096921, 297438, 384787
2096921,2096921, 297571, 384768
2096921,2096921, 297706, 385018
2096921,2096921, 297759, 384704
2096921,2096921, 297548, 384714
2096921,2096921, 297609, 384730
2096921,2096921, 297788, 384812
2096921,2096921, 297882, 384998
2096921,2096921, 298084, 384869
2096921,2096921, 298066, 384958
2096921,2096921, 297849, 384589
2096921,2096921, 297935, 385124
2096921,2096921, 298225, 385289
2096921,2096921, 298013, 385115
2096921,2096921, 297940, 385044
2096921,2096921, 297991, 385194
2096921,2096921, 298240, 385122
2096921,2096921, 298281, 385162
2096921,2096921, 298016, 385328
2096921,2096921, 298240, 385227
2096921,2096921, 298498, 385240
2096921,2096921, 298529, 385715
2096921,2096921, 299017, 385345
2096921,2096921, 298684, 385434
2096921,2096921, 298681, 385448
2096921,2096921, 298577, 385350
2096921,2096921, 298618, 385752
2096921,2096921, 298756, 385657
2096921,2096921, 299214, 385871
2096921,2096921, 299005, 385815
2096921,2096921, 298976, 385778
2096921,2096921, 298986, 385556
2096921,2096921, 299392, 385950
2096921,2096921, 299757, 386016
2096921,2096921, 299456, 386130
2096921,2096921, 299559, 386138
2096921,2096921, 299573, 386144
2096921,2096921, 299619, 385998
2096921,2096921, 299839, 386282
2096921,2096921, 299767, 386240
2096921,2096921, 299908, 386526
2096921,2096921, 299771, 386405
2096921,2096921, 300016, 386251
2096921,2096921, 300319, 386339
2096921,2096921, 300237, 386621
2096921,2096921, 300385, 386671
2096921,2096921, 300484, 386565
2096921,2096921, 300818, 386684
2096921,2096921, 300715, 386926
2096921,2096921, 300817, 386903
2096921,2096921, 300644, 386871
2096921,2096921, 300660, 386810
2096921,2096921, 301099, 386533
2096921,2096921, 301030, 386745
2096921,2096921, 301336, 387039
2096921,2096921, 301384, 387070
2096921,2096921, 300971, 387082
2096921,2096921, 301372, 387197
2096921,2096921, 301463, 387455
2096921,2096921, 301364, 387341
2096921,2096921, 301566, 387268
2096921,2096921, 301222, 387373
2096921,2096921, 301559, 387359
2096921,2096921, 302053, 387192
2096921,2096921, 301955, 387656
2096921,2096921, 301751, 387628
2096921,2096921, 301697, 387603
2096921,2096921, 302331, 387783
2096921,2096921, 302281, 388039
2096921,2096921, 302484, 387844
2096921,2096921, 302440, 387920
2096921,2096921, 302326, 388029
2096921,2096921, 302628, 388078
2096921,2096921, 302877, 388181
2096921,2096921, 302877, 388268
2096921,2096921, 302605, 388209
2096921,2096921, 302861, 388220
2096921,2096921, 302850, 388275
2096921,2096921, 303463, 388700
2096921,2096921, 303076, 388625
2096921,2096921, 303184, 388613
2096921,2096921, 302983, 388479
2096921,2096921, 303305, 388421
2096921,2096921, 303112, 388697
2096921,2096921, 303082, 388496
2096921,2096921, 303407, 388514
2096921,2096921, 303381, 388608
2096921,2096921, 303500, 388473
2096921,2096921, 303665, 388532
2096921,2096921, 303771, 388985
2096921,2096921, 303692, 388711
2096921,2096921, 303347, 388813
2096921,2096921, 303645, 388760
2096921,2096921, 303733, 388864
2096921,2096921, 303841, 388827
2096921,2096921, 303836, 388810
2096921,2096921, 304158, 388903
2096921,2096921, 304013, 388748
2096921,2096921, 303800, 389165
2096921,2096921, 303495, 389049
2096921,2096921, 304055, 388960
2096921,2096921, 303996, 389170
2096921,2096921, 303959, 388854
2096921,2096921, 303729, 388815
2096921,2096921, 303955, 388916
2096921,2096921, 304095, 389048
2096921,2096921, 303982, 389034
2096921,2096921, 304118, 389103
2096921,2096921, 303909, 388825
2096921,2096921, 303952, 388712
2096921,2096921, 303994, 388886
2096921,2096921, 303804, 388959
2096921,2096921, 303905, 388946
2096921,2096921, 303902, 388743
2096921,2096921, 304094, 389163
2096921,2096921, 304099, 388932
2096921,2096921, 303692, 389099
2096921,2096921, 303463, 388914
2096921,2096921, 303828, 388882
2096921,2096921, 303505, 388629
2096921,2096921, 303812, 388764
2096921,2096921, 303213, 388576
2096921,2096921, 303492, 388639
2096921,2096921, 303396, 388714
2096921,2096921, 303544, 388599
2096921,2096921, 303612, 388579
2096921,2096921, 303892, 388805
2096921,2096921, 303716, 388773
2096921,2096921, 303505, 388856
2096921,2096921, 303410, 388820
2096921,2096921, 303136, 388622
2096921,2096921, 303340, 388498
2096921,2096921, 303204, 388513
2096921,2096921, 303111, 388104
2096921,2096921, 303383, 388232
2096921,2096921, 303482, 388084
2096921,2096921, 303340, 388498
2096921,2096921, 303207, 388777
2096921,2096921, 303398, 388691
2096921,2096921, 303431, 388567
2096921,2096921, 303529, 388608
2096921,2096921, 303129, 388528
2096921,2096921, 303362, 388610
2096921,2096921, 303103, 388360
2096921,2096921, 303402, 388668
2096921,2096921, 303345, 388672
2096921,2096921, 303191, 388662
2096921,2096921, 303430, 388470
2096921,2096921, 303266, 388629
2096921,2096921, 303407, 388480
2096921,2096921, 303360, 388595
2096921,2096921, 303519, 388456
2096921,2096921, 303339, 388344
2096921,2096921, 303389, 388535
2096921,2096921, 303389, 388615
2096921,2096921, 303286, 388625
2096921,2096921, 303350, 388740
2096921,2096921, 303422, 388793
2096921,2096921, 303433, 388535
2096921,2096921, 303460, 388535
2096921,2096921, 303539, 388564
2096921,2096921, 303630, 388840
2096921,2096921, 303970, 388720
2096921,2096921, 304075, 389173
2096921,2096921, 304117, 389312
2096921,2096921, 303731, 388999
2096921,2096921, 303931, 388658
2096921,2096921, 303940, 388628
2096921,2096921, 304207, 389003
2096921,2096921, 303925, 389204
2096921,2096921, 303971, 388947
2096921,2096921, 304178, 388999
2096921,2096921, 304165, 389007
2096921,2096921, 304349, 389106
2096921,2096921, 304460, 389292
2096921,2096921, 304474, 389514
2096921,2096921, 304569, 389489
2096921,2096921, 304415, 389292
2096921,2096921, 304612, 389372
2096921,2096921, 304486, 389420
2096921,2096921, 304604, 389562
2096921,2096921, 304522, 389292
2096921,2096921, 304406, 389288
2096921,2096921, 304788, 389430
2096921,2096921, 305191, 389624
2096921,2096921, 305073, 389579
2096921,2096921, 305078, 389647
2096921,2096921, 305122, 389665
2096921,2096921, 305206, 389799
2096921,2096921, 305083, 389781
2096921,2096921, 304950, 389841
2096921,2096921, 305275, 389659
2096921,2096921, 305312, 389743
2096921,2096921, 305418, 389607
2096921,2096921, 305379, 389802
2096921,2096921, 305430, 389707
2096921,2096921, 305624, 390178
2096921,2096921, 305838, 389922
2096921,2096921, 305875, 390106
2096921,2096921, 305714, 389810
2096921,2096921, 305727, 389967
2096921,2096921, 305604, 389690
2096921,2096921, 305869, 389771
2096921,2096921, 305771, 390007
2096921,2096921, 305761, 390135
2096921,2096921, 305643, 390100
2096921,2096921, 305842, 390516
2096921,2096921, 306142, 390208
2096921,2096921, 306278, 390486
2096921,2096921, 306527, 390495
2096921,2096921, 306147, 390395
2096921,2096921, 306067, 390421
2096921,2096921, 306277, 390317
2096921,2096921, 306204, 390431
2096921,2096921, 306098, 390572
2096921,2096921, 306062, 390378
2096921,2096921, 306290, 390464
2096921,2096921, 306446, 390549
2096921,2096921, 306531, 390818
2096921,2096921, 306512, 390939
2096921,2096921, 306698, 390893
2096921,2096921, 306756, 390605
2096921,2096921, 306865, 390717
2096921,2096921, 306752, 391137
2096921,2096921, 306843, 390928
2096921,2096921, 307064, 390684
2096921,2096921, 306805, 390932
2096921,2096921, 306882, 390825
2096921,2096921, 306852, 391111
2096921,2096921, 306729, 390888
2096921,2096921, 306643, 390891
2096921,2096921, 306913, 390903
2096921,2096921, 307232, 390859
2096921,2096921, 307583, 391048
2096921,2096921, 307478, 391244
2096921,2096921, 307430, 391081
2096921,2096921, 307252, 391272
2096921,2096921, 307306, 391095
2096921,2096921, 307301, 391126
2096921,2096921, 307309, 390771
2096921,2096921, 307128, 390709
2096921,2096921, 307501, 391169
2096921,2096921, 307517, 391246
2096921,2096921, 307753, 391092
2096921,2096921, 307568, 391484
2096921,2096921, 307522, 391288
2096921,2096921, 307423, 391597
2096921,2096921, 307534, 391246
2096921,2096921, 307807, 391244
2096921,2096921, 307876, 391416
2096921,2096921, 307855, 391343
2096921,2096921, 308001, 391246
2096921,2096921, 308190, 391233
2096921,2096921, 308034, 391264
2096921,2096921, 307892, 391631
2096921,2096921, 307837, 391734
2096921,2096921, 308172, 391759
2096921,2096921, 308224, 391934
2096921,2096921, 308438, 391654
2096921,2096921, 308225, 391554
2096921,2096921, 308041, 391853
2096921,2096921, 308054, 391418
2096921,2096921, 308161, 391560
2096921,2096921, 308136, 391573
2096921,2096921, 308362, 391462
2096921,2096921, 308262, 391842
2096921,2096921, 308455, 391847
2096921,2096921, 308398, 391773
2096921,2096921, 308702, 391999
2096921,2096921, 308511, 392001
2096921,2096921, 308330, 392251
2096921,2096921, 308511, 392090
2096921,2096921, 308472, 392011
2096921,2096921, 308443, 391976
2096921,2096921, 308622, 392442
2096921,2096921, 308620, 392199
2096921,2096921, 308588, 392191
2096921,2096921, 308731, 392181
2096921,2096921, 308810, 392344
2096921,2096921, 308817, 392330
2096921,2096921, 308691, 392398
2096921,2096921, 308822, 392280
2096921,2096921, 308997, 392097
2096921,2096921, 308780, 392099
2096921,2096921, 308936, 392189
2096921,2096921, 308874, 392186
2096921,2096921, 308922, 392381
2096921,2096921, 308683, 392064
2096921,2096921, 308979, 392527
2096921,2096921, 308656, 392297
2096921,2096921, 309042, 392310
2096921,2096921, 309136, 392354
2096921,2096921, 309168, 392288
2096921,2096921, 309261, 392261
2096921,2096921, 309287, 392474
2096921,2096921, 309057, 392253
2096921,2096921, 309012, 392172
2096921,2096921, 309246, 392327
2096921,2096921, 309077, 392141
2096921,2096921, 309134, 392226
2096921,2096921, 309153, 392411
2096921,2096921, 309122, 392290
2096921,2096921, 309357, 392553
2096921,2096921, 309197, 392463
2096921,2096921, 309245, 392623
2096921,2096921, 309164, 392325
2096921,2096921, 309502, 392753
2096921,2096921, 309275, 392432
2096921,2096921, 309474, 392428
2096921,2096921, 309327, 392611
2096921,2096921, 309356, 392442
2096921,2096921, 309217, 392409
2096921,2096921, 309431, 392285
2096921,2096921, 309476, 392448
2096921,2096921, 309371, 392765
2096921,2096921, 309322, 392557
2096921,2096921, 309531, 392795
2096921,2096921, 309371, 392578
2096921,2096921, 309366, 392601
2096921,2096921, 309464, 392650
2096921,2096921, 309432, 392546
2096921,2096921, 309358, 392514
2096921,2096921, 309596, 392325
2096921,2096921, 309509, 392496
2096921,2096921, 309813, 392634
2096921,2096921, 309538, 392529
2096921,2096921, 309642, 392544
2096921,2096921, 309669, 392834
2096921,2096921, 309658, 392887
2096921,2096921, 309811, 392682
2096921,2096921, 309664, 392676
2096921,2096921, 309669, 392442
2096921,2096921, 309594, 392741
2096921,2096921, 309617, 392376
2096921,2096921, 309765, 392729
2096921,2096921, 309822, 392678
2096921,2096921, 309803, 392731
2096921,2096921, 309585, 392738
2096921,2096921, 310015, 392763
2096921,2096921, 309904, 392594
2096921,2096921, 309953, 392857
2096921,2096921, 309901, 392924
2096921,2096921, 309759, 392639
2096921,2096921, 309958, 392841
2096921,2096921, 309805, 392889
2096921,2096921, 309564, 392881
2096921,2096921, 309842, 392836
2096921,2096921, 309891, 392755
2096921,2096921, 309750, 393102
2096921,2096921, 309846, 392707
2096921,2096921, 309919, 393176
2096921,2096921, 310223, 392921
2096921,2096921, 310093, 392935
2096921,2096921, 310158, 392494
2096921,2096921, 310064, 392906
2096921,2096921, 309911, 392791
2096921,2096921, 310337, 392825
2096921,2096921, 310210, 392768
2096921,2096921, 309949, 392662
2096921,2096921, 309884, 392808
2096921,2096921, 310202, 392918
2096921,2096921, 310181, 393236
2096921,2096921, 310135, 393290
2096921,2096921, 310138, 392950
2096921,2096921, 310489, 393257
2096921,2096921, 310457, 393202
2096921,2096921, 310044, 393249
2096921,2096921, 310135, 393348
2096921,2096921, 310188, 393342
2096921,2096921, 310239, 393420
2096921,2096921, 310184, 393091
2096921,2096921, 310249, 392831
2096921,2096921, 310056, 393058
2096921,2096921, 310446, 393051
2096921,2096921, 310464, 392792
2096921,2096921, 309979, 392898
2096921,2096921, 310453, 393053
2096921,2096921, 310174, 393244
2096921,2096921, 310189, 393117
2096921,2096921, 310334, 393150
2096921,2096921, 310428, 392865
2096921,2096921, 310460, 392842
2096921,2096921, 310309, 393328
2096921,2096921, 310346, 393140
2096921,2096921, 310316, 393356
2096921,2096921, 310419, 392994
2096921,2096921, 310517, 392954
2096921,2096921, 310378, 393114
2096921,2096921, 310262, 393074
2096921,2096921, 310435, 392983
2096921,2096921, 310220, 393287
2096921,2096921, 310267, 393299
2096921,2096921, 310388, 393390
2096921,2096921, 310593, 393328
2096921,2096921, 310281, 393478
2096921,2096921, 310422, 393356
2096921,2096921, 310415, 393265
2096921,2096921, 310722, 393393
2096921,2096921, 310379, 393406
2096921,2096921, 310219, 393248
2096921,2096921, 310235, 392997
2096921,2096921, 310320, 393280
2096921,2096921, 310397, 393266
2096921,2096921, 310141, 393288
2096921,2096921, 310398, 393183
2096921,2096921, 310271, 393301
2096921,2096921, 310439, 393354
2096921,2096921, 310453, 393124
2096921,2096921, 310238, 392926
2096921,2096921, 310380, 393175
2096921,2096921, 310440, 393097
2096921,2096921, 310358, 393180
2096921,2096921, 310371, 393117
2096921,2096921, 310227, 392808
2096921,2096921, 310386, 393022
2096921,2096921, 310198, 393144
2096921,2096921, 310143, 392932
2096921,2096921, 310266, 393043
2096921,2096921, 310253, 392951
2096921,2096921, 310274, 393225
2096921,2096921, 310296, 393115
2096921,2096921, 310416, 393291
2096921,2096921, 310545, 393398
2096921,2096921, 310350, 393303
2096921,2096921, 310439, 393181
2096921,2096921, 310443, 393032
2096921,2096921, 310481, 393005
2096921,2096921, 309814, 393214
2096921,2096921, 309753, 393064
2096921,2096921, 309993, 392755
2096921,2096921, 310133, 392697
2096921,2096921, 309987, 392856
2096921,2096921, 309743, 392782
2096921,2096921, 309602, 392785
2096921,2096921, 309537, 392798
2096921,2096921, 309621, 392815
2096921,2096921, 309619, 392616
2096921,2096921, 309059, 392565
2096921,2096921, 308884, 392107
2096921,2096921, 309189, 392489
2096921,2096921, 309234, 392391
2096921,2096921, 309116, 392352
2096921,2096921, 308366, 392271
2096921,2096921, 308238, 391751
2096921,2096921, 308349, 391978
2096921,2096921, 308333, 391950
2096921,2096921, 308145, 391825
2096921,2096921, 307528, 391592
2096921,2096921, 307343, 391448
2096921,2096921, 307312, 391331
2096921,2096921, 307360, 390989
2096921,2096921, 307262, 391103
2096921,2096921, 305905, 390938
2096921,2096921, 305713, 390626
2096921,2096921, 305703, 390188
2096921,2096921, 305907, 389954
2096921,2096921, 305663, 390111
2096921,2096921, 303571, 389747
2096921,2096921, 302907, 388816
2096921,2096921, 303146, 388434
2096921,2096921, 303013, 388335
2096921,2096921, 303082, 388058
2096921,2096921, 301757, 388372
2096921,2096921, 301666, 387551
2096921,2096921, 301553, 387312
2096921,2096921, 301464, 387432
2096921,2096921, 301688, 387343
2096921,2096921, 300689, 387448
2096921,2096921, 300267, 386967
2096921,2096921, 299964, 386544
2096921,2096921, 299786, 386517
2096921,2096921, 299927, 386336
2096921,2096921, 299285, 386505
2096921,2096921, 299151, 386018
2096921,2096921, 299123, 385741
2096921,2096921, 299098, 385892
2096921,2096921, 299109, 385953
2096921,2096921, 298602, 385652
2096921,2096921, 298587, 385274
2096921,2096921, 298739, 385458
2096921,2096921, 298500, 385514
2096921,2096921, 298428, 385417
2096921,2096921, 297695, 385359
2096921,2096921, 297902, 384943
2096921,2096921, 297733, 384889
2096921,2096921, 298050, 385305
2096921,2096921, 297820, 385258
2096921,2096921, 297598, 385381
2096921,2096921, 297631, 385174
2096921,2096921, 298140, 385039
2096921,2096921, 297881, 384947
2096921,2096921, 297667, 384754
2096921,2096921, 297423, 384764
2096921,2096921, 297541, 384800
2096921,2096921, 297419, 384778
2096921,2096921, 297699, 384835
2096921,2096921, 297467, 384602
2096921,2096921, 297529, 384943
2096921,2096921, 297447, 384820
2096921,2096921, 297321, 384938
2096921,2096921, 297430, 384831
2096921,2096921, 297457, 385045
2096921,2096921, 297518, 384888
2096921,2096921, 297450, 384901
2096921,2096921, 297830, 384857
2096921,2096921, 297598, 384774
2096921,2096921, 297680, 384908
2096921,2096921, 297899, 384883
2096921,2096921, 297684, 385221
2096921,2096921, 297983, 384885
2096921,2096921, 297877, 384955
2096921,2096921, 297814, 384847
2096921,2096921, 297932, 385023
2096921,2096921, 298146, 384982
2096921,2096921, 297933, 385214
2096921,2096921, 298000, 384790
2096921,2096921, 297887, 385059
2096921,2096921, 298066, 385229
2096921,2096921, 298276, 385288
2096921,2096921, 298554, 385181
2096921,2096921, 298516, 385497
2096921,2096921, 298311, 385544
2096921,2096921, 298577, 385337
2096921,2096921, 298629, 385497
2096921,2096921, 298757, 385598
2096921,2096921, 298600, 385432
2096921,2096921, 298756, 385768
2096921,2096921, 299181, 385593
2096921,2096921, 298839, 385683
2096921,2096921, 299194, 385786
2096921,2096921, 299183, 385834
2096921,2096921, 299119, 385689
2096921,2096921, 299563, 385846
2096921,2096921, 299498, 386181
2096921,2096921, 299657, 386196
2096921,2096921, 299569, 386059
2096921,2096921, 299711, 385916
2096921,2096921, 299710, 385742
2096921,2096921, 299698, 386223
2096921,2096921, 299927, 386478
2096921,2096921, 299704, 386318
2096921,2096921, 299893, 386508
2096921,2096921, 300118, 386319
2096921,2096921, 300314, 386477
2096921,2096921, 300415, 386557
2096921,2096921, 300368, 386791
2096921,2096921, 300130, 386514
2096921,2096921, 300533, 386499
2096921,2096921, 300588, 386817
2096921,2096921, 300762, 386681
2096921,2096921, 300733, 386926
2096921,2096921, 300704, 386743
2096921,2096921, 300859, 386831
2096921,2096921, 301085, 387107
2096921,2096921, 301247, 387034
2096921,2096921, 301313, 386914
2096921,2096921, 301177, 387238
2096921,2096921, 301639, 387293
2096921,2096921, 301554, 387238
2096921,2096921, 301537, 387485
2096921,2096921, 301628, 387263
2096921,2096921, 301345, 387479
2096921,2096921, 301782, 387277
2096921,2096921, 302064, 387548
2096921,2096921, 302195, 387736
2096921,2096921, 302205, 387650
2096921,2096921, 302168, 387842
2096921,2096921, 302473, 387952
2096921,2096921, 302559, 387839
2096921,2096921, 302616, 388088
2096921,2096921, 302389, 387881
2096921,2096921, 302334, 387882
2096921,2096921, 302698, 388040
2096921,2096921, 302813, 388125
2096921,2096921, 302814, 388384
2096921,2096921, 302849, 387998
2096921,2096921, 302845, 388251
2096921,2096921, 303184, 388249
2096921,2096921, 303251, 388576
2096921,2096921, 303265, 388418
2096921,2096921, 303185, 388227
2096921,2096921, 303037, 388323
2096921,2096921, 303225, 388284
2096921,2096921, 303263, 388661
2096921,2096921, 303546, 388679
2096921,2096921, 303546, 388462
2096921,2096921, 303548, 388466
2096921,2096921, 303927, 388728
2096921,2096921, 303559, 388962
2096921,2096921, 303644, 388667
2096921,2096921, 303667, 389029
2096921,2096921, 303802, 388817
2096921,2096921, 304071, 388896
2096921,2096921, 303985, 389061
2096921,2096921, 303940, 388875
2096921,2096921, 303757, 389025
2096921,2096921, 303736, 388794
2096921,2096921, 304129, 388658
2096921,2096921, 303970, 388959
2096921,2096921, 303887, 388840
2096921,2096921, 303910, 388988
2096921,2096921, 304147, 389022
2096921,2096921, 304089, 389029
2096921,2096921, 304007, 389172
2096921,2096921, 303834, 389044
2096921,2096921, 303820, 389313
2096921,2096921, 303786, 388854
2096921,2096921, 304195, 388992
2096921,2096921, 303649, 388976
2096921,2096921, 303884, 388717
2096921,2096921, 303826, 388714
2096921,2096921, 303955, 389032
2096921,2096921, 303898, 389081
2096921,2096921, 303693, 388944
2096921,2096921, 303939, 389032
2096921,2096921, 303723, 388956
2096921,2096921, 303593, 388840
2096921,2096921, 303525, 388922
2096921,2096921, 303737, 388617
2096921,2096921, 303862, 388824
2096921,2096921, 303644, 388717
2096921,2096921, 303760, 388835
2096921,2096921, 303543, 388755
2096921,2096921, 303640, 388654
2096921,2096921, 303580, 388763
2096921,2096921, 303821, 388784
2096921,2096921, 303860, 388850
2096921,2096921, 303560, 388752
2096921,2096921, 303278, 388791
2096921,2096921, 303253, 388571
2096921,2096921, 303143, 388415
2096921,2096921, 303335, 388567
2096921,2096921, 303163, 388573
2096921,2096921, 303297, 388537
2096921,2096921, 303315, 388737
2096921,2096921, 303299, 388479
2096921,2096921, 303306, 388607
2096921,2096921, 303621, 388786
2096921,2096921, 303327, 388398
2096921,2096921, 303178, 388536
2096921,2096921, 303128, 388697
2096921,2096921, 303364, 388479
2096921,2096921, 303193, 388420
2096921,2096921, 303417, 388435
2096921,2096921, 303453, 388719
2096921,2096921, 303363, 388497
2096921,2096921, 303432, 388553
2096921,2096921, 303545, 388397
2096921,2096921, 303313, 388304
2096921,2096921, 303491, 388602
2096921,2096921, 303512, 388646
2096921,2096921, 303181, 388605
2096921,2096921, 303294, 388596
2096921,2096921, 303689, 388634
2096921,2096921, 303721, 388879
2096921,2096921, 303320, 388685
2096921,2096921, 303467, 388863
2096921,2096921, 303559, 388772
2096921,2096921, 303494, 388618
2096921,2096921, 303551, 388626
2096921,2096921, 303419, 388994
2096921,2096921, 303703, 388739
2096921,2096921, 303597, 388618
2096921,2096921, 303757, 388883
2096921,2096921, 303726, 388988
2096921,2096921, 303658, 388879
2096921,2096921, 303815, 388736
2096921,2096921, 304022, 388928
2096921,2096921, 304187, 389141
2096921,2096921, 304046, 389118
2096921,2096921, 304078, 389164
2096921,2096921, 304162, 389132
2096921,2096921, 304224, 389276
2096921,2096921, 304439, 389326
2096921,2096921, 304614, 389406
2096921,2096921, 304633, 389089
2096921,2096921, 304640, 389184
2096921,2096921, 304861, 389396
2096921,2096921, 304557, 389338
2096921,2096921, 304511, 389361
2096921,2096921, 304744, 389466
2096921,2096921, 304777, 389307
2096921,2096921, 305036, 389494
2096921,2096921, 305056, 389959
2096921,2096921, 304898, 389610
2096921,2096921, 305167, 389835
2096921,2096921, 305001, 389619
2096921,2096921, 305412, 389592
2096921,2096921, 305360, 389564
2096921,2096921, 305137, 389972
2096921,2096921, 305148, 389836
2096921,2096921, 305132, 389776
2096921,2096921, 305353, 389931
2096921,2096921, 305404, 389957
2096921,2096921, 305462, 389902
2096921,2096921, 305322, 390065
2096921,2096921, 305286, 390054
2096921,2096921, 305952, 389934
2096921,2096921, 305513, 390313
2096921,2096921, 305797, 390274
2096921,2096921, 305700, 389932
2096921,2096921, 305826, 389930
2096921,2096921, 305916, 390023
2096921,2096921, 305852, 389790
2096921,2096921, 305901, 390215
2096921,2096921, 306073, 390437
2096921,2096921, 306255, 390193
2096921,2096921, 306344, 390100
2096921,2096921, 306319, 390114
2096921,2096921, 306449, 390232
2096921,2096921, 306171, 390345
2096921,2096921, 306158, 390260
2096921,2096921, 306233, 390242
2096921,2096921, 306328, 390526
2096921,2096921, 306259, 390349
2096921,2096921, 306346, 390596
2096921,2096921, 306416, 390632
2096921,2096921, 306866, 390501
2096921,2096921, 306502, 390919
2096921,2096921, 306460, 390700
2096921,2096921, 306734, 390624
2096921,2096921, 306592, 390756
2096921,2096921, 306453, 390772
2096921,2096921, 306582, 390695
2096921,2096921, 306901, 390699
2096921,2096921, 306614, 390705
2096921,2096921, 307020, 390850
2096921,2096921, 306712, 390787
2096921,2096921, 306792, 390845
2096921,2096921, 306923, 390878
2096921,2096921, 306929, 390999
2096921,2096921, 307116, 391057
2096921,2096921, 307005, 391043
2096921,2096921, 307208, 391142
2096921,2096921, 307073, 391423
2096921,2096921, 306997, 390871
2096921,2096921, 306957, 391112
2096921,2096921, 307369, 391117
2096921,2096921, 307181, 391309
2096921,2096921, 307215, 391198
2096921,2096921, 307109, 391070
2096921,2096921, 307639, 391016
2096921,2096921, 307615, 391251
2096921,2096921, 307715, 391558
2096921,2096921, 307904, 391304
2096921,2096921, 307749, 391442
2096921,2096921, 307815, 391535
2096921,2096921, 307837, 391280
2096921,2096921, 307888, 391269
2096921,2096921, 307871, 391375
2096921,2096921, 307957, 391665
2096921,2096921, 307877, 391475
2096921,2096921, 307978, 391444
2096921,2096921, 308283, 391531
2096921,2096921, 308022, 391589
2096921,2096921, 308279, 391919
2096921,2096921, 308165, 391847
2096921,2096921, 308225, 391780
2096921,2096921, 308155, 391790
2096921,2096921, 308067, 391778
2096921,2096921, 307926, 391555
2096921,2096921, 307957, 391631
2096921,2096921, 308035, 391679
2096921,2096921, 308606, 391855
2096921,2096921, 308206, 391871
2096921,2096921, 308483, 391637
2096921,2096921, 308576, 391607
2096921,2096921, 308571, 391877
2096921,2096921, 308458, 391663
2096921,2096921, 308732, 391789
2096921,2096921, 308217, 392068
2096921,2096921, 308405, 391887
2096921,2096921, 308341, 391946
2096921,2096921, 308806, 392043
2096921,2096921, 308595, 391846
2096921,2096921, 308579, 391977
2096921,2096921, 308553, 392031
2096921,2096921, 308917, 392073
2096921,2096921, 308849, 392121
2096921,2096921, 308750, 392220
2096921,2096921, 308802, 392122
2096921,2096921, 308798, 392106
2096921,2096921, 308683, 391931
2096921,2096921, 308853, 391711
2096921,2096921, 308682, 391966
2096921,2096921, 308827, 392195
2096921,2096921, 308816, 391884
2096921,2096921, 308962, 392126
2096921,2096921, 309087, 392083
2096921,2096921, 308923, 392263
2096921,2096921, 309101, 392150
2096921,2096921, 309193, 392352
2096921,2096921, 309020, 392243
2096921,2096921, 308877, 392175
2096921,2096921, 309010, 392226
2096921,2096921, 309333, 392310
2096921,2096921, 309320, 392253
2096921,2096921, 308960, 392302
2096921,2096921, 309065, 392142
2096921,2096921, 308982, 392232
2096921,2096921, 309048, 392365
2096921,2096921, 309070, 392339
2096921,2096921, 309065, 392218
2096921,2096921, 309261, 392350
2096921,2096921, 309420, 392316
2096921,2096921, 309123, 392413
2096921,2096921, 309253, 392393
2096921,2096921, 309627, 392349
2096921,2096921, 309736, 392270
2096921,2096921, 309469, 392548
2096921,2096921, 309406, 392405
2096921,2096921, 309723, 392361
2096921,2096921, 309699, 392578
2096921,2096921, 309605, 392563
2096921,2096921, 309486, 392531
2096921,2096921, 309867, 392631
2096921,2096921, 309693, 392716
2096921,2096921, 309662, 392740
2096921,2096921, 309723, 392605
2096921,2096921, 309396, 392511
2096921,2096921, 309401, 392593
2096921,2096921, 309204, 392859
2096921,2096921, 309544, 392819
2096921,2096921, 309765, 392835
2096921,2096921, 309852, 392771
2096921,2096921, 309834, 393031
2096921,2096921, 310115, 392623
2096921,2096921, 309880, 392747
2096921,2096921, 309586, 392774
2096921,2096921, 309710, 392814
2096921,2096921, 309564, 392484
2096921,2096921, 309568, 392795
2096921,2096921, 309513, 392602
2096921,2096921, 309500, 392639
2096921,2096921, 309429, 392677
2096921,2096921, 309826, 392925
2096921,2096921, 309850, 392983
2096921,2096921, 309773, 392801
2096921,2096921, 309780, 392964
2096921,2096921, 309885, 393071
2096921,2096921, 310057, 392848
2096921,2096921, 310171, 392827
2096921,2096921, 310134, 392663
2096921,2096921, 310062, 392733
2096921,2096921, 309866, 392700
2096921,2096921, 309924, 392801
2096921,2096921, 309988, 392994
2096921,2096921, 309962, 392989
2096921,2096921, 310025, 393011
2096921,2096921, 310153, 393167
2096921,2096921, 310113, 392805
2096921,2096921, 310061, 392920
2096921,2096921, 310029, 392700
2096921,2096921, 310213, 392769
2096921,2096921, 310188, 392887
2096921,2096921, 310266, 392909
2096921,2096921, 310039, 392614
2096921,2096921, 310274, 392920
2096921,2096921, 310131, 392752
2096921,2096921, 310004, 393107
2096921,2096921, 310288, 392950
2096921,2096921, 310044, 393121
2096921,2096921, 310377, 393085
2096921,2096921, 310335, 393064
2096921,2096921, 310284, 392790
2096921,2096921, 310326, 393073
2096921,2096921, 310352, 393072
2096921,2096921, 310278, 392884
2096921,2096921, 309921, 392799
2096921,2096921, 309813, 392778
2096921,2096921, 310183, 393078
2096921,2096921, 309934, 393346
2096921,2096921, 310145, 393107
2096921,2096921, 310240, 393127
2096921,2096921, 310307, 393158
2096921,2096921, 310065, 393073
2096921,2096921, 310210, 393154
2096921,2096921, 310129, 393029
2096921,2096921, 310520, 393162
2096921,2096921, 310287, 393173
2096921,2096921, 310549, 392968
2096921,2096921, 310617, 393316
2096921,2096921, 310554, 393244
2096921,2096921, 310364, 393214
2096921,2096921, 310390, 393172
2096921,2096921, 310295, 393297
2096921,2096921, 310287, 393224
2096921,2096921, 310309, 393039
2096921,2096921, 310272, 392930
2096921,2096921, 310407, 392989
2096921,2096921, 310555, 393078
2096921,2096921, 310332, 393196
2096921,2096921, 310334, 393126
2096921,2096921, 310415, 393271
2096921,2096921, 310240, 393500
