2096921,2096921, 308872, 392194
2096921,2096921, 308841, 392239
2096921,2096921, 308564, 392064
2096921,2096921, 308842, 392372
2096921,2096921, 308989, 392396
2096921,2096921, 308759, 392225
2096921,2096921, 308937, 392326
2096921,2096921, 308883, 392051
2096921,2096921, 308984, 392039
2096921,2096921, 309003, 391950
2096921,2096921, 308992, 391909
2096921,2096921, 308786, 391944
2096921,2096921, 308976, 392028
2096921,2096921, 309217, 392046
2096921,2096921, 309225, 392410
2096921,2096921, 309090, 392204
2096921,2096921, 309300, 392184
2096921,2096921, 309047, 392271
2096921,2096921, 309041, 392324
2096921,2096921, 308963, 392364
2096921,2096921, 309173, 391961
2096921,2096921, 309245, 392119
2096921,2096921, 309167, 392279
2096921,2096921, 309274, 392440
2096921,2096921, 309324, 392318
2096921,2096921, 309193, 392343
2096921,2096921, 309441, 392362
2096921,2096921, 309268, 392396
2096921,2096921, 309341, 392340
2096921,2096921, 309181, 392452
2096921,2096921, 309133, 392262
2096921,2096921, 309286, 392263
2096921,2096921, 309158, 392286
2096921,2096921, 309003, 392416
2096921,2096921, 309309, 392497
2096921,2096921, 309336, 392577
2096921,2096921, 309356, 392690
2096921,2096921, 309215, 392585
2096921,2096921, 309507, 392580
2096921,2096921, 309299, 392529
2096921,2096921, 309458, 392583
2096921,2096921, 309473, 392638
2096921,2096921, 309496, 392612
2096921,2096921, 309407, 392495
2096921,2096921, 309532, 392660
2096921,2096921, 309656, 392724
2096921,2096921, 309696, 392414
2096921,2096921, 309733, 392379
2096921,2096921, 309703, 392625
2096921,2096921, 309679, 392634
2096921,2096921, 309656, 392793
2096921,2096921, 309575, 392784
2096921,2096921, 309715, 392741
2096921,2096921, 309752, 392694
2096921,2096921, 309711, 392700
2096921,2096921, 309720, 392776
2096921,2096921, 309895, 392600
2096921,2096921, 309676, 392526
2096921,2096921, 309718, 392905
2096921,2096921, 309635, 392597
2096921,2096921, 309771, 392714
2096921,2096921, 309914, 392650
2096921,2096921, 309782, 392741
2096921,2096921, 309760, 392514
2096921,2096921, 309740, 392671
2096921,2096921, 309838, 392614
2096921,2096921, 309863, 392586
2096921,2096921, 309882, 392871
2096921,2096921, 309913, 393011
2096921,2096921, 309623, 392817
2096921,2096921, 309935, 393062
2096921,2096921, 309903, 392744
2096921,2096921, 310129, 393048
2096921,2096921, 310174, 392770
2096921,2096921, 310028, 392922
2096921,2096921, 309688, 392915
2096921,2096921, 309747, 392939
2096921,2096921, 309857, 392687
2096921,2096921, 310193, 392793
2096921,2096921, 309804, 392493
2096921,2096921, 310098, 392577
2096921,2096921, 309962, 392580
2096921,2096921, 309957, 392683
2096921,2096921, 310318, 393025
2096921,2096921, 310202, 393079
2096921,2096921, 309996, 392993
2096921,2096921, 309977, 392935
2096921,2096921, 310057, 392795
2096921,2096921, 310002, 392990
2096921,2096921, 309987, 393069
2096921,2096921, 310091, 392975
2096921,2096921, 310323, 393193
2096921,2096921, 310000, 393039
2096921,2096921, 310076, 392961
2096921,2096921, 310155, 392886
2096921,2096921, 310470, 392894
2096921,2096921, 310108, 392963
2096921,2096921, 309887, 392909
2096921,2096921, 310059, 392960
2096921,2096921, 310131, 392922
2096921,2096921, 310194, 392919
2096921,2096921, 310115, 392928
2096921,2096921, 310286, 393325
2096921,2096921, 310445, 393190
2096921,2096921, 310307, 393225
2096921,2096921, 310060, 393021
2096921,2096921, 310459, 392916
2096921,2096921, 310176, 392992
2096921,2096921, 310240, 392968
2096921,2096921, 309968, 393090
2096921,2096921, 310326, 392670
2096921,2096921, 310005, 393079
2096921,2096921, 310020, 392934
2096921,2096921, 309897, 392985
2096921,2096921, 310230, 392875
2096921,2096921, 310067, 392805
2096921,2096921, 310117, 392885
2096921,2096921, 309923, 393037
2096921,2096921, 310108, 392952
2096921,2096921, 310249, 393209
2096921,2096921, 310349, 392793
2096921,2096921, 310210, 393082
2096921,2096921, 310226, 393042
2096921,2096921, 310300, 392928
2096921,2096921, 310159, 393113
2096921,2096921, 310339, 393069
2096921,2096921, 310298, 393069
2096921,2096921, 310172, 393124
2096921,2096921, 310123, 393109
2096921,2096921, 310230, 392778
2096921,2096921, 310199, 392976
2096921,2096921, 310079, 392972
2096921,2096921, 310397, 392826
2096921,2096921, 310311, 392924
2096921,2096921, 310077, 392990
2096921,2096921, 310290, 393009
2096921,2096921, 310122, 392771
2096921,2096921, 309993, 392829
2096921,2096921, 310181, 393047
2096921,2096921, 310219, 392935
2096921,2096921, 310206, 393046
2096921,2096921, 310043, 393102
2096921,2096921, 310219, 393082
2096921,2096921, 309746, 392847
2096921,2096921, 309852, 392673
2096921,2096921, 309738, 392744
2096921,2096921, 309272, 392742
2096921,2096921, 309661, 392587
2096921,2096921, 309651, 392620
2096921,2096921, 309540, 392543
2096921,2096921, 309428, 392699
2096921,2096921, 309312, 392621
2096921,2096921, 309660, 392417
2096921,2096921, 309142, 392295
2096921,2096921, 308584, 392186
2096921,2096921, 309006, 392251
2096921,2096921, 308911, 392261
2096921,2096921, 308739, 392034
2096921,2096921, 308214, 391707
2096921,2096921, 307878, 391889
2096921,2096921, 307716, 391570
2096921,2096921, 307844, 391438
2096921,2096921, 308127, 391490
2096921,2096921, 307418, 391115
2096921,2096921, 307195, 390993
2096921,2096921, 307350, 391182
2096921,2096921, 307179, 391233
2096921,2096921, 307290, 391264
2096921,2096921, 305797, 390110
2096921,2096921, 305319, 389863
2096921,2096921, 305477, 389796
2096921,2096921, 305293, 389682
2096921,2096921, 305289, 389806
2096921,2096921, 303839, 388607
2096921,2096921, 303183, 388401
2096921,2096921, 302928, 388413
2096921,2096921, 302911, 388395
2096921,2096921, 302901, 388230
2096921,2096921, 301738, 387443
2096921,2096921, 301210, 387019
2096921,2096921, 301187, 386938
2096921,2096921, 301209, 387093
2096921,2096921, 301500, 387360
2096921,2096921, 300250, 386813
2096921,2096921, 299916, 386433
2096921,2096921, 299824, 386367
2096921,2096921, 300078, 386325
2096921,2096921, 300124, 386249
2096921,2096921, 299454, 385661
2096921,2096921, 299192, 385690
2096921,2096921, 299052, 385617
2096921,2096921, 298884, 385761
2096921,2096921, 298868, 385792
2096921,2096921, 298335, 385470
2096921,2096921, 298311, 385218
2096921,2096921, 298282, 385308
2096921,2096921, 298297, 385229
2096921,2096921, 298284, 385013
2096921,2096921, 297834, 385122
2096921,2096921, 297776, 385095
2096921,2096921, 297963, 385178
2096921,2096921, 297659, 385149
2096921,2096921, 297715, 384687
2096921,2096921, 297468, 384771
2096921,2096921, 297520, 384603
2096921,2096921, 297102, 384668
2096921,2096921, 297464, 384466
2096921,2096921, 297496, 384629
2096921,2096921, 297479, 384750
2096921,2096921, 297266, 384613
2096921,2096921, 297562, 384777
2096921,2096921, 297358, 384500
2096921,2096921, 297630, 384645
2096921,2096921, 297132, 384644
2096921,2096921, 297293, 384597
2096921,2096921, 297184, 384692
2096921,2096921, 297034, 384652
2096921,2096921, 297075, 384708
2096921,2096921, 297311, 384588
2096921,2096921, 297532, 384759
2096921,2096921, 297573, 384689
2096921,2096921, 297703, 384787
2096921,2096921, 297454, 385004
2096921,2096921, 297776, 385042
2096921,2096921, 297920, 385078
2096921,2096921, 297624, 384967
2096921,2096921, 297691, 384622
2096921,2096921, 297391, 384620
2096921,2096921, 297781, 384879
2096921,2096921, 297604, 384905
2096921,2096921, 297581, 384681
2096921,2096921, 297816, 384660
2096921,2096921, 298106, 385054
2096921,2096921, 298111, 385271
2096921,2096921, 298371, 385268
2096921,2096921, 298348, 385193
2096921,2096921, 298155, 385481
2096921,2096921, 298031, 385331
2096921,2096921, 298518, 385434
2096921,2096921, 298468, 385493
2096921,2096921, 298306, 385398
2096921,2096921, 298378, 385213
2096921,2096921, 298312, 385549
2096921,2096921, 298800, 385874
2096921,2096921, 299066, 385804
2096921,2096921, 298952, 385773
2096921,2096921, 298999, 385496
2096921,2096921, 298761, 385444
2096921,2096921, 299031, 386170
2096921,2096921, 299287, 385907
2096921,2096921, 299398, 385941
2096921,2096921, 299608, 386111
2096921,2096921, 299520, 385925
2096921,2096921, 299779, 386114
2096921,2096921, 299888, 386219
2096921,2096921, 299769, 386168
2096921,2096921, 299979, 386523
2096921,2096921, 299510, 386455
2096921,2096921, 299816, 386305
2096921,2096921, 299919, 386539
2096921,2096921, 300168, 386453
2096921,2096921, 300315, 386370
2096921,2096921, 300254, 386391
2096921,2096921, 300448, 386602
2096921,2096921, 300732, 386811
2096921,2096921, 300436, 386724
2096921,2096921, 300579, 386796
2096921,2096921, 300559, 386505
2096921,2096921, 300901, 386761
2096921,2096921, 300895, 386926
2096921,2096921, 300972, 386978
2096921,2096921, 300851, 386726
2096921,2096921, 300835, 386940
2096921,2096921, 301277, 387297
2096921,2096921, 301157, 387412
2096921,2096921, 301196, 387264
2096921,2096921, 301025, 387041
2096921,2096921, 301141, 386961
2096921,2096921, 301694, 387514
2096921,2096921, 301879, 387595
2096921,2096921, 301874, 387954
2096921,2096921, 301861, 387604
2096921,2096921, 301709, 387564
2096921,2096921, 302140, 387787
2096921,2096921, 302123, 387765
2096921,2096921, 302441, 387783
2096921,2096921, 302027, 388041
2096921,2096921, 301778, 387698
2096921,2096921, 302208, 387814
2096921,2096921, 302456, 388052
2096921,2096921, 302586, 388209
2096921,2096921, 302625, 388174
2096921,2096921, 302676, 388221
2096921,2096921, 303194, 388142
2096921,2096921, 303171, 388315
2096921,2096921, 302779, 388209
2096921,2096921, 302685, 388224
2096921,2096921, 302645, 388411
2096921,2096921, 302896, 388636
2096921,2096921, 302978, 388532
2096921,2096921, 302956, 388389
2096921,2096921, 303260, 388155
2096921,2096921, 303137, 388319
2096921,2096921, 303158, 388429
2096921,2096921, 303229, 388662
2096921,2096921, 303278, 388518
2096921,2096921, 303516, 388600
2096921,2096921, 303379, 388695
2096921,2096921, 303423, 388913
2096921,2096921, 303586, 388565
2096921,2096921, 303529, 388828
2096921,2096921, 303859, 388675
2096921,2096921, 303656, 388746
2096921,2096921, 303671, 388885
2096921,2096921, 303768, 389155
2096921,2096921, 303697, 388828
2096921,2096921, 303572, 389026
2096921,2096921, 303656, 388754
2096921,2096921, 303808, 388740
2096921,2096921, 303683, 388734
2096921,2096921, 303673, 388743
2096921,2096921, 303758, 388827
2096921,2096921, 303912, 388861
2096921,2096921, 304090, 389044
2096921,2096921, 303925, 389007
2096921,2096921, 303788, 388855
2096921,2096921, 303725, 388888
2096921,2096921, 303944, 388984
2096921,2096921, 303502, 388840
2096921,2096921, 303323, 388830
2096921,2096921, 303825, 388838
2096921,2096921, 303602, 388639
2096921,2096921, 303630, 388723
2096921,2096921, 303742, 388509
2096921,2096921, 303417, 388644
2096921,2096921, 303721, 388645
2096921,2096921, 303766, 388405
2096921,2096921, 303371, 388242
2096921,2096921, 303399, 388558
2096921,2096921, 303289, 388425
2096921,2096921, 303168, 388649
2096921,2096921, 303371, 388673
2096921,2096921, 303396, 388645
2096921,2096921, 303177, 388414
2096921,2096921, 303086, 388549
2096921,2096921, 303315, 388473
2096921,2096921, 303398, 388315
2096921,2096921, 303195, 388514
2096921,2096921, 302796, 388411
2096921,2096921, 302919, 388483
2096921,2096921, 303138, 388593
2096921,2096921, 302992, 388404
2096921,2096921, 303112, 388217
2096921,2096921, 302949, 388196
2096921,2096921, 303198, 388573
2096921,2096921, 303272, 388486
2096921,2096921, 303184, 388400
2096921,2096921, 303088, 388384
2096921,2096921, 303168, 388541
2096921,2096921, 303089, 388091
2096921,2096921, 302996, 388542
2096921,2096921, 303041, 388198
2096921,2096921, 302808, 388428
2096921,2096921, 303094, 388381
2096921,2096921, 303017, 388476
2096921,2096921, 303081, 388418
2096921,2096921, 303342, 388359
2096921,2096921, 302978, 388667
2096921,2096921, 303088, 388629
2096921,2096921, 303278, 388292
2096921,2096921, 303396, 388479
2096921,2096921, 303365, 388461
2096921,2096921, 303304, 388627
2096921,2096921, 303636, 388548
2096921,2096921, 303573, 388605
2096921,2096921, 303650, 388541
2096921,2096921, 303173, 388615
2096921,2096921, 303416, 388513
2096921,2096921, 303770, 388367
2096921,2096921, 303666, 388766
2096921,2096921, 303910, 388687
2096921,2096921, 303622, 388467
2096921,2096921, 303485, 388675
2096921,2096921, 303840, 388796
2096921,2096921, 304375, 388998
2096921,2096921, 304340, 389027
2096921,2096921, 304025, 389468
2096921,2096921, 304007, 388999
2096921,2096921, 304372, 389110
2096921,2096921, 304304, 389082
2096921,2096921, 304054, 389379
2096921,2096921, 304148, 388843
2096921,2096921, 304107, 388994
2096921,2096921, 304298, 388939
2096921,2096921, 304326, 389097
2096921,2096921, 304319, 389161
2096921,2096921, 304558, 389244
2096921,2096921, 304673, 389038
2096921,2096921, 304847, 389210
2096921,2096921, 304793, 389408
2096921,2096921, 304654, 389371
2096921,2096921, 304639, 389346
2096921,2096921, 304690, 389395
2096921,2096921, 305115, 389509
2096921,2096921, 304904, 389691
2096921,2096921, 305077, 389742
2096921,2096921, 304745, 389698
2096921,2096921, 304917, 389629
2096921,2096921, 305028, 389889
2096921,2096921, 305177, 389647
2096921,2096921, 305027, 389768
2096921,2096921, 305155, 389639
2096921,2096921, 305204, 389892
2096921,2096921, 305462, 389635
2096921,2096921, 305168, 389991
2096921,2096921, 305421, 390158
2096921,2096921, 305611, 389978
2096921,2096921, 305548, 390042
2096921,2096921, 305651, 390088
2096921,2096921, 305649, 390298
2096921,2096921, 305803, 389884
2096921,2096921, 305811, 390094
2096921,2096921, 305716, 390279
2096921,2096921, 305901, 390188
2096921,2096921, 305838, 390109
2096921,2096921, 306159, 390206
2096921,2096921, 306004, 390129
2096921,2096921, 305796, 390110
2096921,2096921, 305888, 390267
2096921,2096921, 306300, 390365
2096921,2096921, 306206, 390230
2096921,2096921, 306064, 390239
2096921,2096921, 306065, 390434
2096921,2096921, 306414, 390512
2096921,2096921, 306544, 390654
2096921,2096921, 306742, 390616
2096921,2096921, 306425, 390816
2096921,2096921, 306241, 390473
2096921,2096921, 306388, 390925
2096921,2096921, 306344, 390980
2096921,2096921, 306544, 390668
2096921,2096921, 306486, 390851
2096921,2096921, 306530, 390693
2096921,2096921, 306756, 390783
2096921,2096921, 306654, 390844
2096921,2096921, 306911, 390604
2096921,2096921, 306729, 390760
2096921,2096921, 306857, 390561
2096921,2096921, 307309, 390975
2096921,2096921, 307508, 391419
2096921,2096921, 307231, 391064
2096921,2096921, 307383, 391110
2096921,2096921, 306967, 391072
2096921,2096921, 307234, 390865
2096921,2096921, 307146, 390903
2096921,2096921, 307130, 390833
2096921,2096921, 307112, 390967
2096921,2096921, 307143, 391025
2096921,2096921, 307441, 391281
2096921,2096921, 307591, 391090
2096921,2096921, 307534, 391095
2096921,2096921, 307750, 391019
2096921,2096921, 307609, 391260
2096921,2096921, 307452, 391658
2096921,2096921, 307578, 391519
2096921,2096921, 307766, 391383
2096921,2096921, 307725, 391289
2096921,2096921, 307496, 391116
2096921,2096921, 307548, 391347
2096921,2096921, 307614, 391426
2096921,2096921, 307657, 391357
2096921,2096921, 307675, 391524
2096921,2096921, 307730, 391637
2096921,2096921, 307950, 391374
2096921,2096921, 308002, 391525
2096921,2096921, 308156, 391662
2096921,2096921, 307958, 391555
2096921,2096921, 307965, 391234
2096921,2096921, 308190, 391642
2096921,2096921, 308230, 391630
2096921,2096921, 307996, 391733
2096921,2096921, 308098, 391733
2096921,2096921, 308116, 391551
2096921,2096921, 308036, 391680
2096921,2096921, 307973, 391782
2096921,2096921, 308414, 391725
2096921,2096921, 308211, 391626
2096921,2096921, 308320, 391681
2096921,2096921, 307883, 391762
2096921,2096921, 308148, 391994
2096921,2096921, 308561, 391591
2096921,2096921, 308537, 391853
2096921,2096921, 308629, 391760
2096921,2096921, 308436, 391848
2096921,2096921, 308569, 391947
2096921,2096921, 308586, 392219
2096921,2096921, 308286, 391860
2096921,2096921, 308756, 392013
2096921,2096921, 308616, 391831
2096921,2096921, 308701, 391813
2096921,2096921, 308733, 391796
2096921,2096921, 308559, 391783
2096921,2096921, 308863, 392011
2096921,2096921, 308805, 392131
2096921,2096921, 308814, 392136
2096921,2096921, 308855, 392142
2096921,2096921, 308604, 392074
2096921,2096921, 308728, 392165
2096921,2096921, 308715, 392312
2096921,2096921, 309036, 392611
2096921,2096921, 308890, 392059
2096921,2096921, 309173, 392224
2096921,2096921, 309006, 392369
2096921,2096921, 308995, 392292
2096921,2096921, 309206, 392014
2096921,2096921, 309030, 391792
2096921,2096921, 308893, 392066
2096921,2096921, 308977, 392082
2096921,2096921, 308998, 392083
2096921,2096921, 309510, 392158
2096921,2096921, 309040, 392292
2096921,2096921, 309247, 392400
2096921,2096921, 309027, 392347
2096921,2096921, 309285, 392328
2096921,2096921, 309262, 392614
2096921,2096921, 309118, 392785
2096921,2096921, 309039, 392238
2096921,2096921, 309295, 392525
2096921,2096921, 309119, 392338
2096921,2096921, 309419, 392394
2096921,2096921, 309271, 392452
2096921,2096921, 309181, 392292
2096921,2096921, 309417, 392435
2096921,2096921, 309287, 392330
2096921,2096921, 309396, 392295
2096921,2096921, 309601, 392329
2096921,2096921, 309364, 392392
2096921,2096921, 309313, 392200
2096921,2096921, 309301, 392433
2096921,2096921, 309475, 392434
2096921,2096921, 309543, 392243
2096921,2096921, 309599, 392492
2096921,2096921, 309178, 392527
2096921,2096921, 309622, 392380
2096921,2096921, 309416, 392569
2096921,2096921, 309787, 392733
2096921,2096921, 309584, 392609
2096921,2096921, 309480, 392550
2096921,2096921, 309323, 392433
2096921,2096921, 309436, 392442
2096921,2096921, 309658, 392519
2096921,2096921, 309284, 392489
2096921,2096921, 309494, 392560
2096921,2096921, 309415, 392571
2096921,2096921, 309516, 392519
2096921,2096921, 309760, 392810
2096921,2096921, 309694, 392915
2096921,2096921, 309579, 392682
2096921,2096921, 309690, 392628
2096921,2096921, 309524, 392755
2096921,2096921, 309458, 392631
2096921,2096921, 309752, 392814
2096921,2096921, 309672, 392738
2096921,2096921, 309791, 392733
2096921,2096921, 309980, 392474
2096921,2096921, 309862, 392597
2096921,2096921, 309924, 392741
2096921,2096921, 309965, 392534
2096921,2096921, 309695, 392649
2096921,2096921, 309893, 392668
2096921,2096921, 309583, 392468
2096921,2096921, 309870, 392578
2096921,2096921, 309953, 392704
2096921,2096921, 310268, 392343
2096921,2096921, 309893, 392411
2096921,2096921, 309746, 392784
2096921,2096921, 309893, 392898
2096921,2096921, 310079, 392824
2096921,2096921, 309930, 392822
2096921,2096921, 309943, 392945
2096921,2096921, 309927, 392895
2096921,2096921, 309991, 392767
2096921,2096921, 310105, 392721
2096921,2096921, 309943, 392774
2096921,2096921, 310147, 392825
2096921,2096921, 309916, 392885
2096921,2096921, 309966, 393079
2096921,2096921, 309963, 392804
2096921,2096921, 310035, 393013
2096921,2096921, 310341, 392822
2096921,2096921, 310142, 392874
2096921,2096921, 309882, 393054
2096921,2096921, 310134, 392852
2096921,2096921, 310364, 392954
2096921,2096921, 309966, 393158
2096921,2096921, 310298, 393240
2096921,2096921, 310063, 393010
2096921,2096921, 310232, 393061
2096921,2096921, 310169, 392934
2096921,2096921, 310121, 392875
2096921,2096921, 310100, 393245
2096921,2096921, 310021, 393055
2096921,2096921, 310071, 393234
2096921,2096921, 310114, 393017
2096921,2096921, 309986, 392849
2096921,2096921, 310099, 393231
2096921,2096921, 310069, 392932
2096921,2096921, 310072, 393018
2096921,2096921, 310273, 392755
2096921,2096921, 310265, 392883
2096921,2096921, 310413, 393031
2096921,2096921, 310258, 393075
2096921,2096921, 310040, 393148
2096921,2096921, 310350, 393169
2096921,2096921, 310489, 393301
2096921,2096921, 310469, 393074
2096921,2096921, 310265, 392918
2096921,2096921, 310042, 392739
2096921,2096921, 310198, 392719
2096921,2096921, 310190, 393013
2096921,2096921, 309931, 393028
2096921,2096921, 310062, 392920
2096921,2096921, 309966, 393237
2096921,2096921, 310147, 393048
2096921,2096921, 310232, 392991
2096921,2096921, 310453, 392793
2096921,2096921, 310277, 392803
2096921,2096921, 310259, 392924
2096921,2096921, 310360, 393000
2096921,2096921, 309895, 392906
2096921,2096921, 309982, 393253
2096921,2096921, 310203, 393106
2096921,2096921, 310291, 392937
2096921,2096921, 310258, 393279
2096921,2096921, 310118, 393097
2096921,2096921, 310001, 393196
2096921,2096921, 310143, 392816
2096921,2096921, 310198, 393035
2096921,2096921, 310093, 392917
2096921,2096921, 310276, 393007
2096921,2096921, 309965, 392857
2096921,2096921, 310061, 392835
2096921,2096921, 310099, 392881
2096921,2096921, 310139, 392835
2096921,2096921, 309945, 392865
2096921,2096921, 309652, 392874
2096921,2096921, 309407, 392730
2096921,2096921, 309782, 392885
2096921,2096921, 309319, 392450
2096921,2096921, 309526, 392577
2096921,2096921, 309253, 392608
2096921,2096921, 309116, 392443
2096921,2096921, 309617, 392341
2096921,2096921, 308826, 392037
2096921,2096921, 308835, 392246
2096921,2096921, 308908, 392084
2096921,2096921, 308740, 392101
2096921,2096921, 308823, 391989
2096921,2096921, 308263, 391633
2096921,2096921, 308052, 391687
2096921,2096921, 308138, 391723
2096921,2096921, 308254, 391547
2096921,2096921, 308095, 391444
2096921,2096921, 307406, 391161
2096921,2096921, 307213, 391119
2096921,2096921, 307203, 391077
2096921,2096921, 306966, 390794
2096921,2096921, 307261, 390967
2096921,2096921, 305618, 389963
2096921,2096921, 305331, 389668
2096921,2096921, 305476, 389939
2096921,2096921, 305544, 389992
2096921,2096921, 305489, 389839
2096921,2096921, 303649, 388588
2096921,2096921, 303081, 388537
2096921,2096921, 302920, 388146
2096921,2096921, 302778, 388189
2096921,2096921, 302867, 388086
2096921,2096921, 301153, 387237
2096921,2096921, 301128, 387190
2096921,2096921, 301053, 387235
2096921,2096921, 301302, 387456
2096921,2096921, 301278, 387459
2096921,2096921, 300159, 386218
2096921,2096921, 299805, 386336
2096921,2096921, 299834, 386209
2096921,2096921, 299657, 386280
2096921,2096921, 299758, 386414
2096921,2096921, 298990, 385896
2096921,2096921, 299090, 385943
2096921,2096921, 298859, 385840
2096921,2096921, 298847, 385828
2096921,2096921, 299140, 385685
2096921,2096921, 298493, 385363
2096921,2096921, 298374, 385194
2096921,2096921, 298374, 384925
2096921,2096921, 298033, 384813
2096921,2096921, 298323, 384893
2096921,2096921, 297663, 385111
2096921,2096921, 297731, 384954
2096921,2096921, 297884, 384943
2096921,2096921, 297809, 384811
2096921,2096921, 297777, 385235
2096921,2096921, 297370, 385074
2096921,2096921, 297290, 384765
2096921,2096921, 297327, 384698
2096921,2096921, 297470, 384609
2096921,2096921, 297658, 384549
2096921,2096921, 297328, 384499
2096921,2096921, 297356, 384748
2096921,2096921, 297266, 384443
2096921,2096921, 297327, 384676
2096921,2096921, 297386, 384294
2096921,2096921, 297379, 384506
2096921,2096921, 297619, 384637
2096921,2096921, 297494, 384884
2096921,2096921, 297582, 384759
2096921,2096921, 297383, 384730
2096921,2096921, 297370, 384760
2096921,2096921, 297555, 384684
2096921,2096921, 297410, 384841
2096921,2096921, 297460, 384772
2096921,2096921, 297304, 384564
2096921,2096921, 297422, 384931
2096921,2096921, 297419, 384714
2096921,2096921, 297565, 384728
2096921,2096921, 297639, 384740
2096921,2096921, 297856, 384820
2096921,2096921, 297922, 384825
2096921,2096921, 297924, 385162
2096921,2096921, 297833, 385151
2096921,2096921, 297929, 385204
2096921,2096921, 297783, 384750
2096921,2096921, 298074, 384891
2096921,2096921, 298299, 384976
2096921,2096921, 298224, 384944
2096921,2096921, 297939, 385251
2096921,2096921, 297882, 385021
2096921,2096921, 298719, 385209
2096921,2096921, 298425, 385227
2096921,2096921, 298595, 385460
2096921,2096921, 298584, 385424
2096921,2096921, 298501, 385519
2096921,2096921, 299154, 385890
2096921,2096921, 299024, 385960
2096921,2096921, 298637, 385885
2096921,2096921, 298944, 385568
2096921,2096921, 299149, 385510
2096921,2096921, 299190, 385852
2096921,2096921, 299363, 385975
2096921,2096921, 299435, 385917
2096921,2096921, 299048, 386165
2096921,2096921, 299518, 386066
2096921,2096921, 299946, 386162
2096921,2096921, 299884, 386454
2096921,2096921, 299756, 386385
2096921,2096921, 299692, 386343
2096921,2096921, 299919, 386403
2096921,2096921, 299927, 386223
2096921,2096921, 299856, 386483
2096921,2096921, 300001, 386402
2096921,2096921, 300138, 386334
2096921,2096921, 300088, 386414
2096921,2096921, 300385, 386677
2096921,2096921, 300510, 386499
2096921,2096921, 300330, 386492
2096921,2096921, 300588, 386359
2096921,2096921, 300427, 386539
2096921,2096921, 300765, 386921
2096921,2096921, 301037, 386924
2096921,2096921, 301040, 386729
2096921,2096921, 300924, 387145
2096921,2096921, 301034, 387074
2096921,2096921, 301404, 387373
2096921,2096921, 301393, 387533
2096921,2096921, 301542, 387289
2096921,2096921, 301585, 387253
2096921,2096921, 301319, 386957
2096921,2096921, 301785, 387322
2096921,2096921, 301745, 387321
2096921,2096921, 301608, 387396
2096921,2096921, 301710, 387451
2096921,2096921, 301637, 387330
2096921,2096921, 302044, 387927
2096921,2096921, 302268, 387972
2096921,2096921, 302128, 387925
2096921,2096921, 302061, 387782
2096921,2096921, 302077, 387810
2096921,2096921, 302477, 388407
2096921,2096921, 302561, 388429
2096921,2096921, 302851, 388040
2096921,2096921, 302626, 387908
2096921,2096921, 302759, 388049
2096921,2096921, 302668, 388329
2096921,2096921, 302747, 388329
2096921,2096921, 302891, 388439
2096921,2096921, 302910, 388452
2096921,2096921, 303038, 388340
2096921,2096921, 303112, 388519
2096921,2096921, 303555, 388557
2096921,2096921, 303107, 388482
2096921,2096921, 303416, 388570
2096921,2096921, 303386, 388701
2096921,2096921, 303521, 388931
2096921,2096921, 303396, 388388
2096921,2096921, 303510, 388616
2096921,2096921, 303519, 388461
2096921,2096921, 303588, 388381
2096921,2096921, 303451, 388423
2096921,2096921, 303452, 388538
2096921,2096921, 303520, 388746
2096921,2096921, 303487, 388637
2096921,2096921, 303695, 388634
2096921,2096921, 303821, 388691
2096921,2096921, 303646, 388821
2096921,2096921, 303640, 388801
2096921,2096921, 303784, 388814
2096921,2096921, 303707, 388807
2096921,2096921, 303753, 388690
2096921,2096921, 303654, 389114
2096921,2096921, 303811, 388599
2096921,2096921, 303719, 388772
2096921,2096921, 303981, 388935
2096921,2096921, 303717, 388985
2096921,2096921, 303943, 388736
2096921,2096921, 303862, 389017
2096921,2096921, 303819, 388913
2096921,2096921, 303959, 389032
2096921,2096921, 303546, 388913
2096921,2096921, 303616, 388792
2096921,2096921, 303770, 388644
2096921,2096921, 303680, 388881
2096921,2096921, 303835, 388598
2096921,2096921, 303741, 388744
2096921,2096921, 303399, 388775
2096921,2096921, 303599, 388754
2096921,2096921, 303478, 388714
2096921,2096921, 303485, 388493
2096921,2096921, 303454, 388543
2096921,2096921, 303358, 388538
2096921,2096921, 303515, 388593
2096921,2096921, 303673, 388717
2096921,2096921, 303708, 388575
2096921,2096921, 303429, 388215
2096921,2096921, 303407, 388500
2096921,2096921, 303121, 388670
2096921,2096921, 303006, 388584
2096921,2096921, 303300, 388678
2096921,2096921, 303161, 388182
2096921,2096921, 303150, 388103
2096921,2096921, 303041, 388063
2096921,2096921, 303133, 388325
2096921,2096921, 303235, 388396
2096921,2096921, 303109, 388543
2096921,2096921, 303144, 388734
2096921,2096921, 302999, 388632
2096921,2096921, 303050, 388229
2096921,2096921, 303104, 388333
2096921,2096921, 302957, 388565
2096921,2096921, 302849, 388440
2096921,2096921, 303022, 388181
2096921,2096921, 303188, 388390
2096921,2096921, 303292, 388485
2096921,2096921, 303178, 388509
2096921,2096921, 303176, 388559
2096921,2096921, 303010, 388691
2096921,2096921, 302942, 388724
2096921,2096921, 303026, 388438
2096921,2096921, 303167, 388641
2096921,2096921, 303341, 388577
2096921,2096921, 303362, 388469
2096921,2096921, 303394, 388639
2096921,2096921, 303298, 388607
2096921,2096921, 303195, 388372
2096921,2096921, 303595, 388489
2096921,2096921, 303496, 388748
2096921,2096921, 303237, 388555
2096921,2096921, 303234, 388760
2096921,2096921, 303640, 388635
2096921,2096921, 303822, 389035
2096921,2096921, 303761, 388656
2096921,2096921, 303786, 388754
2096921,2096921, 303766, 388909
2096921,2096921, 304005, 389108
2096921,2096921, 303932, 389288
2096921,2096921, 303888, 389125
2096921,2096921, 304002, 388789
2096921,2096921, 304048, 389062
2096921,2096921, 303999, 389132
2096921,2096921, 304127, 389162
2096921,2096921, 304063, 389301
2096921,2096921, 304210, 389356
2096921,2096921, 304211, 389164
2096921,2096921, 304403, 389405
2096921,2096921, 304630, 389752
2096921,2096921, 304646, 389426
2096921,2096921, 304523, 389356
2096921,2096921, 304431, 389395
2096921,2096921, 304829, 389327
2096921,2096921, 304836, 389489
2096921,2096921, 305071, 389582
2096921,2096921, 304983, 389517
2096921,2096921, 305005, 389611
2096921,2096921, 305065, 389616
2096921,2096921, 305060, 389651
2096921,2096921, 305064, 389531
2096921,2096921, 305048, 389555
2096921,2096921, 305137, 389708
2096921,2096921, 305124, 389898
2096921,2096921, 304879, 389792
2096921,2096921, 305223, 389999
2096921,2096921, 305240, 389848
2096921,2096921, 305234, 389776
2096921,2096921, 305681, 390272
2096921,2096921, 305671, 389927
2096921,2096921, 305534, 390079
2096921,2096921, 305718, 389805
2096921,2096921, 305570, 389909
2096921,2096921, 305593, 389959
2096921,2096921, 305896, 389975
2096921,2096921, 305607, 390207
2096921,2096921, 305696, 390019
2096921,2096921, 305482, 390163
2096921,2096921, 305939, 390386
2096921,2096921, 305988, 390309
2096921,2096921, 306217, 390375
2096921,2096921, 306045, 390307
2096921,2096921, 306283, 390050
2096921,2096921, 306410, 390405
2096921,2096921, 306309, 390376
2096921,2096921, 306312, 390186
2096921,2096921, 306169, 390444
2096921,2096921, 306293, 390071
2096921,2096921, 306394, 390612
2096921,2096921, 306405, 390617
2096921,2096921, 306280, 390668
2096921,2096921, 306435, 390590
2096921,2096921, 306324, 390589
2096921,2096921, 306556, 390501
2096921,2096921, 306635, 390684
2096921,2096921, 306836, 390810
2096921,2096921, 306771, 391004
2096921,2096921, 306530, 390841
2096921,2096921, 306742, 390795
2096921,2096921, 307051, 390792
2096921,2096921, 306659, 390964
2096921,2096921, 306933, 390937
2096921,2096921, 306937, 390854
2096921,2096921, 307205, 391044
2096921,2096921, 307303, 390979
2096921,2096921, 307064, 390762
2096921,2096921, 306893, 391126
2096921,2096921, 307086, 391038
2096921,2096921, 307290, 391204
2096921,2096921, 307095, 391204
2096921,2096921, 307063, 391168
2096921,2096921, 306820, 390945
2096921,2096921, 307145, 390851
2096921,2096921, 307644, 391286
2096921,2096921, 307383, 391191
2096921,2096921, 307239, 391407
2096921,2096921, 307602, 391248
2096921,2096921, 307990, 391322
2096921,2096921, 307805, 391546
2096921,2096921, 307638, 391491
2096921,2096921, 307807, 391502
2096921,2096921, 307637, 391595
2096921,2096921, 307492, 391279
2096921,2096921, 307642, 391655
2096921,2096921, 307522, 391608
2096921,2096921, 307826, 391588
2096921,2096921, 307997, 391364
2096921,2096921, 307949, 391281
2096921,2096921, 307926, 391864
2096921,2096921, 307910, 391632
2096921,2096921, 307964, 391770
2096921,2096921, 308009, 391533
2096921,2096921, 307793, 391555
2096921,2096921, 308223, 391656
2096921,2096921, 308105, 391547
2096921,2096921, 308044, 391640
2096921,2096921, 308124, 391639
2096921,2096921, 308155, 391764
2096921,2096921, 308237, 391712
2096921,2096921, 308246, 391860
2096921,2096921, 308607, 391714
2096921,2096921, 308493, 392024
2096921,2096921, 308551, 392034
2096921,2096921, 308808, 392092
2096921,2096921, 308341, 391882
2096921,2096921, 308465, 391843
2096921,2096921, 308359, 392080
2096921,2096921, 308475, 391818
2096921,2096921, 308607, 391696
2096921,2096921, 308565, 392000
2096921,2096921, 308726, 392127
2096921,2096921, 308504, 391776
2096921,2096921, 308446, 391990
2096921,2096921, 308332, 392194
2096921,2096921, 308648, 392431
2096921,2096921, 308835, 392373
2096921,2096921, 308641, 392232
2096921,2096921, 308737, 392107
2096921,2096921, 308842, 392228
2096921,2096921, 308961, 392382
2096921,2096921, 309060, 391994
2096921,2096921, 309071, 391996
2096921,2096921, 308897, 391843
2096921,2096921, 308814, 391664
2096921,2096921, 308776, 392174
2096921,2096921, 309020, 392174
2096921,2096921, 309180, 392234
2096921,2096921, 309125, 391980
2096921,2096921, 309123, 392258
2096921,2096921, 308979, 392437
2096921,2096921, 309002, 392378
2096921,2096921, 309110, 392318
2096921,2096921, 309281, 392086
2096921,2096921, 309305, 392407
2096921,2096921, 309266, 392215
2096921,2096921, 309286, 392176
2096921,2096921, 309032, 392348
2096921,2096921, 308871, 392278
2096921,2096921, 309066, 392433
2096921,2096921, 309313, 392548
2096921,2096921, 309033, 392636
2096921,2096921, 309189, 392471
2096921,2096921, 309175, 392357
2096921,2096921, 309320, 392279
2096921,2096921, 309457, 392511
2096921,2096921, 309379, 392401
2096921,2096921, 309231, 392554
2096921,2096921, 309313, 392403
2096921,2096921, 309144, 392523
2096921,2096921, 309337, 392472
2096921,2096921, 309619, 392446
2096921,2096921, 309514, 392255
2096921,2096921, 309433, 392415
2096921,2096921, 309310, 392324
2096921,2096921, 309363, 392525
2096921,2096921, 309210, 392414
2096921,2096921, 309289, 392516
2096921,2096921, 309607, 392702
2096921,2096921, 309624, 392787
2096921,2096921, 309641, 392611
2096921,2096921, 309407, 392544
2096921,2096921, 309579, 392457
2096921,2096921, 309452, 392459
2096921,2096921, 309919, 392541
2096921,2096921, 309473, 392597
2096921,2096921, 309690, 392733
2096921,2096921, 309378, 392640
2096921,2096921, 309374, 392673
2096921,2096921, 309699, 392642
2096921,2096921, 309699, 392750
2096921,2096921, 309520, 392537
2096921,2096921, 309875, 392499
2096921,2096921, 309780, 392582
2096921,2096921, 309682, 392556
2096921,2096921, 309646, 392408
2096921,2096921, 309771, 392455
2096921,2096921, 309654, 392671
2096921,2096921, 309781, 392420
2096921,2096921, 309721, 392360
2096921,2096921, 309817, 392672
2096921,2096921, 309963, 392448
2096921,2096921, 310042, 392563
2096921,2096921, 309916, 392835
2096921,2096921, 309901, 392956
2096921,2096921, 310054, 393029
2096921,2096921, 309897, 392807
2096921,2096921, 310000, 392618
2096921,2096921, 309811, 392905
2096921,2096921, 309895, 392837
2096921,2096921, 309912, 392785
2096921,2096921, 309849, 392553
2096921,2096921, 309931, 392772
2096921,2096921, 309926, 392643
2096921,2096921, 309971, 392912
2096921,2096921, 310148, 392825
2096921,2096921, 310125, 392773
2096921,2096921, 310183, 392884
2096921,2096921, 309845, 392821
2096921,2096921, 309855, 393172
2096921,2096921, 309824, 392962
2096921,2096921, 310025, 393147
2096921,2096921, 310172, 392906
2096921,2096921, 310000, 392654
2096921,2096921, 310143, 392645
2096921,2096921, 310157, 393012
2096921,2096921, 310234, 393162
2096921,2096921, 310110, 392972
2096921,2096921, 310150, 392891
2096921,2096921, 310108, 393088
2096921,2096921, 310200, 393151
2096921,2096921, 309994, 392918
2096921,2096921, 310070, 392915
2096921,2096921, 310116, 393046
2096921,2096921, 310288, 392915
2096921,2096921, 310110, 392878
2096921,2096921, 310098, 393025
2096921,2096921, 310097, 393068
2096921,2096921, 310539, 392980
2096921,2096921, 310287, 393211
2096921,2096921, 310204, 392870
2096921,2096921, 310420, 392829
2096921,2096921, 310315, 392968
2096921,2096921, 310117, 392790
2096921,2096921, 310254, 392661
2096921,2096921, 310132, 392785
2096921,2096921, 310388, 392771
2096921,2096921, 310359, 392871
2096921,2096921, 310131, 392937
2096921,2096921, 310057, 393052
2096921,2096921, 310186, 392869
2096921,2096921, 310204, 393143
2096921,2096921, 310237, 393055
2096921,2096921, 310072, 393139
2096921,2096921, 310156, 393113
2096921,2096921, 310454, 393068
2096921,2096921, 310343, 393158
2096921,2096921, 310198, 392802
2096921,2096921, 310361, 392865
2096921,2096921, 310395, 392937
2096921,2096921, 310266, 392909
2096921,2096921, 310183, 392872
2096921,2096921, 310201, 393019
2096921,2096921, 310209, 392745
2096921,2096921, 310053, 393004
2096921,2096921, 310038, 392716
2096921,2096921, 310064, 393066
2096921,2096921, 310146, 393256
2096921,2096921, 309961, 392963
2096921,2096921, 310290, 393041
2096921,2096921, 310340, 393138
2096921,2096921, 310205, 393018
2096921,2096921, 310254, 393100
2096921,2096921, 310137, 393193
2096921,2096921, 310025, 393268
2096921,2096921, 310240, 393076
2096921,2096921, 310145, 392962
2096921,2096921, 310169, 393055
2096921,2096921, 310335, 392987
2096921,2096921, 309799, 392842
2096921,2096921, 309701, 392889
2096921,2096921, 309531, 392824
2096921,2096921, 310009, 392755
2096921,2096921, 309673, 392742
2096921,2096921, 309731, 392725
2096921,2096921, 309456, 392615
2096921,2096921, 309665, 392415
2096921,2096921, 309634, 392623
2096921,2096921, 309660, 392457
2096921,2096921, 308768, 392266
2096921,2096921, 308875, 391983
2096921,2096921, 308805, 392169
2096921,2096921, 308605, 392187
2096921,2096921, 308688, 392086
2096921,2096921, 308602, 391734
2096921,2096921, 308431, 391852
2096921,2096921, 308257, 391700
2096921,2096921, 308093, 391484
2096921,2096921, 308173, 391506
2096921,2096921, 307474, 391372
2096921,2096921, 307222, 391274
2096921,2096921, 307232, 391528
2096921,2096921, 307198, 391093
2096921,2096921, 306813, 391153
2096921,2096921, 305882, 389976
2096921,2096921, 305643, 389920
2096921,2096921, 305718, 389912
2096921,2096921, 305293, 389859
2096921,2096921, 305153, 389868
2096921,2096921, 303279, 388860
2096921,2096921, 303068, 388534
2096921,2096921, 302927, 388334
2096921,2096921, 302799, 388568
2096921,2096921, 302927, 388513
2096921,2096921, 301562, 387279
2096921,2096921, 301331, 387135
2096921,2096921, 301279, 387367
2096921,2096921, 301334, 387155
2096921,2096921, 301151, 387444
2096921,2096921, 300331, 386639
2096921,2096921, 300233, 386448
2096921,2096921, 299947, 386451
2096921,2096921, 299952, 386340
2096921,2096921, 299781, 386422
2096921,2096921, 299161, 386024
2096921,2096921, 298800, 386067
2096921,2096921, 299191, 385955
2096921,2096921, 298834, 385563
2096921,2096921, 299118, 385687
2096921,2096921, 298278, 385365
2096921,2096921, 298637, 385185
2096921,2096921, 298255, 385463
2096921,2096921, 298349, 385335
2096921,2096921, 298546, 385379
2096921,2096921, 297906, 384998
2096921,2096921, 297762, 384820
2096921,2096921, 297803, 385035
2096921,2096921, 297642, 384694
2096921,2096921, 297721, 385054
2096921,2096921, 297612, 384781
2096921,2096921, 297554, 384879
2096921,2096921, 297247, 384879
2096921,2096921, 297207, 384816
2096921,2096921, 297342, 384630
2096921,2096921, 297613, 384699
2096921,2096921, 297426, 384573
2096921,2096921, 297355, 384664
2096921,2096921, 297236, 384669
2096921,2096921, 297293, 384773
2096921,2096921, 297383, 384696
2096921,2096921, 297397, 384643
2096921,2096921, 297195, 384470
2096921,2096921, 297405, 384358
2096921,2096921, 297424, 384506
2096921,2096921, 297452, 384846
2096921,2096921, 297489, 384545
2096921,2096921, 297353, 384723
2096921,2096921, 297581, 384685
2096921,2096921, 297675, 384738
2096921,2096921, 297852, 384922
2096921,2096921, 297856, 384986
2096921,2096921, 297830, 384783
2096921,2096921, 297716, 384813
2096921,2096921, 297918, 384879
2096921,2096921, 297932, 384876
2096921,2096921, 298101, 384983
2096921,2096921, 297925, 385094
2096921,2096921, 298053, 384974
2096921,2096921, 297926, 384956
2096921,2096921, 298194, 385229
2096921,2096921, 298322, 385317
2096921,2096921, 298385, 385121
2096921,2096921, 298180, 385289
2096921,2096921, 298177, 385350
2096921,2096921, 298159, 385528
2096921,2096921, 298633, 385619
2096921,2096921, 298765, 385534
2096921,2096921, 298803, 385522
2096921,2096921, 298867, 385275
2096921,2096921, 299249, 385547
2096921,2096921, 298876, 385869
2096921,2096921, 298767, 385506
2096921,2096921, 298684, 385580
2096921,2096921, 298578, 385384
2096921,2096921, 299129, 386202
2096921,2096921, 298929, 385868
2096921,2096921, 299675, 386144
2096921,2096921, 299576, 386066
2096921,2096921, 299509, 386138
2096921,2096921, 299637, 386131
2096921,2096921, 299542, 386599
2096921,2096921, 299591, 386182
2096921,2096921, 299537, 386251
2096921,2096921, 299761, 386177
2096921,2096921, 299979, 386383
2096921,2096921, 300146, 386093
2096921,2096921, 299835, 386420
2096921,2096921, 300240, 386282
2096921,2096921, 300185, 386456
2096921,2096921, 300800, 386724
2096921,2096921, 300892, 386796
2096921,2096921, 300543, 386672
2096921,2096921, 300513, 386518
2096921,2096921, 300624, 386545
2096921,2096921, 301148, 386858
2096921,2096921, 300775, 387065
2096921,2096921, 300846, 386866
2096921,2096921, 300900, 386765
2096921,2096921, 300924, 386849
2096921,2096921, 301467, 387132
2096921,2096921, 301370, 387261
2096921,2096921, 301413, 387115
2096921,2096921, 301160, 387047
2096921,2096921, 301218, 387280
2096921,2096921, 301570, 387411
2096921,2096921, 301872, 387398
2096921,2096921, 301859, 387689
2096921,2096921, 301695, 387660
2096921,2096921, 301789, 387416
2096921,2096921, 302186, 387634
2096921,2096921, 302390, 387674
2096921,2096921, 302070, 387836
2096921,2096921, 301700, 387715
2096921,2096921, 302180, 387637
2096921,2096921, 302487, 387946
2096921,2096921, 302446, 388077
2096921,2096921, 302294, 388063
2096921,2096921, 302600, 388118
2096921,2096921, 302645, 388199
2096921,2096921, 303040, 388275
2096921,2096921, 302932, 388255
2096921,2096921, 302971, 388196
2096921,2096921, 302925, 388264
2096921,2096921, 302716, 388437
2096921,2096921, 303042, 388630
2096921,2096921, 303411, 388395
2096921,2096921, 303339, 388480
2096921,2096921, 303237, 388521
2096921,2096921, 302899, 388444
2096921,2096921, 303582, 388387
2096921,2096921, 303343, 388653
2096921,2096921, 303372, 388484
2096921,2096921, 303137, 388841
2096921,2096921, 303483, 388577
2096921,2096921, 303824, 388603
2096921,2096921, 303766, 388879
2096921,2096921, 303622, 388799
2096921,2096921, 303851, 388909
2096921,2096921, 303684, 389010
2096921,2096921, 303895, 388816
2096921,2096921, 303743, 389045
2096921,2096921, 303758, 388759
2096921,2096921, 303727, 388731
2096921,2096921, 303783, 388571
2096921,2096921, 303604, 388805
2096921,2096921, 303628, 3886683730, 388770
2096921,2096921, 303817, 388705
2096921,2096921, 303810, 388869
2096921,2096921, 304024, 388608
2096921,2096921, 303875, 388734
2096921,2096921, 303940, 388852
2096921,2096921, 303638, 388710
2096921,2096921, 303604, 388492
2096921,2096921, 303648, 388788
2096921,2096921, 303714, 388596
2096921,2096921, 303733, 388809
2096921,2096921, 303754, 388833
2096921,2096921, 303770, 388965
2096921,2096921, 303611, 388566
2096921,2096921, 303431, 388656
2096921,2096921, 303380, 388729
2096921,2096921, 303738, 388855
2096921,2096921, 303686, 388693
2096921,2096921, 303434, 388704
2096921,2096921, 303439, 388521
2096921,2096921, 303221, 388394
2096921,2096921, 303180, 388544
2096921,2096921, 303291, 388489
2096921,2096921, 303237, 388434
2096921,2096921, 303667, 388500
2096921,2096921, 303334, 388626
2096921,2096921, 303290, 388548
2096921,2096921, 303161, 388403
2096921,2096921, 303293, 388421
2096921,2096921, 303160, 388368
2096921,2096921, 303136, 388430
2096921,2096921, 303315, 388360
2096921,2096921, 303249, 388229
2096921,2096921, 303155, 388297
2096921,2096921, 302993, 388444
2096921,2096921, 303045, 388355
2096921,2096921, 303112, 388360
2096921,2096921, 302936, 388408
2096921,2096921, 302984, 388249
2096921,2096921, 303084, 388134
2096921,2096921, 303238, 388427
2096921,2096921, 303094, 388503
2096921,2096921, 303195, 388568
2096921,2096921, 303395, 388448
2096921,2096921, 303239, 388343
2096921,2096921, 303091, 388106
2096921,2096921, 303358, 388398
2096921,2096921, 303245, 388225
2096921,2096921, 303480, 388293
2096921,2096921, 303325, 388469
2096921,2096921, 303238, 388425
2096921,2096921, 303325, 388276
2096921,2096921, 303303, 388373
2096921,2096921, 303442, 388159
2096921,2096921, 303719, 388459
2096921,2096921, 303539, 388773
2096921,2096921, 303395, 388871
2096921,2096921, 303281, 388727
2096921,2096921, 303569, 388966
2096921,2096921, 303560, 388869
2096921,2096921, 303386, 388920
2096921,2096921, 303647, 389034
2096921,2096921, 303824, 388883
2096921,2096921, 303856, 389016
2096921,2096921, 304185, 388923
2096921,2096921, 303951, 389049
2096921,2096921, 304082, 388678
2096921,2096921, 303990, 389001
2096921,2096921, 304245, 389229
2096921,2096921, 304304, 388999
2096921,2096921, 304289, 389242
2096921,2096921, 304604, 388964
2096921,2096921, 304349, 389375
2096921,2096921, 304458, 389661
2096921,2096921, 304540, 389599
2096921,2096921, 304584, 389380
2096921,2096921, 304523, 389350
2096921,2096921, 304606, 389254
2096921,2096921, 304958, 389457
2096921,2096921, 304792, 389556
2096921,2096921, 304719, 389600
2096921,2096921, 304550, 389258
2096921,2096921, 304751, 389486
2096921,2096921, 305019, 389713
2096921,2096921, 305102, 389736
2096921,2096921, 305235, 389701
2096921,2096921, 305233, 389770
2096921,2096921, 305129, 389634
2096921,2096921, 305526, 389978
2096921,2096921, 305083, 389536
2096921,2096921, 305429, 389766
2096921,2096921, 305318, 390027
2096921,2096921, 305217, 389599
2096921,2096921, 305491, 389624
2096921,2096921, 305576, 389793
2096921,2096921, 305482, 389990
2096921,2096921, 305427, 390124
2096921,2096921, 305529, 389571
2096921,2096921, 305580, 390172
2096921,2096921, 305683, 390520
2096921,2096921, 305756, 390334
2096921,2096921, 305984, 390613
2096921,2096921, 305879, 390245
2096921,2096921, 306140, 390511
2096921,2096921, 305814, 390370
2096921,2096921, 305862, 390476
2096921,2096921, 305986, 390360
2096921,2096921, 306063, 390433
2096921,2096921, 306086, 390628
2096921,2096921, 306193, 390534
2096921,2096921, 306017, 390697
2096921,2096921, 306208, 390579
2096921,2096921, 306076, 390753
2096921,2096921, 306378, 390825
2096921,2096921, 306536, 390869
2096921,2096921, 306598, 390724
2096921,2096921, 306503, 390634
2096921,2096921, 306520, 390614
2096921,2096921, 306591, 390813
2096921,2096921, 306673, 390619
2096921,2096921, 306767, 390554
2096921,2096921, 306627, 390777
2096921,2096921, 306688, 390638
2096921,2096921, 306899, 390708
2096921,2096921, 306721, 390920
2096921,2096921, 306759, 390674
2096921,2096921, 306674, 390624
2096921,2096921, 306896, 390496
2096921,2096921, 307054, 390867
2096921,2096921, 307154, 390953
2096921,2096921, 307036, 391058
2096921,2096921, 307099, 390769
2096921,2096921, 307384, 391056
2096921,2096921, 307404, 391379
2096921,2096921, 307471, 391413
2096921,2096921, 307522, 391095
2096921,2096921, 307470, 390970
2096921,2096921, 307765, 391188
2096921,2096921, 307363, 391436
2096921,2096921, 306967, 391235
2096921,2096921, 307266, 391352
2096921,2096921, 307405, 391303
2096921,2096921, 307451, 391270
2096921,2096921, 307466, 391528
2096921,2096921, 307732, 391111
2096921,2096921, 307575, 391735
2096921,2096921, 307816, 391674
2096921,2096921, 307793, 391366
2096921,2096921, 307494, 391625
2096921,2096921, 307727, 391410
2096921,2096921, 308026, 391604
2096921,2096921, 307870, 391328
2096921,2096921, 307826, 391375
2096921,2096921, 307811, 391285
2096921,2096921, 307339, 391514
2096921,2096921, 307884, 391683
2096921,2096921, 307736, 391768
2096921,2096921, 307845, 391504
2096921,2096921, 308059, 391795
2096921,2096921, 307946, 391908
2096921,2096921, 308076, 391744
2096921,2096921, 308536, 391597
2096921,2096921, 308365, 391742
2096921,2096921, 308389, 391811
2096921,2096921, 308399, 391981
2096921,2096921, 308341, 391972
2096921,2096921, 308213, 391844
2096921,2096921, 308122, 391872
2096921,2096921, 308235, 391915
2096921,2096921, 308092, 391884
2096921,2096921, 308102, 391724
2096921,2096921, 308550, 391879
2096921,2096921, 308418, 392020
2096921,2096921, 308458, 392212
2096921,2096921, 308379, 392008
2096921,2096921, 308426, 392084
2096921,2096921, 308666, 391976
2096921,2096921, 308695, 392357
2096921,2096921, 308753, 392217
2096921,2096921, 308649, 391932
2096921,2096921, 308746, 392204
2096921,2096921, 308978, 392318
2096921,2096921, 308790, 392359
2096921,2096921, 308709, 392093
2096921,2096921, 308945, 392384
2096921,2096921, 308882, 392132
2096921,2096921, 308539, 391881
2096921,2096921, 308671, 392176
2096921,2096921, 309071, 392115
2096921,2096921, 308851, 392281
2096921,2096921, 308977, 392548
2096921,2096921, 308961, 392342
2096921,2096921, 309110, 392201
2096921,2096921, 309248, 392272
2096921,2096921, 309105, 392301
2096921,2096921, 309249, 392365
2096921,2096921, 309194, 392348
2096921,2096921, 309212, 392198
2096921,2096921, 308863, 392305
2096921,2096921, 309085, 392562
2096921,2096921, 309212, 392449
2096921,2096921, 309185, 392274
2096921,2096921, 309114, 392662
2096921,2096921, 309406, 392755
2096921,2096921, 309094, 392454
2096921,2096921, 309310, 392577
2096921,2096921, 309368, 392876
2096921,2096921, 309255, 392650
2096921,2096921, 308923, 392635
2096921,2096921, 309390, 392383
2096921,2096921, 309287, 392606
2096921,2096921, 309463, 392578
2096921,2096921, 309405, 392512
2096921,2096921, 309586, 392753
2096921,2096921, 309370, 392858
2096921,2096921, 309431, 392580
2096921,2096921, 309109, 392229
2096921,2096921, 309304, 392589
2096921,2096921, 309462, 392547
2096921,2096921, 309710, 392788
2096921,2096921, 309565, 392666
2096921,2096921, 309501, 392669
2096921,2096921, 309744, 392772
2096921,2096921, 309830, 393062
2096921,2096921, 309489, 392990
2096921,2096921, 309576, 392708
2096921,2096921, 309752, 392662
2096921,2096921, 309523, 392787
2096921,2096921, 309509, 392665
2096921,2096921, 309548, 392560
2096921,2096921, 309576, 392657
2096921,2096921, 309596, 392732
2096921,2096921, 309583, 392683
2096921,2096921, 309671, 392652
2096921,2096921, 309685, 392751
2096921,2096921, 309899, 392749
2096921,2096921, 309764, 392829
2096921,2096921, 309677, 392704
2096921,2096921, 309663, 392822
2096921,2096921, 309991, 392804
2096921,2096921, 309920, 393061
2096921,2096921, 310203, 393093
2096921,2096921, 310014, 392912
2096921,2096921, 309925, 392730
2096921,2096921, 309788, 392789
2096921,2096921, 309886, 392971
2096921,2096921, 309793, 392933
2096921,2096921, 309901, 392984
2096921,2096921, 309743, 392939
2096921,2096921, 310033, 392900
2096921,2096921, 309959, 392932
2096921,2096921, 309975, 392891
2096921,2096921, 309903, 392847
2096921,2096921, 310261, 393045
2096921,2096921, 309968, 392812
2096921,2096921, 309908, 392838
2096921,2096921, 310168, 393063
2096921,2096921, 310106, 392940
2096921,2096921, 310038, 392896
2096921,2096921, 310335, 392792
2096921,2096921, 310180, 392669
2096921,2096921, 310145, 392868
2096921,2096921, 309949, 392599
2096921,2096921, 310269, 392694
2096921,2096921, 310039, 392900
2096921,2096921, 309680, 393022
2096921,2096921, 309865, 392744
2096921,2096921, 309945, 392840
2096921,2096921, 310224, 393065
2096921,2096921, 310266, 393128
2096921,2096921, 310363, 393365
2096921,2096921, 310346, 393276
2096921,2096921, 310747, 393416
2096921,2096921, 310513, 393404
2096921,2096921, 310214, 392890
2096921,2096921, 310620, 392818
2096921,2096921, 310547, 393105
2096921,2096921, 310173, 393076
2096921,2096921, 310050, 393160
2096921,2096921, 309945, 392827
2096921,2096921, 310175, 393017
2096921,2096921, 310406, 393028
2096921,2096921, 310268, 392887
2096921,2096921, 310089, 393000
2096921,2096921, 310224, 393092
2096921,2096921, 310462, 392821
2096921,2096921, 310192, 393223
2096921,2096921, 310358, 393108
2096921,2096921, 310182, 392938
2096921,2096921, 310151, 392964
2096921,2096921, 310306, 392847
2096921,2096921, 310302, 392926
2096921,2096921, 310249, 392883
2096921,2096921, 310276, 392891
2096921,2096921, 310391, 393061
2096921,2096921, 310370, 392762
2096921,2096921, 310081, 392800
2096921,2096921, 310199, 392896
2096921,2096921, 310160, 392941
2096921,2096921, 310120, 393083
2096921,2096921, 310250, 392829
2096921,2096921, 310095, 393123
2096921,2096921, 310033, 393143
2096921,2096921, 310265, 393127
2096921,2096921, 310301, 392812
2096921,2096921, 310103, 392878
2096921,2096921, 310242, 393004
2096921,2096921, 310238, 393178
2096921,2096921, 309971, 393278
2096921,2096921, 310140, 393074
2096921,2096921, 310141, 393115
2096921,2096921, 310301, 393298
2096921,2096921, 310013, 393088
2096921,2096921, 310201, 392724
2096921,2096921, 309942, 392890
2096921,2096921, 309932, 392910
2096921,2096921, 310057, 392970
2096921,2096921, 310121, 392761
2096921,2096921, 310303, 392823
2096921,2096921, 310409, 393023
2096921,2096921, 310386, 393014
2096921,2096921, 310099, 392843
2096921,2096921, 310259, 393283
2096921,2096921, 309918, 392921
2096921,2096921, 309772, 392925
2096921,2096921, 309950, 392879
2096921,2096921, 309983, 392925
2096921,2096921, 309814, 392627
2096921,2096921, 309586, 392509
2096921,2096921, 309483, 392665
2096921,2096921, 309691, 392859
2096921,2096921, 309679, 392438
2096921,2096921, 309492, 392717
2096921,2096921, 309045, 392362
2096921,2096921, 308719, 392159
2096921,2096921, 308772, 391947
2096921,2096921, 308791, 391997
2096921,2096921, 309076, 392033
2096921,2096921, 308070, 391712
2096921,2096921, 308171, 391933
2096921,2096921, 307954, 391734
2096921,2096921, 308249, 392015
2096921,2096921, 308419, 391921
2096921,2096921, 307610, 391213
2096921,2096921, 307464, 391299
2096921,2096921, 307267, 390902
2096921,2096921, 307121, 390947
2096921,2096921, 307321, 391121
2096921,2096921, 305575, 390189
2096921,2096921, 305592, 389981
2096921,2096921, 305291, 389810
2096921,2096921, 305471, 389841
2096921,2096921, 305358, 390257
2096921,2096921, 303583, 388633
2096921,2096921, 303376, 388441
2096921,2096921, 303176, 388348
2096921,2096921, 303030, 388455
2096921,2096921, 303081, 388355
2096921,2096921, 301905, 387705
2096921,2096921, 301370, 387265
2096921,2096921, 301402, 387225
2096921,2096921, 301204, 386738
2096921,2096921, 301393, 387187
2096921,2096921, 300268, 386576
2096921,2096921, 299912, 386468
2096921,2096921, 300057, 386602
2096921,2096921, 300086, 386326
2096921,2096921, 300217, 386522
2096921,2096921, 299311, 386005
2096921,2096921, 299284, 385773
2096921,2096921, 299417, 385972
2096921,2096921, 299117, 385931
2096921,2096921, 298956, 385673
2096921,2096921, 298583, 385059
2096921,2096921, 298164, 385259
2096921,2096921, 298278, 385104
2096921,2096921, 298335, 384914
2096921,2096921, 298325, 385336
2096921,2096921, 297992, 385229
2096921,2096921, 297791, 384953
2096921,2096921, 297949, 385269
2096921,2096921, 297915, 385290
2096921,2096921, 298125, 384952
2096921,2096921, 297743, 384977
2096921,2096921, 297493, 384731
2096921,2096921, 297565, 385012
2096921,2096921, 297585, 384459
2096921,2096921, 297389, 384740
2096921,2096921, 297392, 384650
2096921,2096921, 297462, 384616
2096921,2096921, 297368, 384753
2096921,2096921, 297592, 384865
2096921,2096921, 297625, 384834
2096921,2096921, 297582, 384835
2096921,2096921, 297769, 384784
2096921,2096921, 297343, 384689
2096921,2096921, 297633, 384679
2096921,2096921, 297607, 384640
2096921,2096921, 297550, 384677
2096921,2096921, 297535, 384805
2096921,2096921, 297629, 384904
2096921,2096921, 297560, 384942
2096921,2096921, 297764, 384713
2096921,2096921, 297685, 384725
2096921,2096921, 297487, 384966
2096921,2096921, 297725, 385200
2096921,2096921, 297750, 385220
2096921,2096921, 297611, 385271
2096921,2096921, 297820, 384967
2096921,2096921, 298082, 384955
2096921,2096921, 298163, 384951
2096921,2096921, 297822, 385435
2096921,2096921, 298048, 385364
2096921,2096921, 298585, 385339
2096921,2096921, 298426, 385081
2096921,2096921, 298148, 385314
2096921,2096921, 298208, 385152
2096921,2096921, 298157, 385138
2096921,2096921, 298664, 385214
2096921,2096921, 298610, 385382
2096921,2096921, 298693, 385436
2096921,2096921, 298616, 385639
2096921,2096921, 298802, 385549
2096921,2096921, 298828, 385834
2096921,2096921, 299124, 385802
2096921,2096921, 299191, 385920
2096921,2096921, 299038, 385887
2096921,2096921, 298823, 385984
2096921,2096921, 299267, 386179
2096921,2096921, 299665, 386122
2096921,2096921, 299429, 386176
2096921,2096921, 299325, 386176
2096921,2096921, 299422, 386013
2096921,2096921, 299879, 386356
2096921,2096921, 300131, 386462
2096921,2096921, 299769, 386450
2096921,2096921, 299857, 386434
2096921,2096921, 299870, 386391
2096921,2096921, 300293, 386811
2096921,2096921, 300101, 386890
2096921,2096921, 300178, 386747
2096921,2096921, 300228, 386546
2096921,2096921, 300119, 386477
2096921,2096921, 300360, 386714
2096921,2096921, 300577, 386386
2096921,2096921, 300466, 386539
2096921,2096921, 300735, 386728
2096921,2096921, 300575, 386801
2096921,2096921, 300824, 387085
2096921,2096921, 301173, 387030
2096921,2096921, 301414, 387180
2096921,2096921, 301242, 387165
2096921,2096921, 301190, 387204
2096921,2096921, 301242, 387439
2096921,2096921, 301540, 387486
2096921,2096921, 301430, 387466
2096921,2096921, 301255, 387431
2096921,2096921, 301204, 387258
2096921,2096921, 301754, 387773
2096921,2096921, 301689, 387575
2096921,2096921, 301688, 387528
2096921,2096921, 301888, 387750
2096921,2096921, 301816, 387651
2096921,2096921, 302134, 387616
2096921,2096921, 302080, 387921
2096921,2096921, 302458, 388139
2096921,2096921, 302270, 387881
2096921,2096921, 302233, 387945
2096921,2096921, 302526, 387970
2096921,2096921, 302749, 388359
2096921,2096921, 302804, 388185
2096921,2096921, 302624, 388159
2096921,2096921, 302727, 388033
2096921,2096921, 302956, 388200
2096921,2096921, 302852, 388349
2096921,2096921, 303248, 388564
2096921,2096921, 303027, 388330
2096921,2096921, 302999, 388229
2096921,2096921, 303109, 388216
2096921,2096921, 303318, 388534
2096921,2096921, 303491, 388575
2096921,2096921, 303265, 388721
2096921,2096921, 303454, 388583
2096921,2096921, 303982, 388650
2096921,2096921, 303400, 388823
2096921,2096921, 303495, 388684
2096921,2096921, 303360, 388688
2096921,2096921, 303447, 389042
2096921,2096921, 303593, 388817
2096921,2096921, 303519, 388831
2096921,2096921, 303432, 388717
2096921,2096921, 303634, 388630
2096921,2096921, 303615, 388624
2096921,2096921, 303759, 388780
2096921,2096921, 303953, 388867
2096921,2096921, 303952, 388985
2096921,2096921, 303954, 388896
2096921,2096921, 303965, 389105
2096921,2096921, 303978, 389030
2096921,2096921, 303963, 388965
2096921,2096921, 303971, 388873
2096921,2096921, 303795, 388900
2096921,2096921, 303836, 388842
2096921,2096921, 303862, 388958
2096921,2096921, 303751, 388857
2096921,2096921, 303527, 388710
2096921,2096921, 303716, 388604
2096921,2096921, 303517, 388868
2096921,2096921, 303803, 388837
2096921,2096921, 303475, 388816
2096921,2096921, 303793, 388794
2096921,2096921, 303964, 388769
2096921,2096921, 303619, 388986
2096921,2096921, 303663, 388846
2096921,2096921, 303698, 388606
2096921,2096921, 303476, 388903
2096921,2096921, 303470, 388604
2096921,2096921, 303714, 388883
2096921,2096921, 303495, 388480
2096921,2096921, 303189, 388462
2096921,2096921, 303286, 388593
2096921,2096921, 303246, 388586
2096921,2096921, 303514, 388430
2096921,2096921, 303484, 388428
2096921,2096921, 303509, 388718
2096921,2096921, 303257, 388506
2096921,2096921, 303534, 388591
2096921,2096921, 303312, 388448
2096921,2096921, 303125, 388410
2096921,2096921, 303433, 388885
2096921,2096921, 303351, 388604
2096921,2096921, 303294, 388530
2096921,2096921, 303227, 388556
2096921,2096921, 303022, 388695
2096921,2096921, 303265, 388227
2096921,2096921, 303257, 388565
2096921,2096921, 303178, 388635
2096921,2096921, 303048, 388777
2096921,2096921, 302999, 388470
2096921,2096921, 303009, 388742
2096921,2096921, 303209, 388965
2096921,2096921, 303191, 388816
2096921,2096921, 303089, 388429
2096921,2096921, 303569, 388752
2096921,2096921, 303141, 388702
2096921,2096921, 303350, 388727
2096921,2096921, 303246, 388518
2096921,2096921, 303277, 388655
2096921,2096921, 303158, 388402
2096921,2096921, 303311, 388601
2096921,2096921, 303261, 388288
2096921,2096921, 303203, 388454
2096921,2096921, 303392, 388586
2096921,2096921, 303432, 388718
2096921,2096921, 303269, 388556
2096921,2096921, 303561, 388658
2096921,2096921, 303507, 388634
2096921,2096921, 303369, 388720
2096921,2096921, 303715, 388793
2096921,2096921, 303873, 388827
2096921,2096921, 303844, 388825
2096921,2096921, 304009, 389185
2096921,2096921, 303936, 389114
2096921,2096921, 304433, 389027
2096921,2096921, 304124, 389136
2096921,2096921, 304098, 388998
2096921,2096921, 304005, 389106
2096921,2096921, 304128, 388846
2096921,2096921, 304363, 388840
2096921,2096921, 304220, 389093
2096921,2096921, 304309, 389214
2096921,2096921, 304382, 389357
2096921,2096921, 304458, 389295
2096921,2096921, 304573, 389483
2096921,2096921, 304763, 389476
2096921,2096921, 304656, 389320
2096921,2096921, 304507, 389196
2096921,2096921, 304672, 389700
2096921,2096921, 304986, 389477
2096921,2096921, 304808, 389837
2096921,2096921, 305005, 389677
2096921,2096921, 305108, 389437
2096921,2096921, 305017, 389678
2096921,2096921, 305197, 389885
2096921,2096921, 305242, 389644
2096921,2096921, 305173, 389439
2096921,2096921, 304984, 389423
2096921,2096921, 305063, 389708
2096921,2096921, 305492, 389954
2096921,2096921, 305354, 389779
2096921,2096921, 305394, 390006
2096921,2096921, 305429, 389961
2096921,2096921, 305390, 390011
2096921,2096921, 305598, 390175
2096921,2096921, 305406, 389939
2096921,2096921, 305370, 389924
2096921,2096921, 305240, 390006
2096921,2096921, 305466, 390028
2096921,2096921, 305685, 390059
2096921,2096921, 305987, 390347
2096921,2096921, 305852, 390391
2096921,2096921, 305839, 390265
2096921,2096921, 306029, 390288
2096921,2096921, 306157, 390635
2096921,2096921, 306159, 390174
2096921,2096921, 306080, 390236
2096921,2096921, 306087, 390186
2096921,2096921, 306324, 390205
2096921,2096921, 306259, 390234
2096921,2096921, 306269, 390202
2096921,2096921, 306323, 390652
2096921,2096921, 306589, 390601
2096921,2096921, 306293, 390260
2096921,2096921, 306271, 390635
2096921,2096921, 306434, 390546
2096921,2096921, 306409, 390766
2096921,2096921, 306602, 390509
2096921,2096921, 306704, 390481
2096921,2096921, 306676, 390351
2096921,2096921, 306811, 390804
2096921,2096921, 306783, 390475
2096921,2096921, 306533, 390674
2096921,2096921, 306464, 390466
2096921,2096921, 306716, 390835
2096921,2096921, 306802, 390558
2096921,2096921, 306826, 391026
2096921,2096921, 306846, 390700
2096921,2096921, 306703, 390941
2096921,2096921, 306790, 390964
2096921,2096921, 307052, 391008
2096921,2096921, 307241, 390903
2096921,2096921, 307293, 390978
2096921,2096921, 307181, 391050
2096921,2096921, 307357, 391101
2096921,2096921, 307401, 391215
2096921,2096921, 307317, 391268
2096921,2096921, 307380, 391270
2096921,2096921, 307188, 391063
2096921,2096921, 307372, 391240
2096921,2096921, 307307, 391390
2096921,2096921, 307606, 391606
2096921,2096921, 307364, 391337
2096921,2096921, 307573, 391227
2096921,2096921, 307782, 391283
2096921,2096921, 307730, 391635
2096921,2096921, 307589, 391730
2096921,2096921, 307506, 391567
2096921,2096921, 307701, 391386
2096921,2096921, 307766, 391506
2096921,2096921, 307919, 391547
2096921,2096921, 307863, 391863
2096921,2096921, 307714, 391652
2096921,2096921, 307881, 391536
2096921,2096921, 307907, 391482
2096921,2096921, 307863, 391401
2096921,2096921, 307961, 391658
2096921,2096921, 307958, 391403
2096921,2096921, 307901, 391759
2096921,2096921, 308026, 391562
2096921,2096921, 308060, 391781
2096921,2096921, 308451, 392065
2096921,2096921, 308085, 392049
2096921,2096921, 308249, 391648
2096921,2096921, 308221, 391720
2096921,2096921, 308330, 391848
2096921,2096921, 307995, 392058
2096921,2096921, 308086, 392144
2096921,2096921, 308052, 391400
2096921,2096921, 308071, 391929
2096921,2096921, 308303, 391932
2096921,2096921, 308590, 391811
2096921,2096921, 308365, 391841
2096921,2096921, 308662, 392168
2096921,2096921, 308688, 391948
2096921,2096921, 308809, 391819
2096921,2096921, 308662, 392244
2096921,2096921, 308774, 392033
2096921,2096921, 308609, 391800
2096921,2096921, 308491, 391919
2096921,2096921, 308514, 392072
2096921,2096921, 308822, 392255
2096921,2096921, 308624, 392287
2096921,2096921, 308831, 392110
2096921,2096921, 309028, 391865
2096921,2096921, 308912, 392086
2096921,2096921, 308938, 392094
2096921,2096921, 309085, 392319
2096921,2096921, 308929, 392382
2096921,2096921, 309217, 391931
2096921,2096921, 309009, 392312
2096921,2096921, 309063, 392143
2096921,2096921, 308854, 392291
2096921,2096921, 308979, 392130
2096921,2096921, 309022, 392417
2096921,2096921, 309104, 392340
2096921,2096921, 309065, 392350
2096921,2096921, 309413, 392461
2096921,2096921, 309131, 392094
2096921,2096921, 309068, 391985
2096921,2096921, 309016, 392273
2096921,2096921, 309195, 392316
2096921,2096921, 309189, 392252
2096921,2096921, 309037, 392312
2096921,2096921, 309170, 392469
2096921,2096921, 309286, 392195
2096921,2096921, 309242, 392537
2096921,2096921, 309221, 392690
2096921,2096921, 309212, 392339
2096921,2096921, 309360, 392389
2096921,2096921, 309593, 392634
2096921,2096921, 309668, 392542
2096921,2096921, 309419, 392780
2096921,2096921, 309520, 392799
2096921,2096921, 309226, 392618
2096921,2096921, 309481, 392355
2096921,2096921, 309403, 392507
2096921,2096921, 309380, 392458
2096921,2096921, 309417, 392326
2096921,2096921, 309501, 392563
2096921,2096921, 309646, 392592
2096921,2096921, 309480, 392736
2096921,2096921, 309378, 392907
2096921,2096921, 309591, 392740
2096921,2096921, 309703, 392496
2096921,2096921, 309810, 392762
2096921,2096921, 309458, 392564
2096921,2096921, 309458, 392638
2096921,2096921, 309611, 392735
2096921,2096921, 309603, 392609
2096921,2096921, 309616, 392508
2096921,2096921, 309631, 392735
2096921,2096921, 309677, 392711
2096921,2096921, 309623, 393047
2096921,2096921, 309573, 392745
2096921,2096921, 309569, 392669
2096921,2096921, 309302, 392821
2096921,2096921, 309750, 392768
2096921,2096921, 309525, 392601
2096921,2096921, 309799, 392571
2096921,2096921, 309782, 392744
2096921,2096921, 310142, 392793
2096921,2096921, 309861, 392912
2096921,2096921, 309992, 392701
2096921,2096921, 309846, 392947
2096921,2096921, 309895, 392788
2096921,2096921, 310032, 392945
2096921,2096921, 310137, 392638
2096921,2096921, 309878, 392668
2096921,2096921, 309960, 393140
2096921,2096921, 309735, 393095
2096921,2096921, 310012, 392833
2096921,2096921, 309886, 392923
2096921,2096921, 309910, 393246
2096921,2096921, 310104, 392807
2096921,2096921, 310183, 393063
2096921,2096921, 310188, 392890
2096921,2096921, 310066, 393015
2096921,2096921, 310222, 392654
2096921,2096921, 310121, 392694
2096921,2096921, 310048, 392757
2096921,2096921, 310551, 393047
2096921,2096921, 310115, 392867
2096921,2096921, 309986, 393076
2096921,2096921, 310215, 393128
2096921,2096921, 310107, 393178
2096921,2096921, 310168, 392866
2096921,2096921, 310277, 392851
2096921,2096921, 310146, 392757
2096921,2096921, 310147, 392753
2096921,2096921, 310111, 392762
2096921,2096921, 310169, 392868
2096921,2096921, 310099, 392978
2096921,2096921, 310224, 392938
2096921,2096921, 310363, 392886
2096921,2096921, 310426, 393043
2096921,2096921, 310414, 393109
2096921,2096921, 310208, 393002
2096921,2096921, 310247, 393242
2096921,2096921, 310334, 393122
2096921,2096921, 310088, 392962
2096921,2096921, 310558, 392961
2096921,2096921, 310282, 393212
2096921,2096921, 310500, 392918
2096921,2096921, 310366, 393077
2096921,2096921, 310404, 392997
2096921,2096921, 310204, 393122
2096921,2096921, 309884, 392887
2096921,2096921, 310038, 392764
2096921,2096921, 310037, 392981
2096921,2096921, 310415, 393069
2096921,2096921, 310272, 392919
2096921,2096921, 310014, 393010
2096921,2096921, 310428, 393300
2096921,2096921, 310413, 393237
2096921,2096921, 310535, 393070
2096921,2096921, 310395, 393218
2096921,2096921, 310158, 392971
2096921,2096921, 310204, 393066
2096921,2096921, 310140, 392988
2096921,2096921, 309901, 393127
2096921,2096921, 310226, 393171
2096921,2096921, 310201, 392926
2096921,2096921, 310290, 393069
2096921,2096921, 310142, 393182
2096921,2096921, 310031, 392949
2096921,2096921, 310221, 392928
2096921,2096921, 310222, 392959
2096921,2096921, 310233, 392724
2096921,2096921, 310361, 393134
2096921,2096921, 310248, 393002
2096921,2096921, 310404, 392956
2096921,2096921, 310666, 392950
2096921,2096921, 310427, 392969
2096921,2096921, 310458, 392835
2096921,2096921, 310616, 393086
2096921,2096921, 310449, 392876
2096921,2096921, 310516, 392772
2096921,2096921, 310209, 393186
2096921,2096921, 310257, 393168
2096921,2096921, 310059, 393061
2096921,2096921, 310112, 392789
2096921,2096921, 310433, 392789
2096921,2096921, 310411, 392968
2096921,2096921, 309946, 392627
2096921,2096921, 309643, 392608
2096921,2096921, 309867, 392736
2096921,2096921, 310070, 392822
2096921,2096921, 309880, 392871
2096921,2096921, 309500, 392730
2096921,2096921, 309388, 392372
2096921,2096921, 309411, 392245
2096921,2096921, 309571, 392567
2096921,2096921, 309408, 392632
2096921,2096921, 308814, 392189
2096921,2096921, 308870, 392440
2096921,2096921, 308959, 392074
2096921,2096921, 308731, 391968
2096921,2096921, 308730, 392008
2096921,2096921, 308034, 391921
2096921,2096921, 308027, 391857
2096921,2096921, 308145, 391767
2096921,2096921, 308180, 391542
2096921,2096921, 308257, 391575
2096921,2096921, 307555, 391283
2096921,2096921, 307314, 390999
2096921,2096921, 307324, 390948
2096921,2096921, 307331, 391209
2096921,2096921, 307227, 391104
2096921,2096921, 305666, 389954
2096921,2096921, 305394, 389779
2096921,2096921, 305266, 389835
2096921,2096921, 305328, 390025
2096921,2096921, 305378, 390105
2096921,2096921, 303390, 388504
2096921,2096921, 303021, 388559
2096921,2096921, 303407, 388275
2096921,2096921, 302939, 388337
2096921,2096921, 303236, 388146
2096921,2096921, 301835, 387653
2096921,2096921, 301781, 387569
2096921,2096921, 301376, 387671
2096921,2096921, 301119, 387620
2096921,2096921, 301212, 387619
2096921,2096921, 300293, 386491
2096921,2096921, 300029, 386542
2096921,2096921, 299831, 386493
2096921,2096921, 299959, 386490
2096921,2096921, 299951, 386468
2096921,2096921, 299048, 386027
2096921,2096921, 298949, 386119
2096921,2096921, 299020, 385936
2096921,2096921, 299212, 386007
2096921,2096921, 299279, 385832
2096921,2096921, 298538, 385618
2096921,2096921, 298242, 385373
2096921,2096921, 298297, 385144
2096921,2096921, 298150, 385254
2096921,2096921, 298340, 385319
2096921,2096921, 297611, 385152
2096921,2096921, 297543, 384878
2096921,2096921, 297719, 384964
2096921,2096921, 297989, 385189
2096921,2096921, 297729, 384916
2096921,2096921, 297659, 385044
2096921,2096921, 297562, 385005
2096921,2096921, 297508, 384764
2096921,2096921, 297520, 384890
2096921,2096921, 297372, 384701
2096921,2096921, 297314, 384666
2096921,2096921, 297234, 384712
2096921,2096921, 296972, 384395
2096921,2096921, 296984, 384313
2096921,2096921, 297353, 384620
2096921,2096921, 297418, 384968
2096921,2096921, 297424, 384887
2096921,2096921, 297366, 384492
2096921,2096921, 297379, 384817
2096921,2096921, 297417, 384874
2096921,2096921, 297387, 384730
2096921,2096921, 297589, 384458
2096921,2096921, 297394, 384873
2096921,2096921, 297550, 384838
2096921,2096921, 297626, 384779
2096921,2096921, 297998, 384619
2096921,2096921, 297758, 384837
2096921,2096921, 297434, 384714
2096921,2096921, 297647, 384784
2096921,2096921, 297567, 384663
2096921,2096921, 297812, 384954
2096921,2096921, 297822, 384948
2096921,2096921, 298044, 384971
2096921,2096921, 297799, 385290
2096921,2096921, 297805, 385096
2096921,2096921, 298228, 385228
2096921,2096921, 298198, 385319
2096921,2096921, 298153, 385098
2096921,2096921, 298044, 385302
2096921,2096921, 298062, 385174
2096921,2096921, 298204, 385464
2096921,2096921, 298606, 385654
2096921,2096921, 298453, 385396
2096921,2096921, 298802, 385535
2096921,2096921, 298792, 385449
2096921,2096921, 298852, 385495
2096921,2096921, 298967, 385937
2096921,2096921, 299057, 385899
2096921,2096921, 299071, 385961
2096921,2096921, 299045, 385612
2096921,2096921, 299734, 385914
2096921,2096921, 299505, 385960
2096921,2096921, 299402, 385791
2096921,2096921, 299219, 386030
2096921,2096921, 299475, 386215
2096921,2096921, 299781, 386359
2096921,2096921, 299632, 386231
2096921,2096921, 299808, 386520
2096921,2096921, 299945, 386381
2096921,2096921, 299691, 386062
2096921,2096921, 300290, 386494
2096921,2096921, 300345, 386765
2096921,2096921, 300113, 386694
2096921,2096921, 299919, 386673
2096921,2096921, 300290, 386672
2096921,2096921, 300808, 386848
2096921,2096921, 300620, 386969
2096921,2096921, 300627, 386729
2096921,2096921, 300528, 386622
2096921,2096921, 300552, 386745
2096921,2096921, 300689, 386802
2096921,2096921, 300933, 387070
2096921,2096921, 300987, 387038
2096921,2096921, 300851, 386880
2096921,2096921, 300912, 387175
2096921,2096921, 301242, 387237
2096921,2096921, 301235, 387235
2096921,2096921, 301133, 387098
2096921,2096921, 301508, 387227
2096921,2096921, 301670, 386992
2096921,2096921, 301659, 387557
2096921,2096921, 301745, 387494
2096921,2096921, 301978, 387516
2096921,2096921, 301802, 387495
2096921,2096921, 302023, 387878
2096921,2096921, 302242, 387803
2096921,2096921, 302332, 387871
2096921,2096921, 302249, 387775
2096921,2096921, 302311, 387784
2096921,2096921, 302316, 387787
2096921,2096921, 302630, 388018
2096921,2096921, 302571, 388234
2096921,2096921, 302723, 388310
2096921,2096921, 302775, 388350
2096921,2096921, 302581, 388294
2096921,2096921, 302971, 388388
2096921,2096921, 302901, 388417
2096921,2096921, 302717, 388141
2096921,2096921, 302722, 388344
2096921,2096921, 302861, 388276
2096921,2096921, 302896, 388523
2096921,2096921, 303281, 388508
2096921,2096921, 303364, 388692
2096921,2096921, 303357, 388182
2096921,2096921, 303500, 388781
2096921,2096921, 303780, 388535
2096921,2096921, 303702, 388808
2096921,2096921, 303841, 388794
2096921,2096921, 303581, 388895
2096921,2096921, 303846, 388827
2096921,2096921, 303585, 389057
2096921,2096921, 303959, 388718
2096921,2096921, 303806, 388916
2096921,2096921, 303569, 388642
2096921,2096921, 303766, 388986
2096921,2096921, 303800, 389164
2096921,2096921, 303974, 388862
2096921,2096921, 303647, 388823
2096921,2096921, 303787, 388901
2096921,2096921, 303712, 388924
2096921,2096921, 303651, 389091
2096921,2096921, 303746, 389066
2096921,2096921, 303985, 388980
2096921,2096921, 303713, 389114
2096921,2096921, 303831, 389187
2096921,2096921, 303917, 388923
2096921,2096921, 304071, 388925
2096921,2096921, 303979, 388943
2096921,2096921, 303819, 388673
2096921,2096921, 303751, 388906
2096921,2096921, 303456, 388627
2096921,2096921, 303453, 388705
2096921,2096921, 303888, 388902
2096921,2096921, 303683, 388786
2096921,2096921, 303764, 388815
2096921,2096921, 303738, 388852
2096921,2096921, 303824, 388742
2096921,2096921, 303878, 388678
2096921,2096921, 303630, 388747
2096921,2096921, 303668, 388702
2096921,2096921, 303536, 388721
2096921,2096921, 303450, 388536
2096921,2096921, 303467, 388707
2096921,2096921, 303313, 388557
2096921,2096921, 303310, 388496
2096921,2096921, 303447, 388732
2096921,2096921, 303400, 388649
2096921,2096921, 303060, 388530
2096921,2096921, 303295, 388595
2096921,2096921, 303201, 388330
2096921,2096921, 303244, 388547
2096921,2096921, 303251, 388739
2096921,2096921, 303469, 388599
2096921,2096921, 303066, 388877
2096921,2096921, 303123, 388806
2096921,2096921, 303122, 388755
2096921,2096921, 302822, 388946
2096921,2096921, 302953, 388458
2096921,2096921, 303261, 388197
2096921,2096921, 303241, 388340
2096921,2096921, 303151, 388271
2096921,2096921, 303145, 388374
2096921,2096921, 303159, 388434
2096921,2096921, 303445, 388676
2096921,2096921, 303294, 388618
2096921,2096921, 303446, 388396
2096921,2096921, 303399, 388486
2096921,2096921, 303212, 388339
2096921,2096921, 302989, 388638
2096921,2096921, 303297, 388461
2096921,2096921, 303172, 388379
2096921,2096921, 303295, 388772
2096921,2096921, 303430, 388598
2096921,2096921, 303377, 388485
2096921,2096921, 303242, 388622
2096921,2096921, 303442, 388591
2096921,2096921, 303179, 388584
2096921,2096921, 303556, 388638
2096921,2096921, 303628, 388419
2096921,2096921, 303651, 388744
2096921,2096921, 303902, 388892
2096921,2096921, 303953, 388793
2096921,2096921, 303709, 389074
2096921,2096921, 303817, 389040
2096921,2096921, 303520, 388964
2096921,2096921, 304030, 389079
2096921,2096921, 303957, 388951
2096921,2096921, 303836, 389001
2096921,2096921, 303802, 389101
2096921,2096921, 304046, 388830
2096921,2096921, 304225, 389203
2096921,2096921, 304204, 388976
2096921,2096921, 304309, 389427
2096921,2096921, 304472, 389475
2096921,2096921, 304213, 389210
2096921,2096921, 304767, 389424
2096921,2096921, 304917, 389468
2096921,2096921, 304788, 389531
2096921,2096921, 304590, 389682
2096921,2096921, 304855, 389547
2096921,2096921, 304902, 389585
2096921,2096921, 305151, 389709
2096921,2096921, 304896, 389553
2096921,2096921, 304904, 389782
2096921,2096921, 304806, 389599
2096921,2096921, 304950, 389538
2096921,2096921, 305186, 389596
2096921,2096921, 304985, 389597
2096921,2096921, 305109, 389742
2096921,2096921, 305169, 389551
2096921,2096921, 305206, 389806
2096921,2096921, 305223, 389856
2096921,2096921, 305261, 390125
2096921,2096921, 305618, 389944
2096921,2096921, 305471, 390017
2096921,2096921, 305752, 389921
2096921,2096921, 305694, 390055
2096921,2096921, 305695, 390003
2096921,2096921, 305569, 390126
2096921,2096921, 305317, 390171
2096921,2096921, 305584, 389992
2096921,2096921, 305557, 390121
2096921,2096921, 305747, 390318
2096921,2096921, 305842, 390296
2096921,2096921, 305953, 390326
2096921,2096921, 306028, 390340
2096921,2096921, 306233, 390381
2096921,2096921, 305851, 390561
2096921,2096921, 305951, 390157
2096921,2096921, 305884, 390368
2096921,2096921, 306310, 390648
2096921,2096921, 306344, 390308
2096921,2096921, 306148, 390421
2096921,2096921, 306126, 390723
2096921,2096921, 306148, 390472
2096921,2096921, 306351, 390721
2096921,2096921, 306213, 390461
2096921,2096921, 306551, 390254
2096921,2096921, 306770, 390258
2096921,2096921, 306404, 390373
2096921,2096921, 306914, 390722
2096921,2096921, 306789, 390566
2096921,2096921, 306540, 390775
2096921,2096921, 306408, 390639
2096921,2096921, 306746, 390886
2096921,2096921, 307172, 391104
2096921,2096921, 307076, 391011
2096921,2096921, 306974, 390941
2096921,2096921, 306923, 390805
2096921,2096921, 306878, 390611
2096921,2096921, 307164, 391144
2096921,2096921, 307182, 390913
2096921,2096921, 307288, 390960
2096921,2096921, 307322, 391147
2096921,2096921, 307085, 390990
2096921,2096921, 307101, 391203
2096921,2096921, 307185, 391132
2096921,2096921, 307143, 390963
2096921,2096921, 307197, 390851
2096921,2096921, 307611, 391118
2096921,2096921, 307422, 391092
2096921,2096921, 307520, 391336
2096921,2096921, 307572, 391401
2096921,2096921, 307770, 391531
2096921,2096921, 307784, 391415
2096921,2096921, 307826, 391099
2096921,2096921, 307791, 391284
2096921,2096921, 307551, 391525
2096921,2096921, 307544, 391434
2096921,2096921, 307593, 391390
2096921,2096921, 307736, 391206
2096921,2096921, 307843, 391533
2096921,2096921, 307619, 391316
2096921,2096921, 307802, 391513
2096921,2096921, 307801, 391574
2096921,2096921, 308290, 391647
2096921,2096921, 307934, 391758
2096921,2096921, 307954, 391622
2096921,2096921, 307927, 391724
2096921,2096921, 308077, 391640
2096921,2096921, 308016, 391846
2096921,2096921, 308193, 391909
2096921,2096921, 308154, 391928
2096921,2096921, 308286, 391636
2096921,2096921, 308264, 391882
2096921,2096921, 308411, 391746
2096921,2096921, 308303, 391850
2096921,2096921, 308313, 391586
2096921,2096921, 308326, 391687
2096921,2096921, 308461, 391877
2096921,2096921, 308211, 391882
2096921,2096921, 308561, 392109
2096921,2096921, 308468, 392201
2096921,2096921, 308505, 392029
2096921,2096921, 308510, 391910
2096921,2096921, 308687, 391821
2096921,2096921, 308664, 392223
2096921,2096921, 308771, 392025
2096921,2096921, 308610, 391868
2096921,2096921, 308803, 392031
2096921,2096921, 308852, 392008
2096921,2096921, 308785, 392017
2096921,2096921, 308707, 392232
2096921,2096921, 308797, 392115
2096921,2096921, 308670, 392230
2096921,2096921, 308906, 392127
2096921,2096921, 308924, 392290
2096921,2096921, 309313, 392132
2096921,2096921, 308984, 392013
2096921,2096921, 308958, 391964
2096921,2096921, 308919, 391775
2096921,2096921, 308936, 391979
2096921,2096921, 309066, 392108
2096921,2096921, 308720, 392142
2096921,2096921, 308765, 392272
2096921,2096921, 308899, 392310
2096921,2096921, 309012, 392198
2096921,2096921, 309002, 392064
2096921,2096921, 308972, 392378
2096921,2096921, 309072, 392429
2096921,2096921, 309168, 392526
2096921,2096921, 308987, 392303
2096921,2096921, 309141, 392414
2096921,2096921, 309009, 392606
2096921,2096921, 309206, 392391
2096921,2096921, 309282, 392520
2096921,2096921, 309213, 392209
2096921,2096921, 309071, 392240
2096921,2096921, 309215, 392353
2096921,2096921, 308815, 392183
2096921,2096921, 309159, 392486
2096921,2096921, 309462, 392450
2096921,2096921, 309613, 392446
2096921,2096921, 309275, 392606
2096921,2096921, 309448, 392564
2096921,2096921, 309408, 392609
2096921,2096921, 309400, 392465
2096921,2096921, 309538, 392552
2096921,2096921, 309472, 392429
2096921,2096921, 309453, 392575
2096921,2096921, 309638, 392587
2096921,2096921, 309499, 392826
2096921,2096921, 309640, 392581
2096921,2096921, 309519, 392592
2096921,2096921, 309391, 392716
2096921,2096921, 309595, 392700
2096921,2096921, 309343, 392627
2096921,2096921, 309344, 392686
2096921,2096921, 309489, 392358
2096921,2096921, 309579, 392445
2096921,2096921, 309634, 392553
2096921,2096921, 309793, 392611
2096921,2096921, 309880, 392389
2096921,2096921, 309593, 392516
2096921,2096921, 309474, 392813
2096921,2096921, 309763, 393020
2096921,2096921, 309729, 392642
2096921,2096921, 309946, 392714
2096921,2096921, 309885, 392668
2096921,2096921, 309557, 392697
2096921,2096921, 309506, 392962
2096921,2096921, 309689, 392887
2096921,2096921, 309494, 392847
2096921,2096921, 309605, 392667
2096921,2096921, 309622, 392612
2096921,2096921, 309688, 392509
2096921,2096921, 309719, 392529
2096921,2096921, 309657, 392701
2096921,2096921, 310029, 392813
2096921,2096921, 310093, 392848
2096921,2096921, 310030, 392502
2096921,2096921, 310135, 392904
2096921,2096921, 310070, 392971
2096921,2096921, 310048, 393001
2096921,2096921, 309970, 392836
2096921,2096921, 310122, 392958
2096921,2096921, 310125, 392923
2096921,2096921, 309862, 392972
2096921,2096921, 309915, 392808
2096921,2096921, 309851, 393024
2096921,2096921, 310202, 392807
2096921,2096921, 309960, 392876
2096921,2096921, 310008, 392979
2096921,2096921, 310048, 393022
2096921,2096921, 309961, 392509
2096921,2096921, 310205, 393104
2096921,2096921, 310183, 393029
2096921,2096921, 310273, 392918
2096921,2096921, 310125, 392989
2096921,2096921, 310224, 393134
2096921,2096921, 310216, 393077
2096921,2096921, 310172, 392996
2096921,2096921, 310164, 393071
2096921,2096921, 310436, 393168
2096921,2096921, 310270, 393117
2096921,2096921, 309972, 393277
2096921,2096921, 310131, 393122
2096921,2096921, 310051, 392867
2096921,2096921, 310125, 392806
2096921,2096921, 310273, 392915
2096921,2096921, 310209, 392907
2096921,2096921, 309955, 392977
2096921,2096921, 310177, 393103
2096921,2096921, 310042, 392992
2096921,2096921, 310159, 392901
2096921,2096921, 310456, 393041
2096921,2096921, 310199, 393346
2096921,2096921, 310204, 393154
2096921,2096921, 310226, 392898
2096921,2096921, 310125, 392994
2096921,2096921, 310086, 393239
2096921,2096921, 310170, 393156
2096921,2096921, 309743, 393032
2096921,2096921, 310430, 393300
2096921,2096921, 310357, 393129
2096921,2096921, 310454, 393154
2096921,2096921, 310240, 393035
2096921,2096921, 310197, 393049
2096921,2096921, 310085, 393011
2096921,2096921, 310317, 392907
2096921,2096921, 310241, 392791
2096921,2096921, 309931, 392801
2096921,2096921, 310228, 392930
2096921,2096921, 310168, 393019
2096921,2096921, 310256, 393074
2096921,2096921, 310525, 392997
2096921,2096921, 310066, 392802
2096921,2096921, 310105, 393079
2096921,2096921, 310354, 393065
2096921,2096921, 310292, 393142
2096921,2096921, 310296, 393121
2096921,2096921, 310168, 393179
2096921,2096921, 310101, 393228
2096921,2096921, 310217, 393070
2096921,2096921, 310316, 392868
2096921,2096921, 310351, 393040
2096921,2096921, 310026, 393228
2096921,2096921, 310102, 393200
2096921,2096921, 309849, 393044
2096921,2096921, 310336, 393162
2096921,2096921, 310307, 393085
2096921,2096921, 310327, 393005
2096921,2096921, 310051, 392985
2096921,2096921, 310193, 393143
2096921,2096921, 310257, 392962
2096921,2096921, 310037, 393114
2096921,2096921, 309757, 392716
2096921,2096921, 309620, 392849
2096921,2096921, 309790, 392622
2096921,2096921, 310029, 392969
2096921,2096921, 309633, 392508
2096921,2096921, 309460, 392594
2096921,2096921, 309386, 392451
2096921,2096921, 309508, 392805
2096921,2096921, 309284, 392710
2096921,2096921, 309065, 392046
2096921,2096921, 308897, 392073
2096921,2096921, 308737, 392170
2096921,2096921, 308893, 391978
2096921,2096921, 308939, 392137
2096921,2096921, 308186, 391883
2096921,2096921, 308138, 391710
2096921,2096921, 307993, 391594
2096921,2096921, 308263, 391380
2096921,2096921, 308253, 391469
2096921,2096921, 307470, 391252
2096921,2096921, 307447, 391047
2096921,2096921, 307148, 391226
2096921,2096921, 307125, 390904
2096921,2096921, 307048, 391264
2096921,2096921, 305789, 390261
2096921,2096921, 305494, 389910
2096921,2096921, 305561, 389758
2096921,2096921, 305517, 389888
2096921,2096921, 305457, 389675
2096921,2096921, 303594, 388988
2096921,2096921, 302974, 388617
2096921,2096921, 302845, 388612
2096921,2096921, 303055, 388263
2096921,2096921, 302871, 388388
2096921,2096921, 301529, 387413
2096921,2096921, 301374, 387359
2096921,2096921, 301511, 387349
2096921,2096921, 301246, 387370
2096921,2096921, 301235, 387128
2096921,2096921, 300188, 386633
2096921,2096921, 300144, 386773
2096921,2096921, 299887, 386962
2096921,2096921, 299975, 386449
2096921,2096921, 300182, 386751
2096921,2096921, 299392, 385858
2096921,2096921, 298940, 385764
2096921,2096921, 299040, 385704
2096921,2096921, 299034, 385808
2096921,2096921, 298992, 385710
2096921,2096921, 298374, 385356
2096921,2096921, 298320, 385257
2096921,2096921, 298202, 385197
2096921,2096921, 298322, 385330
2096921,2096921, 298157, 385300
2096921,2096921, 297857, 385052
2096921,2096921, 297685, 384839
2096921,2096921, 297886, 385228
2096921,2096921, 297816, 384987
2096921,2096921, 297795, 384959
2096921,2096921, 297429, 384784
2096921,2096921, 297577, 385027
2096921,2096921, 297611, 384747
2096921,2096921, 297828, 384565
2096921,2096921, 297443, 384900
2096921,2096921, 297451, 385003
2096921,2096921, 297393, 384697
2096921,2096921, 297435, 384845
2096921,2096921, 297274, 384818
2096921,2096921, 297709, 384999
2096921,2096921, 297379, 384650
2096921,2096921, 297307, 384568
2096921,2096921, 297179, 384861
2096921,2096921, 297402, 385002
2096921,2096921, 297478, 384761
2096921,2096921, 297664, 384764
2096921,2096921, 297627, 384757
2096921,2096921, 297530, 384743
2096921,2096921, 297732, 384972
2096921,2096921, 297474, 385111
2096921,2096921, 297862, 385097
2096921,2096921, 297965, 385108
2096921,2096921, 297769, 385078
2096921,2096921, 297777, 385118
2096921,2096921, 297587, 384967
2096921,2096921, 297883, 384969
2096921,2096921, 297951, 384906
2096921,2096921, 298004, 385244
2096921,2096921, 297932, 385063
2096921,2096921, 297909, 385125
2096921,2096921, 297802, 385175
2096921,2096921, 298049, 385259
2096921,2096921, 298062, 385350
2096921,2096921, 298172, 385245
2096921,2096921, 297969, 385269
2096921,2096921, 298495, 385198
2096921,2096921, 298615, 385616
2096921,2096921, 298710, 385640
2096921,2096921, 298540, 385638
2096921,2096921, 298551, 385622
2096921,2096921, 298777, 386016
2096921,2096921, 299068, 385694
2096921,2096921, 299246, 385940
2096921,2096921, 299106, 385781
2096921,2096921, 298777, 385510
2096921,2096921, 299308, 385982
2096921,2096921, 299261, 386161
2096921,2096921, 299211, 386426
2096921,2096921, 299094, 386052
2096921,2096921, 299226, 386090
2096921,2096921, 299706, 386036
2096921,2096921, 300082, 386443
2096921,2096921, 299866, 386190
2096921,2096921, 299901, 386346
2096921,2096921, 299904, 386472
2096921,2096921, 300150, 386544
2096921,2096921, 300255, 386552
2096921,2096921, 300053, 386739
2096921,2096921, 300097, 386562
2096921,2096921, 300086, 386673
2096921,2096921, 300431, 386824
2096921,2096921, 300375, 386807
2096921,2096921, 300374, 386927
2096921,2096921, 300498, 386837
2096921,2096921, 300634, 386547
2096921,2096921, 300983, 386823
2096921,2096921, 301164, 387081
2096921,2096921, 301154, 387197
2096921,2096921, 300945, 387117
2096921,2096921, 301202, 387075
2096921,2096921, 301314, 387272
2096921,2096921, 301400, 387359
2096921,2096921, 301313, 387166
2096921,2096921, 301287, 387085
2096921,2096921, 301263, 387168
2096921,2096921, 301622, 387238
2096921,2096921, 301899, 387515
2096921,2096921, 301806, 387681
2096921,2096921, 301607, 387739
2096921,2096921, 301778, 387690
2096921,2096921, 301910, 388130
2096921,2096921, 302266, 387850
2096921,2096921, 302282, 387894
2096921,2096921, 302335, 387950
2096921,2096921, 302284, 387799
2096921,2096921, 302445, 387906
2096921,2096921, 302632, 388174
2096921,2096921, 302567, 388189
2096921,2096921, 302596, 387916
2096921,2096921, 302633, 387877
2096921,2096921, 302819, 388442
2096921,2096921, 302767, 388437
2096921,2096921, 302848, 388297
2096921,2096921, 302995, 388133
2096921,2096921, 303043, 388023
2096921,2096921, 303474, 388394
2096921,2096921, 303430, 388344
2096921,2096921, 303372, 388752
2096921,2096921, 303327, 388616
2096921,2096921, 303576, 388676
2096921,2096921, 303532, 388793
2096921,2096921, 303562, 388844
2096921,2096921, 303382, 388538
2096921,2096921, 303247, 388565
2096921,2096921, 303137, 388652
2096921,2096921, 303486, 388499
2096921,2096921, 303342, 388645
2096921,2096921, 303578, 388894
2096921,2096921, 303610, 388748
2096921,2096921, 303752, 388779
2096921,2096921, 304012, 389043
2096921,2096921, 304034, 388788
2096921,2096921, 303872, 388891
2096921,2096921, 303911, 389095
2096921,2096921, 303788, 389007
2096921,2096921, 304006, 388654
2096921,2096921, 304025, 388820
2096921,2096921, 303746, 388974
2096921,2096921, 303841, 388743
2096921,2096921, 303776, 389026
2096921,2096921, 304015, 388855
2096921,2096921, 303721, 388970
2096921,2096921, 303853, 388782
2096921,2096921, 303981, 389129
2096921,2096921, 303759, 388995
2096921,2096921, 303808, 389051
2096921,2096921, 303469, 388788
2096921,2096921, 303628, 388711
2096921,2096921, 303675, 388704
2096921,2096921, 303545, 388988
2096921,2096921, 303600, 388995
2096921,2096921, 303232, 388689
2096921,2096921, 303698, 388866
2096921,2096921, 303686, 388732
2096921,2096921, 303500, 388827
2096921,2096921, 303322, 388755
2096921,2096921, 303167, 388561
2096921,2096921, 303400, 388432
2096921,2096921, 303558, 388491
2096921,2096921, 303303, 388527
2096921,2096921, 303286, 388452
2096921,2096921, 303384, 388490
2096921,2096921, 303402, 388415
2096921,2096921, 303287, 388379
2096921,2096921, 303295, 388577
2096921,2096921, 303389, 388583
2096921,2096921, 303277, 388705
2096921,2096921, 303205, 388679
2096921,2096921, 303281, 388590
2096921,2096921, 303478, 388644
2096921,2096921, 303413, 388384
2096921,2096921, 303197, 388378
2096921,2096921, 302959, 388463
2096921,2096921, 303163, 388383
2096921,2096921, 303064, 388243
2096921,2096921, 303021, 388429
2096921,2096921, 303218, 388359
2096921,2096921, 303464, 388382
2096921,2096921, 303217, 388539
2096921,2096921, 303190, 388677
2096921,2096921, 303235, 388842
2096921,2096921, 303288, 388986
2096921,2096921, 303204, 388329
2096921,2096921, 303342, 388636
2096921,2096921, 303040, 388345
2096921,2096921, 303225, 388420
2096921,2096921, 303475, 388515
2096921,2096921, 303340, 388550
2096921,2096921, 303550, 388700
2096921,2096921, 303119, 388490
2096921,2096921, 303635, 388645
2096921,2096921, 303366, 388790
2096921,2096921, 303361, 388507
2096921,2096921, 303475, 388786
2096921,2096921, 303227, 388436
2096921,2096921, 303646, 388876
2096921,2096921, 303756, 388761
2096921,2096921, 303667, 389095
2096921,2096921, 303764, 388756
2096921,2096921, 303684, 389085
2096921,2096921, 304005, 389003
2096921,2096921, 304038, 389137
2096921,2096921, 304124, 388947
2096921,2096921, 304279, 388930
2096921,2096921, 304008, 388990
2096921,2096921, 304323, 389093
2096921,2096921, 304622, 389173
2096921,2096921, 304804, 389578
2096921,2096921, 304637, 389504
2096921,2096921, 304647, 389201
2096921,2096921, 304975, 389532
2096921,2096921, 304594, 389480
2096921,2096921, 304630, 389378
2096921,2096921, 304913, 389577
2096921,2096921, 304759, 389412
2096921,2096921, 304566, 389519
2096921,2096921, 304706, 389424
2096921,2096921, 304845, 389575
2096921,2096921, 304801, 389468
2096921,2096921, 304781, 389406
2096921,2096921, 304927, 389651
2096921,2096921, 304981, 389763
2096921,2096921, 305236, 389507
2096921,2096921, 305099, 389762
2096921,2096921, 305159, 389715
2096921,2096921, 305167, 389784
2096921,2096921, 305480, 389594
2096921,2096921, 305356, 389946
2096921,2096921, 305319, 390136
2096921,2096921, 305441, 390003
2096921,2096921, 305358, 389727
2096921,2096921, 305423, 389997
2096921,2096921, 305408, 390186
2096921,2096921, 305373, 390189
2096921,2096921, 305355, 390101
2096921,2096921, 306009, 390308
2096921,2096921, 305693, 390194
2096921,2096921, 305817, 390301
2096921,2096921, 305770, 390163
2096921,2096921, 305978, 390204
2096921,2096921, 305972, 390487
2096921,2096921, 306173, 390375
2096921,2096921, 306136, 390222
2096921,2096921, 306281, 390586
2096921,2096921, 306133, 390296
2096921,2096921, 306428, 390510
2096921,2096921, 306260, 390318
2096921,2096921, 306173, 390564
2096921,2096921, 306231, 390438
2096921,2096921, 306243, 390649
2096921,2096921, 306494, 390386
2096921,2096921, 306350, 390817
2096921,2096921, 306736, 390386
2096921,2096921, 306528, 390450
2096921,2096921, 306542, 390714
2096921,2096921, 306864, 390751
2096921,2096921, 306778, 390761
2096921,2096921, 306838, 391232
2096921,2096921, 306768, 390773
2096921,2096921, 306616, 390738
2096921,2096921, 307236, 390820
2096921,2096921, 307027, 390882
2096921,2096921, 306730, 390893
2096921,2096921, 306694, 390572
2096921,2096921, 306664, 390839
2096921,2096921, 306711, 390842
2096921,2096921, 306864, 390668
2096921,2096921, 307169, 390981
2096921,2096921, 307087, 390918
2096921,2096921, 307144, 391074
2096921,2096921, 307435, 391131
2096921,2096921, 307517, 391062
2096921,2096921, 307558, 390949
2096921,2096921, 307359, 391197
2096921,2096921, 307036, 391230
2096921,2096921, 307257, 391223
2096921,2096921, 307511, 391238
2096921,2096921, 307438, 391275
2096921,2096921, 307463, 391307
2096921,2096921, 307548, 391350
2096921,2096921, 307528, 391390
2096921,2096921, 307674, 391387
2096921,2096921, 307729, 391245
2096921,2096921, 307624, 391314
2096921,2096921, 307788, 391202
2096921,2096921, 308155, 391615
2096921,2096921, 308017, 391615
2096921,2096921, 307990, 391712
2096921,2096921, 307735, 391301
2096921,2096921, 307703, 391751
2096921,2096921, 307711, 391641
2096921,2096921, 307782, 391380
2096921,2096921, 307747, 391244
2096921,2096921, 307856, 391540
2096921,2096921, 307962, 391594
2096921,2096921, 308167, 391766
2096921,2096921, 308243, 391723
2096921,2096921, 308025, 391952
2096921,2096921, 308191, 391831
2096921,2096921, 308211, 391750
2096921,2096921, 308511, 391584
2096921,2096921, 308300, 391810
2096921,2096921, 308183, 391855
2096921,2096921, 307993, 391756
2096921,2096921, 308010, 391705
2096921,2096921, 308407, 391818
2096921,2096921, 308746, 391712
2096921,2096921, 308322, 391963
2096921,2096921, 308395, 391790
2096921,2096921, 308491, 391960
2096921,2096921, 308780, 391867
2096921,2096921, 308699, 391870
2096921,2096921, 308555, 392040
2096921,2096921, 308644, 392074
2096921,2096921, 308525, 392094
2096921,2096921, 308651, 391833
2096921,2096921, 308854, 391987
2096921,2096921, 309099, 392168
2096921,2096921, 308804, 392034
2096921,2096921, 309022, 392232
2096921,2096921, 308715, 391909
2096921,2096921, 308958, 392254
2096921,2096921, 308643, 392080
2096921,2096921, 308662, 392013
2096921,2096921, 308621, 391985
2096921,2096921, 308773, 391973
2096921,2096921, 308760, 392314
2096921,2096921, 309150, 392417
2096921,2096921, 309183, 392212
2096921,2096921, 308995, 392348
2096921,2096921, 309100, 392092
2096921,2096921, 309047, 392509
2096921,2096921, 308911, 392433
2096921,2096921, 308841, 392506
2096921,2096921, 308986, 392210
2096921,2096921, 309333, 392452
2096921,2096921, 309166, 392344
2096921,2096921, 309079, 392166
2096921,2096921, 309113, 392332
2096921,2096921, 309282, 392451
2096921,2096921, 308985, 392512
2096921,2096921, 309050, 392229
2096921,2096921, 309250, 392209
2096921,2096921, 308981, 392253
2096921,2096921, 309268, 392261
2096921,2096921, 309252, 392389
2096921,2096921, 309516, 392344
2096921,2096921, 309297, 392465
2096921,2096921, 309591, 392437
2096921,2096921, 309324, 392418
2096921,2096921, 309400, 392435
2096921,2096921, 309451, 392797
2096921,2096921, 309525, 392347
2096921,2096921, 309230, 392252
2096921,2096921, 309295, 392322
2096921,2096921, 309469, 392830
2096921,2096921, 309226, 392546
2096921,2096921, 309370, 392638
2096921,2096921, 309646, 392437
2096921,2096921, 309547, 392605
2096921,2096921, 309805, 392813
2096921,2096921, 309454, 392769
2096921,2096921, 309541, 392630
2096921,2096921, 309622, 392662
2096921,2096921, 309620, 392376
2096921,2096921, 309636, 392506
2096921,2096921, 309893, 392896
2096921,2096921, 309704, 392916
2096921,2096921, 309825, 392587
2096921,2096921, 309569, 392485
2096921,2096921, 309637, 392450
2096921,2096921, 309788, 392728
2096921,2096921, 309489, 392520
2096921,2096921, 309557, 392514
2096921,2096921, 309594, 392773
2096921,2096921, 309822, 392732
2096921,2096921, 309725, 392870
2096921,2096921, 309944, 392730
2096921,2096921, 309797, 392631
2096921,2096921, 310087, 392995
2096921,2096921, 309932, 393064
2096921,2096921, 309775, 392840
2096921,2096921, 309865, 392687
2096921,2096921, 309808, 392597
2096921,2096921, 309705, 392663
2096921,2096921, 309825, 392519
2096921,2096921, 310019, 393045
2096921,2096921, 309811, 393181
2096921,2096921, 309972, 393066
2096921,2096921, 309920, 393148
2096921,2096921, 309899, 393177
2096921,2096921, 310054, 393198
2096921,2096921, 310030, 393103
2096921,2096921, 310046, 393005
2096921,2096921, 310121, 393001
2096921,2096921, 309991, 393103
2096921,2096921, 310143, 392812
2096921,2096921, 309950, 392963
2096921,2096921, 310211, 392881
2096921,2096921, 310146, 392987
2096921,2096921, 310147, 392918
2096921,2096921, 310013, 393183
2096921,2096921, 310116, 392850
2096921,2096921, 309807, 392882
2096921,2096921, 309801, 392955
2096921,2096921, 309949, 392902
2096921,2096921, 310171, 393146
2096921,2096921, 310201, 392876
2096921,2096921, 310197, 393159
2096921,2096921, 310372, 393132
2096921,2096921, 310426, 392991
2096921,2096921, 310234, 392970
2096921,2096921, 310248, 392988
2096921,2096921, 310385, 393237
2096921,2096921, 310430, 392829
2096921,2096921, 310033, 392857
2096921,2096921, 310370, 393351
2096921,2096921, 310110, 393192
2096921,2096921, 310148, 392979
2096921,2096921, 310150, 393059
2096921,2096921, 310149, 392959
2096921,2096921, 310441, 393299
2096921,2096921, 310276, 393150
2096921,2096921, 310059, 392832
2096921,2096921, 310270, 393097
2096921,2096921, 310211, 392942
2096921,2096921, 310220, 393020
2096921,2096921, 310203, 393070
2096921,2096921, 310265, 392958
2096921,2096921, 310247, 393083
2096921,2096921, 310354, 393036
2096921,2096921, 310094, 393130
2096921,2096921, 310312, 393113
2096921,2096921, 310234, 393175
2096921,2096921, 310215, 393151
2096921,2096921, 310165, 393081
2096921,2096921, 310312, 392953
2096921,2096921, 310083, 392990
2096921,2096921, 310256, 392887
2096921,2096921, 310156, 393086
2096921,2096921, 310174, 392932
2096921,2096921, 310384, 393229
2096921,2096921, 310415, 392932
2096921,2096921, 310424, 393096
2096921,2096921, 310483, 393040
2096921,2096921, 310442, 393352
2096921,2096921, 310498, 392939
2096921,2096921, 310205, 392984
2096921,2096921, 310304, 393102
2096921,2096921, 310329, 393420
2096921,2096921, 310511, 393089
2096921,2096921, 310184, 393070
2096921,2096921, 310256, 392955
2096921,2096921, 310213, 393014
2096921,2096921, 310304, 392977
2096921,2096921, 310375, 393149
2096921,2096921, 310177, 393122
2096921,2096921, 310250, 393177
2096921,2096921, 310428, 393018
2096921,2096921, 310234, 393145
2096921,2096921, 310133, 392824
2096921,2096921, 310125, 392680
2096921,2096921, 309975, 392714
2096921,2096921, 309878, 393247
2096921,2096921, 309783, 392764
2096921,2096921, 309402, 392657
2096921,2096921, 309559, 392548
2096921,2096921, 309284, 392547
2096921,2096921, 309704, 392432
2096921,2096921, 309320, 392612
2096921,2096921, 308767, 392210
2096921,2096921, 308742, 391981
2096921,2096921, 308879, 392051
2096921,2096921, 308767, 392122
2096921,2096921, 308740, 392156
2096921,2096921, 308229, 391706
2096921,2096921, 308229, 391776
2096921,2096921, 308175, 391512
2096921,2096921, 308273, 391871
2096921,2096921, 308120, 391929
2096921,2096921, 307508, 391813
2096921,2096921, 307324, 391277
2096921,2096921, 307315, 391229
2096921,2096921, 307222, 391289
2096921,2096921, 307210, 391137
2096921,2096921, 305782, 390128
2096921,2096921, 305275, 390148
2096921,2096921, 305526, 390089
2096921,2096921, 305493, 390026
2096921,2096921, 305282, 390068
2096921,2096921, 303656, 388725
2096921,2096921, 303344, 388644
2096921,2096921, 303202, 388643
2096921,2096921, 303296, 388435
2096921,2096921, 303181, 388483
2096921,2096921, 301723, 387664
2096921,2096921, 301725, 387227
2096921,2096921, 301449, 387231
2096921,2096921, 301569, 387090
2096921,2096921, 301334, 387355
2096921,2096921, 300345, 386555
2096921,2096921, 300138, 386383
2096921,2096921, 300033, 386412
2096921,2096921, 300341, 386553
2096921,2096921, 300394, 386681
2096921,2096921, 299270, 386076
2096921,2096921, 299510, 385875
2096921,2096921, 299169, 385807
2096921,2096921, 299299, 385659
2096921,2096921, 299287, 385780
2096921,2096921, 298642, 385058
2096921,2096921, 298181, 385264
2096921,2096921, 298356, 385232
2096921,2096921, 298228, 385261
2096921,2096921, 298384, 385193
2096921,2096921, 297836, 384960
2096921,2096921, 298213, 385060
2096921,2096921, 298098, 385410
2096921,2096921, 297817, 385359
2096921,2096921, 297766, 385074
2096921,2096921, 297324, 385292
2096921,2096921, 297458, 385063
2096921,2096921, 297513, 384915
2096921,2096921, 297438, 384725
2096921,2096921, 297138, 384858
2096921,2096921, 296973, 384640
2096921,2096921, 297545, 384726
2096921,2096921, 297396, 384873
2096921,2096921, 297369, 384381
2096921,2096921, 297536, 384685
2096921,2096921, 297496, 384767
2096921,2096921, 297525, 384852
2096921,2096921, 297528, 384752
2096921,2096921, 297587, 384866
2096921,2096921, 297345, 384909
2096921,2096921, 297487, 384871
2096921,2096921, 297375, 384780
2096921,2096921, 297805, 384756
2096921,2096921, 297746, 384832
2096921,2096921, 297160, 384761
2096921,2096921, 297511, 384737
2096921,2096921, 297523, 384755
2096921,2096921, 297776, 384863
2096921,2096921, 297459, 384975
2096921,2096921, 297707, 385009
2096921,2096921, 297702, 385045
2096921,2096921, 297930, 384956
2096921,2096921, 297768, 384919
2096921,2096921, 298094, 385187
2096921,2096921, 297894, 384713
2096921,2096921, 298419, 385137
2096921,2096921, 298286, 385111
2096921,2096921, 298188, 385153
2096921,2096921, 298021, 385096
2096921,2096921, 298057, 385119
2096921,2096921, 298554, 385429
2096921,2096921, 298769, 385569
2096921,2096921, 298598, 385370
2096921,2096921, 298645, 385625
2096921,2096921, 298856, 385752
2096921,2096921, 299231, 385853
2096921,2096921, 299410, 385623
2096921,2096921, 299227, 386091
2096921,2096921, 298965, 385905
2096921,2096921, 298886, 385702
2096921,2096921, 299289, 385883
2096921,2096921, 299473, 385944
2096921,2096921, 299422, 386232
2096921,2096921, 299549, 386155
2096921,2096921, 299581, 386134
2096921,2096921, 299942, 386200
2096921,2096921, 299664, 386179
2096921,2096921, 299772, 386143
2096921,2096921, 299976, 386363
2096921,2096921, 300110, 386564
2096921,2096921, 300198, 386468
2096921,2096921, 300357, 386407
2096921,2096921, 300304, 386576
2096921,2096921, 300262, 386610
2096921,2096921, 300190, 386687
2096921,2096921, 300334, 386817
2096921,2096921, 300642, 386739
2096921,2096921, 300505, 386545
2096921,2096921, 300581, 386649
2096921,2096921, 300490, 386827
2096921,2096921, 300957, 386813
2096921,2096921, 301170, 387042
2096921,2096921, 301168, 387163
2096921,2096921, 301115, 387313
2096921,2096921, 300997, 387128
2096921,2096921, 301183, 387494
2096921,2096921, 301372, 387277
2096921,2096921, 301557, 387414
2096921,2096921, 301454, 387379
2096921,2096921, 301212, 387278
2096921,2096921, 301516, 387414
2096921,2096921, 301552, 387589
2096921,2096921, 301625, 387502
2096921,2096921, 301622, 387475
2096921,2096921, 301950, 387376
2096921,2096921, 302208, 387901
2096921,2096921, 302408, 387900
2096921,2096921, 302298, 387972
2096921,2096921, 302355, 388089
2096921,2096921, 302263, 388235
2096921,2096921, 302736, 388228
2096921,2096921, 302683, 388236
2096921,2096921, 302600, 388091
2096921,2096921, 302705, 388059
2096921,2096921, 302552, 388033
2096921,2096921, 303134, 388353
2096921,2096921, 303003, 388383
2096921,2096921, 302898, 388428
2096921,2096921, 302794, 388497
2096921,2096921, 303146, 388571
2096921,2096921, 303290, 388360
2096921,2096921, 303439, 388702
2096921,2096921, 303356, 388366
2096921,2096921, 303466, 388667
2096921,2096921, 303332, 388576
2096921,2096921, 303511, 388924
2096921,2096921, 303724, 388722
2096921,2096921, 303454, 388674
2096921,2096921, 303300, 388637
2096921,2096921, 303599, 388668
2096921,2096921, 303653, 388510
2096921,2096921, 303420, 388668
2096921,2096921, 303433, 388837
2096921,2096921, 303755, 389057
2096921,2096921, 303576, 388805
2096921,2096921, 303801, 389181
2096921,2096921, 303810, 388860
2096921,2096921, 304106, 388825
2096921,2096921, 303777, 388939
2096921,2096921, 303485, 388981
2096921,2096921, 303771, 388799
2096921,2096921, 303666, 388871
2096921,2096921, 303656, 388669
2096921,2096921, 303564, 388654
2096921,2096921, 303814, 388697
2096921,2096921, 303758, 388725
2096921,2096921, 303668, 388743
2096921,2096921, 303861, 388673
2096921,2096921, 303938, 388930
2096921,2096921, 303934, 389137
2096921,2096921, 303889, 388715
2096921,2096921, 303752, 388977
2096921,2096921, 303825, 388755
2096921,2096921, 303780, 389060
2096921,2096921, 303743, 388778
2096921,2096921, 303448, 388647
2096921,2096921, 303214, 388572
2096921,2096921, 303584, 388697
2096921,2096921, 303222, 388592
2096921,2096921, 303444, 388541
2096921,2096921, 303448, 388394
2096921,2096921, 303658, 388612
2096921,2096921, 303490, 388369
2096921,2096921, 303644, 388486
2096921,2096921, 303549, 388990
2096921,2096921, 303597, 388956
2096921,2096921, 303394, 388786
2096921,2096921, 303179, 388545
2096921,2096921, 303140, 388761
2096921,2096921, 303294, 388714
2096921,2096921, 303323, 388416
2096921,2096921, 303269, 388357
2096921,2096921, 303358, 388581
2096921,2096921, 303292, 388599
2096921,2096921, 302897, 388601
2096921,2096921, 303138, 388611
2096921,2096921, 303398, 388494
2096921,2096921, 303318, 388610
2096921,2096921, 303187, 388557
2096921,2096921, 303095, 388456
2096921,2096921, 303098, 388558
2096921,2096921, 303226, 388595
2096921,2096921, 303338, 388547
2096921,2096921, 303310, 388567
2096921,2096921, 303245, 388338
2096921,2096921, 303136, 388579
2096921,2096921, 303351, 388264
2096921,2096921, 303107, 388519
2096921,2096921, 303283, 388402
2096921,2096921, 303309, 388300
2096921,2096921, 303176, 388742
2096921,2096921, 303463, 388593
2096921,2096921, 303208, 388705
2096921,2096921, 303542, 388690
2096921,2096921, 303292, 388427
2096921,2096921, 303197, 388708
2096921,2096921, 303259, 388985
2096921,2096921, 303537, 388479
2096921,2096921, 303555, 388656
2096921,2096921, 303300, 388890
2096921,2096921, 303595, 388968
2096921,2096921, 303690, 389161
2096921,2096921, 303731, 388833
2096921,2096921, 303754, 388952
2096921,2096921, 303731, 388974
2096921,2096921, 303859, 389173
2096921,2096921, 304066, 388978
2096921,2096921, 303912, 389162
2096921,2096921, 304033, 389281
2096921,2096921, 304040, 388959
2096921,2096921, 304315, 389307
2096921,2096921, 304465, 389491
2096921,2096921, 304474, 389299
2096921,2096921, 304327, 389188
2096921,2096921, 304209, 388995
2096921,2096921, 304648, 389579
2096921,2096921, 304449, 389720
2096921,2096921, 304721, 389308
2096921,2096921, 304607, 389499
2096921,2096921, 304663, 389322
2096921,2096921, 304885, 389458
2096921,2096921, 305022, 389873
2096921,2096921, 305031, 389557
2096921,2096921, 305118, 389670
2096921,2096921, 304858, 389771
2096921,2096921, 305097, 389918
2096921,2096921, 304950, 389763
2096921,2096921, 305170, 389588
2096921,2096921, 304884, 389599
2096921,2096921, 304835, 389649
2096921,2096921, 305270, 389591
2096921,2096921, 305164, 389850
2096921,2096921, 305340, 390018
2096921,2096921, 305519, 390032
2096921,2096921, 305338, 389929
2096921,2096921, 305685, 390194
2096921,2096921, 305616, 390137
2096921,2096921, 305633, 389935
2096921,2096921, 305718, 389884
2096921,2096921, 305614, 389733
2096921,2096921, 305722, 390249
2096921,2096921, 305828, 390296
2096921,2096921, 306060, 390185
2096921,2096921, 305880, 390099
2096921,2096921, 305869, 389977
2096921,2096921, 305903, 390317
2096921,2096921, 306077, 390239
2096921,2096921, 305971, 390321
2096921,2096921, 306064, 390476
2096921,2096921, 306007, 390595
2096921,2096921, 306076, 390412
2096921,2096921, 306393, 390699
2096921,2096921, 306404, 390585
2096921,2096921, 306259, 390663
2096921,2096921, 306286, 390625
2096921,2096921, 306693, 390500
2096921,2096921, 306502, 390521
2096921,2096921, 306564, 390775
2096921,2096921, 306206, 390746
2096921,2096921, 306394, 390515
2096921,2096921, 306623, 390497
2096921,2096921, 306757, 390624
2096921,2096921, 306446, 390344
2096921,2096921, 306640, 390632
2096921,2096921, 307010, 390838
2096921,2096921, 306938, 390813
2096921,2096921, 307029, 390719
2096921,2096921, 307086, 390739
2096921,2096921, 306976, 390922
2096921,2096921, 306977, 390892
2096921,2096921, 307117, 391022
2096921,2096921, 307132, 390688
2096921,2096921, 307081, 391092
2096921,2096921, 307121, 391077
2096921,2096921, 306934, 391014
2096921,2096921, 306948, 391022
2096921,2096921, 307376, 391136
2096921,2096921, 307310, 391209
2096921,2096921, 307352, 391040
2096921,2096921, 307289, 391013
2096921,2096921, 307680, 391211
2096921,2096921, 307537, 391433
2096921,2096921, 307474, 391508
2096921,2096921, 307622, 391550
2096921,2096921, 307730, 391171
2096921,2096921, 307622, 391258
2096921,2096921, 307734, 391127
2096921,2096921, 307428, 391415
2096921,2096921, 307493, 391339
2096921,2096921, 307566, 391541
2096921,2096921, 307827, 391431
2096921,2096921, 307741, 391541
2096921,2096921, 307826, 391575
2096921,2096921, 308018, 391348
2096921,2096921, 307973, 391362
2096921,2096921, 308065, 391526
2096921,2096921, 308059, 391696
2096921,2096921, 307926, 391616
2096921,2096921, 308009, 391647
2096921,2096921, 307790, 391684
2096921,2096921, 308449, 391673
2096921,2096921, 308260, 391741
2096921,2096921, 308131, 391982
2096921,2096921, 308281, 391948
2096921,2096921, 308222, 391829
2096921,2096921, 308253, 391737
2096921,2096921, 308461, 391858
2096921,2096921, 308124, 391917
2096921,2096921, 308262, 391831
2096921,2096921, 308322, 392008
2096921,2096921, 308408, 391846
2096921,2096921, 308583, 391640
2096921,2096921, 308516, 391714
2096921,2096921, 308211, 391977
2096921,2096921, 308402, 392053
2096921,2096921, 308585, 391877
2096921,2096921, 308730, 391709
2096921,2096921, 308696, 392021
2096921,2096921, 308466, 392031
2096921,2096921, 308637, 392213
2096921,2096921, 308501, 392327
2096921,2096921, 308810, 392245
2096921,2096921, 308990, 392483
2096921,2096921, 309010, 392286
2096921,2096921, 308885, 392461
2096921,2096921, 309009, 392434
2096921,2096921, 309076, 392328
2096921,2096921, 309089, 392291
2096921,2096921, 309207, 392143
2096921,2096921, 308735, 392302
2096921,2096921, 308846, 392039
2096921,2096921, 308872, 392258
2096921,2096921, 308842, 392390
2096921,2096921, 308906, 392409
2096921,2096921, 309298, 392405
2096921,2096921, 309159, 392284
2096921,2096921, 309140, 392389
2096921,2096921, 309007, 392502
2096921,2096921, 309098, 392301
2096921,2096921, 309378, 392535
2096921,2096921, 309395, 392615
2096921,2096921, 309261, 392585
2096921,2096921, 309378, 392407
2096921,2096921, 309407, 392362
2096921,2096921, 309391, 392533
2096921,2096921, 308909, 392549
2096921,2096921, 309107, 392271
2096921,2096921, 309122, 392154
2096921,2096921, 309446, 392524
2096921,2096921, 309212, 392490
2096921,2096921, 309501, 392289
2096921,2096921, 309515, 392404
2096921,2096921, 309422, 392540
2096921,2096921, 309710, 392478
2096921,2096921, 309272, 392707
2096921,2096921, 309522, 392755
2096921,2096921, 309412, 392785
2096921,2096921, 309246, 392696
2096921,2096921, 309240, 392681
2096921,2096921, 309582, 392526
2096921,2096921, 309748, 392327
2096921,2096921, 309670, 392556
2096921,2096921, 309737, 392597
2096921,2096921, 309485, 392463
2096921,2096921, 309733, 392775
2096921,2096921, 309482, 392570
2096921,2096921, 309626, 392732
2096921,2096921, 309320, 392647
2096921,2096921, 309583, 392716
2096921,2096921, 309726, 392605
2096921,2096921, 309970, 392799
2096921,2096921, 309884, 393061
2096921,2096921, 309839, 393018
2096921,2096921, 309811, 393010
2096921,2096921, 309576, 392867
2096921,2096921, 309749, 392804
2096921,2096921, 309814, 392995
2096921,2096921, 309625, 392593
2096921,2096921, 309764, 392647
2096921,2096921, 309826, 392454
2096921,2096921, 309986, 392749
2096921,2096921, 310066, 392755
2096921,2096921, 309808, 392636
2096921,2096921, 309942, 392666
2096921,2096921, 309841, 392691
2096921,2096921, 309794, 392481
2096921,2096921, 309992, 393201
2096921,2096921, 310281, 392799
2096921,2096921, 309831, 392858
2096921,2096921, 309599, 392798
2096921,2096921, 309977, 393042
2096921,2096921, 310216, 392974
2096921,2096921, 310293, 392907
2096921,2096921, 309976, 392803
2096921,2096921, 309918, 392806
2096921,2096921, 309968, 392678
2096921,2096921, 310214, 392974
2096921,2096921, 310020, 392925
2096921,2096921, 309868, 392873
2096921,2096921, 309998, 392762
2096921,2096921, 310053, 393183
2096921,2096921, 310273, 393193
2096921,2096921, 310277, 392953
2096921,2096921, 310142, 393031
2096921,2096921, 310170, 392869
2096921,2096921, 310106, 392827
2096921,2096921, 310192, 393237
2096921,2096921, 310193, 392821
2096921,2096921, 310175, 392744
2096921,2096921, 310063, 392753
2096921,2096921, 310194, 393161
2096921,2096921, 309979, 392957
2096921,2096921, 310471, 392905
2096921,2096921, 310137, 393022
2096921,2096921, 310171, 393059
2096921,2096921, 310128, 393004
2096921,2096921, 310094, 393034
2096921,2096921, 309960, 392830
2096921,2096921, 310107, 392975
2096921,2096921, 310221, 392870
2096921,2096921, 310581, 393022
2096921,2096921, 310265, 393047
2096921,2096921, 310603, 393206
2096921,2096921, 310256, 393113
2096921,2096921, 310272, 393120
2096921,2096921, 310315, 393023
2096921,2096921, 310324, 393248
2096921,2096921, 310308, 393079
2096921,2096921, 310269, 393015
2096921,2096921, 310159, 392865
2096921,2096921, 310288, 393117
2096921,2096921, 310130, 393192
2096921,2096921, 310081, 393069
2096921,2096921, 310199, 392992
2096921,2096921, 310267, 392905
2096921,2096921, 310000, 392774
2096921,2096921, 310261, 393000
2096921,2096921, 310190, 393154
2096921,2096921, 310206, 393326
2096921,2096921, 310223, 393208
2096921,2096921, 310158, 393105
2096921,2096921, 310242, 393163
2096921,2096921, 310231, 393268
2096921,2096921, 310217, 393227
2096921,2096921, 310173, 393190
2096921,2096921, 310151, 393242
2096921,2096921, 310245, 393160
2096921,2096921, 310222, 392932
2096921,2096921, 310366, 392906
2096921,2096921, 309950, 392923
2096921,2096921, 310017, 393110
2096921,2096921, 310197, 393102
2096921,2096921, 310287, 393301
2096921,2096921, 310266, 393206
2096921,2096921, 310106, 393519
2096921,2096921, 310499, 393128
2096921,2096921, 310396, 393336
2096921,2096921, 310305, 393066
