2096921,2096921, 313653, 458813
2096921,2096921, 313255, 458688
2096921,2096921, 313438, 458450
2096921,2096921, 313601, 458960
2096921,2096921, 313735, 458972
2096921,2096921, 313677, 458865
2096921,2096921, 313655, 459128
2096921,2096921, 313923, 458846
2096921,2096921, 314090, 458953
2096921,2096921, 314177, 459257
2096921,2096921, 314006, 459289
2096921,2096921, 314007, 458999
2096921,2096921, 314251, 459241
2096921,2096921, 314420, 459591
2096921,2096921, 314506, 459612
2096921,2096921, 314281, 459469
2096921,2096921, 314367, 459547
2096921,2096921, 314458, 459532
2096921,2096921, 314550, 459712
2096921,2096921, 314674, 459967
2096921,2096921, 314761, 459677
2096921,2096921, 314889, 459664
2096921,2096921, 314841, 459715
2096921,2096921, 315037, 460351
2096921,2096921, 315044, 460060
2096921,2096921, 315024, 460022
2096921,2096921, 314847, 459971
2096921,2096921, 315171, 460051
2096921,2096921, 315129, 460585
2096921,2096921, 315292, 460574
2096921,2096921, 315444, 460253
2096921,2096921, 315438, 460409
2096921,2096921, 315625, 460316
2096921,2096921, 315521, 460232
2096921,2096921, 315476, 460538
2096921,2096921, 315601, 460267
2096921,2096921, 315368, 460523
2096921,2096921, 315864, 460535
2096921,2096921, 315794, 460799
2096921,2096921, 315749, 461357
2096921,2096921, 315605, 461121
2096921,2096921, 315683, 460695
2096921,2096921, 316061, 460806
2096921,2096921, 315888, 460945
2096921,2096921, 315849, 460947
2096921,2096921, 315988, 460880
2096921,2096921, 316008, 461111
2096921,2096921, 316140, 461080
2096921,2096921, 316497, 461397
2096921,2096921, 316147, 461421
2096921,2096921, 316073, 461387
2096921,2096921, 316321, 461080
2096921,2096921, 316413, 461042
2096921,2096921, 316195, 461104
2096921,2096921, 316302, 461090
2096921,2096921, 316493, 461377
2096921,2096921, 316660, 461367
2096921,2096921, 316748, 461576
2096921,2096921, 316711, 461638
2096921,2096921, 316625, 462040
2096921,2096921, 316705, 461718
2096921,2096921, 316591, 461853
2096921,2096921, 316699, 461586
2096921,2096921, 316848, 461856
2096921,2096921, 316997, 461718
2096921,2096921, 316963, 461664
2096921,2096921, 316961, 461663
2096921,2096921, 317065, 461696
2096921,2096921, 316970, 461827
2096921,2096921, 316876, 462152
2096921,2096921, 317058, 462118
2096921,2096921, 317072, 461980
2096921,2096921, 317509, 461889
2096921,2096921, 317013, 461961
2096921,2096921, 316956, 462103
2096921,2096921, 317183, 462289
2096921,2096921, 317014, 462104
2096921,2096921, 317217, 462304
2096921,2096921, 317318, 462500
2096921,2096921, 317312, 462439
2096921,2096921, 317379, 462621
2096921,2096921, 317331, 462410
2096921,2096921, 317595, 461916
2096921,2096921, 317698, 462448
2096921,2096921, 317452, 462669
2096921,2096921, 317636, 462579
2096921,2096921, 317792, 462586
2096921,2096921, 317623, 462723
2096921,2096921, 317709, 462674
2096921,2096921, 317687, 463004
2096921,2096921, 317718, 462820
2096921,2096921, 317799, 462677
2096921,2096921, 317681, 462625
2096921,2096921, 317782, 462741
2096921,2096921, 317726, 462758
2096921,2096921, 317830, 462997
2096921,2096921, 317701, 462553
2096921,2096921, 318037, 462779
2096921,2096921, 317999, 462948
2096921,2096921, 317915, 463066
2096921,2096921, 317949, 463355
2096921,2096921, 318041, 463050
2096921,2096921, 318062, 462961
2096921,2096921, 317929, 462820
2096921,2096921, 317953, 462981
2096921,2096921, 317906, 463049
2096921,2096921, 317824, 463408
2096921,2096921, 318358, 463369
2096921,2096921, 318188, 463372
2096921,2096921, 318050, 463400
2096921,2096921, 318245, 463254
2096921,2096921, 318250, 463201
2096921,2096921, 318549, 463187
2096921,2096921, 318225, 463179
2096921,2096921, 318313, 463481
2096921,2096921, 318501, 463494
2096921,2096921, 318454, 463489
2096921,2096921, 318620, 463775
2096921,2096921, 318561, 463609
2096921,2096921, 318606, 463410
2096921,2096921, 318486, 463699
2096921,2096921, 318616, 463413
2096921,2096921, 318482, 463662
2096921,2096921, 318377, 463599
2096921,2096921, 318567, 463651
2096921,2096921, 318673, 463795
2096921,2096921, 318802, 463801
2096921,2096921, 318585, 463691
2096921,2096921, 318768, 463566
2096921,2096921, 318638, 463783
2096921,2096921, 318843, 463730
2096921,2096921, 318495, 463709
2096921,2096921, 318812, 463618
2096921,2096921, 318782, 463566
2096921,2096921, 318956, 463592
2096921,2096921, 318673, 464017
2096921,2096921, 318972, 464170
2096921,2096921, 319097, 463944
2096921,2096921, 319324, 463895
2096921,2096921, 319173, 463934
2096921,2096921, 319151, 463887
2096921,2096921, 319004, 463658
2096921,2096921, 319156, 463642
2096921,2096921, 318928, 463941
2096921,2096921, 318962, 463842
2096921,2096921, 319031, 463976
2096921,2096921, 319162, 463864
2096921,2096921, 319053, 464203
2096921,2096921, 319024, 463862
2096921,2096921, 318959, 464119
2096921,2096921, 319346, 464107
2096921,2096921, 318870, 464356
2096921,2096921, 319287, 463914
2096921,2096921, 319348, 463925
2096921,2096921, 319189, 464120
2096921,2096921, 319294, 464126
2096921,2096921, 319156, 464242
2096921,2096921, 319065, 463932
2096921,2096921, 319029, 464189
2096921,2096921, 319334, 464475
2096921,2096921, 319140, 464383
2096921,2096921, 318904, 464151
2096921,2096921, 319192, 463951
2096921,2096921, 319182, 464207
2096921,2096921, 319178, 464180
2096921,2096921, 319179, 464093
2096921,2096921, 319402, 464018
2096921,2096921, 319427, 464339
2096921,2096921, 319385, 464113
2096921,2096921, 319397, 464343
2096921,2096921, 319489, 464277
2096921,2096921, 319294, 464119
2096921,2096921, 318986, 463793
2096921,2096921, 319104, 464212
2096921,2096921, 319235, 464368
2096921,2096921, 319182, 464228
2096921,2096921, 319245, 464396
2096921,2096921, 319220, 464365
2096921,2096921, 319133, 464174
2096921,2096921, 319362, 464471
2096921,2096921, 319167, 464434
2096921,2096921, 319098, 464311
2096921,2096921, 319290, 464067
2096921,2096921, 319083, 464137
2096921,2096921, 319112, 464279
2096921,2096921, 319423, 464258
2096921,2096921, 319380, 464123
2096921,2096921, 319180, 463888
2096921,2096921, 319346, 464149
2096921,2096921, 319526, 464161
2096921,2096921, 319418, 464446
2096921,2096921, 319259, 464240
2096921,2096921, 319489, 464175
2096921,2096921, 319472, 464345
2096921,2096921, 319378, 464170
2096921,2096921, 319256, 464185
2096921,2096921, 319076, 464037
2096921,2096921, 319188, 464242
2096921,2096921, 319557, 464254
2096921,2096921, 319429, 464466
2096921,2096921, 319380, 464055
2096921,2096921, 319253, 464359
2096921,2096921, 319152, 464409
2096921,2096921, 319190, 464357
2096921,2096921, 319266, 464203
2096921,2096921, 319218, 464197
2096921,2096921, 319318, 463963
2096921,2096921, 319085, 464512
2096921,2096921, 319026, 464174
2096921,2096921, 318950, 464131
2096921,2096921, 318975, 463993
2096921,2096921, 318676, 463989
2096921,2096921, 318558, 463964
2096921,2096921, 318345, 463943
2096921,2096921, 318494, 463807
2096921,2096921, 318519, 463839
2096921,2096921, 318809, 463722
2096921,2096921, 318075, 463969
2096921,2096921, 318329, 463608
2096921,2096921, 318020, 463769
2096921,2096921, 318111, 463362
2096921,2096921, 318096, 463385
2096921,2096921, 317009, 462893
2096921,2096921, 316913, 462764
2096921,2096921, 316930, 462658
2096921,2096921, 317031, 462694
2096921,2096921, 317008, 462644
2096921,2096921, 316718, 462999
2096921,2096921, 316625, 462457
2096921,2096921, 316607, 462585
2096921,2096921, 316277, 462161
2096921,2096921, 316341, 461948
2096921,2096921, 314728, 461901
2096921,2096921, 314072, 460644
2096921,2096921, 314055, 460668
2096921,2096921, 314488, 460793
2096921,2096921, 314184, 460767
2096921,2096921, 312339, 460896
2096921,2096921, 312097, 459681
2096921,2096921, 312011, 459648
2096921,2096921, 311731, 459484
2096921,2096921, 311768, 459063
2096921,2096921, 310359, 459034
2096921,2096921, 310508, 458012
2096921,2096921, 310028, 457915
2096921,2096921, 310048, 457957
2096921,2096921, 310067, 457964
2096921,2096921, 309068, 457903
2096921,2096921, 308760, 457277
2096921,2096921, 308822, 457193
2096921,2096921, 308614, 457050
2096921,2096921, 308373, 456792
2096921,2096921, 307784, 457119
2096921,2096921, 307585, 456391
2096921,2096921, 307604, 456007
2096921,2096921, 307622, 456357
2096921,2096921, 307769, 456487
2096921,2096921, 307176, 456200
2096921,2096921, 307183, 455949
2096921,2096921, 307179, 455855
2096921,2096921, 307019, 455923
2096921,2096921, 306931, 455603
2096921,2096921, 306581, 455659
2096921,2096921, 306195, 455179
2096921,2096921, 306364, 455381
2096921,2096921, 306615, 455469
2096921,2096921, 306711, 455452
2096921,2096921, 306320, 455190
2096921,2096921, 306514, 455184
2096921,2096921, 306153, 455097
2096921,2096921, 306156, 455250
2096921,2096921, 306284, 455198
2096921,2096921, 306257, 454926
2096921,2096921, 306274, 455096
2096921,2096921, 306299, 455105
2096921,2096921, 306618, 455492
2096921,2096921, 306263, 455163
2096921,2096921, 306077, 454865
2096921,2096921, 306324, 454821
2096921,2096921, 306489, 455435
2096921,2096921, 306200, 455250
2096921,2096921, 306370, 455467
2096921,2096921, 306052, 455056
2096921,2096921, 306088, 455246
2096921,2096921, 306017, 455282
2096921,2096921, 306221, 455365
2096921,2096921, 306386, 455331
2096921,2096921, 306177, 455454
2096921,2096921, 306392, 455329
2096921,2096921, 306599, 455668
2096921,2096921, 306619, 455250
2096921,2096921, 306232, 455327
2096921,2096921, 306418, 455037
2096921,2096921, 306454, 455075
2096921,2096921, 306410, 455201
2096921,2096921, 306499, 455287
2096921,2096921, 306412, 455315
2096921,2096921, 306927, 455604
2096921,2096921, 307167, 455978
2096921,2096921, 307316, 456024
2096921,2096921, 306915, 455828
2096921,2096921, 306895, 455587
2096921,2096921, 307026, 455648
2096921,2096921, 307321, 455894
2096921,2096921, 307343, 456029
2096921,2096921, 307506, 455876
2096921,2096921, 307524, 455995
2096921,2096921, 307649, 455995
2096921,2096921, 307658, 456232
2096921,2096921, 307741, 456237
2096921,2096921, 307875, 456356
2096921,2096921, 307945, 456141
2096921,2096921, 308232, 456195
2096921,2096921, 308014, 456546
2096921,2096921, 308307, 456654
2096921,2096921, 308324, 456640
2096921,2096921, 308234, 456811
2096921,2096921, 308649, 456573
2096921,2096921, 308656, 457024
2096921,2096921, 308712, 456859
2096921,2096921, 308584, 456916
2096921,2096921, 308754, 456875
2096921,2096921, 309165, 456880
2096921,2096921, 309138, 456638
2096921,2096921, 308848, 457038
2096921,2096921, 309022, 457380
2096921,2096921, 309346, 457532
2096921,2096921, 309206, 457228
2096921,2096921, 309528, 457214
2096921,2096921, 309452, 457348
2096921,2096921, 309367, 457344
2096921,2096921, 309380, 457366
2096921,2096921, 309984, 457297
2096921,2096921, 309997, 457639
2096921,2096921, 309940, 457648
2096921,2096921, 309771, 457702
2096921,2096921, 310086, 457693
2096921,2096921, 310183, 457792
2096921,2096921, 310321, 458221
2096921,2096921, 310242, 458153
2096921,2096921, 310166, 458125
2096921,2096921, 310227, 458023
2096921,2096921, 310479, 458150
2096921,2096921, 310406, 458201
2096921,2096921, 310532, 458124
2096921,2096921, 310334, 457938
2096921,2096921, 310512, 458165
2096921,2096921, 311112, 458295
2096921,2096921, 310935, 458319
2096921,2096921, 311192, 458394
2096921,2096921, 310822, 458708
2096921,2096921, 311226, 458626
2096921,2096921, 311344, 458756
2096921,2096921, 311296, 458892
2096921,2096921, 311418, 458814
2096921,2096921, 311388, 458620
2096921,2096921, 311757, 458927
2096921,2096921, 312069, 458907
2096921,2096921, 311717, 459079
2096921,2096921, 311998, 459022
2096921,2096921, 312008, 459062
2096921,2096921, 311788, 459059
2096921,2096921, 311836, 458927
2096921,2096921, 312145, 459147
2096921,2096921, 311930, 459093
2096921,2096921, 312053, 459293
2096921,2096921, 312190, 459316
2096921,2096921, 312078, 459092
2096921,2096921, 312256, 459652
2096921,2096921, 312308, 459672
2096921,2096921, 312230, 459422
2096921,2096921, 312083, 459280
2096921,2096921, 312034, 459139
2096921,2096921, 312183, 459172
2096921,2096921, 312187, 459381
2096921,2096921, 312095, 459565
2096921,2096921, 312540, 459497
2096921,2096921, 312658, 459221
2096921,2096921, 312485, 459666
2096921,2096921, 312531, 459759
2096921,2096921, 312499, 459661
2096921,2096921, 312530, 459272
2096921,2096921, 312336, 459343
2096921,2096921, 312351, 459049
2096921,2096921, 312393, 459333
2096921,2096921, 312454, 459358
2096921,2096921, 312406, 459363
2096921,2096921, 312411, 459451
2096921,2096921, 312619, 459699
2096921,2096921, 312353, 459399
2096921,2096921, 312130, 459493
2096921,2096921, 312180, 459199
2096921,2096921, 312059, 459259
2096921,2096921, 312422, 458773
2096921,2096921, 312510, 458981
2096921,2096921, 312258, 458990
2096921,2096921, 312286, 459193
2096921,2096921, 311757, 458981
2096921,2096921, 312141, 459136
2096921,2096921, 312183, 458839
2096921,2096921, 312170, 458598
2096921,2096921, 311785, 458885
2096921,2096921, 312051, 458619
2096921,2096921, 311825, 458841
2096921,2096921, 312028, 458857
2096921,2096921, 311831, 458644
2096921,2096921, 311823, 458841
2096921,2096921, 311787, 458995
2096921,2096921, 312066, 458800
2096921,2096921, 311993, 458928
2096921,2096921, 311871, 458932
2096921,2096921, 311710, 458869
2096921,2096921, 311527, 458998
2096921,2096921, 311282, 458525
2096921,2096921, 311378, 458216
2096921,2096921, 311518, 458350
2096921,2096921, 311705, 458359
2096921,2096921, 311465, 458425
2096921,2096921, 311533, 458402
2096921,2096921, 311659, 458415
2096921,2096921, 311302, 458448
2096921,2096921, 311458, 458306
2096921,2096921, 311285, 458017
2096921,2096921, 311073, 458044
2096921,2096921, 311134, 457958
2096921,2096921, 311407, 458065
2096921,2096921, 311515, 458076
2096921,2096921, 311544, 458334
2096921,2096921, 311614, 458381
2096921,2096921, 311626, 458514
2096921,2096921, 311441, 458286
2096921,2096921, 311196, 458269
2096921,2096921, 311317, 458205
2096921,2096921, 311567, 458056
2096921,2096921, 311134, 458103
2096921,2096921, 311508, 458039
2096921,2096921, 311500, 458082
2096921,2096921, 311437, 458432
2096921,2096921, 311760, 458281
2096921,2096921, 311584, 458269
2096921,2096921, 311312, 458065
2096921,2096921, 311513, 458450
2096921,2096921, 311505, 458201
2096921,2096921, 311516, 458272
2096921,2096921, 311565, 458307
2096921,2096921, 311854, 458385
2096921,2096921, 311625, 458401
2096921,2096921, 311701, 458066
2096921,2096921, 311894, 458270
2096921,2096921, 312051, 458294
2096921,2096921, 312031, 458340
2096921,2096921, 311826, 458367
2096921,2096921, 311964, 458515
2096921,2096921, 311953, 458457
2096921,2096921, 311958, 458496
2096921,2096921, 311982, 458362
2096921,2096921, 312278, 458452
2096921,2096921, 312297, 458363
2096921,2096921, 312393, 458586
2096921,2096921, 312535, 458481
2096921,2096921, 312544, 458618
2096921,2096921, 312500, 458462
2096921,2096921, 312410, 458378
2096921,2096921, 312541, 458432
2096921,2096921, 312598, 458470
2096921,2096921, 312810, 458637
2096921,2096921, 312478, 458650
2096921,2096921, 312802, 458634
2096921,2096921, 312751, 458423
2096921,2096921, 312653, 458586
2096921,2096921, 312554, 458700
2096921,2096921, 312478, 458655
2096921,2096921, 312814, 458404
2096921,2096921, 312525, 458593
2096921,2096921, 312457, 458616
2096921,2096921, 312868, 458457
2096921,2096921, 312797, 458227
2096921,2096921, 312750, 458697
2096921,2096921, 312906, 458827
2096921,2096921, 312952, 459052
2096921,2096921, 312673, 458616
2096921,2096921, 313006, 458539
2096921,2096921, 312982, 458433
2096921,2096921, 312951, 458565
2096921,2096921, 313159, 458667
2096921,2096921, 313081, 458585
2096921,2096921, 313074, 458443
2096921,2096921, 312868, 458812
2096921,2096921, 312997, 458661
2096921,2096921, 313199, 458863
2096921,2096921, 313315, 458671
2096921,2096921, 313361, 458552
2096921,2096921, 313180, 458623
2096921,2096921, 313051, 458634
2096921,2096921, 313489, 458709
2096921,2096921, 313332, 458715
2096921,2096921, 313240, 458693
2096921,2096921, 313293, 458897
2096921,2096921, 313160, 458787
2096921,2096921, 313613, 459332
2096921,2096921, 313131, 459036
2096921,2096921, 313039, 459017
2096921,2096921, 313591, 458808
2096921,2096921, 313535, 458670
2096921,2096921, 313434, 458899
2096921,2096921, 313509, 458813
2096921,2096921, 313518, 458885
2096921,2096921, 313494, 458632
2096921,2096921, 313753, 458679
2096921,2096921, 313892, 458840
2096921,2096921, 313928, 458960
2096921,2096921, 313997, 458789
2096921,2096921, 313866, 459009
2096921,2096921, 313637, 458675
2096921,2096921, 313669, 458984
2096921,2096921, 313614, 458895
2096921,2096921, 314014, 458984
2096921,2096921, 313958, 458871
2096921,2096921, 314195, 458916
2096921,2096921, 314028, 458723
2096921,2096921, 314180, 458837
2096921,2096921, 313749, 458732
2096921,2096921, 313978, 458630
2096921,2096921, 314257, 458334
2096921,2096921, 314044, 458738
2096921,2096921, 314313, 458909
2096921,2096921, 314292, 458930
2096921,2096921, 314380, 458786
2096921,2096921, 314023, 458970
2096921,2096921, 314370, 458947
2096921,2096921, 314031, 458892
2096921,2096921, 313973, 458763
2096921,2096921, 314106, 458671
2096921,2096921, 314078, 458780
2096921,2096921, 313907, 458409
2096921,2096921, 314126, 458751
2096921,2096921, 314379, 458864
2096921,2096921, 313970, 458818
2096921,2096921, 314194, 458701
2096921,2096921, 314210, 458611
2096921,2096921, 314193, 458754
2096921,2096921, 314344, 458797
2096921,2096921, 314185, 458702
2096921,2096921, 314361, 458708
2096921,2096921, 314200, 458250
2096921,2096921, 314258, 458487
2096921,2096921, 314224, 458508
2096921,2096921, 314325, 458602
2096921,2096921, 314186, 458699
2096921,2096921, 314286, 458609
2096921,2096921, 314389, 458399
2096921,2096921, 314374, 458514
2096921,2096921, 314499, 458447
2096921,2096921, 314487, 458708
2096921,2096921, 314419, 458344
2096921,2096921, 314632, 458027
2096921,2096921, 314378, 458437
2096921,2096921, 314470, 458320
2096921,2096921, 314381, 458391
2096921,2096921, 314910, 458385
2096921,2096921, 314544, 458256
2096921,2096921, 314639, 458478
2096921,2096921, 314524, 458561
2096921,2096921, 314641, 458119
2096921,2096921, 314332, 458278
2096921,2096921, 314355, 458363
2096921,2096921, 314508, 457999
2096921,2096921, 314545, 458387
2096921,2096921, 314525, 458298
2096921,2096921, 314536, 458290
2096921,2096921, 314297, 458591
2096921,2096921, 314268, 458704
2096921,2096921, 314264, 458364
2096921,2096921, 314437, 458162
2096921,2096921, 314365, 458159
2096921,2096921, 314353, 458216
2096921,2096921, 314410, 458148
2096921,2096921, 314319, 458142
2096921,2096921, 314538, 458340
2096921,2096921, 314459, 457940
2096921,2096921, 314587, 458062
2096921,2096921, 314647, 458072
2096921,2096921, 314143, 458234
2096921,2096921, 314272, 457685
2096921,2096921, 314577, 458029
2096921,2096921, 314534, 457935
2096921,2096921, 314688, 457961
2096921,2096921, 314287, 458356
2096921,2096921, 314421, 458042
2096921,2096921, 314319, 457907
2096921,2096921, 314080, 457702
2096921,2096921, 314386, 457836
2096921,2096921, 314641, 457940
2096921,2096921, 314349, 457805
2096921,2096921, 314189, 457730
2096921,2096921, 314328, 457681
2096921,2096921, 314261, 457554
2096921,2096921, 314128, 457566
2096921,2096921, 314380, 457765
2096921,2096921, 314490, 457702
2096921,2096921, 314247, 457441
2096921,2096921, 314149, 457437
2096921,2096921, 314089, 457653
2096921,2096921, 314041, 457803
2096921,2096921, 314234, 457729
2096921,2096921, 314095, 457711
2096921,2096921, 314008, 457356
2096921,2096921, 314220, 457343
2096921,2096921, 314257, 457316
2096921,2096921, 314057, 457803
2096921,2096921, 314208, 457373
2096921,2096921, 314169, 457277
2096921,2096921, 314058, 457311
2096921,2096921, 314084, 457114
2096921,2096921, 314063, 457348
2096921,2096921, 314151, 457267
2096921,2096921, 314342, 457122
2096921,2096921, 314111, 457400
2096921,2096921, 314087, 457109
2096921,2096921, 314323, 457080
2096921,2096921, 313988, 457045
2096921,2096921, 313945, 457110
2096921,2096921, 314071, 457114
2096921,2096921, 314103, 457185
2096921,2096921, 313943, 457094
2096921,2096921, 314046, 457159
2096921,2096921, 314096, 457098
2096921,2096921, 314147, 457270
2096921,2096921, 314040, 456832
2096921,2096921, 314331, 457181
2096921,2096921, 314066, 456933
2096921,2096921, 313878, 456799
2096921,2096921, 313620, 456902
2096921,2096921, 313992, 456533
2096921,2096921, 313958, 456860
2096921,2096921, 313975, 456849
2096921,2096921, 313886, 456726
2096921,2096921, 313987, 456998
2096921,2096921, 314154, 456931
2096921,2096921, 314140, 456725
2096921,2096921, 314109, 456933
2096921,2096921, 313772, 456535
2096921,2096921, 313627, 456717
2096921,2096921, 313806, 456501
2096921,2096921, 313832, 456476
2096921,2096921, 313660, 456415
2096921,2096921, 313932, 456341
2096921,2096921, 313786, 456343
2096921,2096921, 313723, 456510
2096921,2096921, 313818, 456463
2096921,2096921, 313811, 456161
2096921,2096921, 313562, 456315
2096921,2096921, 313495, 456398
2096921,2096921, 313472, 456614
2096921,2096921, 313320, 456665
2096921,2096921, 313589, 456258
2096921,2096921, 313803, 456433
2096921,2096921, 314023, 456300
2096921,2096921, 313609, 455993
2096921,2096921, 313875, 456185
2096921,2096921, 313879, 455970
2096921,2096921, 313850, 456171
2096921,2096921, 313717, 455995
2096921,2096921, 313569, 455886
2096921,2096921, 313406, 455864
2096921,2096921, 313446, 456087
2096921,2096921, 313446, 456053
2096921,2096921, 313533, 455947
2096921,2096921, 313450, 455914
2096921,2096921, 313706, 456105
2096921,2096921, 313408, 455933
2096921,2096921, 313586, 456065
2096921,2096921, 313346, 455706
2096921,2096921, 313330, 455556
2096921,2096921, 313224, 455341
2096921,2096921, 313342, 455565
2096921,2096921, 313393, 455640
2096921,2096921, 313468, 455742
2096921,2096921, 313407, 455520
2096921,2096921, 313365, 455652
2096921,2096921, 312963, 455058
2096921,2096921, 312922, 455563
2096921,2096921, 313069, 455278
2096921,2096921, 312730, 455379
2096921,2096921, 312866, 455134
2096921,2096921, 313097, 455193
2096921,2096921, 313567, 455084
2096921,2096921, 313246, 455031
2096921,2096921, 313041, 455007
2096921,2096921, 313218, 455167
2096921,2096921, 312870, 454958
2096921,2096921, 312956, 454886
2096921,2096921, 312687, 454990
2096921,2096921, 312647, 455128
2096921,2096921, 312607, 455140
2096921,2096921, 312991, 454650
2096921,2096921, 312553, 454878
2096921,2096921, 312627, 454934
2096921,2096921, 312855, 454847
2096921,2096921, 312586, 454966
2096921,2096921, 312951, 454893
2096921,2096921, 312770, 454584
2096921,2096921, 312531, 455079
2096921,2096921, 312629, 454633
2096921,2096921, 312648, 454660
2096921,2096921, 312445, 454559
2096921,2096921, 312503, 454513
2096921,2096921, 312254, 454620
2096921,2096921, 312137, 454275
2096921,2096921, 312111, 454157
2096921,2096921, 311993, 454130
2096921,2096921, 312438, 454079
2096921,2096921, 311787, 454020
2096921,2096921, 311735, 453828
2096921,2096921, 311573, 453687
2096921,2096921, 311403, 453556
2096921,2096921, 311622, 453671
2096921,2096921, 310940, 453889
2096921,2096921, 310777, 453391
2096921,2096921, 311060, 453396
2096921,2096921, 310943, 453184
2096921,2096921, 310897, 453446
2096921,2096921, 310395, 452889
2096921,2096921, 310015, 452448
2096921,2096921, 310157, 452425
2096921,2096921, 309636, 452234
2096921,2096921, 310027, 452604
2096921,2096921, 309311, 452636
2096921,2096921, 309367, 452143
2096921,2096921, 309159, 451960
2096921,2096921, 308988, 451844
2096921,2096921, 308984, 451751
2096921,2096921, 307246, 451611
2096921,2096921, 306928, 450474
2096921,2096921, 306804, 450167
2096921,2096921, 306993, 450383
2096921,2096921, 307024, 450146
2096921,2096921, 305278, 450309
2096921,2096921, 305022, 449030
2096921,2096921, 304804, 448591
2096921,2096921, 304672, 448485
2096921,2096921, 304610, 448217
2096921,2096921, 303371, 448362
2096921,2096921, 302759, 447689
2096921,2096921, 302509, 447064
2096921,2096921, 302793, 446971
2096921,2096921, 302786, 447298
2096921,2096921, 301645, 447337
2096921,2096921, 301365, 446210
2096921,2096921, 301443, 446236
2096921,2096921, 301360, 446227
2096921,2096921, 301422, 446026
2096921,2096921, 300184, 446092
2096921,2096921, 300189, 445307
2096921,2096921, 300171, 445124
2096921,2096921, 300049, 445289
2096921,2096921, 300376, 445207
2096921,2096921, 299880, 445542
2096921,2096921, 299587, 445252
2096921,2096921, 299526, 444877
2096921,2096921, 299498, 444839
2096921,2096921, 299452, 444628
2096921,2096921, 298896, 444563
2096921,2096921, 298771, 444111
2096921,2096921, 298601, 444072
2096921,2096921, 298755, 444287
2096921,2096921, 299011, 444237
2096921,2096921, 298624, 443941
2096921,2096921, 298638, 443932
2096921,2096921, 298593, 443961
2096921,2096921, 298833, 444091
2096921,2096921, 298577, 444069
2096921,2096921, 298557, 444245
2096921,2096921, 298413, 443540
2096921,2096921, 298606, 443417
2096921,2096921, 298500, 443632
2096921,2096921, 298358, 443757
2096921,2096921, 298331, 443810
2096921,2096921, 298504, 443764
2096921,2096921, 298485, 443842
2096921,2096921, 298288, 443562
2096921,2096921, 298199, 444001
2096921,2096921, 298111, 443731
2096921,2096921, 298352, 443577
2096921,2096921, 298334, 443527
2096921,2096921, 298465, 443825
2096921,2096921, 298521, 443717
2096921,2096921, 298305, 443750
2096921,2096921, 298248, 443953
2096921,2096921, 298597, 443489
2096921,2096921, 298310, 443439
2096921,2096921, 298380, 443528
2096921,2096921, 298461, 443489
2096921,2096921, 298346, 443184
2096921,2096921, 298346, 443507
2096921,2096921, 298579, 443678
2096921,2096921, 298457, 443683
2096921,2096921, 298941, 443631
2096921,2096921, 299079, 443717
2096921,2096921, 299066, 443899
2096921,2096921, 298728, 443499
2096921,2096921, 298826, 443438
2096921,2096921, 299046, 443497
2096921,2096921, 298953, 443723
2096921,2096921, 299086, 443728
2096921,2096921, 299152, 443562
2096921,2096921, 299512, 443787
2096921,2096921, 299468, 443878
2096921,2096921, 299379, 443949
2096921,2096921, 299556, 443986
2096921,2096921, 299225, 444063
2096921,2096921, 299310, 444185
2096921,2096921, 299687, 443847
2096921,2096921, 299794, 444112
2096921,2096921, 299576, 443866
2096921,2096921, 299850, 443952
2096921,2096921, 299669, 444348
2096921,2096921, 300223, 444274
2096921,2096921, 300013, 444407
2096921,2096921, 300149, 444609
2096921,2096921, 300186, 444538
2096921,2096921, 299929, 444225
2096921,2096921, 300305, 444410
2096921,2096921, 300603, 444514
2096921,2096921, 300317, 444610
2096921,2096921, 300306, 444182
2096921,2096921, 300310, 444438
2096921,2096921, 300886, 444459
2096921,2096921, 300803, 444777
2096921,2096921, 300766, 444632
2096921,2096921, 300601, 444576
2096921,2096921, 300668, 444522
2096921,2096921, 300799, 444296
2096921,2096921, 300859, 444854
2096921,2096921, 300796, 444849
2096921,2096921, 301316, 444952
2096921,2096921, 301053, 445052
2096921,2096921, 301272, 444776
2096921,2096921, 301253, 445161
2096921,2096921, 301508, 445154
2096921,2096921, 301677, 444908
2096921,2096921, 301328, 444934
2096921,2096921, 301673, 444901
2096921,2096921, 301757, 445329
2096921,2096921, 301802, 445301
2096921,2096921, 301705, 445348
2096921,2096921, 301810, 445324
2096921,2096921, 301946, 445069
2096921,2096921, 302221, 445189
2096921,2096921, 302084, 445338
2096921,2096921, 302407, 445075
2096921,2096921, 302082, 445520
2096921,2096921, 302309, 445353
2096921,2096921, 302349, 445478
2096921,2096921, 302541, 445667
2096921,2096921, 302344, 445833
2096921,2096921, 302512, 445510
2096921,2096921, 302600, 445513
2096921,2096921, 302487, 445634
2096921,2096921, 302683, 445815
2096921,2096921, 302904, 445659
2096921,2096921, 302697, 445772
2096921,2096921, 302803, 445728
2096921,2096921, 302709, 445865
2096921,2096921, 302835, 445646
2096921,2096921, 303077, 445936
2096921,2096921, 303329, 445930
2096921,2096921, 303394, 445943
2096921,2096921, 303101, 446161
2096921,2096921, 303318, 446121
2096921,2096921, 303344, 445934
2096921,2096921, 303580, 445856
2096921,2096921, 303113, 445916
2096921,2096921, 303228, 446201
2096921,2096921, 302947, 446040
2096921,2096921, 302891, 446024
2096921,2096921, 303065, 446119
2096921,2096921, 303460, 445987
2096921,2096921, 303346, 446122
2096921,2096921, 303522, 446359
2096921,2096921, 303350, 446408
2096921,2096921, 303372, 446142
2096921,2096921, 303526, 446159
2096921,2096921, 303269, 446129
2096921,2096921, 303314, 445754
2096921,2096921, 303405, 445875
2096921,2096921, 303405, 446266
2096921,2096921, 303339, 445964
2096921,2096921, 303246, 446109
2096921,2096921, 303427, 446113
2096921,2096921, 303139, 446067
2096921,2096921, 303390, 445987
2096921,2096921, 302835, 446087
2096921,2096921, 303092, 445793
2096921,2096921, 303069, 446221
2096921,2096921, 303410, 446028
2096921,2096921, 303391, 445829
2096921,2096921, 303140, 445985
2096921,2096921, 303541, 446138
2096921,2096921, 303026, 445766
2096921,2096921, 303104, 445852
2096921,2096921, 302962, 445727
2096921,2096921, 302915, 445831
2096921,2096921, 302555, 445472
2096921,2096921, 302759, 445480
2096921,2096921, 302667, 445542
2096921,2096921, 302999, 445666
2096921,2096921, 303008, 445544
2096921,2096921, 302963, 445832
2096921,2096921, 302768, 445763
2096921,2096921, 302766, 445504
2096921,2096921, 302652, 445489
2096921,2096921, 302667, 445658
2096921,2096921, 302570, 445480
2096921,2096921, 302608, 445407
2096921,2096921, 302512, 445366
2096921,2096921, 302324, 445642
2096921,2096921, 302541, 445599
2096921,2096921, 302384, 445367
2096921,2096921, 302744, 445423
2096921,2096921, 302825, 445223
2096921,2096921, 302367, 445459
2096921,2096921, 302540, 445350
2096921,2096921, 302762, 445592
2096921,2096921, 302735, 445632
2096921,2096921, 302671, 445727
2096921,2096921, 302475, 445403
2096921,2096921, 302675, 445567
2096921,2096921, 302966, 445674
2096921,2096921, 302475, 445444
2096921,2096921, 302566, 445370
2096921,2096921, 302801, 445101
2096921,2096921, 302761, 445094
2096921,2096921, 302584, 445598
2096921,2096921, 302668, 445410
2096921,2096921, 302716, 445579
2096921,2096921, 302760, 445377
2096921,2096921, 303146, 445425
2096921,2096921, 303016, 445298
2096921,2096921, 303107, 445703
2096921,2096921, 302592, 445677
2096921,2096921, 302852, 445470
2096921,2096921, 302952, 445493
2096921,2096921, 303070, 445607
2096921,2096921, 303001, 445367
2096921,2096921, 302891, 445666
2096921,2096921, 303166, 445648
2096921,2096921, 303333, 445872
2096921,2096921, 303378, 445881
2096921,2096921, 303423, 446153
2096921,2096921, 303289, 446128
2096921,2096921, 303610, 446199
2096921,2096921, 303715, 446052
2096921,2096921, 303654, 446162
2096921,2096921, 303647, 446150
2096921,2096921, 303588, 445764
2096921,2096921, 304158, 446264
2096921,2096921, 304101, 446156
2096921,2096921, 304184, 446463
2096921,2096921, 304053, 446425
2096921,2096921, 304027, 446435
2096921,2096921, 303774, 446265
2096921,2096921, 303998, 446382
2096921,2096921, 303952, 446436
2096921,2096921, 303975, 446492
2096921,2096921, 304084, 446444
2096921,2096921, 304239, 446363
2096921,2096921, 304213, 446740
2096921,2096921, 304441, 446778
2096921,2096921, 304487, 446700
2096921,2096921, 304158, 446700
2096921,2096921, 304323, 446451
2096921,2096921, 304662, 446396
2096921,2096921, 304626, 446587
2096921,2096921, 304720, 446835
2096921,2096921, 304569, 446964
2096921,2096921, 304661, 446799
2096921,2096921, 304937, 447044
2096921,2096921, 305200, 447323
2096921,2096921, 305256, 447074
2096921,2096921, 304984, 446939
2096921,2096921, 304824, 446762
2096921,2096921, 304995, 446808
2096921,2096921, 304882, 447112
2096921,2096921, 305068, 446965
2096921,2096921, 305058, 447230
2096921,2096921, 305252, 447293
2096921,2096921, 305424, 447118
2096921,2096921, 305355, 447264
2096921,2096921, 305440, 447431
2096921,2096921, 305275, 447441
2096921,2096921, 305241, 447071
2096921,2096921, 305339, 447063
2096921,2096921, 305648, 447406
2096921,2096921, 305402, 447693
2096921,2096921, 305306, 447921
2096921,2096921, 305636, 447418
2096921,2096921, 305953, 447432
2096921,2096921, 305926, 447529
2096921,2096921, 305822, 447635
2096921,2096921, 305805, 447391
2096921,2096921, 306040, 447305
2096921,2096921, 306111, 447578
2096921,2096921, 306046, 447741
2096921,2096921, 306149, 448092
2096921,2096921, 306198, 447799
2096921,2096921, 305943, 447728
2096921,2096921, 306359, 447958
2096921,2096921, 306315, 447708
2096921,2096921, 306510, 447843
2096921,2096921, 306211, 447871
2096921,2096921, 306255, 447867
2096921,2096921, 306593, 447887
2096921,2096921, 306243, 448061
2096921,2096921, 306420, 448021
2096921,2096921, 306379, 448003
2096921,2096921, 306258, 448129
2096921,2096921, 306725, 448098
2096921,2096921, 306678, 448286
2096921,2096921, 306623, 448395
2096921,2096921, 306489, 448382
2096921,2096921, 306487, 448057
2096921,2096921, 306841, 448011
2096921,2096921, 306822, 448226
2096921,2096921, 306772, 448464
2096921,2096921, 306828, 448331
2096921,2096921, 307099, 448212
2096921,2096921, 307265, 448463
2096921,2096921, 307473, 448724
2096921,2096921, 307199, 448729
2096921,2096921, 307126, 448694
2096921,2096921, 307138, 448540
2096921,2096921, 306984, 448519
2096921,2096921, 307199, 448354
2096921,2096921, 307446, 448493
2096921,2096921, 307363, 448429
2096921,2096921, 307506, 448740
2096921,2096921, 307486, 448771
2096921,2096921, 307606, 448729
2096921,2096921, 307542, 449097
2096921,2096921, 307365, 449019
2096921,2096921, 307330, 448874
2096921,2096921, 307357, 448567
2096921,2096921, 307205, 448763
2096921,2096921, 307528, 448558
2096921,2096921, 307820, 448857
2096921,2096921, 307835, 448809
2096921,2096921, 307846, 448846
2096921,2096921, 307680, 448945
2096921,2096921, 308019, 449207
2096921,2096921, 307675, 448825
2096921,2096921, 307647, 448817
2096921,2096921, 308110, 448997
2096921,2096921, 307592, 449355
2096921,2096921, 307583, 449029
2096921,2096921, 307849, 449209
2096921,2096921, 308089, 448963
2096921,2096921, 308365, 448984
2096921,2096921, 308438, 449249
2096921,2096921, 308137, 449037
2096921,2096921, 307837, 449228
2096921,2096921, 308080, 449200
2096921,2096921, 308148, 449183
2096921,2096921, 308107, 449145
2096921,2096921, 307896, 449096
2096921,2096921, 308024, 449200
2096921,2096921, 308132, 449366
2096921,2096921, 308172, 449586
2096921,2096921, 308440, 449341
2096921,2096921, 308326, 449464
2096921,2096921, 308185, 449303
2096921,2096921, 308371, 449483
2096921,2096921, 308346, 449351
2096921,2096921, 308036, 449481
2096921,2096921, 308481, 449309
2096921,2096921, 308609, 449398
2096921,2096921, 308388, 449565
2096921,2096921, 308547, 449547
2096921,2096921, 308295, 449542
2096921,2096921, 308512, 449755
2096921,2096921, 308431, 449634
2096921,2096921, 308246, 449283
2096921,2096921, 308790, 449358
2096921,2096921, 308696, 449479
2096921,2096921, 308679, 449574
2096921,2096921, 308614, 449379
2096921,2096921, 309004, 449394
2096921,2096921, 308737, 449430
2096921,2096921, 308446, 449542
2096921,2096921, 308592, 449789
2096921,2096921, 308760, 449555
2096921,2096921, 308620, 449652
2096921,2096921, 308610, 449598
2096921,2096921, 308709, 449480
2096921,2096921, 308507, 449380
2096921,2096921, 308501, 449558
2096921,2096921, 308715, 449693
2096921,2096921, 308753, 449667
2096921,2096921, 308802, 449682
2096921,2096921, 308771, 449888
2096921,2096921, 309047, 449759
2096921,2096921, 308808, 450142
2096921,2096921, 308773, 449567
2096921,2096921, 308786, 449870
2096921,2096921, 308763, 449847
2096921,2096921, 308541, 449801
2096921,2096921, 308578, 449956
2096921,2096921, 308872, 449850
2096921,2096921, 308862, 450191
2096921,2096921, 308876, 449975
2096921,2096921, 309061, 449874
2096921,2096921, 308692, 449849
2096921,2096921, 308971, 449570
2096921,2096921, 308990, 450063
2096921,2096921, 309145, 449944
2096921,2096921, 308924, 450143
2096921,2096921, 308941, 450136
2096921,2096921, 309148, 450299
2096921,2096921, 309258, 450173
2096921,2096921, 309235, 450064
2096921,2096921, 309140, 450191
2096921,2096921, 309044, 450178
2096921,2096921, 309110, 450194
2096921,2096921, 309317, 450317
2096921,2096921, 309108, 450230
2096921,2096921, 309196, 450294
2096921,2096921, 309423, 450444
2096921,2096921, 309628, 450368
2096921,2096921, 309623, 450546
2096921,2096921, 309524, 450410
2096921,2096921, 309286, 450381
2096921,2096921, 309417, 450350
2096921,2096921, 309422, 450089
2096921,2096921, 309822, 450310
2096921,2096921, 309416, 450430
2096921,2096921, 309584, 450639
2096921,2096921, 309738, 450503
2096921,2096921, 309728, 450470
2096921,2096921, 309617, 450423
2096921,2096921, 309634, 450764
2096921,2096921, 309655, 450454
2096921,2096921, 309547, 450460
2096921,2096921, 309685, 450453
2096921,2096921, 309565, 450923
2096921,2096921, 309765, 450626
2096921,2096921, 309729, 450574
2096921,2096921, 309740, 450555
2096921,2096921, 309872, 450576
2096921,2096921, 309989, 450852
2096921,2096921, 309884, 451026
2096921,2096921, 309918, 450666
2096921,2096921, 309798, 450325
2096921,2096921, 309835, 450592
2096921,2096921, 309898, 450663
2096921,2096921, 310071, 450609
2096921,2096921, 309790, 451062
2096921,2096921, 309846, 450709
2096921,2096921, 309829, 450859
2096921,2096921, 310243, 450862
2096921,2096921, 310098, 450846
2096921,2096921, 310033, 450820
2096921,2096921, 310051, 451243
2096921,2096921, 309873, 450971
2096921,2096921, 309999, 451133
2096921,2096921, 310098, 450850
2096921,2096921, 309985, 450857
2096921,2096921, 310260, 451189
2096921,2096921, 310105, 451211
2096921,2096921, 310230, 451244
2096921,2096921, 310139, 451239
2096921,2096921, 310084, 451162
2096921,2096921, 310026, 451018
2096921,2096921, 310132, 450913
2096921,2096921, 310072, 451116
2096921,2096921, 310232, 450900
2096921,2096921, 310179, 450975
2096921,2096921, 310182, 451109
2096921,2096921, 310299, 451208
2096921,2096921, 310011, 451495
2096921,2096921, 309845, 451367
2096921,2096921, 310156, 451312
2096921,2096921, 310209, 451272
2096921,2096921, 310397, 451008
2096921,2096921, 310333, 451417
2096921,2096921, 310433, 451204
2096921,2096921, 310496, 451121
2096921,2096921, 310221, 451393
2096921,2096921, 310391, 451374
2096921,2096921, 310269, 451367
2096921,2096921, 310388, 451422
2096921,2096921, 310290, 451170
2096921,2096921, 310421, 451454
2096921,2096921, 310481, 451280
2096921,2096921, 310393, 451484
2096921,2096921, 310418, 451622
2096921,2096921, 310473, 451442
2096921,2096921, 310406, 451551
2096921,2096921, 310727, 451459
2096921,2096921, 310720, 451530
2096921,2096921, 310791, 451475
2096921,2096921, 310472, 451953
2096921,2096921, 310447, 451729
2096921,2096921, 310507, 451590
2096921,2096921, 310611, 451656
2096921,2096921, 310575, 451797
2096921,2096921, 310617, 451429
2096921,2096921, 310496, 451820
2096921,2096921, 309994, 451722
2096921,2096921, 310302, 451494
2096921,2096921, 310395, 451946
2096921,2096921, 310273, 451704
2096921,2096921, 309995, 451351
2096921,2096921, 309862, 451651
2096921,2096921, 309727, 451332
2096921,2096921, 309870, 451570
2096921,2096921, 309881, 451466
2096921,2096921, 309746, 451344
2096921,2096921, 309385, 451215
2096921,2096921, 309532, 451208
2096921,2096921, 309694, 451203
2096921,2096921, 309535, 451011
2096921,2096921, 309517, 450924
2096921,2096921, 309038, 451066
2096921,2096921, 308742, 450572
2096921,2096921, 308538, 450536
2096921,2096921, 308590, 450775
2096921,2096921, 308943, 450579
2096921,2096921, 308255, 450514
2096921,2096921, 308136, 450666
2096921,2096921, 308126, 450153
2096921,2096921, 308153, 450063
2096921,2096921, 308066, 449968
2096921,2096921, 306462, 449835
2096921,2096921, 306227, 449057
2096921,2096921, 306104, 449029
2096921,2096921, 306119, 449325
2096921,2096921, 306222, 448949
2096921,2096921, 304444, 448836
2096921,2096921, 303948, 448167
2096921,2096921, 304262, 447860
2096921,2096921, 303964, 447665
2096921,2096921, 303720, 447726
2096921,2096921, 302701, 447372
2096921,2096921, 302540, 446826
2096921,2096921, 302094, 446445
2096921,2096921, 301978, 446704
2096921,2096921, 302394, 446580
2096921,2096921, 301365, 446532
2096921,2096921, 301145, 446076
2096921,2096921, 300923, 446146
2096921,2096921, 300965, 445883
2096921,2096921, 300833, 445553
2096921,2096921, 300303, 445537
2096921,2096921, 299879, 445326
2096921,2096921, 299939, 445121
2096921,2096921, 300373, 445133
2096921,2096921, 300115, 445543
2096921,2096921, 300016, 444927
2096921,2096921, 299879, 444877
2096921,2096921, 299720, 445084
2096921,2096921, 299389, 444868
2096921,2096921, 299491, 444746
2096921,2096921, 298915, 444796
2096921,2096921, 299199, 444566
2096921,2096921, 299286, 444766
2096921,2096921, 299136, 444704
2096921,2096921, 299186, 444780
2096921,2096921, 299150, 444805
2096921,2096921, 299152, 444710
2096921,2096921, 299022, 444756
2096921,2096921, 298663, 444376
2096921,2096921, 298829, 444310
2096921,2096921, 298743, 444809
2096921,2096921, 298960, 444879
2096921,2096921, 298981, 444892
2096921,2096921, 298851, 444657
2096921,2096921, 298950, 444648
2096921,2096921, 299049, 444676
2096921,2096921, 299180, 444877
2096921,2096921, 299286, 444939
2096921,2096921, 298826, 444828
2096921,2096921, 299242, 444615
2096921,2096921, 299046, 444702
2096921,2096921, 299184, 445021
2096921,2096921, 299161, 445116
2096921,2096921, 299419, 445196
2096921,2096921, 299438, 444873
2096921,2096921, 299408, 445124
2096921,2096921, 299261, 445127
2096921,2096921, 299525, 445327
2096921,2096921, 299658, 445258
2096921,2096921, 299543, 445439
2096921,2096921, 299978, 445525
2096921,2096921, 299803, 445540
2096921,2096921, 299834, 445368
2096921,2096921, 299700, 445683
2096921,2096921, 299817, 445919
2096921,2096921, 300331, 445861
2096921,2096921, 300404, 445786
2096921,2096921, 300349, 446318
2096921,2096921, 300577, 446494
2096921,2096921, 300408, 446236
2096921,2096921, 300809, 446035
2096921,2096921, 300937, 446252
2096921,2096921, 300797, 446455
2096921,2096921, 300875, 446569
2096921,2096921, 300974, 446436
2096921,2096921, 301342, 446766
2096921,2096921, 301469, 446977
2096921,2096921, 301531, 446843
2096921,2096921, 301280, 446860
2096921,2096921, 301514, 446885
2096921,2096921, 301640, 447006
2096921,2096921, 301706, 447362
2096921,2096921, 302077, 447319
2096921,2096921, 301987, 447376
2096921,2096921, 301822, 447474
2096921,2096921, 302522, 447459
2096921,2096921, 302638, 448001
2096921,2096921, 302580, 447995
2096921,2096921, 302643, 447757
2096921,2096921, 302478, 447623
2096921,2096921, 302527, 447841
2096921,2096921, 302778, 448551
2096921,2096921, 302584, 448273
2096921,2096921, 302810, 448115
2096921,2096921, 302973, 448285
2096921,2096921, 303016, 448369
2096921,2096921, 303348, 448539
2096921,2096921, 303548, 448820
2096921,2096921, 303568, 449077
2096921,2096921, 303535, 448954
2096921,2096921, 303773, 448804
2096921,2096921, 303842, 449065
2096921,2096921, 303931, 449344
2096921,2096921, 304063, 449316
2096921,2096921, 303789, 449264
2096921,2096921, 304454, 449306
2096921,2096921, 304214, 449650
2096921,2096921, 304244, 449626
2096921,2096921, 304635, 449521
2096921,2096921, 304415, 449352
2096921,2096921, 304864, 449586
2096921,2096921, 304956, 449729
2096921,2096921, 305064, 450042
2096921,2096921, 305180, 450093
2096921,2096921, 305243, 450276
2096921,2096921, 305292, 450138
2096921,2096921, 305746, 450546
2096921,2096921, 305637, 450633
2096921,2096921, 305663, 450615
2096921,2096921, 305445, 450631
2096921,2096921, 305902, 450679
2096921,2096921, 305888, 450898
2096921,2096921, 306087, 450904
2096921,2096921, 306047, 450761
2096921,2096921, 306261, 450927
2096921,2096921, 306514, 451043
2096921,2096921, 306793, 451566
2096921,2096921, 306657, 451431
2096921,2096921, 306358, 451517
2096921,2096921, 306366, 451301
2096921,2096921, 306613, 451509
2096921,2096921, 306996, 452163
2096921,2096921, 306922, 451820
2096921,2096921, 307037, 451876
2096921,2096921, 307171, 451823
2096921,2096921, 307463, 451673
2096921,2096921, 307371, 451953
2096921,2096921, 307390, 452179
2096921,2096921, 307307, 451732
2096921,2096921, 307359, 452122
2096921,2096921, 307466, 452275
2096921,2096921, 307484, 452168
2096921,2096921, 307390, 452409
2096921,2096921, 307671, 452416
2096921,2096921, 307506, 452463
2096921,2096921, 307655, 452183
2096921,2096921, 307978, 452723
2096921,2096921, 307919, 452925
2096921,2096921, 307544, 452707
2096921,2096921, 308058, 452505
2096921,2096921, 308125, 452515
2096921,2096921, 308225, 452811
2096921,2096921, 307791, 452750
2096921,2096921, 307922, 452881
2096921,2096921, 308040, 452800
2096921,2096921, 308064, 452678
2096921,2096921, 308244, 452934
2096921,2096921, 308086, 453038
2096921,2096921, 307913, 453031
2096921,2096921, 308109, 453005
2096921,2096921, 307968, 452801
2096921,2096921, 308133, 453397
2096921,2096921, 307894, 452818
2096921,2096921, 307987, 452763
2096921,2096921, 307886, 452823
2096921,2096921, 308163, 452737
2096921,2096921, 308206, 453301
2096921,2096921, 308162, 453169
2096921,2096921, 308046, 453402
2096921,2096921, 308103, 453478
2096921,2096921, 308127, 453146
2096921,2096921, 308074, 453083
2096921,2096921, 307854, 453163
2096921,2096921, 308211, 453190
2096921,2096921, 308487, 453437
2096921,2096921, 308270, 453123
2096921,2096921, 308274, 453242
2096921,2096921, 308197, 453430
2096921,2096921, 307902, 453596
2096921,2096921, 307922, 453218
2096921,2096921, 307775, 453284
2096921,2096921, 307914, 453206
2096921,2096921, 308177, 453492
2096921,2096921, 308049, 453369
2096921,2096921, 307974, 453493
2096921,2096921, 307966, 453489
2096921,2096921, 308125, 453788
2096921,2096921, 308224, 453909
2096921,2096921, 308210, 453432
2096921,2096921, 308179, 453438
2096921,2096921, 308431, 453472
2096921,2096921, 308229, 453973
2096921,2096921, 308308, 453781
2096921,2096921, 308402, 453604
2096921,2096921, 308275, 453739
2096921,2096921, 308173, 453601
2096921,2096921, 308381, 453715
2096921,2096921, 308528, 454197
2096921,2096921, 308392, 453867
2096921,2096921, 308224, 454145
2096921,2096921, 308374, 453744
2096921,2096921, 308465, 454366
2096921,2096921, 308451, 454112
2096921,2096921, 309022, 454241
2096921,2096921, 308569, 454261
2096921,2096921, 308858, 454348
2096921,2096921, 308955, 454535
2096921,2096921, 308893, 454409
2096921,2096921, 308823, 454657
2096921,2096921, 309040, 454643
2096921,2096921, 309379, 454361
2096921,2096921, 309337, 454620
2096921,2096921, 308982, 454686
2096921,2096921, 309279, 454531
2096921,2096921, 309339, 454939
2096921,2096921, 309416, 454931
2096921,2096921, 309614, 455077
2096921,2096921, 309761, 455286
2096921,2096921, 309917, 455308
2096921,2096921, 309821, 455156
2096921,2096921, 309901, 455061
2096921,2096921, 310034, 455305
2096921,2096921, 310102, 455405
2096921,2096921, 310290, 455299
2096921,2096921, 310215, 455543
2096921,2096921, 310269, 455720
2096921,2096921, 310415, 455836
2096921,2096921, 310610, 455968
2096921,2096921, 310632, 456116
2096921,2096921, 310378, 455600
2096921,2096921, 310814, 455875
2096921,2096921, 310909, 456100
2096921,2096921, 310998, 456344
2096921,2096921, 310949, 456298
2096921,2096921, 311189, 456453
2096921,2096921, 311085, 456280
2096921,2096921, 311412, 456521
2096921,2096921, 311105, 456658
2096921,2096921, 310957, 456780
2096921,2096921, 311111, 456810
2096921,2096921, 311376, 456646
2096921,2096921, 311348, 456819
2096921,2096921, 311689, 456938
2096921,2096921, 311644, 456793
2096921,2096921, 311793, 456904
2096921,2096921, 312065, 457082
2096921,2096921, 311919, 457139
2096921,2096921, 311975, 457201
2096921,2096921, 311787, 457314
2096921,2096921, 311546, 457134
2096921,2096921, 311912, 457164
2096921,2096921, 312110, 457420
2096921,2096921, 312528, 457484
2096921,2096921, 312370, 457752
2096921,2096921, 312112, 457659
2096921,2096921, 312586, 457395
2096921,2096921, 313127, 457625
2096921,2096921, 312924, 457844
2096921,2096921, 312921, 458006
2096921,2096921, 312654, 457936
2096921,2096921, 312697, 457600
2096921,2096921, 312661, 457852
2096921,2096921, 312650, 457985
2096921,2096921, 312708, 457943
2096921,2096921, 312789, 458306
2096921,2096921, 313233, 458622
2096921,2096921, 313227, 458324
2096921,2096921, 313503, 458547
2096921,2096921, 313307, 458247
2096921,2096921, 313127, 458305
2096921,2096921, 313688, 458436
2096921,2096921, 313584, 458624
2096921,2096921, 313430, 458633
2096921,2096921, 313665, 458700
2096921,2096921, 313754, 458686
2096921,2096921, 314013, 458649
2096921,2096921, 314091, 458924
2096921,2096921, 314163, 459157
2096921,2096921, 313964, 458928
2096921,2096921, 313937, 458904
2096921,2096921, 314175, 459011
2096921,2096921, 314278, 459409
2096921,2096921, 314071, 459327
2096921,2096921, 314029, 459421
2096921,2096921, 314245, 459618
2096921,2096921, 314611, 459417
2096921,2096921, 314488, 459864
2096921,2096921, 314508, 459940
2096921,2096921, 314484, 459959
2096921,2096921, 314735, 459527
2096921,2096921, 314920, 459381
2096921,2096921, 314841, 459786
2096921,2096921, 314906, 460066
2096921,2096921, 314899, 460033
2096921,2096921, 314826, 459797
2096921,2096921, 315186, 460026
2096921,2096921, 314855, 460026
2096921,2096921, 315203, 460126
2096921,2096921, 315055, 460207
2096921,2096921, 315036, 460112
2096921,2096921, 315208, 460262
2096921,2096921, 315301, 460374
2096921,2096921, 315120, 460262
2096921,2096921, 315393, 460290
2096921,2096921, 315495, 460517
2096921,2096921, 315659, 460313
2096921,2096921, 315415, 460782
2096921,2096921, 315746, 460799
2096921,2096921, 315780, 460590
2096921,2096921, 315572, 460844
2096921,2096921, 315768, 460661
2096921,2096921, 315632, 460935
2096921,2096921, 315891, 460817
2096921,2096921, 315936, 460781
2096921,2096921, 315967, 460653
2096921,2096921, 316290, 461086
2096921,2096921, 316276, 461433
2096921,2096921, 316499, 461152
2096921,2096921, 316224, 461328
2096921,2096921, 315994, 461281
2096921,2096921, 316157, 461218
2096921,2096921, 316077, 461229
2096921,2096921, 316432, 461464
2096921,2096921, 316496, 461619
2096921,2096921, 316694, 461244
2096921,2096921, 316595, 461124
2096921,2096921, 316691, 461584
2096921,2096921, 316708, 461923
2096921,2096921, 316512, 461601
2096921,2096921, 316793, 461395
2096921,2096921, 316716, 461236
2096921,2096921, 316478, 461878
2096921,2096921, 316676, 461805
2096921,2096921, 316755, 461798
2096921,2096921, 316927, 461844
2096921,2096921, 317057, 461969
2096921,2096921, 316765, 461666
2096921,2096921, 316771, 461904
2096921,2096921, 317024, 461854
2096921,2096921, 316695, 461760
2096921,2096921, 317103, 462090
2096921,2096921, 317191, 462109
2096921,2096921, 317089, 462191
2096921,2096921, 316924, 462265
2096921,2096921, 317253, 462070
2096921,2096921, 317322, 462067
2096921,2096921, 317598, 461808
2096921,2096921, 317304, 462090
2096921,2096921, 317216, 462176
2096921,2096921, 317266, 462058
2096921,2096921, 317665, 462194
2096921,2096921, 317596, 462387
2096921,2096921, 317686, 462246
2096921,2096921, 317528, 462466
2096921,2096921, 317284, 462470
2096921,2096921, 317674, 462342
2096921,2096921, 317655, 462789
2096921,2096921, 317594, 462790
2096921,2096921, 317468, 462761
2096921,2096921, 317864, 463023
2096921,2096921, 317757, 462977
2096921,2096921, 317449, 462625
2096921,2096921, 317522, 462649
2096921,2096921, 317625, 462350
2096921,2096921, 317627, 462731
2096921,2096921, 317803, 462717
2096921,2096921, 318218, 463094
2096921,2096921, 318196, 462778
2096921,2096921, 318167, 463027
2096921,2096921, 317930, 462831
2096921,2096921, 318001, 462698
2096921,2096921, 317984, 462653
2096921,2096921, 317807, 462880
2096921,2096921, 317688, 462912
2096921,2096921, 317917, 463113
2096921,2096921, 318340, 463070
2096921,2096921, 318380, 463242
2096921,2096921, 318412, 463139
2096921,2096921, 318390, 463172
2096921,2096921, 318292, 463226
2096921,2096921, 318056, 463176
2096921,2096921, 318054, 463138
2096921,2096921, 318272, 463461
2096921,2096921, 318272, 463295
2096921,2096921, 318097, 462952
2096921,2096921, 318391, 463426
2096921,2096921, 318610, 463351
2096921,2096921, 318510, 463320
2096921,2096921, 318501, 463203
2096921,2096921, 318201, 463047
2096921,2096921, 318473, 463196
2096921,2096921, 318388, 463510
2096921,2096921, 318315, 463118
2096921,2096921, 318268, 463398
2096921,2096921, 318608, 463407
2096921,2096921, 318787, 463438
2096921,2096921, 318665, 463263
2096921,2096921, 318693, 463745
2096921,2096921, 318497, 463637
2096921,2096921, 318457, 463663
2096921,2096921, 318893, 463565
2096921,2096921, 318731, 463571
2096921,2096921, 318535, 463299
2096921,2096921, 318711, 463503
2096921,2096921, 318567, 463592
2096921,2096921, 318755, 463788
2096921,2096921, 318996, 463994
2096921,2096921, 318856, 463751
2096921,2096921, 318716, 463631
2096921,2096921, 318730, 463657
2096921,2096921, 318901, 463650
2096921,2096921, 319035, 463884
2096921,2096921, 318920, 463671
2096921,2096921, 319327, 463786
2096921,2096921, 318920, 463883
2096921,2096921, 318977, 463864
2096921,2096921, 318905, 463883
2096921,2096921, 318848, 464223
2096921,2096921, 319019, 463954
2096921,2096921, 319080, 464106
2096921,2096921, 318974, 464181
2096921,2096921, 318930, 464304
2096921,2096921, 319103, 463983
2096921,2096921, 319138, 463910
2096921,2096921, 319197, 464178
2096921,2096921, 319160, 464025
2096921,2096921, 319404, 463943
2096921,2096921, 319397, 463716
2096921,2096921, 319087, 464071
2096921,2096921, 319113, 464143
2096921,2096921, 319158, 463975
2096921,2096921, 319147, 463780
2096921,2096921, 318985, 463930
2096921,2096921, 319071, 463972
2096921,2096921, 319500, 464054
2096921,2096921, 319451, 464329
2096921,2096921, 319198, 464275
2096921,2096921, 319262, 464390
2096921,2096921, 319116, 464287
2096921,2096921, 319048, 464185
2096921,2096921, 319210, 464242
2096921,2096921, 319280, 464552
2096921,2096921, 319543, 464196
2096921,2096921, 319177, 464052
2096921,2096921, 319271, 464411
2096921,2096921, 319395, 464181
2096921,2096921, 319637, 463921
2096921,2096921, 319251, 464516
2096921,2096921, 319252, 464427
2096921,2096921, 319297, 464246
2096921,2096921, 319313, 464091
2096921,2096921, 319363, 464324
2096921,2096921, 319639, 464522
2096921,2096921, 319557, 464415
2096921,2096921, 319367, 464415
2096921,2096921, 319083, 464453
2096921,2096921, 318997, 464148
2096921,2096921, 319366, 464488
2096921,2096921, 319375, 464259
2096921,2096921, 319325, 464158
2096921,2096921, 319291, 464287
2096921,2096921, 319097, 464546
2096921,2096921, 319149, 464213
2096921,2096921, 319259, 464301
2096921,2096921, 319088, 464240
2096921,2096921, 319395, 464445
2096921,2096921, 319454, 464433
2096921,2096921, 319341, 464069
2096921,2096921, 319492, 464194
2096921,2096921, 319330, 464011
2096921,2096921, 319063, 464246
2096921,2096921, 318790, 464140
2096921,2096921, 319023, 463997
2096921,2096921, 319346, 464072
2096921,2096921, 319568, 463973
2096921,2096921, 319198, 464267
2096921,2096921, 319166, 464244
2096921,2096921, 319169, 464088
2096921,2096921, 318988, 464127
2096921,2096921, 318733, 464101
2096921,2096921, 318560, 464255
2096921,2096921, 318677, 463742
2096921,2096921, 318651, 463511
2096921,2096921, 318767, 463984
2096921,2096921, 318575, 463967
2096921,2096921, 318118, 463829
2096921,2096921, 317931, 463813
2096921,2096921, 317901, 463429
2096921,2096921, 318250, 463256
2096921,2096921, 317989, 463296
2096921,2096921, 317521, 463277
2096921,2096921, 316972, 463018
2096921,2096921, 317163, 462781
2096921,2096921, 317315, 462744
2096921,2096921, 317121, 462919
2096921,2096921, 316403, 462803
2096921,2096921, 316400, 462321
2096921,2096921, 316279, 462351
2096921,2096921, 316501, 462328
2096921,2096921, 316327, 462038
2096921,2096921, 314694, 461929
2096921,2096921, 314445, 461109
2096921,2096921, 314538, 461004
2096921,2096921, 314321, 461039
2096921,2096921, 314430, 460717
2096921,2096921, 312719, 460575
2096921,2096921, 312224, 459377
2096921,2096921, 311763, 459279
2096921,2096921, 311939, 459130
2096921,2096921, 311656, 459353
2096921,2096921, 310443, 458841
2096921,2096921, 310193, 458233
2096921,2096921, 310197, 458060
2096921,2096921, 309996, 457933
2096921,2096921, 310156, 458076
2096921,2096921, 309149, 457748
2096921,2096921, 308988, 457459
2096921,2096921, 308636, 457225
2096921,2096921, 308721, 457311
2096921,2096921, 308933, 457034
2096921,2096921, 307881, 456739
2096921,2096921, 307563, 456197
2096921,2096921, 307783, 456239
2096921,2096921, 307619, 456453
2096921,2096921, 307629, 456261
2096921,2096921, 306959, 456261
2096921,2096921, 307295, 456190
2096921,2096921, 306954, 456185
2096921,2096921, 306760, 455993
2096921,2096921, 307085, 455766
2096921,2096921, 306798, 455617
2096921,2096921, 306476, 455450
2096921,2096921, 306599, 455536
2096921,2096921, 306221, 455750
2096921,2096921, 306486, 455433
2096921,2096921, 306351, 455284
2096921,2096921, 306196, 455177
2096921,2096921, 306197, 455173
2096921,2096921, 306274, 455081
2096921,2096921, 306380, 454900
2096921,2096921, 306162, 455108
2096921,2096921, 306109, 455142
2096921,2096921, 306212, 455219
2096921,2096921, 306313, 455123
2096921,2096921, 306233, 455206
2096921,2096921, 306250, 455685
2096921,2096921, 305794, 455537
2096921,2096921, 306258, 455665
2096921,2096921, 306200, 455221
2096921,2096921, 305852, 454974
2096921,2096921, 306262, 455007
2096921,2096921, 306197, 455125
2096921,2096921, 306380, 455224
2096921,2096921, 306361, 455476
2096921,2096921, 306108, 455580
2096921,2096921, 306553, 455525
2096921,2096921, 306621, 455694
2096921,2096921, 306355, 455476
2096921,2096921, 306400, 455497
2096921,2096921, 306325, 455411
2096921,2096921, 306565, 455319
2096921,2096921, 306628, 455428
2096921,2096921, 306524, 455416
2096921,2096921, 306865, 455355
2096921,2096921, 306678, 455406
2096921,2096921, 307006, 455475
2096921,2096921, 307121, 455485
2096921,2096921, 307122, 455914
2096921,2096921, 306962, 455793
2096921,2096921, 306593, 455768
2096921,2096921, 307265, 455729
2096921,2096921, 307213, 456074
2096921,2096921, 307423, 456111
2096921,2096921, 307500, 455916
2096921,2096921, 307488, 456046
2096921,2096921, 307706, 456061
2096921,2096921, 307454, 456425
2096921,2096921, 307682, 456366
2096921,2096921, 307589, 456510
2096921,2096921, 307740, 456112
2096921,2096921, 308211, 456361
2096921,2096921, 308138, 456495
2096921,2096921, 308208, 456685
2096921,2096921, 308138, 456619
2096921,2096921, 308227, 456621
2096921,2096921, 308507, 456957
2096921,2096921, 308714, 457078
2096921,2096921, 308715, 457004
2096921,2096921, 308515, 456812
2096921,2096921, 308588, 456786
2096921,2096921, 308984, 457138
2096921,2096921, 309195, 457005
2096921,2096921, 309196, 457217
2096921,2096921, 309148, 457112
2096921,2096921, 309200, 457132
2096921,2096921, 309374, 457019
2096921,2096921, 309291, 457257
2096921,2096921, 309498, 457680
2096921,2096921, 309397, 457397
2096921,2096921, 309121, 457417
2096921,2096921, 309796, 457435
2096921,2096921, 309771, 457805
2096921,2096921, 309781, 457693
2096921,2096921, 309868, 457520
2096921,2096921, 309860, 457842
2096921,2096921, 310402, 457657
2096921,2096921, 310416, 457924
2096921,2096921, 310101, 457856
2096921,2096921, 310643, 458038
2096921,2096921, 310258, 458055
2096921,2096921, 310558, 458107
2096921,2096921, 310605, 458257
2096921,2096921, 310489, 458185
2096921,2096921, 310719, 458237
2096921,2096921, 310504, 458361
2096921,2096921, 310920, 458322
2096921,2096921, 311208, 458279
2096921,2096921, 311469, 458339
2096921,2096921, 311029, 458573
2096921,2096921, 310939, 458425
2096921,2096921, 311127, 458477
2096921,2096921, 311245, 458568
2096921,2096921, 311176, 458672
2096921,2096921, 311283, 458662
2096921,2096921, 311345, 459235
2096921,2096921, 311622, 459151
2096921,2096921, 311906, 459118
2096921,2096921, 311895, 458975
2096921,2096921, 311994, 459058
2096921,2096921, 311684, 458864
2096921,2096921, 312132, 458863
2096921,2096921, 312136, 458763
2096921,2096921, 312221, 458898
2096921,2096921, 312363, 459003
2096921,2096921, 312317, 459254
2096921,2096921, 311990, 459062
2096921,2096921, 312331, 459341
2096921,2096921, 312178, 459384
2096921,2096921, 312078, 459212
2096921,2096921, 312051, 459426
2096921,2096921, 312256, 459368
2096921,2096921, 312131, 459441
2096921,2096921, 312639, 459326
2096921,2096921, 312680, 459295
2096921,2096921, 312817, 459230
2096921,2096921, 312387, 459209
2096921,2096921, 312488, 459435
2096921,2096921, 312588, 459323
2096921,2096921, 312718, 459541
2096921,2096921, 312428, 459358
2096921,2096921, 312397, 459564
2096921,2096921, 312325, 459581
2096921,2096921, 312416, 459386
2096921,2096921, 312600, 459466
2096921,2096921, 312315, 459454
2096921,2096921, 312069, 459477
2096921,2096921, 312692, 459214
2096921,2096921, 312443, 459333
2096921,2096921, 312422, 459262
2096921,2096921, 312564, 459108
2096921,2096921, 312169, 458959
2096921,2096921, 312297, 458793
2096921,2096921, 312228, 459215
2096921,2096921, 311879, 459142
2096921,2096921, 312213, 459090
2096921,2096921, 312120, 459106
2096921,2096921, 311947, 459036
2096921,2096921, 312232, 459162
2096921,2096921, 312036, 459015
2096921,2096921, 311993, 458769
2096921,2096921, 311974, 459074
2096921,2096921, 311933, 458777
2096921,2096921, 311924, 458793
2096921,2096921, 312014, 458861
2096921,2096921, 311997, 458964
2096921,2096921, 311906, 458845
2096921,2096921, 311794, 458829
2096921,2096921, 312036, 459131
2096921,2096921, 311805, 459080
2096921,2096921, 311777, 458960
2096921,2096921, 311511, 458808
2096921,2096921, 311716, 459001
2096921,2096921, 311540, 458697
2096921,2096921, 311477, 458487
2096921,2096921, 311778, 458778
2096921,2096921, 311684, 458768
2096921,2096921, 311674, 458558
2096921,2096921, 311555, 458442
2096921,2096921, 311698, 458339
2096921,2096921, 311356, 458329
2096921,2096921, 311362, 458585
2096921,2096921, 311427, 458473
2096921,2096921, 311293, 458420
2096921,2096921, 311578, 458329
2096921,2096921, 311342, 458415
2096921,2096921, 311458, 458461
2096921,2096921, 311502, 458423
2096921,2096921, 311658, 458470
2096921,2096921, 311414, 458523
2096921,2096921, 311400, 458432
2096921,2096921, 311480, 458277
2096921,2096921, 311267, 458394
2096921,2096921, 311296, 458148
2096921,2096921, 311644, 458398
2096921,2096921, 311802, 458474
2096921,2096921, 311648, 458514
2096921,2096921, 311722, 458507
2096921,2096921, 311875, 458405
2096921,2096921, 311607, 458172
2096921,2096921, 311217, 458531
2096921,2096921, 311613, 458114
2096921,2096921, 311673, 458244
2096921,2096921, 311677, 458335
2096921,2096921, 311734, 458561
2096921,2096921, 311771, 458358
2096921,2096921, 311914, 458410
2096921,2096921, 311840, 458594
2096921,2096921, 311987, 458432
2096921,2096921, 311845, 458737
2096921,2096921, 312012, 458455
2096921,2096921, 311910, 458642
2096921,2096921, 312335, 458814
2096921,2096921, 312203, 458770
2096921,2096921, 312434, 458618
2096921,2096921, 312417, 458790
2096921,2096921, 312437, 458841
2096921,2096921, 312446, 458719
2096921,2096921, 312496, 458954
2096921,2096921, 312394, 458874
2096921,2096921, 312693, 458914
2096921,2096921, 312740, 458801
2096921,2096921, 312451, 458788
2096921,2096921, 312741, 458709
2096921,2096921, 312556, 458802
2096921,2096921, 312571, 458752
2096921,2096921, 312786, 458728
2096921,2096921, 312431, 458840
2096921,2096921, 312922, 458793
2096921,2096921, 312653, 459111
2096921,2096921, 312696, 458686
2096921,2096921, 312689, 458768
2096921,2096921, 312824, 458882
2096921,2096921, 312658, 458829
2096921,2096921, 312930, 458971
2096921,2096921, 312898, 458971
2096921,2096921, 313394, 459272
2096921,2096921, 313246, 459348
2096921,2096921, 313227, 459205
2096921,2096921, 313270, 458871
2096921,2096921, 313125, 458774
2096921,2096921, 313200, 459098
2096921,2096921, 313312, 458915
2096921,2096921, 313180, 459092
2096921,2096921, 313268, 459025
2096921,2096921, 313261, 459187
2096921,2096921, 313398, 459343
2096921,2096921, 313558, 459137
2096921,2096921, 313453, 458936
2096921,2096921, 313428, 458841
2096921,2096921, 313405, 458762
2096921,2096921, 313472, 459045
2096921,2096921, 313355, 458948
2096921,2096921, 313636, 459073
2096921,2096921, 313701, 458976
2096921,2096921, 313798, 459074
2096921,2096921, 313671, 459214
2096921,2096921, 313684, 459044
2096921,2096921, 313489, 459132
2096921,2096921, 313587, 458951
2096921,2096921, 313372, 458772
2096921,2096921, 313900, 458797
2096921,2096921, 313670, 458871
2096921,2096921, 313737, 459330
2096921,2096921, 313762, 459314
2096921,2096921, 313841, 459149
2096921,2096921, 313883, 459242
2096921,2096921, 314200, 459170
2096921,2096921, 313782, 459285
2096921,2096921, 313924, 459141
2096921,2096921, 314064, 459188
2096921,2096921, 313889, 459275
2096921,2096921, 313827, 459203
2096921,2096921, 313912, 459162
2096921,2096921, 313700, 458994
2096921,2096921, 313999, 459227
2096921,2096921, 314028, 459459
2096921,2096921, 314225, 459225
2096921,2096921, 314169, 459425
2096921,2096921, 314210, 459337
2096921,2096921, 313984, 459111
2096921,2096921, 314241, 459109
2096921,2096921, 314088, 459117
2096921,2096921, 313849, 458947
2096921,2096921, 313988, 459177
2096921,2096921, 314396, 459157
2096921,2096921, 314439, 459089
2096921,2096921, 314499, 459002
2096921,2096921, 314524, 459004
2096921,2096921, 314437, 458636
2096921,2096921, 314417, 459038
2096921,2096921, 314182, 458959
2096921,2096921, 314109, 458862
2096921,2096921, 314255, 459016
2096921,2096921, 314338, 459000
2096921,2096921, 314332, 458956
2096921,2096921, 314625, 458984
2096921,2096921, 314371, 459051
2096921,2096921, 314491, 459315
2096921,2096921, 314500, 458959
2096921,2096921, 314617, 458951
2096921,2096921, 314407, 458801
2096921,2096921, 314464, 458925
2096921,2096921, 314182, 458992
2096921,2096921, 314672, 459007
2096921,2096921, 314705, 459050
2096921,2096921, 314337, 459165
2096921,2096921, 314387, 459192
2096921,2096921, 314584, 459136
2096921,2096921, 314692, 458862
2096921,2096921, 314523, 458962
2096921,2096921, 314508, 458784
2096921,2096921, 314357, 458920
2096921,2096921, 314216, 458864
2096921,2096921, 314419, 458663
2096921,2096921, 314549, 459147
2096921,2096921, 314549, 458906
2096921,2096921, 314766, 458942
2096921,2096921, 314557, 458619
2096921,2096921, 314636, 458773
2096921,2096921, 314437, 458783
2096921,2096921, 314389, 458859
2096921,2096921, 314608, 458601
2096921,2096921, 314804, 458701
2096921,2096921, 314594, 458721
2096921,2096921, 314809, 458885
2096921,2096921, 314649, 458813
2096921,2096921, 314598, 458542
2096921,2096921, 314671, 458523
2096921,2096921, 314706, 458555
2096921,2096921, 314659, 458356
2096921,2096921, 314430, 458556
2096921,2096921, 314424, 458479
2096921,2096921, 314657, 458643
2096921,2096921, 314583, 458201
2096921,2096921, 314611, 458616
2096921,2096921, 314504, 458577
2096921,2096921, 314705, 458521
2096921,2096921, 314506, 458628
2096921,2096921, 314560, 458237
2096921,2096921, 314596, 458296
2096921,2096921, 314391, 458221
2096921,2096921, 314514, 458154
2096921,2096921, 314601, 458232
2096921,2096921, 314428, 458347
2096921,2096921, 314566, 458487
2096921,2096921, 314617, 458545
2096921,2096921, 314846, 458166
2096921,2096921, 314776, 458454
2096921,2096921, 314852, 457986
2096921,2096921, 314617, 458218
2096921,2096921, 314943, 458164
2096921,2096921, 314634, 458322
2096921,2096921, 314441, 458126
2096921,2096921, 314655, 458039
2096921,2096921, 314635, 458085
2096921,2096921, 314743, 458631
2096921,2096921, 314543, 457900
2096921,2096921, 314440, 458197
2096921,2096921, 314400, 457943
2096921,2096921, 314351, 458142
2096921,2096921, 314271, 458013
2096921,2096921, 314440, 457799
2096921,2096921, 314547, 457745
2096921,2096921, 314803, 457877
2096921,2096921, 314276, 458173
2096921,2096921, 314262, 458061
2096921,2096921, 314378, 457793
2096921,2096921, 314405, 457868
2096921,2096921, 314236, 457685
2096921,2096921, 314218, 457523
2096921,2096921, 314393, 457456
2096921,2096921, 314389, 457446
2096921,2096921, 314424, 457648
2096921,2096921, 314481, 457534
2096921,2096921, 314578, 457454
2096921,2096921, 314262, 457499
2096921,2096921, 314377, 457679
2096921,2096921, 314575, 457500
2096921,2096921, 314465, 457809
2096921,2096921, 314434, 457303
2096921,2096921, 314311, 457568
2096921,2096921, 314354, 457158
2096921,2096921, 314343, 457104
2096921,2096921, 314233, 457330
2096921,2096921, 314166, 457448
2096921,2096921, 314242, 457716
2096921,2096921, 314470, 457388
2096921,2096921, 314264, 457398
2096921,2096921, 314380, 457177
2096921,2096921, 314278, 457481
2096921,2096921, 314142, 457231
2096921,2096921, 314121, 457152
2096921,2096921, 314258, 457183
2096921,2096921, 314218, 457099
2096921,2096921, 314450, 457122
2096921,2096921, 314419, 457322
2096921,2096921, 314309, 457266
2096921,2096921, 314071, 456958
2096921,2096921, 314226, 457102
2096921,2096921, 313879, 456828
2096921,2096921, 314323, 457177
2096921,2096921, 313773, 456829
2096921,2096921, 314259, 456565
2096921,2096921, 314276, 456767
2096921,2096921, 314292, 456601
2096921,2096921, 314076, 456941
2096921,2096921, 314336, 456716
2096921,2096921, 314146, 456784
2096921,2096921, 313926, 456750
2096921,2096921, 313739, 456614
2096921,2096921, 313869, 456721
2096921,2096921, 314098, 456578
2096921,2096921, 314076, 456483
2096921,2096921, 313831, 456581
2096921,2096921, 313781, 456621
2096921,2096921, 313839, 456699
2096921,2096921, 313950, 456381
2096921,2096921, 313716, 456491
2096921,2096921, 313831, 456542
2096921,2096921, 313844, 456167
2096921,2096921, 313959, 456593
2096921,2096921, 313771, 456405
2096921,2096921, 313740, 456264
2096921,2096921, 314007, 456546
2096921,2096921, 313820, 456100
2096921,2096921, 313666, 456333
2096921,2096921, 313608, 456395
2096921,2096921, 313841, 456210
2096921,2096921, 313551, 456161
2096921,2096921, 313591, 456223
2096921,2096921, 313349, 456008
2096921,2096921, 313422, 455718
2096921,2096921, 313281, 455956
2096921,2096921, 313771, 456085
2096921,2096921, 313648, 456287
2096921,2096921, 313568, 456074
2096921,2096921, 313378, 455646
2096921,2096921, 313414, 455869
2096921,2096921, 313230, 455794
2096921,2096921, 313171, 455902
2096921,2096921, 313299, 456017
2096921,2096921, 313277, 455759
2096921,2096921, 313335, 455796
2096921,2096921, 313259, 455668
2096921,2096921, 313345, 455793
2096921,2096921, 313128, 455832
2096921,2096921, 312873, 455510
2096921,2096921, 313021, 455176
2096921,2096921, 313138, 455193
2096921,2096921, 313022, 455421
2096921,2096921, 313108, 455244
2096921,2096921, 312935, 455167
2096921,2096921, 312902, 455245
2096921,2096921, 312730, 455001
2096921,2096921, 312940, 455251
2096921,2096921, 312884, 455193
2096921,2096921, 313175, 455172
2096921,2096921, 313031, 455040
2096921,2096921, 313033, 455059
2096921,2096921, 312951, 455441
2096921,2096921, 312746, 455135
2096921,2096921, 312745, 455229
2096921,2096921, 312919, 454867
2096921,2096921, 312804, 454956
2096921,2096921, 312922, 454845
2096921,2096921, 312261, 454923
2096921,2096921, 312234, 454510
2096921,2096921, 312299, 454489
2096921,2096921, 312291, 454552
2096921,2096921, 312100, 454445
2096921,2096921, 311734, 454487
2096921,2096921, 311709, 454321
2096921,2096921, 311382, 454041
2096921,2096921, 311967, 454296
2096921,2096921, 311997, 454149
2096921,2096921, 311076, 454366
2096921,2096921, 310874, 453645
2096921,2096921, 310994, 453642
2096921,2096921, 311051, 453459
2096921,2096921, 311153, 453207
2096921,2096921, 310385, 453246
2096921,2096921, 310106, 453070
2096921,2096921, 310130, 452741
2096921,2096921, 310295, 452705
2096921,2096921, 310219, 452744
2096921,2096921, 309606, 452996
2096921,2096921, 309715, 452285
2096921,2096921, 309613, 452368
2096921,2096921, 309418, 452231
2096921,2096921, 309300, 452053
2096921,2096921, 307462, 451674
2096921,2096921, 307350, 450746
2096921,2096921, 307233, 450527
2096921,2096921, 307096, 450485
2096921,2096921, 307237, 450272
2096921,2096921, 305272, 450140
2096921,2096921, 304879, 449189
2096921,2096921, 304825, 448785
2096921,2096921, 304982, 449006
2096921,2096921, 305030, 448788
2096921,2096921, 303384, 448675
2096921,2096921, 303081, 447520
2096921,2096921, 302806, 447250
2096921,2096921, 302976, 447140
2096921,2096921, 303045, 447420
2096921,2096921, 301832, 447262
2096921,2096921, 301656, 446628
2096921,2096921, 301858, 446581
2096921,2096921, 301769, 446470
2096921,2096921, 301503, 446363
2096921,2096921, 300764, 446271
2096921,2096921, 300462, 445926
2096921,2096921, 300566, 445539
2096921,2096921, 300372, 445472
2096921,2096921, 300668, 445707
2096921,2096921, 299746, 445298
2096921,2096921, 299773, 445076
2096921,2096921, 299779, 445136
2096921,2096921, 299730, 444978
2096921,2096921, 299357, 444930
2096921,2096921, 298864, 444825
2096921,2096921, 299143, 444655
2096921,2096921, 298692, 444486
2096921,2096921, 299027, 444344
2096921,2096921, 299072, 444390
2096921,2096921, 298801, 444358
2096921,2096921, 298924, 444044
2096921,2096921, 298652, 444161
2096921,2096921, 298548, 443861
2096921,2096921, 298632, 443915
2096921,2096921, 298208, 444116
2096921,2096921, 298058, 443860
2096921,2096921, 298344, 443574
2096921,2096921, 298428, 443768
2096921,2096921, 298481, 443754
2096921,2096921, 298333, 443915
2096921,2096921, 298744, 443695
2096921,2096921, 298203, 443955
2096921,2096921, 298263, 443936
2096921,2096921, 298340, 443850
2096921,2096921, 298511, 443619
2096921,2096921, 298322, 443439
2096921,2096921, 298548, 443677
2096921,2096921, 298372, 443790
2096921,2096921, 298411, 443740
2096921,2096921, 298465, 443779
2096921,2096921, 298503, 443773
2096921,2096921, 298451, 443833
2096921,2096921, 298333, 443788
2096921,2096921, 298362, 443864
2096921,2096921, 298359, 443840
2096921,2096921, 298381, 443678
2096921,2096921, 298453, 443475
2096921,2096921, 298546, 443483
2096921,2096921, 298732, 443938
2096921,2096921, 299014, 444091
2096921,2096921, 298776, 443884
2096921,2096921, 298756, 444004
2096921,2096921, 298785, 443946
2096921,2096921, 298843, 443569
2096921,2096921, 299071, 443826
2096921,2096921, 299476, 443910
2096921,2096921, 299233, 443775
2096921,2096921, 299354, 444224
2096921,2096921, 299191, 444246
2096921,2096921, 299456, 444000
2096921,2096921, 299270, 444103
2096921,2096921, 299453, 444401
2096921,2096921, 299458, 444241
2096921,2096921, 299380, 444104
2096921,2096921, 299792, 444262
2096921,2096921, 299715, 444189
2096921,2096921, 299796, 444424
2096921,2096921, 299678, 444288
2096921,2096921, 299839, 444168
2096921,2096921, 300163, 444422
2096921,2096921, 300083, 445137
2096921,2096921, 300110, 444542
2096921,2096921, 300038, 444725
2096921,2096921, 300156, 444718
2096921,2096921, 300585, 444618
2096921,2096921, 300521, 444475
2096921,2096921, 300497, 444763
2096921,2096921, 300315, 444822
2096921,2096921, 300751, 444962
2096921,2096921, 300804, 444535
2096921,2096921, 300632, 444493
2096921,2096921, 300841, 444610
2096921,2096921, 300478, 444660
2096921,2096921, 300532, 444851
2096921,2096921, 301034, 444968
2096921,2096921, 301016, 445067
2096921,2096921, 301076, 444674
2096921,2096921, 301264, 444813
2096921,2096921, 301146, 445109
2096921,2096921, 301441, 445157
2096921,2096921, 301635, 445305
2096921,2096921, 301469, 445225
2096921,2096921, 301471, 445059
2096921,2096921, 301362, 445327
2096921,2096921, 301705, 445391
2096921,2096921, 301692, 445258
2096921,2096921, 302172, 445241
2096921,2096921, 301987, 445282
2096921,2096921, 302046, 445445
2096921,2096921, 302294, 445546
2096921,2096921, 301976, 445395
2096921,2096921, 302350, 445781
2096921,2096921, 302238, 445504
2096921,2096921, 302268, 445639
2096921,2096921, 302471, 445776
2096921,2096921, 302591, 445975
2096921,2096921, 302511, 445476
2096921,2096921, 302674, 445810
2096921,2096921, 302367, 445713
2096921,2096921, 302699, 445865
2096921,2096921, 302999, 446021
2096921,2096921, 302932, 446005
2096921,2096921, 302811, 445903
2096921,2096921, 302955, 446147
2096921,2096921, 303083, 446011
2096921,2096921, 303106, 446182
2096921,2096921, 302953, 445959
2096921,2096921, 302712, 445941
2096921,2096921, 303000, 445880
2096921,2096921, 303249, 445885
2096921,2096921, 303397, 446067
2096921,2096921, 303265, 446462
2096921,2096921, 303204, 446357
2096921,2096921, 303224, 446244
2096921,2096921, 303094, 446397
2096921,2096921, 303236, 446077
2096921,2096921, 303066, 446222
2096921,2096921, 303251, 446067
2096921,2096921, 303359, 446087
2096921,2096921, 303582, 446240
2096921,2096921, 303548, 446304
2096921,2096921, 303465, 446226
2096921,2096921, 303263, 446498
2096921,2096921, 303425, 446010
2096921,2096921, 303633, 446140
2096921,2096921, 303318, 445833
2096921,2096921, 303212, 446117
2096921,2096921, 303471, 446297
2096921,2096921, 303340, 446347
2096921,2096921, 303448, 446367
2096921,2096921, 303735, 446214
2096921,2096921, 303650, 446048
2096921,2096921, 303465, 446144
2096921,2096921, 303109, 445915
2096921,2096921, 303202, 446035
2096921,2096921, 303176, 445846
2096921,2096921, 303113, 445801
2096921,2096921, 303022, 445830
2096921,2096921, 303206, 445723
2096921,2096921, 303073, 445943
2096921,2096921, 303362, 445938
2096921,2096921, 303150, 446010
2096921,2096921, 303190, 445832
2096921,2096921, 302932, 445835
2096921,2096921, 303012, 445823
2096921,2096921, 302538, 445753
2096921,2096921, 302959, 445686
2096921,2096921, 303087, 445719
2096921,2096921, 303024, 445786
2096921,2096921, 302876, 446082
2096921,2096921, 303022, 446034
2096921,2096921, 302700, 445967
2096921,2096921, 302730, 445592
2096921,2096921, 302723, 445628
2096921,2096921, 302616, 445355
2096921,2096921, 302416, 445277
2096921,2096921, 302313, 445378
2096921,2096921, 302842, 445257
2096921,2096921, 302882, 445374
2096921,2096921, 302800, 445633
2096921,2096921, 302513, 445557
2096921,2096921, 302613, 445750
2096921,2096921, 302526, 445659
2096921,2096921, 302420, 445562
2096921,2096921, 302601, 445507
2096921,2096921, 302549, 445536
2096921,2096921, 302168, 445404
2096921,2096921, 302593, 445412
2096921,2096921, 302635, 445558
2096921,2096921, 302373, 445506
2096921,2096921, 302657, 445554
2096921,2096921, 302770, 445479
2096921,2096921, 302420, 445649
2096921,2096921, 302764, 445658
2096921,2096921, 302638, 445192
2096921,2096921, 302743, 445616
2096921,2096921, 302711, 445356
2096921,2096921, 302745, 445638
2096921,2096921, 302601, 445610
2096921,2096921, 302786, 445765
2096921,2096921, 302886, 445935
2096921,2096921, 302766, 445516
2096921,2096921, 302739, 445115
2096921,2096921, 302757, 445566
2096921,2096921, 302916, 445835
2096921,2096921, 302889, 445713
2096921,2096921, 302973, 445629
2096921,2096921, 303218, 445641
2096921,2096921, 303125, 446095
2096921,2096921, 303244, 446163
2096921,2096921, 303235, 446020
2096921,2096921, 303630, 446221
2096921,2096921, 303371, 446182
2096921,2096921, 303240, 446142
2096921,2096921, 303520, 446077
2096921,2096921, 303381, 445954
2096921,2096921, 303604, 446209
2096921,2096921, 303696, 446207
2096921,2096921, 303347, 446206
2096921,2096921, 304027, 446040
2096921,2096921, 304084, 446267
2096921,2096921, 304112, 446594
2096921,2096921, 304082, 446310
2096921,2096921, 303752, 446500
2096921,2096921, 304036, 446175
2096921,2096921, 303948, 446445
2096921,2096921, 303983, 446480
2096921,2096921, 304132, 446538
2096921,2096921, 304323, 446920
2096921,2096921, 304400, 446827
2096921,2096921, 304405, 446652
2096921,2096921, 304382, 446840
2096921,2096921, 304276, 446526
2096921,2096921, 304233, 446464
2096921,2096921, 304363, 446516
2096921,2096921, 304418, 446620
2096921,2096921, 304482, 446330
2096921,2096921, 304589, 446859
2096921,2096921, 304641, 447103
2096921,2096921, 304831, 446944
2096921,2096921, 304956, 447055
2096921,2096921, 304955, 447351
2096921,2096921, 304954, 447198
2096921,2096921, 304730, 447297
2096921,2096921, 304891, 446986
2096921,2096921, 305039, 447255
2096921,2096921, 305297, 447344
2096921,2096921, 305085, 447174
2096921,2096921, 305120, 447249
2096921,2096921, 305399, 447376
2096921,2096921, 305504, 447476
2096921,2096921, 305655, 447569
2096921,2096921, 305297, 447471
2096921,2096921, 305231, 447163
2096921,2096921, 305471, 447346
2096921,2096921, 305604, 447453
2096921,2096921, 305641, 447505
2096921,2096921, 305971, 447510
2096921,2096921, 305734, 447759
2096921,2096921, 305927, 447790
2096921,2096921, 305830, 447622
2096921,2096921, 305841, 447545
2096921,2096921, 305845, 447760
2096921,2096921, 305790, 447544
2096921,2096921, 305922, 447628
2096921,2096921, 305824, 447621
2096921,2096921, 305955, 447771
2096921,2096921, 306087, 447885
2096921,2096921, 306153, 447856
2096921,2096921, 306338, 448122
2096921,2096921, 305985, 448076
2096921,2096921, 306203, 447800
2096921,2096921, 306136, 448045
2096921,2096921, 306060, 447848
2096921,2096921, 306201, 447934
2096921,2096921, 306409, 448258
2096921,2096921, 306627, 448022
2096921,2096921, 306653, 448375
2096921,2096921, 306909, 448192
2096921,2096921, 306617, 447911
2096921,2096921, 306708, 448291
2096921,2096921, 306651, 448239
2096921,2096921, 306384, 448447
2096921,2096921, 306692, 448068
2096921,2096921, 306803, 448137
2096921,2096921, 306733, 448421
2096921,2096921, 306813, 448529
2096921,2096921, 307167, 448716
2096921,2096921, 306927, 448153
2096921,2096921, 306779, 448638
2096921,2096921, 307177, 448591
2096921,2096921, 307104, 448671
2096921,2096921, 307053, 448499
2096921,2096921, 306895, 448770
2096921,2096921, 307257, 448671
2096921,2096921, 307057, 448465
2096921,2096921, 307335, 448549
2096921,2096921, 307115, 448436
2096921,2096921, 307240, 448490
2096921,2096921, 307275, 448549
2096921,2096921, 307389, 448747
2096921,2096921, 307609, 448666
2096921,2096921, 307298, 448689
2096921,2096921, 307566, 448900
2096921,2096921, 307590, 448869
2096921,2096921, 307674, 448921
2096921,2096921, 307732, 448785
2096921,2096921, 307615, 448790
2096921,2096921, 307744, 448755
2096921,2096921, 307927, 448933
2096921,2096921, 307648, 449140
2096921,2096921, 307560, 449325
2096921,2096921, 307815, 449021
2096921,2096921, 307494, 449100
2096921,2096921, 307786, 448502
2096921,2096921, 307650, 448762
2096921,2096921, 307643, 448887
2096921,2096921, 308005, 448993
2096921,2096921, 307886, 448905
2096921,2096921, 307713, 448982
2096921,2096921, 308202, 449505
2096921,2096921, 307958, 449480
2096921,2096921, 308264, 449106
2096921,2096921, 308273, 449027
2096921,2096921, 307896, 449074
2096921,2096921, 307976, 449073
2096921,2096921, 307932, 448991
2096921,2096921, 307853, 449239
2096921,2096921, 308228, 449576
2096921,2096921, 308308, 449201
2096921,2096921, 308120, 449170
2096921,2096921, 308416, 449445
2096921,2096921, 308148, 449360
2096921,2096921, 308129, 449176
2096921,2096921, 308166, 449323
2096921,2096921, 308114, 449358
2096921,2096921, 307900, 449252
2096921,2096921, 308325, 449282
2096921,2096921, 308226, 449606
2096921,2096921, 308183, 449500
2096921,2096921, 308500, 449396
2096921,2096921, 308378, 449665
2096921,2096921, 308388, 449393
2096921,2096921, 308291, 449226
2096921,2096921, 308469, 449569
2096921,2096921, 308150, 449167
2096921,2096921, 308346, 449394
2096921,2096921, 308399, 449399
2096921,2096921, 308764, 449771
2096921,2096921, 308666, 449860
2096921,2096921, 308887, 449915
2096921,2096921, 308472, 449910
2096921,2096921, 308411, 449708
2096921,2096921, 308483, 449524
2096921,2096921, 308839, 449541
2096921,2096921, 308647, 449821
2096921,2096921, 308894, 449663
2096921,2096921, 308640, 449814
2096921,2096921, 309077, 449737
2096921,2096921, 308791, 449952
2096921,2096921, 308943, 449564
2096921,2096921, 308604, 449694
2096921,2096921, 308539, 449994
2096921,2096921, 308477, 449797
2096921,2096921, 308933, 449494
2096921,2096921, 308687, 449740
2096921,2096921, 308971, 449498
2096921,2096921, 308858, 449731
2096921,2096921, 308662, 449655
2096921,2096921, 309005, 450224
2096921,2096921, 309022, 449791
2096921,2096921, 308987, 450074
2096921,2096921, 308777, 449897
2096921,2096921, 308935, 449786
2096921,2096921, 308987, 449949
2096921,2096921, 308910, 450025
2096921,2096921, 308619, 449831
2096921,2096921, 308694, 450057
2096921,2096921, 309168, 449870
2096921,2096921, 309279, 449897
2096921,2096921, 309208, 450109
2096921,2096921, 309046, 450423
2096921,2096921, 309065, 450159
2096921,2096921, 309124, 449991
2096921,2096921, 309344, 450103
2096921,2096921, 309268, 450094
2096921,2096921, 309169, 449942
2096921,2096921, 309335, 450012
2096921,2096921, 309067, 450034
2096921,2096921, 309575, 450200
2096921,2096921, 309494, 450218
2096921,2096921, 309675, 450118
2096921,2096921, 309462, 450196
2096921,2096921, 309053, 449956
2096921,2096921, 309282, 449958
2096921,2096921, 309206, 450321
2096921,2096921, 309252, 450256
2096921,2096921, 309584, 450072
2096921,2096921, 309557, 450509
2096921,2096921, 309542, 450546
2096921,2096921, 309523, 450685
2096921,2096921, 309795, 450513
2096921,2096921, 309675, 450422
2096921,2096921, 309652, 450218
2096921,2096921, 309610, 450753
2096921,2096921, 309463, 450490
2096921,2096921, 309474, 450441
2096921,2096921, 309686, 450356
2096921,2096921, 309703, 450458
2096921,2096921, 309864, 450628
2096921,2096921, 309970, 450845
2096921,2096921, 310112, 450935
2096921,2096921, 309899, 450932
2096921,2096921, 309790, 450433
2096921,2096921, 309630, 450395
2096921,2096921, 309725, 450657
2096921,2096921, 309743, 450637
2096921,2096921, 309959, 450563
2096921,2096921, 310186, 450877
2096921,2096921, 310017, 450603
2096921,2096921, 310032, 450778
2096921,2096921, 309621, 450929
2096921,2096921, 309862, 450826
2096921,2096921, 309829, 450868
2096921,2096921, 310051, 450810
2096921,2096921, 309887, 451037
2096921,2096921, 309754, 450836
2096921,2096921, 310142, 450936
2096921,2096921, 310108, 450897
2096921,2096921, 310168, 450945
2096921,2096921, 310249, 451096
2096921,2096921, 310163, 451030
2096921,2096921, 309925, 451054
2096921,2096921, 309898, 451014
2096921,2096921, 310064, 450840
2096921,2096921, 310014, 451106
2096921,2096921, 310137, 451034
2096921,2096921, 310472, 451397
2096921,2096921, 310371, 451288
2096921,2096921, 310419, 451171
2096921,2096921, 310308, 451068
2096921,2096921, 310391, 451231
2096921,2096921, 310489, 451106
2096921,2096921, 310272, 451212
2096921,2096921, 310507, 451068
2096921,2096921, 310346, 451278
2096921,2096921, 310210, 451132
2096921,2096921, 310444, 451186
2096921,2096921, 310323, 451087
2096921,2096921, 310370, 451382
2096921,2096921, 310419, 451478
2096921,2096921, 310426, 451482
2096921,2096921, 310274, 451453
2096921,2096921, 310407, 451531
2096921,2096921, 310494, 451690
2096921,2096921, 310318, 451342
2096921,2096921, 310221, 451367
2096921,2096921, 310378, 451683
2096921,2096921, 310069, 451636
2096921,2096921, 310504, 451599
2096921,2096921, 310438, 451632
2096921,2096921, 310302, 451588
2096921,2096921, 310405, 451532
2096921,2096921, 310275, 451473
2096921,2096921, 310559, 451654
2096921,2096921, 309995, 451568
2096921,2096921, 310476, 451613
2096921,2096921, 310643, 451532
2096921,2096921, 310837, 451784
2096921,2096921, 310467, 451493
2096921,2096921, 310284, 451252
2096921,2096921, 310223, 451158
2096921,2096921, 310113, 451552
2096921,2096921, 310234, 451411
2096921,2096921, 310180, 451291
2096921,2096921, 309911, 451236
2096921,2096921, 309974, 451162
2096921,2096921, 309937, 451209
2096921,2096921, 309844, 451331
2096921,2096921, 309347, 451245
2096921,2096921, 309781, 451176
2096921,2096921, 309421, 451177
2096921,2096921, 309231, 451150
2096921,2096921, 309195, 450904
2096921,2096921, 308634, 450464
2096921,2096921, 308675, 450663
2096921,2096921, 308712, 450338
2096921,2096921, 308704, 450236
2096921,2096921, 308760, 450678
2096921,2096921, 308035, 450105
2096921,2096921, 308129, 450094
2096921,2096921, 308007, 450032
2096921,2096921, 307939, 450054
2096921,2096921, 307855, 450055
2096921,2096921, 306497, 449532
2096921,2096921, 306231, 449111
2096921,2096921, 306269, 448856
2096921,2096921, 306106, 449216
2096921,2096921, 306284, 449147
2096921,2096921, 304665, 448459
2096921,2096921, 304234, 447600
2096921,2096921, 303945, 447319
2096921,2096921, 303834, 447152
2096921,2096921, 303806, 447461
2096921,2096921, 302484, 446838
2096921,2096921, 302271, 446418
2096921,2096921, 302072, 446337
2096921,2096921, 302538, 446464
2096921,2096921, 302564, 446350
2096921,2096921, 301401, 446141
2096921,2096921, 301296, 445679
2096921,2096921, 300983, 445779
2096921,2096921, 300688, 445354
2096921,2096921, 300929, 444863
2096921,2096921, 299907, 444831
2096921,2096921, 299818, 444932
2096921,2096921, 300208, 444793
2096921,2096921, 300051, 445407
2096921,2096921, 300078, 445282
2096921,2096921, 299767, 444922
2096921,2096921, 299321, 444683
2096921,2096921, 299563, 444684
2096921,2096921, 299427, 444601
2096921,2096921, 299552, 444656
2096921,2096921, 299234, 444782
2096921,2096921, 299057, 444409
2096921,2096921, 298866, 444380
2096921,2096921, 298977, 444619
2096921,2096921, 299223, 444541
2096921,2096921, 299165, 444362
2096921,2096921, 299099, 444684
2096921,2096921, 298794, 444639
2096921,2096921, 298880, 444431
2096921,2096921, 298666, 444148
2096921,2096921, 298748, 444537
2096921,2096921, 298702, 444376
2096921,2096921, 298652, 444440
2096921,2096921, 299062, 444419
2096921,2096921, 298887, 444550
2096921,2096921, 298971, 444717
2096921,2096921, 298977, 444741
2096921,2096921, 298964, 444848
2096921,2096921, 299140, 444695
2096921,2096921, 298936, 444354
2096921,2096921, 299043, 444794
2096921,2096921, 299201, 444610
2096921,2096921, 299112, 445143
2096921,2096921, 299301, 444996
2096921,2096921, 299162, 444935
2096921,2096921, 299511, 444987
2096921,2096921, 299440, 445207
2096921,2096921, 299048, 445251
2096921,2096921, 299424, 445038
2096921,2096921, 299319, 444800
2096921,2096921, 299679, 444908
2096921,2096921, 299511, 445287
2096921,2096921, 299831, 445124
2096921,2096921, 299736, 445349
2096921,2096921, 299589, 445590
2096921,2096921, 299809, 445624
2096921,2096921, 300225, 445918
2096921,2096921, 300382, 445838
2096921,2096921, 300318, 445668
2096921,2096921, 300130, 445768
2096921,2096921, 300688, 446129
2096921,2096921, 300330, 446171
2096921,2096921, 300525, 446193
2096921,2096921, 300525, 446191
2096921,2096921, 300592, 446389
2096921,2096921, 301258, 446266
2096921,2096921, 301210, 446518
2096921,2096921, 301070, 446573
2096921,2096921, 301247, 446578
2096921,2096921, 301227, 446623
2096921,2096921, 301678, 446732
2096921,2096921, 301777, 447158
2096921,2096921, 301772, 447047
2096921,2096921, 301947, 447159
2096921,2096921, 301618, 447105
2096921,2096921, 302120, 447392
2096921,2096921, 302464, 447459
2096921,2096921, 302480, 447503
2096921,2096921, 302468, 447679
2096921,2096921, 302122, 447420
2096921,2096921, 302509, 447796
2096921,2096921, 302681, 448004
2096921,2096921, 302745, 447984
2096921,2096921, 302737, 447938
2096921,2096921, 302975, 448146
2096921,2096921, 303303, 448375
2096921,2096921, 303205, 448634
2096921,2096921, 303461, 448824
2096921,2096921, 303133, 448687
2096921,2096921, 303072, 448386
2096921,2096921, 303538, 448458
2096921,2096921, 303589, 448941
2096921,2096921, 303766, 448806
2096921,2096921, 303581, 448700
2096921,2096921, 303727, 449087
2096921,2096921, 304491, 449129
2096921,2096921, 304487, 449233
2096921,2096921, 304527, 449458
2096921,2096921, 304454, 449447
2096921,2096921, 304453, 449386
2096921,2096921, 304699, 449655
2096921,2096921, 304699, 449716
2096921,2096921, 304864, 449767
2096921,2096921, 304965, 449637
2096921,2096921, 304883, 449892
2096921,2096921, 305392, 450013
2096921,2096921, 305783, 450145
2096921,2096921, 305438, 450215
2096921,2096921, 305174, 450578
2096921,2096921, 304912, 450368
2096921,2096921, 305464, 450474
2096921,2096921, 305539, 450523
2096921,2096921, 305906, 450400
2096921,2096921, 305790, 450378
2096921,2096921, 306108, 450389
2096921,2096921, 306198, 450666
2096921,2096921, 306670, 451070
2096921,2096921, 306037, 451105
2096921,2096921, 306231, 450969
2096921,2096921, 306209, 451071
2096921,2096921, 306848, 451007
2096921,2096921, 306482, 451117
2096921,2096921, 306874, 451581
2096921,2096921, 306793, 451510
2096921,2096921, 306972, 451546
2096921,2096921, 307073, 451564
2096921,2096921, 307340, 451588
2096921,2096921, 307064, 452114
2096921,2096921, 306881, 452026
2096921,2096921, 306928, 452089
2096921,2096921, 307282, 451750
2096921,2096921, 307169, 452053
2096921,2096921, 307350, 452115
2096921,2096921, 307407, 452004
2096921,2096921, 307336, 452130
2096921,2096921, 307638, 452152
2096921,2096921, 307723, 452241
2096921,2096921, 307766, 452582
2096921,2096921, 307770, 452362
2096921,2096921, 307542, 452331
2096921,2096921, 307726, 452482
2096921,2096921, 307586, 452638
2096921,2096921, 307565, 452276
2096921,2096921, 307644, 452567
2096921,2096921, 307778, 452665
2096921,2096921, 307907, 452732
2096921,2096921, 307828, 452922
2096921,2096921, 307793, 452889
2096921,2096921, 307964, 452618
2096921,2096921, 307651, 452779
2096921,2096921, 307705, 452834
2096921,2096921, 307644, 452881
2096921,2096921, 307746, 452604
2096921,2096921, 307893, 452880
2096921,2096921, 307948, 452918
2096921,2096921, 308051, 452811
2096921,2096921, 307847, 452898
2096921,2096921, 308087, 452829
2096921,2096921, 307658, 452502
2096921,2096921, 307793, 452690
2096921,2096921, 307990, 452705
2096921,2096921, 307787, 452881
2096921,2096921, 307845, 452740
2096921,2096921, 307836, 452886
2096921,2096921, 307737, 452770
2096921,2096921, 307821, 452993
2096921,2096921, 307889, 453235
2096921,2096921, 307862, 453160
2096921,2096921, 307790, 453102
2096921,2096921, 307771, 452894
2096921,2096921, 307833, 452901
2096921,2096921, 307873, 452997
2096921,2096921, 307731, 452955
2096921,2096921, 307773, 453097
2096921,2096921, 307761, 453138
2096921,2096921, 307926, 453160
2096921,2096921, 307982, 452952
2096921,2096921, 308046, 453197
2096921,2096921, 308194, 453255
2096921,2096921, 307483, 453394
2096921,2096921, 307801, 453286
2096921,2096921, 307752, 453313
2096921,2096921, 307924, 453364
2096921,2096921, 307862, 453471
2096921,2096921, 308209, 453481
2096921,2096921, 308034, 453549
2096921,2096921, 308263, 453695
2096921,2096921, 308076, 453794
2096921,2096921, 308187, 453710
2096921,2096921, 308182, 453634
2096921,2096921, 308193, 453817
2096921,2096921, 308214, 453952
2096921,2096921, 308026, 453957
2096921,2096921, 308500, 454199
2096921,2096921, 308631, 453715
2096921,2096921, 308656, 454013
2096921,2096921, 308855, 454152
2096921,2096921, 308942, 453964
2096921,2096921, 308720, 454075
2096921,2096921, 308590, 453970
2096921,2096921, 308930, 453996
2096921,2096921, 309121, 454463
2096921,2096921, 309133, 454269
2096921,2096921, 308998, 454619
2096921,2096921, 309199, 454949
2096921,2096921, 309586, 454888
2096921,2096921, 309732, 455064
2096921,2096921, 309702, 455070
2096921,2096921, 309387, 454886
2096921,2096921, 309484, 454867
2096921,2096921, 309579, 454826
2096921,2096921, 309852, 455034
2096921,2096921, 309928, 455106
2096921,2096921, 309591, 455331
2096921,2096921, 310053, 455084
2096921,2096921, 310134, 455285
2096921,2096921, 310210, 455422
2096921,2096921, 310647, 455665
2096921,2096921, 310381, 455627
2096921,2096921, 310194, 455706
2096921,2096921, 310629, 455688
2096921,2096921, 310552, 455919
2096921,2096921, 310646, 456052
2096921,2096921, 310737, 455877
2096921,2096921, 310620, 455830
2096921,2096921, 310939, 456032
2096921,2096921, 311010, 456315
2096921,2096921, 311157, 456186
2096921,2096921, 311179, 456087
2096921,2096921, 310765, 456049
2096921,2096921, 311228, 456494
2096921,2096921, 311390, 456287
2096921,2096921, 311386, 456566
2096921,2096921, 311250, 456308
2096921,2096921, 311254, 456655
2096921,2096921, 311791, 456674
2096921,2096921, 311672, 457102
2096921,2096921, 311868, 456964
2096921,2096921, 311552, 456908
2096921,2096921, 311486, 456790
2096921,2096921, 311950, 456734
2096921,2096921, 312238, 457136
2096921,2096921, 312185, 457084
2096921,2096921, 312079, 457257
2096921,2096921, 312403, 457264
2096921,2096921, 312626, 457430
2096921,2096921, 312487, 457830
2096921,2096921, 312488, 457810
2096921,2096921, 312369, 457655
2096921,2096921, 312227, 457572
2096921,2096921, 312722, 457863
2096921,2096921, 312922, 457675
2096921,2096921, 312768, 457933
2096921,2096921, 312846, 457882
2096921,2096921, 312792, 457589
2096921,2096921, 313103, 458020
2096921,2096921, 313116, 458196
2096921,2096921, 313156, 458514
2096921,2096921, 312939, 458176
2096921,2096921, 313097, 458019
2096921,2096921, 313246, 457964
2096921,2096921, 313128, 458433
2096921,2096921, 312990, 458199
2096921,2096921, 313393, 458581
2096921,2096921, 313230, 458645
2096921,2096921, 313627, 458622
2096921,2096921, 313587, 458783
2096921,2096921, 313990, 459040
2096921,2096921, 313726, 458794
2096921,2096921, 313584, 458842
2096921,2096921, 313698, 458871
2096921,2096921, 313802, 459030
2096921,2096921, 313854, 459051
2096921,2096921, 313959, 458857
2096921,2096921, 313876, 459198
2096921,2096921, 314325, 459284
2096921,2096921, 314199, 459231
2096921,2096921, 314120, 459479
2096921,2096921, 314278, 459556
2096921,2096921, 314526, 459384
2096921,2096921, 314640, 459430
2096921,2096921, 314696, 459387
2096921,2096921, 314720, 459434
2096921,2096921, 314970, 459418
2096921,2096921, 314687, 459661
2096921,2096921, 314962, 459770
2096921,2096921, 315243, 460144
2096921,2096921, 315315, 460247
2096921,2096921, 315286, 460350
2096921,2096921, 314951, 459915
2096921,2096921, 315096, 460149
2096921,2096921, 315315, 459932
2096921,2096921, 315184, 460193
2096921,2096921, 315273, 460150
2096921,2096921, 315120, 460301
2096921,2096921, 315373, 460131
2096921,2096921, 315558, 460286
2096921,2096921, 315508, 460408
2096921,2096921, 315366, 460566
2096921,2096921, 315471, 460158
2096921,2096921, 315765, 460490
2096921,2096921, 315659, 460222
2096921,2096921, 315796, 460633
2096921,2096921, 315934, 460428
2096921,2096921, 315809, 460764
2096921,2096921, 315788, 460662
2096921,2096921, 315892, 461122
2096921,2096921, 316041, 460939
2096921,2096921, 316126, 460888
2096921,2096921, 315905, 460901
2096921,2096921, 316158, 460676
2096921,2096921, 316261, 460836
2096921,2096921, 316289, 461144
2096921,2096921, 316170, 461174
2096921,2096921, 316136, 461204
2096921,2096921, 316356, 461410
2096921,2096921, 316595, 461822
2096921,2096921, 316467, 461417
2096921,2096921, 316522, 461489
2096921,2096921, 316304, 461267
2096921,2096921, 316745, 461414
2096921,2096921, 316677, 461840
2096921,2096921, 316445, 461765
2096921,2096921, 316702, 461647
2096921,2096921, 316835, 461673
2096921,2096921, 316852, 461291
2096921,2096921, 316773, 461546
2096921,2096921, 316927, 461869
2096921,2096921, 316772, 461934
2096921,2096921, 316555, 461503
2096921,2096921, 316823, 461884
2096921,2096921, 317025, 461857
2096921,2096921, 317261, 461828
2096921,2096921, 317240, 461937
2096921,2096921, 317178, 462041
2096921,2096921, 317082, 462210
2096921,2096921, 317231, 462146
2096921,2096921, 317228, 462391
2096921,2096921, 317165, 462024
2096921,2096921, 317445, 462353
2096921,2096921, 317386, 462238
2096921,2096921, 317387, 462291
2096921,2096921, 317458, 462428
2096921,2096921, 317471, 462581
2096921,2096921, 317409, 462428
2096921,2096921, 317649, 462217
2096921,2096921, 317658, 462756
2096921,2096921, 317447, 462856
2096921,2096921, 317438, 462620
2096921,2096921, 317438, 462594
2096921,2096921, 317521, 462337
2096921,2096921, 317460, 462496
2096921,2096921, 317503, 462385
2096921,2096921, 317674, 462545
2096921,2096921, 317891, 462923
2096921,2096921, 318108, 462713
2096921,2096921, 317789, 462811
2096921,2096921, 317729, 462935
2096921,2096921, 317996, 463047
2096921,2096921, 317830, 462659
2096921,2096921, 317768, 462680
2096921,2096921, 317720, 462888
2096921,2096921, 317870, 462872
2096921,2096921, 318065, 462593
2096921,2096921, 318126, 463203
2096921,2096921, 318234, 463061
2096921,2096921, 318369, 463130
2096921,2096921, 317961, 463202
2096921,2096921, 317695, 463178
2096921,2096921, 318244, 463255
2096921,2096921, 318086, 463121
2096921,2096921, 318260, 463295
2096921,2096921, 318605, 462995
2096921,2096921, 318399, 463047
2096921,2096921, 318502, 463082
2096921,2096921, 318732, 463264
2096921,2096921, 318501, 463366
2096921,2096921, 318378, 463320
2096921,2096921, 318179, 463394
2096921,2096921, 318458, 463374
2096921,2096921, 318464, 463304
2096921,2096921, 318314, 463478
2096921,2096921, 318425, 463200
2096921,2096921, 318398, 463195
2096921,2096921, 318924, 463439
2096921,2096921, 318556, 463359
2096921,2096921, 318729, 463664
2096921,2096921, 318596, 463764
2096921,2096921, 318629, 463664
2096921,2096921, 318973, 463753
2096921,2096921, 318671, 463485
2096921,2096921, 318467, 463662
2096921,2096921, 318662, 463472
2096921,2096921, 318674, 463594
2096921,2096921, 319008, 463526
2096921,2096921, 318938, 463758
2096921,2096921, 318998, 463457
2096921,2096921, 318906, 463884
2096921,2096921, 318740, 463841
2096921,2096921, 318844, 463646
2096921,2096921, 318907, 463656
2096921,2096921, 318983, 464229
2096921,2096921, 319278, 463794
2096921,2096921, 319367, 464082
2096921,2096921, 319075, 464127
2096921,2096921, 319074, 463864
2096921,2096921, 318994, 463854
2096921,2096921, 319030, 463953
2096921,2096921, 318973, 463870
2096921,2096921, 319132, 463809
2096921,2096921, 318946, 463917
2096921,2096921, 319283, 463938
2096921,2096921, 319329, 464028
2096921,2096921, 319397, 463947
2096921,2096921, 319207, 464018
2096921,2096921, 319007, 464175
2096921,2096921, 319001, 463910
2096921,2096921, 319253, 463963
2096921,2096921, 318977, 464055
2096921,2096921, 318884, 464430
2096921,2096921, 319038, 464248
2096921,2096921, 319060, 464250
2096921,2096921, 319431, 464115
2096921,2096921, 319362, 464072
2096921,2096921, 319432, 464062
2096921,2096921, 319449, 464206
2096921,2096921, 319169, 464353
2096921,2096921, 319030, 464160
2096921,2096921, 319393, 464548
2096921,2096921, 319038, 464212
2096921,2096921, 319303, 464075
2096921,2096921, 319195, 464088
2096921,2096921, 319274, 464290
2096921,2096921, 319380, 464149
2096921,2096921, 319243, 464120
2096921,2096921, 319410, 464193
2096921,2096921, 319273, 464489
2096921,2096921, 319274, 464501
2096921,2096921, 319166, 464285
2096921,2096921, 319095, 464272
2096921,2096921, 319216, 464009
2096921,2096921, 319445, 464278
2096921,2096921, 319448, 464214
2096921,2096921, 319422, 464229
2096921,2096921, 319449, 464336
2096921,2096921, 319350, 464330
2096921,2096921, 319445, 464356
2096921,2096921, 319316, 464306
2096921,2096921, 319288, 464342
2096921,2096921, 319181, 464360
2096921,2096921, 319197, 464136
2096921,2096921, 319370, 464161
2096921,2096921, 319576, 464033
2096921,2096921, 319343, 464292
2096921,2096921, 318976, 464249
2096921,2096921, 319449, 464410
2096921,2096921, 319458, 464087
2096921,2096921, 319423, 464170
2096921,2096921, 319045, 464290
2096921,2096921, 318900, 464078
2096921,2096921, 319262, 464290
2096921,2096921, 319475, 464323
2096921,2096921, 319220, 464227
2096921,2096921, 319701, 463991
2096921,2096921, 319185, 464026
2096921,2096921, 318684, 464106
2096921,2096921, 319055, 463950
2096921,2096921, 319108, 464033
2096921,2096921, 318915, 464104
2096921,2096921, 318771, 464197
2096921,2096921, 318738, 464057
2096921,2096921, 318689, 463786
2096921,2096921, 318622, 463588
2096921,2096921, 318485, 463738
2096921,2096921, 318446, 463566
2096921,2096921, 318067, 463648
2096921,2096921, 317913, 463531
2096921,2096921, 318062, 463517
2096921,2096921, 317767, 463372
2096921,2096921, 318251, 463159
2096921,2096921, 317188, 463152
2096921,2096921, 316922, 462918
2096921,2096921, 317175, 463052
2096921,2096921, 317285, 462660
2096921,2096921, 317426, 463064
2096921,2096921, 316770, 462773
2096921,2096921, 316345, 462692
2096921,2096921, 316331, 462404
2096921,2096921, 315936, 462365
2096921,2096921, 316231, 461956
2096921,2096921, 314557, 461634
2096921,2096921, 314274, 460900
2096921,2096921, 314491, 460932
2096921,2096921, 314607, 460854
2096921,2096921, 314338, 460958
2096921,2096921, 312466, 460050
2096921,2096921, 312292, 459621
2096921,2096921, 312060, 459130
2096921,2096921, 311938, 459021
2096921,2096921, 311790, 459061
2096921,2096921, 310189, 458588
2096921,2096921, 309933, 457969
2096921,2096921, 310012, 457941
2096921,2096921, 310168, 458023
2096921,2096921, 310019, 458017
2096921,2096921, 308974, 457526
2096921,2096921, 309060, 457362
2096921,2096921, 308598, 457498
2096921,2096921, 309026, 456751
2096921,2096921, 308732, 456778
2096921,2096921, 308057, 456658
2096921,2096921, 307741, 455904
2096921,2096921, 307930, 456313
2096921,2096921, 307764, 456570
2096921,2096921, 307951, 456685
2096921,2096921, 307333, 456174
2096921,2096921, 307210, 456222
2096921,2096921, 306719, 455902
2096921,2096921, 307127, 455962
2096921,2096921, 306977, 456009
2096921,2096921, 306797, 456091
2096921,2096921, 306434, 455747
2096921,2096921, 306554, 455216
2096921,2096921, 306802, 455484
2096921,2096921, 306350, 455419
2096921,2096921, 306303, 455410
2096921,2096921, 306148, 455503
2096921,2096921, 306261, 455361
2096921,2096921, 305964, 455087
2096921,2096921, 306059, 455237
2096921,2096921, 306285, 454932
2096921,2096921, 306042, 455288
2096921,2096921, 306070, 455208
2096921,2096921, 306227, 455410
2096921,2096921, 306335, 455511
2096921,2096921, 306144, 455370
2096921,2096921, 306350, 455139
2096921,2096921, 305950, 455161
2096921,2096921, 306330, 455067
2096921,2096921, 306477, 455318
2096921,2096921, 306350, 455473
2096921,2096921, 306416, 455466
2096921,2096921, 306155, 455299
2096921,2096921, 306436, 455280
2096921,2096921, 306402, 455540
2096921,2096921, 306408, 455676
2096921,2096921, 306051, 455531
2096921,2096921, 306433, 455323
2096921,2096921, 306121, 455358
2096921,2096921, 306294, 455472
2096921,2096921, 306504, 455261
2096921,2096921, 306422, 455412
2096921,2096921, 306824, 455472
2096921,2096921, 306457, 455405
2096921,2096921, 306471, 455290
2096921,2096921, 306872, 455524
2096921,2096921, 306819, 455708
2096921,2096921, 307008, 455564
2096921,2096921, 306910, 455480
2096921,2096921, 307011, 455708
2096921,2096921, 307299, 456139
2096921,2096921, 307097, 456030
2096921,2096921, 307170, 455766
2096921,2096921, 307146, 455726
2096921,2096921, 307335, 455802
2096921,2096921, 307800, 456176
2096921,2096921, 307957, 456470
2096921,2096921, 307831, 456411
2096921,2096921, 307798, 456178
2096921,2096921, 307663, 456084
2096921,2096921, 307969, 456349
2096921,2096921, 307775, 456400
2096921,2096921, 308114, 456503
2096921,2096921, 308121, 456514
2096921,2096921, 308071, 456825
2096921,2096921, 308476, 456750
2096921,2096921, 308897, 457042
2096921,2096921, 308626, 456895
2096921,2096921, 308479, 456848
2096921,2096921, 308287, 456943
2096921,2096921, 309002, 456858
2096921,2096921, 308952, 457037
2096921,2096921, 308772, 457057
2096921,2096921, 308741, 457213
2096921,2096921, 308995, 457203
2096921,2096921, 309490, 457313
2096921,2096921, 309450, 457252
2096921,2096921, 309463, 457562
2096921,2096921, 309184, 457129
2096921,2096921, 309428, 457413
2096921,2096921, 309684, 457418
2096921,2096921, 309658, 457423
2096921,2096921, 309747, 457711
2096921,2096921, 309929, 457702
2096921,2096921, 310004, 457948
2096921,2096921, 310172, 458137
2096921,2096921, 310299, 458038
2096921,2096921, 310128, 458271
2096921,2096921, 310054, 458051
2096921,2096921, 310148, 458001
2096921,2096921, 310345, 458159
2096921,2096921, 310541, 458071
2096921,2096921, 310535, 458009
2096921,2096921, 310415, 458151
2096921,2096921, 310500, 458527
2096921,2096921, 311106, 458414
2096921,2096921, 311388, 458779
2096921,2096921, 311444, 458803
2096921,2096921, 310950, 458615
2096921,2096921, 311172, 458530
2096921,2096921, 311284, 458835
2096921,2096921, 311634, 458874
2096921,2096921, 311469, 458723
2096921,2096921, 311607, 458601
2096921,2096921, 311693, 458594
2096921,2096921, 311924, 458986
2096921,2096921, 311958, 459136
2096921,2096921, 311740, 459176
2096921,2096921, 311900, 459061
2096921,2096921, 312117, 459047
2096921,2096921, 312114, 459232
2096921,2096921, 311905, 459530
2096921,2096921, 312212, 459229
2096921,2096921, 312224, 459079
2096921,2096921, 312185, 459535
2096921,2096921, 312472, 459485
2096921,2096921, 312023, 459367
2096921,2096921, 312211, 459579
2096921,2096921, 312568, 459930
2096921,2096921, 312335, 459394
2096921,2096921, 312329, 459750
2096921,2096921, 312255, 459357
2096921,2096921, 312267, 459419
2096921,2096921, 312536, 459607
2096921,2096921, 312767, 459496
2096921,2096921, 312575, 459417
2096921,2096921, 312826, 459289
2096921,2096921, 312725, 459193
2096921,2096921, 312581, 459377
2096921,2096921, 312865, 459791
2096921,2096921, 312770, 459640
2096921,2096921, 312527, 459394
2096921,2096921, 312740, 459293
2096921,2096921, 312496, 459382
2096921,2096921, 312698, 459658
2096921,2096921, 312582, 459684
2096921,2096921, 312858, 459912
2096921,2096921, 312550, 459646
2096921,2096921, 312514, 459386
2096921,2096921, 312363, 459641
2096921,2096921, 312649, 459522
2096921,2096921, 312448, 459238
2096921,2096921, 312352, 459279
2096921,2096921, 312368, 459500
2096921,2096921, 312418, 459514
2096921,2096921, 312298, 459478
2096921,2096921, 312102, 459225
2096921,2096921, 312196, 459380
2096921,2096921, 312211, 459260
2096921,2096921, 312126, 459262
2096921,2096921, 311920, 458917
2096921,2096921, 311857, 459069
2096921,2096921, 311983, 458944
2096921,2096921, 312226, 459110
2096921,2096921, 311954, 458867
2096921,2096921, 311830, 459006
2096921,2096921, 311939, 459016
2096921,2096921, 311899, 458993
2096921,2096921, 311629, 458857
2096921,2096921, 311845, 458778
2096921,2096921, 311599, 458962
2096921,2096921, 311709, 458637
2096921,2096921, 311709, 458636
2096921,2096921, 311832, 458637
2096921,2096921, 311868, 458921
2096921,2096921, 311808, 458831
2096921,2096921, 311602, 458686
2096921,2096921, 311707, 458780
2096921,2096921, 311722, 458421
2096921,2096921, 311566, 458305
2096921,2096921, 311604, 458341
2096921,2096921, 311767, 458293
2096921,2096921, 311379, 458676
2096921,2096921, 311639, 458672
2096921,2096921, 311739, 458816
2096921,2096921, 311631, 458731
2096921,2096921, 311493, 458654
2096921,2096921, 311522, 458664
2096921,2096921, 311627, 458645
2096921,2096921, 311434, 458583
2096921,2096921, 311690, 458577
2096921,2096921, 311441, 458526
2096921,2096921, 311556, 458551
2096921,2096921, 311487, 458509
2096921,2096921, 311614, 458575
2096921,2096921, 311472, 458609
2096921,2096921, 311796, 458350
2096921,2096921, 311928, 458409
2096921,2096921, 311761, 458598
2096921,2096921, 311933, 458530
2096921,2096921, 311756, 458645
2096921,2096921, 311711, 458605
2096921,2096921, 311774, 458812
2096921,2096921, 311680, 458910
2096921,2096921, 312051, 458414
2096921,2096921, 312372, 458955
2096921,2096921, 312433, 458937
2096921,2096921, 312285, 458698
2096921,2096921, 312272, 458810
2096921,2096921, 312437, 458830
2096921,2096921, 312690, 458832
2096921,2096921, 312492, 458653
2096921,2096921, 312712, 459046
2096921,2096921, 312483, 459044
2096921,2096921, 312529, 458684
2096921,2096921, 312681, 458938
2096921,2096921, 312810, 459165
2096921,2096921, 312645, 459131
2096921,2096921, 312314, 458799
2096921,2096921, 312505, 459077
2096921,2096921, 312407, 458898
2096921,2096921, 312631, 459020
2096921,2096921, 312782, 458930
2096921,2096921, 312829, 458978
2096921,2096921, 312904, 458725
2096921,2096921, 313350, 458900
2096921,2096921, 313296, 459015
2096921,2096921, 313002, 459100
2096921,2096921, 313054, 459125
2096921,2096921, 312950, 459259
2096921,2096921, 313057, 459206
2096921,2096921, 313076, 459077
2096921,2096921, 312815, 459056
2096921,2096921, 313091, 459130
2096921,2096921, 313289, 459215
2096921,2096921, 313211, 459152
2096921,2096921, 313371, 459211
2096921,2096921, 313248, 459008
2096921,2096921, 313073, 459207
2096921,2096921, 313320, 459300
2096921,2096921, 313513, 459212
2096921,2096921, 313640, 459309
2096921,2096921, 313431, 459452
2096921,2096921, 313612, 459213
2096921,2096921, 313487, 459383
2096921,2096921, 313630, 459468
2096921,2096921, 313462, 459313
2096921,2096921, 313557, 459193
2096921,2096921, 313650, 459278
2096921,2096921, 313735, 459434
2096921,2096921, 313890, 459491
2096921,2096921, 313443, 459502
2096921,2096921, 313824, 459162
2096921,2096921, 313595, 459277
2096921,2096921, 314076, 459300
2096921,2096921, 313865, 459352
2096921,2096921, 314104, 459530
2096921,2096921, 314031, 459144
2096921,2096921, 314046, 459378
2096921,2096921, 313814, 459159
2096921,2096921, 314079, 459222
2096921,2096921, 313700, 459168
2096921,2096921, 313961, 459054
2096921,2096921, 314254, 459289
2096921,2096921, 314014, 459240
2096921,2096921, 314296, 459386
2096921,2096921, 314343, 459842
2096921,2096921, 314132, 459439
2096921,2096921, 314225, 459194
2096921,2096921, 313960, 459376
2096921,2096921, 314124, 459329
2096921,2096921, 314311, 459444
2096921,2096921, 314291, 459715
2096921,2096921, 314411, 459708
2096921,2096921, 314279, 459418
2096921,2096921, 314328, 459481
2096921,2096921, 314568, 459193
2096921,2096921, 314354, 459315
2096921,2096921, 314554, 459288
2096921,2096921, 314398, 459190
2096921,2096921, 314810, 459335
2096921,2096921, 314473, 459640
2096921,2096921, 314557, 459897
2096921,2096921, 314533, 459764
2096921,2096921, 314628, 459589
2096921,2096921, 314536, 459449
2096921,2096921, 314517, 459205
2096921,2096921, 314575, 459330
2096921,2096921, 314496, 459297
2096921,2096921, 314649, 459432
2096921,2096921, 314774, 459441
2096921,2096921, 314861, 459324
2096921,2096921, 314523, 459173
2096921,2096921, 314822, 459140
2096921,2096921, 314764, 459437
2096921,2096921, 314522, 459619
2096921,2096921, 314690, 459299
2096921,2096921, 314515, 459566
2096921,2096921, 314741, 459171
2096921,2096921, 314758, 459350
2096921,2096921, 314509, 459068
2096921,2096921, 315096, 459170
2096921,2096921, 315033, 459089
2096921,2096921, 314715, 459220
2096921,2096921, 314646, 459034
2096921,2096921, 314952, 459256
2096921,2096921, 314902, 459533
2096921,2096921, 314883, 459247
2096921,2096921, 314774, 459546
2096921,2096921, 314776, 459397
2096921,2096921, 314604, 459056
2096921,2096921, 314798, 459242
2096921,2096921, 314837, 459206
2096921,2096921, 314899, 459026
2096921,2096921, 314990, 459066
2096921,2096921, 314926, 458900
2096921,2096921, 314961, 459298
2096921,2096921, 314726, 459273
2096921,2096921, 315046, 459032
2096921,2096921, 314897, 459018
2096921,2096921, 314898, 459112
2096921,2096921, 314708, 458996
2096921,2096921, 314818, 458803
2096921,2096921, 314911, 459009
2096921,2096921, 315158, 459168
2096921,2096921, 315157, 459213
2096921,2096921, 315021, 459106
2096921,2096921, 314758, 459453
2096921,2096921, 314746, 458972
2096921,2096921, 314876, 458619
2096921,2096921, 314882, 458827
2096921,2096921, 314788, 458703
2096921,2096921, 314866, 458864
2096921,2096921, 315139, 458941
2096921,2096921, 315049, 458765
2096921,2096921, 314901, 458828
2096921,2096921, 314992, 458956
2096921,2096921, 315002, 458970
2096921,2096921, 315049, 458841
2096921,2096921, 314748, 458898
2096921,2096921, 314863, 458841
2096921,2096921, 314936, 458731
2096921,2096921, 314881, 458778
2096921,2096921, 314941, 458611
2096921,2096921, 315017, 458794
2096921,2096921, 314761, 458696
2096921,2096921, 314804, 458531
2096921,2096921, 314594, 458538
2096921,2096921, 314868, 458637
2096921,2096921, 314878, 458842
2096921,2096921, 314975, 458948
2096921,2096921, 314919, 458568
2096921,2096921, 314805, 458419
2096921,2096921, 314860, 458643
2096921,2096921, 314826, 458511
2096921,2096921, 314886, 458521
2096921,2096921, 314737, 458817
2096921,2096921, 314661, 458429
2096921,2096921, 314677, 458361
2096921,2096921, 314661, 458420
2096921,2096921, 314643, 458034
2096921,2096921, 314528, 458392
2096921,2096921, 314508, 458180
2096921,2096921, 314742, 458132
2096921,2096921, 314891, 458453
2096921,2096921, 314845, 458347
2096921,2096921, 314954, 458245
2096921,2096921, 314860, 458396
2096921,2096921, 314776, 458394
2096921,2096921, 314484, 458217
2096921,2096921, 314487, 458039
2096921,2096921, 314676, 457806
2096921,2096921, 314688, 458047
2096921,2096921, 314808, 458218
2096921,2096921, 314744, 458274
2096921,2096921, 314929, 458083
2096921,2096921, 314526, 458021
2096921,2096921, 314386, 457909
2096921,2096921, 314584, 457689
2096921,2096921, 314770, 457663
2096921,2096921, 314458, 457921
2096921,2096921, 314361, 457696
2096921,2096921, 314573, 457822
2096921,2096921, 314700, 457602
2096921,2096921, 314536, 458097
2096921,2096921, 314432, 457711
2096921,2096921, 314386, 457695
2096921,2096921, 314125, 457697
2096921,2096921, 314377, 457574
2096921,2096921, 314332, 457493
2096921,2096921, 314184, 457579
2096921,2096921, 314225, 457386
2096921,2096921, 314547, 457328
2096921,2096921, 314388, 457507
