2096921,2096921,179922,607036,0
2096921,2096921,179864,607203,0
2096921,2096921,179976,607512,0
2096921,2096921,179796,607418,0
2096921,2096921,179794,607290,0
2096921,2096921,180012,607399,0
2096921,2096921,180090,607374,0
2096921,2096921,180032,607235,0
2096921,2096921,179833,607069,0
2096921,2096921,179691,607137,0
2096921,2096921,179806,607034,0
2096921,2096921,179855,606933,0
2096921,2096921,180119,607252,0
2096921,2096921,180077,607440,0
2096921,2096921,180177,607603,0
2096921,2096921,180026,607295,0
2096921,2096921,179722,607171,0
2096921,2096921,179839,607121,0
2096921,2096921,179679,607184,0
2096921,2096921,179753,607310,0
2096921,2096921,180090,607465,0
2096921,2096921,180105,607418,0
2096921,2096921,179947,607512,0
2096921,2096921,180116,607374,0
2096921,2096921,180003,607497,0
2096921,2096921,180328,607704,0
2096921,2096921,179740,607092,0
2096921,2096921,179931,607516,0
2096921,2096921,180053,607235,0
2096921,2096921,180112,607178,0
2096921,2096921,180066,607519,0
2096921,2096921,180207,607634,0
2096921,2096921,179832,607422,0
2096921,2096921,180128,607438,0
2096921,2096921,180074,607729,0
2096921,2096921,180331,607610,0
2096921,2096921,180323,607580,0
2096921,2096921,180304,607548,0
2096921,2096921,180048,607282,0
2096921,2096921,180133,607418,0
2096921,2096921,180118,607519,0
2096921,2096921,180248,607605,0
2096921,2096921,180429,607705,0
2096921,2096921,180397,607580,0
2096921,2096921,180210,607633,0
2096921,2096921,180190,608033,0
2096921,2096921,180122,607656,0
2096921,2096921,180140,607917,0
2096921,2096921,180115,607629,0
2096921,2096921,180211,607820,0
2096921,2096921,180222,607815,0
2096921,2096921,180171,608075,0
2096921,2096921,180321,608059,0
2096921,2096921,180300,607859,0
2096921,2096921,180331,607834,0
2096921,2096921,180364,607949,0
2096921,2096921,180561,607857,0
2096921,2096921,180293,607977,0
2096921,2096921,180335,607873,0
2096921,2096921,180297,607741,0
2096921,2096921,180114,607700,0
2096921,2096921,180119,607885,0
2096921,2096921,180602,607882,0
2096921,2096921,180602,607741,0
2096921,2096921,180341,607817,0
2096921,2096921,180477,608132,0
2096921,2096921,180149,607643,0
2096921,2096921,180106,607852,0
2096921,2096921,180348,607963,0
2096921,2096921,180500,607640,0
2096921,2096921,180299,607813,0
2096921,2096921,180560,607719,0
2096921,2096921,180476,608043,0
2096921,2096921,180703,607920,0
2096921,2096921,180470,607817,0
2096921,2096921,180385,607985,0
2096921,2096921,180513,608147,0
2096921,2096921,180468,608178,0
2096921,2096921,180575,608162,0
2096921,2096921,180438,607582,0
2096921,2096921,180526,608222,0
2096921,2096921,180586,608048,0
2096921,2096921,180668,607649,0
2096921,2096921,180891,608057,0
2096921,2096921,180533,608070,0
2096921,2096921,180559,607790,0
2096921,2096921,180350,607846,0
2096921,2096921,180307,607954,0
2096921,2096921,180406,607980,0
2096921,2096921,180293,608036,0
2096921,2096921,180579,608051,0
2096921,2096921,180590,608032,0
2096921,2096921,180611,608074,0
2096921,2096921,180689,608193,0
2096921,2096921,180535,608167,0
2096921,2096921,180695,608333,0
2096921,2096921,180600,608067,0
2096921,2096921,180632,608290,0
2096921,2096921,180617,608304,0
2096921,2096921,180754,608295,0
2096921,2096921,180552,608237,0
2096921,2096921,180748,608404,0
2096921,2096921,180484,607898,0
2096921,2096921,180837,608327,0
2096921,2096921,180791,608231,0
2096921,2096921,180540,608531,0
2096921,2096921,180911,608512,0
2096921,2096921,180670,608493,0
2096921,2096921,180599,608569,0
2096921,2096921,180397,608507,0
2096921,2096921,180553,608352,0
2096921,2096921,180923,608350,0
2096921,2096921,181129,608563,0
2096921,2096921,180914,608214,0
2096921,2096921,180872,608645,0
2096921,2096921,180874,608676,0
2096921,2096921,180662,608479,0
2096921,2096921,180507,608444,0
2096921,2096921,181005,608202,0
2096921,2096921,180932,608647,0
2096921,2096921,181097,608692,0
2096921,2096921,181072,608520,0
2096921,2096921,180811,608558,0
2096921,2096921,181004,608683,0
2096921,2096921,181038,608579,0
2096921,2096921,180655,609035,0
2096921,2096921,180922,608484,0
2096921,2096921,180945,608657,0
2096921,2096921,180873,608766,0
2096921,2096921,181186,608552,0
2096921,2096921,180802,608805,0
2096921,2096921,181205,608602,0
2096921,2096921,181037,608710,0
2096921,2096921,180890,608644,0
2096921,2096921,180897,608797,0
2096921,2096921,181081,608886,0
2096921,2096921,180535,608695,0
2096921,2096921,180923,608542,0
2096921,2096921,180952,608604,0
2096921,2096921,181226,608524,0
2096921,2096921,180775,608623,0
2096921,2096921,181062,608758,0
2096921,2096921,180642,608505,0
2096921,2096921,181026,608569,0
2096921,2096921,181076,608700,0
2096921,2096921,181206,608804,0
2096921,2096921,180823,608627,0
2096921,2096921,181135,608690,0
2096921,2096921,181153,608537,0
2096921,2096921,181070,608729,0
2096921,2096921,180930,608552,0
2096921,2096921,180883,608696,0
2096921,2096921,180976,608819,0
2096921,2096921,180833,608777,0
2096921,2096921,181068,608828,0
2096921,2096921,181020,608991,0
2096921,2096921,181120,608452,0
2096921,2096921,180838,608512,0
2096921,2096921,180958,608638,0
2096921,2096921,180846,608715,0
2096921,2096921,180835,608763,0
2096921,2096921,181051,608953,0
2096921,2096921,181030,608696,0
2096921,2096921,180934,608879,0
2096921,2096921,181287,608787,0
2096921,2096921,180969,608812,0
2096921,2096921,181273,608650,0
2096921,2096921,181067,608695,0
2096921,2096921,180778,608723,0
2096921,2096921,180968,608833,0
2096921,2096921,180974,608688,0
2096921,2096921,180778,608681,0
2096921,2096921,180985,608740,0
2096921,2096921,180907,608824,0
2096921,2096921,180985,608514,0
2096921,2096921,180918,608724,0
2096921,2096921,180972,608816,0
2096921,2096921,180868,608726,0
2096921,2096921,180847,608161,0
2096921,2096921,180822,608363,0
2096921,2096921,180902,608613,0
2096921,2096921,180909,608381,0
2096921,2096921,180944,608063,0
2096921,2096921,180572,608085,0
2096921,2096921,180694,608235,0
2096921,2096921,180609,608287,0
2096921,2096921,180750,608569,0
2096921,2096921,180770,608309,0
2096921,2096921,180514,608040,0
2096921,2096921,180559,607977,0
2096921,2096921,180156,608027,0
2096921,2096921,180664,607906,0
2096921,2096921,180045,607505,0
2096921,2096921,180111,607149,0
2096921,2096921,180236,607015,0
2096921,2096921,180302,607305,0
2096921,2096921,180212,607350,0
2096921,2096921,179604,606678,0
2096921,2096921,179748,606213,0
2096921,2096921,179703,606227,0
2096921,2096921,179797,605986,0
2096921,2096921,179676,606164,0
2096921,2096921,179341,605457,0
2096921,2096921,179418,605218,0
2096921,2096921,179199,605421,0
2096921,2096921,179371,605219,0
2096921,2096921,179146,605077,0
2096921,2096921,178359,603270,0
2096921,2096921,178094,603245,0
2096921,2096921,178255,603324,0
2096921,2096921,178210,603042,0
2096921,2096921,178153,603322,0
2096921,2096921,176860,600919,0
2096921,2096921,176570,600589,0
2096921,2096921,176515,600546,0
2096921,2096921,176523,600672,0
2096921,2096921,176650,600514,0
2096921,2096921,175813,599051,0
2096921,2096921,175656,598669,0
2096921,2096921,175608,598496,0
2096921,2096921,175522,598838,0
2096921,2096921,175621,598596,0
2096921,2096921,175000,597319,0
2096921,2096921,174790,597444,0
2096921,2096921,174866,597449,0
2096921,2096921,174651,597224,0
2096921,2096921,175022,597040,0
2096921,2096921,174386,596427,0
2096921,2096921,174433,596076,0
2096921,2096921,174128,595755,0
2096921,2096921,174212,595827,0
2096921,2096921,174302,595996,0
2096921,2096921,174124,595351,0
2096921,2096921,174064,595596,0
2096921,2096921,174046,595683,0
2096921,2096921,173911,595420,0
2096921,2096921,173707,595465,0
2096921,2096921,173550,594788,0
2096921,2096921,173440,594569,0
2096921,2096921,173532,594601,0
2096921,2096921,173543,594952,0
2096921,2096921,173590,594950,0
2096921,2096921,173433,595192,0
2096921,2096921,173604,594677,0
2096921,2096921,173491,594918,0
2096921,2096921,173747,595042,0
2096921,2096921,173522,594698,0
2096921,2096921,173719,594114,0
2096921,2096921,173448,594625,0
2096921,2096921,173377,594885,0
2096921,2096921,173395,594688,0
2096921,2096921,173534,594717,0
2096921,2096921,173262,594537,0
2096921,2096921,173630,594810,0
2096921,2096921,173606,594876,0
2096921,2096921,173520,594638,0
2096921,2096921,173346,594755,0
2096921,2096921,173673,595197,0
2096921,2096921,173637,595297,0
2096921,2096921,173881,595060,0
2096921,2096921,173779,594806,0
2096921,2096921,173894,595075,0
2096921,2096921,173858,595060,0
2096921,2096921,173563,595226,0
2096921,2096921,173630,595310,0
2096921,2096921,173806,595216,0
2096921,2096921,173603,595297,0
2096921,2096921,173950,595704,0
2096921,2096921,173615,595549,0
2096921,2096921,173947,595462,0
2096921,2096921,173793,595592,0
2096921,2096921,173943,595706,0
2096921,2096921,174059,596201,0
2096921,2096921,174295,595964,0
2096921,2096921,174200,596174,0
2096921,2096921,174054,596243,0
2096921,2096921,173993,596303,0
2096921,2096921,174330,596392,0
2096921,2096921,174253,596732,0
2096921,2096921,174270,596689,0
2096921,2096921,174451,596536,0
2096921,2096921,174310,596686,0
2096921,2096921,174569,596965,0
2096921,2096921,174328,597306,0
2096921,2096921,174534,597132,0
2096921,2096921,174567,596996,0
2096921,2096921,174594,597388,0
2096921,2096921,175064,597881,0
2096921,2096921,174909,597737,0
2096921,2096921,174936,598168,0
2096921,2096921,174722,597650,0
2096921,2096921,174874,597859,0
2096921,2096921,175263,598481,0
2096921,2096921,175383,598337,0
2096921,2096921,175319,598723,0
2096921,2096921,175390,598477,0
2096921,2096921,175211,598552,0
2096921,2096921,175297,598990,0
2096921,2096921,175273,599134,0
2096921,2096921,175274,598855,0
2096921,2096921,175224,598903,0
2096921,2096921,175694,599099,0
2096921,2096921,175789,599710,0
2096921,2096921,175839,599282,0
2096921,2096921,175655,599369,0
2096921,2096921,175771,599516,0
2096921,2096921,175696,599577,0
2096921,2096921,175951,600146,0
2096921,2096921,176087,600205,0
2096921,2096921,175976,600270,0
2096921,2096921,175875,600117,0
2096921,2096921,175921,600165,0
2096921,2096921,175931,601141,0
2096921,2096921,176078,600944,0
2096921,2096921,176304,601104,0
2096921,2096921,176439,600928,0
2096921,2096921,176469,601018,0
2096921,2096921,176795,601576,0
2096921,2096921,176620,601546,0
2096921,2096921,176351,601382,0
2096921,2096921,176602,601453,0
2096921,2096921,176584,601608,0
2096921,2096921,177019,602225,0
2096921,2096921,177347,602469,0
2096921,2096921,177307,602325,0
2096921,2096921,177053,602425,0
2096921,2096921,177159,602299,0
2096921,2096921,177149,602570,0
2096921,2096921,177091,602875,0
2096921,2096921,177240,603011,0
2096921,2096921,177077,602897,0
2096921,2096921,177333,602918,0
2096921,2096921,177507,603600,0
2096921,2096921,177796,603501,0
2096921,2096921,177736,603677,0
2096921,2096921,177440,603638,0
2096921,2096921,177666,603600,0
2096921,2096921,177972,604376,0
2096921,2096921,177978,603833,0
2096921,2096921,177870,604123,0
2096921,2096921,177949,604082,0
2096921,2096921,177823,604231,0
2096921,2096921,178251,604339,0
2096921,2096921,177997,604568,0
2096921,2096921,178310,604463,0
2096921,2096921,178483,604658,0
2096921,2096921,178339,604751,0
2096921,2096921,178276,604805,0
2096921,2096921,178126,605012,0
2096921,2096921,177697,604940,0
2096921,2096921,178243,604987,0
2096921,2096921,178172,605029,0
2096921,2096921,178432,605653,0
2096921,2096921,178553,605490,0
2096921,2096921,178550,605602,0
2096921,2096921,178354,605642,0
2096921,2096921,178310,605420,0
2096921,2096921,178445,605724,0
2096921,2096921,178388,605438,0
2096921,2096921,178578,605701,0
2096921,2096921,178331,605639,0
2096921,2096921,178437,605877,0
2096921,2096921,178531,606207,0
2096921,2096921,178430,606233,0
2096921,2096921,178230,606183,0
2096921,2096921,178429,606111,0
2096921,2096921,178574,606137,0
2096921,2096921,178507,605952,0
2096921,2096921,178616,606069,0
2096921,2096921,178668,606345,0
2096921,2096921,178424,606139,0
2096921,2096921,178417,605961,0
2096921,2096921,178559,606188,0
2096921,2096921,178982,606422,0
2096921,2096921,178907,606253,0
2096921,2096921,178780,606661,0
2096921,2096921,178787,606681,0
2096921,2096921,178457,606711,0
2096921,2096921,178324,606585,0
2096921,2096921,178327,606594,0
2096921,2096921,178358,606411,0
2096921,2096921,178578,606595,0
2096921,2096921,178546,606955,0
2096921,2096921,178611,607098,0
2096921,2096921,178712,606527,0
2096921,2096921,178581,606389,0
2096921,2096921,178679,606527,0
2096921,2096921,178527,607087,0
2096921,2096921,178549,606848,0
2096921,2096921,178354,606696,0
2096921,2096921,178934,606558,0
2096921,2096921,178554,607189,0
2096921,2096921,178586,607358,0
2096921,2096921,178493,607000,0
2096921,2096921,178708,607084,0
2096921,2096921,178772,607004,0
2096921,2096921,178974,606869,0
2096921,2096921,178528,607055,0
2096921,2096921,178794,607260,0
2096921,2096921,178716,607301,0
2096921,2096921,178941,607221,0
2096921,2096921,178833,607283,0
2096921,2096921,179008,607773,0
2096921,2096921,178905,607726,0
2096921,2096921,178744,607960,0
2096921,2096921,178731,607700,0
2096921,2096921,179139,607759,0
2096921,2096921,179271,607787,0
2096921,2096921,178892,607913,0
2096921,2096921,179130,607869,0
2096921,2096921,179142,608293,0
2096921,2096921,179262,608121,0
2096921,2096921,179230,608578,0
2096921,2096921,179553,608866,0
2096921,2096921,179164,608903,0
2096921,2096921,179553,608694,0
2096921,2096921,179489,608538,0
2096921,2096921,179594,609239,0
2096921,2096921,179612,609503,0
2096921,2096921,179553,609506,0
2096921,2096921,179401,609281,0
2096921,2096921,179599,609144,0
2096921,2096921,179749,609969,0
2096921,2096921,179850,610045,0
2096921,2096921,179896,609937,0
2096921,2096921,180075,610095,0
2096921,2096921,180030,610014,0
2096921,2096921,180414,610518,0
2096921,2096921,180323,610837,0
2096921,2096921,179956,610732,0
2096921,2096921,179793,610493,0
2096921,2096921,180316,610753,0
2096921,2096921,180328,611199,0
2096921,2096921,180319,611357,0
2096921,2096921,180468,611434,0
2096921,2096921,180454,611731,0
2096921,2096921,180353,611521,0
2096921,2096921,180546,611917,0
2096921,2096921,180532,611782,0
2096921,2096921,180538,612069,0
2096921,2096921,180463,612095,0
2096921,2096921,180631,612027,0
2096921,2096921,180815,612668,0
2096921,2096921,180586,613079,0
2096921,2096921,180846,612890,0
2096921,2096921,180864,612838,0
2096921,2096921,180816,612835,0
2096921,2096921,180867,613360,0
2096921,2096921,180995,613280,0
2096921,2096921,181132,613315,0
2096921,2096921,181123,613244,0
2096921,2096921,181089,613335,0
2096921,2096921,181191,613845,0
2096921,2096921,181295,613785,0
2096921,2096921,181739,613925,0
2096921,2096921,181519,614213,0
2096921,2096921,181418,614133,0
2096921,2096921,181383,614729,0
2096921,2096921,181803,614703,0
2096921,2096921,181572,614571,0
2096921,2096921,181840,614391,0
2096921,2096921,181758,614304,0
2096921,2096921,181674,615277,0
2096921,2096921,181675,615436,0
2096921,2096921,181946,615571,0
2096921,2096921,182043,615230,0
2096921,2096921,182062,615479,0
2096921,2096921,182110,615743,0
2096921,2096921,182045,616076,0
2096921,2096921,182279,615957,0
2096921,2096921,182239,616086,0
2096921,2096921,182341,616109,0
2096921,2096921,182339,616622,0
2096921,2096921,182227,616404,0
2096921,2096921,182410,616629,0
2096921,2096921,182639,616683,0
2096921,2096921,182374,616647,0
2096921,2096921,182539,617002,0
2096921,2096921,182990,617404,0
2096921,2096921,182557,617211,0
2096921,2096921,182792,617442,0
2096921,2096921,183006,617385,0
2096921,2096921,182959,617939,0
2096921,2096921,183115,618021,0
2096921,2096921,182761,618099,0
2096921,2096921,182848,617738,0
2096921,2096921,182848,617619,0
2096921,2096921,183137,618259,0
2096921,2096921,183021,618314,0
2096921,2096921,183065,618683,0
2096921,2096921,183221,618544,0
2096921,2096921,183213,618585,0
2096921,2096921,183682,618994,0
2096921,2096921,183554,619218,0
2096921,2096921,183567,619083,0
2096921,2096921,182927,619200,0
2096921,2096921,183587,618902,0
2096921,2096921,183764,619433,0
2096921,2096921,183837,619374,0
2096921,2096921,183696,619546,0
2096921,2096921,183867,619665,0
2096921,2096921,183443,619707,0
2096921,2096921,183708,620200,0
2096921,2096921,183561,619863,0
2096921,2096921,183876,619903,0
2096921,2096921,183874,619795,0
2096921,2096921,183791,619601,0
2096921,2096921,183974,620273,0
2096921,2096921,183868,620513,0
2096921,2096921,183772,620792,0
2096921,2096921,183814,620337,0
2096921,2096921,183906,620290,0
2096921,2096921,184323,621049,0
2096921,2096921,184587,620955,0
2096921,2096921,184384,621023,0
2096921,2096921,184355,620909,0
2096921,2096921,184117,621185,0
2096921,2096921,184637,621665,0
2096921,2096921,184389,621443,0
2096921,2096921,184298,621769,0
2096921,2096921,184238,621528,0
2096921,2096921,184079,621426,0
2096921,2096921,184586,622055,0
2096921,2096921,184535,622209,0
2096921,2096921,184618,622065,0
2096921,2096921,184616,622389,0
2096921,2096921,184209,622463,0
2096921,2096921,184483,622681,0
2096921,2096921,184523,622832,0
2096921,2096921,184816,622393,0
2096921,2096921,184594,622488,0
2096921,2096921,184849,622689,0
2096921,2096921,185003,623171,0
2096921,2096921,184975,623447,0
2096921,2096921,184919,623727,0
2096921,2096921,185396,623812,0
2096921,2096921,185006,623528,0
2096921,2096921,184779,624079,0
2096921,2096921,185210,623693,0
2096921,2096921,184862,623715,0
2096921,2096921,185192,623700,0
2096921,2096921,185282,623665,0
2096921,2096921,185526,624244,0
2096921,2096921,185537,624431,0
2096921,2096921,185497,624210,0
2096921,2096921,185454,624592,0
2096921,2096921,185601,624381,0
2096921,2096921,185661,624840,0
2096921,2096921,185482,624735,0
2096921,2096921,185456,624922,0
2096921,2096921,185586,624967,0
2096921,2096921,185482,625014,0
2096921,2096921,185711,625121,0
2096921,2096921,185688,625517,0
2096921,2096921,185880,625406,0
2096921,2096921,185864,625302,0
2096921,2096921,185964,625427,0
2096921,2096921,186298,625855,0
2096921,2096921,186194,625809,0
2096921,2096921,186155,625734,0
2096921,2096921,185999,625717,0
2096921,2096921,186024,625916,0
2096921,2096921,186174,626242,0
2096921,2096921,186108,626399,0
2096921,2096921,186381,626360,0
2096921,2096921,186320,626254,0
2096921,2096921,186119,626555,0
2096921,2096921,186506,626722,0
2096921,2096921,186400,626846,0
2096921,2096921,186266,626919,0
2096921,2096921,186248,627084,0
2096921,2096921,186633,626911,0
2096921,2096921,186537,627546,0
2096921,2096921,186267,627416,0
2096921,2096921,186444,627406,0
2096921,2096921,186486,627630,0
2096921,2096921,186401,627870,0
2096921,2096921,186791,628078,0
2096921,2096921,186582,627827,0
2096921,2096921,186556,627755,0
2096921,2096921,186353,627951,0
2096921,2096921,186584,627968,0
2096921,2096921,186726,628185,0
2096921,2096921,187023,628429,0
2096921,2096921,187073,628202,0
2096921,2096921,187024,628468,0
2096921,2096921,186852,628654,0
2096921,2096921,187087,628847,0
2096921,2096921,186860,628789,0
2096921,2096921,186920,628628,0
2096921,2096921,186992,628928,0
2096921,2096921,187232,629135,0
2096921,2096921,187015,629266,0
2096921,2096921,187292,629218,0
2096921,2096921,187201,629187,0
2096921,2096921,187338,629217,0
2096921,2096921,187554,629368,0
2096921,2096921,187330,629706,0
2096921,2096921,187309,629374,0
2096921,2096921,187086,629632,0
2096921,2096921,187051,629568,0
2096921,2096921,187238,629947,0
2096921,2096921,187403,629839,0
2096921,2096921,187576,630268,0
2096921,2096921,187539,630309,0
2096921,2096921,187821,630314,0
2096921,2096921,187685,630030,0
2096921,2096921,187530,630683,0
2096921,2096921,187410,630675,0
2096921,2096921,187353,630569,0
2096921,2096921,187671,630472,0
2096921,2096921,187782,630436,0
2096921,2096921,187964,631117,0
2096921,2096921,188028,631304,0
2096921,2096921,187740,631512,0
2096921,2096921,187833,630886,0
2096921,2096921,187866,631081,0
2096921,2096921,187780,631505,0
2096921,2096921,188231,631739,0
2096921,2096921,188008,631523,0
2096921,2096921,187915,631579,0
2096921,2096921,187713,631440,0
2096921,2096921,188257,631780,0
2096921,2096921,188209,632003,0
2096921,2096921,188108,632085,0
2096921,2096921,188356,631889,0
2096921,2096921,188318,631867,0
2096921,2096921,188226,632206,0
2096921,2096921,188248,632332,0
2096921,2096921,188218,632137,0
2096921,2096921,188530,632156,0
2096921,2096921,188411,632725,0
2096921,2096921,188320,632946,0
2096921,2096921,188238,632868,0
2096921,2096921,188316,632866,0
2096921,2096921,188342,632794,0
2096921,2096921,188155,632748,0
2096921,2096921,188446,632916,0
2096921,2096921,188625,632918,0
2096921,2096921,188500,632930,0
2096921,2096921,188419,632841,0
2096921,2096921,188197,632906,0
2096921,2096921,188392,633172,0
2096921,2096921,188536,633238,0
2096921,2096921,188316,633354,0
2096921,2096921,188601,633547,0
2096921,2096921,188632,633408,0
2096921,2096921,188520,633672,0
2096921,2096921,188706,633623,0
2096921,2096921,188620,633579,0
2096921,2096921,188595,633771,0
2096921,2096921,188794,633792,0
2096921,2096921,188686,634076,0
2096921,2096921,188847,634161,0
2096921,2096921,188790,633932,0
2096921,2096921,188495,633787,0
2096921,2096921,188775,633866,0
2096921,2096921,189056,634409,0
2096921,2096921,188563,633986,0
2096921,2096921,188438,634188,0
2096921,2096921,188473,634237,0
2096921,2096921,188716,634074,0
2096921,2096921,188856,634483,0
2096921,2096921,188953,634782,0
2096921,2096921,188959,634819,0
2096921,2096921,189065,634774,0
2096921,2096921,188895,634522,0
2096921,2096921,188969,634817,0
2096921,2096921,188979,634949,0
2096921,2096921,189179,634885,0
2096921,2096921,189143,634828,0
2096921,2096921,189025,635018,0
2096921,2096921,189232,635034,0
2096921,2096921,189107,635292,0
2096921,2096921,189036,635271,0
2096921,2096921,189167,635277,0
2096921,2096921,189261,635276,0
2096921,2096921,189198,635742,0
2096921,2096921,189284,635720,0
2096921,2096921,189164,635385,0
2096921,2096921,189046,635632,0
2096921,2096921,189305,635464,0
2096921,2096921,188741,635166,0
2096921,2096921,188892,635365,0
2096921,2096921,188862,635505,0
2096921,2096921,188879,635571,0
2096921,2096921,189103,635546,0
2096921,2096921,188817,635421,0
2096921,2096921,188900,635250,0
2096921,2096921,188876,635148,0
2096921,2096921,188836,635188,0
2096921,2096921,188919,635280,0
2096921,2096921,188399,635041,0
2096921,2096921,188570,634730,0
2096921,2096921,188453,634778,0
2096921,2096921,188584,634811,0
2096921,2096921,188359,634852,0
2096921,2096921,188383,634597,0
2096921,2096921,188433,634419,0
2096921,2096921,188238,634020,0
2096921,2096921,188133,634293,0
2096921,2096921,187954,634129,0
2096921,2096921,187954,633520,0
2096921,2096921,187946,633555,0
2096921,2096921,187634,633411,0
2096921,2096921,187965,633409,0
2096921,2096921,187834,633535,0
2096921,2096921,187034,632094,0
2096921,2096921,186922,631714,0
2096921,2096921,186603,631421,0
2096921,2096921,186396,631309,0
2096921,2096921,186553,631557,0
2096921,2096921,185659,629625,0
2096921,2096921,185287,629193,0
2096921,2096921,185446,629061,0
2096921,2096921,185260,629269,0
2096921,2096921,185244,629026,0
2096921,2096921,184569,627539,0
2096921,2096921,184164,627253,0
2096921,2096921,184262,627189,0
2096921,2096921,184569,627019,0
2096921,2096921,184189,627365,0
2096921,2096921,183824,626479,0
2096921,2096921,183788,626166,0
2096921,2096921,183519,626103,0
2096921,2096921,183504,625775,0
2096921,2096921,183798,625737,0
2096921,2096921,183040,625212,0
2096921,2096921,183064,624852,0
2096921,2096921,182931,625044,0
2096921,2096921,182696,624887,0
2096921,2096921,182893,624856,0
2096921,2096921,182615,624380,0
2096921,2096921,182677,624124,0
2096921,2096921,182415,624379,0
2096921,2096921,182711,624343,0
2096921,2096921,182760,624660,0
2096921,2096921,182304,624216,0
2096921,2096921,182444,623814,0
2096921,2096921,182462,623697,0
2096921,2096921,182323,623878,0
2096921,2096921,182521,623926,0
2096921,2096921,182218,623754,0
2096921,2096921,182266,623806,0
2096921,2096921,182187,623888,0
2096921,2096921,182274,623916,0
2096921,2096921,182144,623597,0
2096921,2096921,182344,623566,0
2096921,2096921,182108,623686,0
2096921,2096921,182302,623692,0
2096921,2096921,182125,623920,0
2096921,2096921,182228,623949,0
2096921,2096921,182446,624089,0
2096921,2096921,182558,623993,0
2096921,2096921,182190,624031,0
2096921,2096921,182318,623700,0
2096921,2096921,182216,623900,0
2096921,2096921,182652,624268,0
2096921,2096921,182621,624517,0
2096921,2096921,182534,624254,0
2096921,2096921,182303,624253,0
2096921,2096921,182411,624142,0
2096921,2096921,182678,624439,0
2096921,2096921,182539,624603,0
2096921,2096921,182899,624666,0
2096921,2096921,182906,624703,0
2096921,2096921,182661,624594,0
2096921,2096921,182762,624995,0
2096921,2096921,182786,624870,0
2096921,2096921,182763,625149,0
2096921,2096921,182691,624971,0
2096921,2096921,182569,624980,0
2096921,2096921,183094,625409,0
2096921,2096921,183381,625802,0
2096921,2096921,183129,625904,0
2096921,2096921,183007,625659,0
2096921,2096921,182844,625589,0
2096921,2096921,182901,625931,0
2096921,2096921,183567,626044,0
2096921,2096921,183008,626156,0
2096921,2096921,183103,626146,0
2096921,2096921,182974,626127,0
2096921,2096921,183345,626631,0
2096921,2096921,183429,626587,0
2096921,2096921,183735,626628,0
2096921,2096921,183561,626902,0
2096921,2096921,183775,626650,0
2096921,2096921,184014,627119,0
2096921,2096921,183944,627429,0
2096921,2096921,183831,627314,0
2096921,2096921,184104,627501,0
2096921,2096921,183856,627119,0
2096921,2096921,183986,627734,0
2096921,2096921,184260,627928,0
2096921,2096921,184384,627897,0
2096921,2096921,184659,627789,0
2096921,2096921,183908,627968,0
2096921,2096921,184355,628322,0
2096921,2096921,184418,628273,0
2096921,2096921,184296,628176,0
2096921,2096921,184345,628253,0
2096921,2096921,184381,628348,0
2096921,2096921,184644,628789,0
2096921,2096921,184578,628831,0
2096921,2096921,184689,628996,0
2096921,2096921,184555,628913,0
2096921,2096921,184506,628887,0
2096921,2096921,184689,629115,0
2096921,2096921,185021,629226,0
2096921,2096921,184943,629508,0
2096921,2096921,185200,629558,0
2096921,2096921,184721,629293,0
2096921,2096921,185027,629832,0
2096921,2096921,185432,630059,0
2096921,2096921,185399,630063,0
2096921,2096921,185471,629788,0
2096921,2096921,185580,630004,0
2096921,2096921,185355,630527,0
2096921,2096921,185131,630254,0
2096921,2096921,185396,630405,0
2096921,2096921,185211,630470,0
2096921,2096921,185322,630533,0
2096921,2096921,185613,631109,0
2096921,2096921,185747,631120,0
2096921,2096921,186041,631314,0
2096921,2096921,185762,631077,0
2096921,2096921,185857,631178,0
2096921,2096921,185558,631648,0
2096921,2096921,186017,631555,0
2096921,2096921,185901,631548,0
2096921,2096921,186060,631660,0
2096921,2096921,185936,631496,0
2096921,2096921,186096,631928,0
2096921,2096921,186063,631735,0
2096921,2096921,186267,632139,0
2096921,2096921,186451,632176,0
2096921,2096921,186303,632172,0
2096921,2096921,186318,632315,0
2096921,2096921,186558,632490,0
2096921,2096921,186556,632519,0
2096921,2096921,186468,632472,0
2096921,2096921,186358,632255,0
2096921,2096921,186735,632705,0
2096921,2096921,186652,632626,0
2096921,2096921,186744,632787,0
2096921,2096921,186659,633129,0
2096921,2096921,186463,632633,0
2096921,2096921,186659,632643,0
2096921,2096921,186570,632846,0
2096921,2096921,186691,632810,0
2096921,2096921,186665,632788,0
2096921,2096921,186889,632785,0
2096921,2096921,186797,632828,0
2096921,2096921,186663,633023,0
2096921,2096921,186459,632956,0
2096921,2096921,186632,632787,0
2096921,2096921,186648,632792,0
2096921,2096921,187000,632790,0
2096921,2096921,186737,632999,0
2096921,2096921,186764,633057,0
2096921,2096921,186666,633047,0
2096921,2096921,186719,633078,0
2096921,2096921,186554,632745,0
2096921,2096921,186695,633041,0
2096921,2096921,186798,633390,0
2096921,2096921,186929,633170,0
2096921,2096921,186890,632793,0
2096921,2096921,186614,632741,0
2096921,2096921,186533,632832,0
2096921,2096921,186557,632546,0
2096921,2096921,186523,632673,0
2096921,2096921,186580,632703,0
2096921,2096921,186642,632396,0
2096921,2096921,186468,632869,0
2096921,2096921,186528,632925,0
2096921,2096921,186736,632759,0
2096921,2096921,186702,632690,0
2096921,2096921,186486,632478,0
2096921,2096921,186588,632459,0
2096921,2096921,186501,632650,0
2096921,2096921,186589,632470,0
2096921,2096921,186432,632344,0
2096921,2096921,186547,632204,0
2096921,2096921,186362,632565,0
2096921,2096921,186463,632407,0
2096921,2096921,186420,632243,0
2096921,2096921,186661,632395,0
2096921,2096921,186562,632247,0
2096921,2096921,186599,631889,0
2096921,2096921,186371,632138,0
2096921,2096921,186284,632078,0
2096921,2096921,186400,631940,0
2096921,2096921,186298,632617,0
2096921,2096921,186261,631962,0
2096921,2096921,186504,632256,0
2096921,2096921,186620,632308,0
2096921,2096921,186480,632072,0
2096921,2096921,186313,632108,0
2096921,2096921,186400,632331,0
2096921,2096921,186151,632308,0
2096921,2096921,186390,632229,0
2096921,2096921,186290,632258,0
2096921,2096921,186519,632415,0
2096921,2096921,186446,632329,0
2096921,2096921,186484,632152,0
2096921,2096921,186427,632365,0
2096921,2096921,186484,632287,0
2096921,2096921,186425,632239,0
2096921,2096921,186427,632452,0
2096921,2096921,186566,632416,0
2096921,2096921,186332,632637,0
2096921,2096921,186198,632316,0
2096921,2096921,186234,632413,0
2096921,2096921,186297,632236,0
2096921,2096921,186491,632419,0
2096921,2096921,186709,632496,0
2096921,2096921,186383,632639,0
2096921,2096921,186630,632850,0
2096921,2096921,186452,632839,0
2096921,2096921,186459,632584,0
2096921,2096921,186563,632831,0
2096921,2096921,186664,632945,0
2096921,2096921,187022,633232,0
2096921,2096921,186836,633342,0
2096921,2096921,186869,633323,0
2096921,2096921,186926,633509,0
2096921,2096921,186570,633198,0
2096921,2096921,187012,633418,0
2096921,2096921,187133,633538,0
2096921,2096921,187298,633279,0
2096921,2096921,187354,633253,0
2096921,2096921,187212,633576,0
2096921,2096921,187097,633928,0
2096921,2096921,187331,634157,0
2096921,2096921,187408,633911,0
2096921,2096921,187363,634062,0
2096921,2096921,187351,633845,0
2096921,2096921,187600,634140,0
2096921,2096921,187327,634240,0
2096921,2096921,187299,634123,0
2096921,2096921,187269,634215,0
2096921,2096921,187340,634340,0
2096921,2096921,187543,634521,0
2096921,2096921,187477,634680,0
2096921,2096921,187521,634598,0
2096921,2096921,187439,634452,0
2096921,2096921,187355,634614,0
2096921,2096921,187520,634833,0
2096921,2096921,187606,634797,0
2096921,2096921,187611,634731,0
2096921,2096921,187775,634745,0
2096921,2096921,187651,634811,0
2096921,2096921,187595,634988,0
2096921,2096921,187791,634934,0
2096921,2096921,188052,634890,0
2096921,2096921,187867,634889,0
2096921,2096921,187827,634949,0
2096921,2096921,188025,635171,0
2096921,2096921,188200,635401,0
2096921,2096921,187571,635178,0
2096921,2096921,187998,635125,0
2096921,2096921,187916,635382,0
2096921,2096921,188234,635475,0
2096921,2096921,188085,635526,0
2096921,2096921,188434,635707,0
2096921,2096921,188292,635712,0
2096921,2096921,188156,635704,0
2096921,2096921,188100,635883,0
2096921,2096921,188252,636134,0
2096921,2096921,188592,635972,0
2096921,2096921,188385,635742,0
2096921,2096921,188154,635776,0
2096921,2096921,188139,635840,0
2096921,2096921,188378,635929,0
2096921,2096921,188349,636067,0
2096921,2096921,188679,635825,0
2096921,2096921,188626,635836,0
2096921,2096921,188593,636286,0
2096921,2096921,188521,636010,0
2096921,2096921,188604,636179,0
2096921,2096921,188309,636223,0
2096921,2096921,188626,636239,0
2096921,2096921,188518,636777,0
2096921,2096921,188503,636472,0
2096921,2096921,188673,636934,0
2096921,2096921,188706,636783,0
2096921,2096921,188510,636700,0
2096921,2096921,188777,636778,0
2096921,2096921,188640,636776,0
2096921,2096921,188529,636790,0
2096921,2096921,188733,636812,0
2096921,2096921,188718,637126,0
2096921,2096921,188847,637296,0
2096921,2096921,188878,636964,0
2096921,2096921,188810,637140,0
2096921,2096921,189008,636793,0
2096921,2096921,188838,636739,0
2096921,2096921,188769,636691,0
2096921,2096921,189116,637287,0
2096921,2096921,189107,637291,0
2096921,2096921,189094,637275,0
2096921,2096921,188950,637076,0
2096921,2096921,189125,637046,0
2096921,2096921,189272,637430,0
2096921,2096921,189327,637346,0
2096921,2096921,189376,637329,0
2096921,2096921,189288,637270,0
2096921,2096921,189279,637273,0
2096921,2096921,189026,637213,0
2096921,2096921,189162,637065,0
2096921,2096921,188838,637134,0
2096921,2096921,189070,637246,0
2096921,2096921,189317,637570,0
2096921,2096921,189223,637480,0
2096921,2096921,188861,637634,0
2096921,2096921,189184,637606,0
2096921,2096921,188937,637653,0
2096921,2096921,189165,637287,0
2096921,2096921,189373,637377,0
2096921,2096921,189503,637293,0
2096921,2096921,189246,637612,0
2096921,2096921,189113,637879,0
2096921,2096921,189490,637833,0
2096921,2096921,189448,637818,0
2096921,2096921,189216,637902,0
2096921,2096921,189552,637855,0
2096921,2096921,189487,637963,0
2096921,2096921,189843,637837,0
2096921,2096921,189500,637705,0
2096921,2096921,189263,637494,0
2096921,2096921,189221,637391,0
2096921,2096921,189348,637398,0
2096921,2096921,189506,637515,0
2096921,2096921,189706,637707,0
2096921,2096921,189463,637910,0
2096921,2096921,189509,637814,0
2096921,2096921,189313,637937,0
2096921,2096921,189700,637562,0
2096921,2096921,189549,637544,0
2096921,2096921,189685,637740,0
2096921,2096921,189379,637567,0
2096921,2096921,189264,637770,0
2096921,2096921,189384,637741,0
2096921,2096921,189717,637731,0
2096921,2096921,189696,637525,0
2096921,2096921,189636,637750,0
2096921,2096921,189673,637654,0
2096921,2096921,189659,637882,0
2096921,2096921,189778,637934,0
2096921,2096921,189636,637791,0
2096921,2096921,189433,637565,0
2096921,2096921,189402,637595,0
2096921,2096921,189586,637534,0
2096921,2096921,189688,637373,0
2096921,2096921,189905,637497,0
2096921,2096921,189860,637670,0
2096921,2096921,189726,637498,0
2096921,2096921,189502,637589,0
2096921,2096921,189440,637760,0
2096921,2096921,189654,637340,0
2096921,2096921,189868,637491,0
2096921,2096921,189603,637512,0
2096921,2096921,189288,637628,0
2096921,2096921,189584,637491,0
2096921,2096921,189524,637490,0
2096921,2096921,189413,637446,0
2096921,2096921,189347,637369,0
2096921,2096921,189472,637062,0
2096921,2096921,189705,637278,0
2096921,2096921,189640,637359,0
2096921,2096921,189608,637166,0
2096921,2096921,189453,637218,0
2096921,2096921,189642,637103,0
2096921,2096921,189536,637084,0
2096921,2096921,189669,637219,0
2096921,2096921,189484,637213,0
2096921,2096921,189308,637149,0
2096921,2096921,189552,637038,0
2096921,2096921,189319,636923,0
2096921,2096921,189247,637194,0
2096921,2096921,189382,636943,0
2096921,2096921,189289,637151,0
2096921,2096921,189310,636922,0
2096921,2096921,189566,636714,0
2096921,2096921,189382,637157,0
2096921,2096921,189737,636884,0
2096921,2096921,189593,636657,0
2096921,2096921,189724,636834,0
2096921,2096921,189374,637004,0
2096921,2096921,189537,637154,0
2096921,2096921,189305,636870,0
2096921,2096921,189389,636790,0
2096921,2096921,189258,636677,0
2096921,2096921,189295,636792,0
2096921,2096921,189737,636451,0
2096921,2096921,189612,636619,0
2096921,2096921,189550,636795,0
2096921,2096921,189408,636569,0
2096921,2096921,189132,636418,0
2096921,2096921,189145,636311,0
2096921,2096921,189110,636308,0
2096921,2096921,189465,636443,0
2096921,2096921,189411,636596,0
2096921,2096921,189434,636608,0
2096921,2096921,189310,636705,0
2096921,2096921,189376,636382,0
2096921,2096921,189434,636335,0
2096921,2096921,189274,636118,0
2096921,2096921,189541,636048,0
2096921,2096921,189279,635902,0
2096921,2096921,189285,636073,0
2096921,2096921,189434,636126,0
2096921,2096921,189327,635819,0
2096921,2096921,189172,636102,0
2096921,2096921,189141,635917,0
2096921,2096921,189015,635763,0
2096921,2096921,189424,636056,0
2096921,2096921,189322,635799,0
2096921,2096921,189130,635868,0
2096921,2096921,188988,635846,0
2096921,2096921,189012,635630,0
2096921,2096921,189071,635868,0
2096921,2096921,189126,635704,0
2096921,2096921,189303,635695,0
2096921,2096921,189328,635838,0
2096921,2096921,189096,635620,0
2096921,2096921,189267,635584,0
2096921,2096921,188978,635272,0
2096921,2096921,189094,635284,0
2096921,2096921,188925,635221,0
2096921,2096921,188873,635381,0
2096921,2096921,189084,635343,0
2096921,2096921,189094,634964,0
2096921,2096921,189072,635109,0
2096921,2096921,189073,635039,0
2096921,2096921,189425,635226,0
2096921,2096921,188957,635158,0
2096921,2096921,189023,634986,0
2096921,2096921,188598,634475,0
2096921,2096921,188580,634656,0
2096921,2096921,188861,634842,0
2096921,2096921,188843,634736,0
2096921,2096921,188578,634470,0
2096921,2096921,188818,634434,0
2096921,2096921,188906,634474,0
2096921,2096921,188735,634627,0
2096921,2096921,188997,634430,0
2096921,2096921,188667,634025,0
2096921,2096921,188938,633940,0
2096921,2096921,188755,634199,0
2096921,2096921,188687,633792,0
2096921,2096921,188619,633996,0
2096921,2096921,188469,633778,0
2096921,2096921,188422,633752,0
2096921,2096921,188740,633594,0
2096921,2096921,188841,633814,0
2096921,2096921,189048,633796,0
2096921,2096921,188612,633927,0
2096921,2096921,188490,633373,0
2096921,2096921,188414,633373,0
2096921,2096921,188465,633298,0
2096921,2096921,188667,633518,0
2096921,2096921,188591,633435,0
2096921,2096921,188331,633335,0
2096921,2096921,188553,633185,0
2096921,2096921,188523,633185,0
2096921,2096921,188572,633045,0
2096921,2096921,188606,632754,0
2096921,2096921,188358,632917,0
2096921,2096921,188307,632854,0
2096921,2096921,188187,632961,0
2096921,2096921,188160,632827,0
2096921,2096921,188195,632511,0
2096921,2096921,188428,632274,0
2096921,2096921,188220,632586,0
2096921,2096921,188337,632650,0
2096921,2096921,188301,632817,0
2096921,2096921,188071,632349,0
2096921,2096921,188069,632066,0
2096921,2096921,187934,631948,0
2096921,2096921,187895,632014,0
2096921,2096921,187875,631802,0
2096921,2096921,187880,631300,0
2096921,2096921,187723,631127,0
2096921,2096921,187846,631456,0
2096921,2096921,187626,630887,0
2096921,2096921,187819,631317,0
2096921,2096921,187410,630602,0
2096921,2096921,187347,630662,0
2096921,2096921,187496,630025,0
2096921,2096921,187310,630716,0
2096921,2096921,187382,630197,0
2096921,2096921,186965,629575,0
2096921,2096921,186864,629526,0
2096921,2096921,186882,629107,0
2096921,2096921,186931,629480,0
2096921,2096921,187147,629523,0
2096921,2096921,186631,628439,0
2096921,2096921,186465,628224,0
2096921,2096921,186469,627997,0
2096921,2096921,186187,627705,0
2096921,2096921,186218,627861,0
2096921,2096921,186221,626857,0
2096921,2096921,185853,627281,0
2096921,2096921,185717,626934,0
2096921,2096921,185949,626828,0
2096921,2096921,185629,626790,0
2096921,2096921,184779,624761,0
2096921,2096921,184276,624079,0
2096921,2096921,184356,623963,0
2096921,2096921,183957,624054,0
2096921,2096921,184170,624273,0
2096921,2096921,183041,621783,0
2096921,2096921,182621,621645,0
2096921,2096921,182696,621258,0
2096921,2096921,182952,621188,0
2096921,2096921,182672,620667,0
2096921,2096921,182013,619102,0
2096921,2096921,181974,618984,0
2096921,2096921,182012,618976,0
2096921,2096921,182254,618737,0
2096921,2096921,181438,618647,0
2096921,2096921,180960,617192,0
2096921,2096921,180808,616984,0
2096921,2096921,180957,616635,0
2096921,2096921,180838,616692,0
2096921,2096921,180896,617024,0
2096921,2096921,180203,615851,0
2096921,2096921,180155,615212,0
2096921,2096921,180134,615141,0
2096921,2096921,179873,615083,0
2096921,2096921,179890,615003,0
2096921,2096921,179832,614097,0
2096921,2096921,179576,614025,0
2096921,2096921,179691,614183,0
2096921,2096921,179563,614225,0
2096921,2096921,179567,614054,0
2096921,2096921,179034,613380,0
2096921,2096921,179079,613043,0
2096921,2096921,178931,612947,0
2096921,2096921,179152,612888,0
2096921,2096921,179183,613082,0
2096921,2096921,179099,612405,0
2096921,2096921,179028,612528,0
2096921,2096921,178867,612519,0
2096921,2096921,178869,612676,0
2096921,2096921,178832,612460,0
2096921,2096921,178740,612022,0
2096921,2096921,178583,611925,0
2096921,2096921,178774,612018,0
2096921,2096921,178758,612102,0
2096921,2096921,178943,611782,0
2096921,2096921,178843,611480,0
2096921,2096921,178700,611355,0
2096921,2096921,178695,611457,0
2096921,2096921,178692,611463,0
2096921,2096921,178430,611759,0
2096921,2096921,178688,611653,0
2096921,2096921,178458,611025,0
2096921,2096921,178770,611341,0
2096921,2096921,178444,611269,0
2096921,2096921,178468,611287,0
2096921,2096921,178691,611182,0
2096921,2096921,178500,611167,0
2096921,2096921,178443,611321,0
2096921,2096921,178587,611602,0
2096921,2096921,178596,611082,0
2096921,2096921,178651,610796,0
2096921,2096921,178606,610787,0
2096921,2096921,178729,610463,0
2096921,2096921,178411,610927,0
2096921,2096921,178214,611403,0
2096921,2096921,178611,611128,0
2096921,2096921,178496,610912,0
2096921,2096921,178538,611215,0
2096921,2096921,178530,611028,0
2096921,2096921,178347,611118,0
2096921,2096921,178430,610920,0
2096921,2096921,178860,611127,0
2096921,2096921,178761,611439,0
2096921,2096921,178944,611258,0
2096921,2096921,178799,610974,0
2096921,2096921,178887,610936,0
2096921,2096921,178792,611240,0
2096921,2096921,179047,611185,0
2096921,2096921,178993,611208,0
2096921,2096921,179005,611224,0
2096921,2096921,179225,611192,0
2096921,2096921,179011,611088,0
2096921,2096921,178717,610975,0
2096921,2096921,178942,610998,0
2096921,2096921,178856,611072,0
2096921,2096921,179113,611176,0
2096921,2096921,179306,611242,0
2096921,2096921,179282,611459,0
2096921,2096921,179183,611238,0
2096921,2096921,179151,611239,0
2096921,2096921,179153,611225,0
2096921,2096921,179129,611081,0
2096921,2096921,179315,611238,0
2096921,2096921,179194,611097,0
2096921,2096921,179396,611067,0
2096921,2096921,179384,611226,0
2096921,2096921,179439,611249,0
2096921,2096921,179222,611053,0
2096921,2096921,179173,611046,0
2096921,2096921,179153,611351,0
2096921,2096921,179469,611394,0
2096921,2096921,179413,611162,0
2096921,2096921,179460,611264,0
2096921,2096921,179440,611381,0
2096921,2096921,179591,611287,0
2096921,2096921,179645,611251,0
2096921,2096921,179506,611311,0
2096921,2096921,179573,611571,0
2096921,2096921,179516,611497,0
2096921,2096921,179687,611517,0
2096921,2096921,179977,611440,0
2096921,2096921,179681,611461,0
2096921,2096921,179521,611213,0
2096921,2096921,179802,611370,0
2096921,2096921,179836,611421,0
2096921,2096921,179711,611496,0
2096921,2096921,179658,611722,0
2096921,2096921,179996,611552,0
2096921,2096921,180297,611660,0
2096921,2096921,179508,611725,0
2096921,2096921,179800,612183,0
2096921,2096921,179954,612255,0
2096921,2096921,180002,611964,0
2096921,2096921,180074,612204,0
2096921,2096921,180058,612033,0
2096921,2096921,180296,612018,0
2096921,2096921,180228,612265,0
2096921,2096921,180087,612173,0
2096921,2096921,180104,612106,0
2096921,2096921,180216,611884,0
2096921,2096921,180258,612350,0
2096921,2096921,180311,612314,0
2096921,2096921,180226,612272,0
2096921,2096921,180164,612144,0
2096921,2096921,179988,612129,0
2096921,2096921,180045,612115,0
2096921,2096921,180627,612077,0
2096921,2096921,180556,611872,0
2096921,2096921,180576,612198,0
2096921,2096921,180391,612307,0
2096921,2096921,180322,611798,0
2096921,2096921,180466,611900,0
2096921,2096921,180148,611897,0
2096921,2096921,180194,611744,0
2096921,2096921,180274,611727,0
2096921,2096921,180035,611658,0
2096921,2096921,180291,611778,0
2096921,2096921,180201,611810,0
2096921,2096921,180407,612043,0
2096921,2096921,180369,611834,0
2096921,2096921,180163,611482,0
2096921,2096921,179809,611251,0
2096921,2096921,179998,611196,0
2096921,2096921,179910,610900,0
2096921,2096921,179995,611222,0
2096921,2096921,179895,610951,0
2096921,2096921,179816,611202,0
2096921,2096921,179747,610969,0
2096921,2096921,179859,610944,0
2096921,2096921,179889,611015,0
2096921,2096921,179847,610678,0
2096921,2096921,179855,610737,0
2096921,2096921,180029,610412,0
2096921,2096921,180105,610565,0
2096921,2096921,179832,610440,0
2096921,2096921,179796,610151,0
2096921,2096921,179722,609888,0
2096921,2096921,179555,610043,0
2096921,2096921,179563,610242,0
2096921,2096921,179884,609828,0
2096921,2096921,179816,609685,0
2096921,2096921,179304,609662,0
2096921,2096921,179536,609498,0
2096921,2096921,179472,609378,0
2096921,2096921,179327,609507,0
2096921,2096921,179200,609288,0
2096921,2096921,179287,609054,0
2096921,2096921,179385,609095,0
2096921,2096921,179105,609086,0
2096921,2096921,179419,608900,0
2096921,2096921,179194,608552,0
2096921,2096921,179302,608425,0
2096921,2096921,179139,608360,0
2096921,2096921,178927,608475,0
2096921,2096921,178989,608491,0
2096921,2096921,179061,608050,0
2096921,2096921,179009,608214,0
2096921,2096921,179136,607830,0
2096921,2096921,178939,608016,0
2096921,2096921,179213,608315,0
2096921,2096921,179029,607837,0
2096921,2096921,178844,607738,0
2096921,2096921,178801,607554,0
2096921,2096921,178642,607604,0
2096921,2096921,178746,607695,0
2096921,2096921,179007,607280,0
2096921,2096921,179165,607613,0
2096921,2096921,178999,607776,0
2096921,2096921,178875,607672,0
2096921,2096921,178700,607781,0
2096921,2096921,178614,607070,0
2096921,2096921,178727,606897,0
2096921,2096921,178377,606726,0
2096921,2096921,178391,607328,0
2096921,2096921,178889,607005,0
2096921,2096921,179027,607238,0
2096921,2096921,178907,607327,0
2096921,2096921,178708,607315,0
2096921,2096921,178693,607210,0
2096921,2096921,178561,606839,0
2096921,2096921,178767,606928,0
2096921,2096921,178760,607220,0
2096921,2096921,179043,607433,0
2096921,2096921,178574,607112,0
2096921,2096921,178740,607147,0
2096921,2096921,178613,607171,0
2096921,2096921,178723,607144,0
2096921,2096921,178856,606969,0
2096921,2096921,178793,607003,0
2096921,2096921,179225,607079,0
2096921,2096921,179307,607224,0
2096921,2096921,179026,607090,0
2096921,2096921,178809,607226,0
2096921,2096921,178678,607023,0
2096921,2096921,178803,607090,0
2096921,2096921,178958,607271,0
2096921,2096921,179350,607430,0
2096921,2096921,179258,607394,0
2096921,2096921,179061,607347,0
2096921,2096921,179261,607462,0
2096921,2096921,179140,607171,0
2096921,2096921,179132,607193,0
2096921,2096921,178966,607285,0
2096921,2096921,179139,607052,0
2096921,2096921,179376,607285,0
2096921,2096921,179590,607255,0
2096921,2096921,179243,607404,0
2096921,2096921,179495,607391,0
2096921,2096921,179271,607049,0
2096921,2096921,179024,607204,0
2096921,2096921,179233,606961,0
2096921,2096921,179504,607146,0
2096921,2096921,179170,607106,0
2096921,2096921,179076,607129,0
2096921,2096921,179134,606893,0
2096921,2096921,179278,607077,0
2096921,2096921,179297,606937,0
2096921,2096921,179627,607387,0
2096921,2096921,179470,607231,0
2096921,2096921,179432,607248,0
2096921,2096921,179515,607125,0
2096921,2096921,179516,606964,0
2096921,2096921,179403,606960,0
2096921,2096921,179432,607111,0
2096921,2096921,179531,607183,0
2096921,2096921,179789,607176,0
2096921,2096921,179804,607378,0
2096921,2096921,179623,607642,0
2096921,2096921,179384,607358,0
2096921,2096921,179239,607327,0
2096921,2096921,179292,607383,0
2096921,2096921,179533,607154,0
2096921,2096921,179487,607400,0
2096921,2096921,179289,607271,0
2096921,2096921,179554,607404,0
2096921,2096921,179635,607081,0
2096921,2096921,179756,607032,0
2096921,2096921,179420,607176,0
2096921,2096921,179657,607429,0
2096921,2096921,179696,607629,0
2096921,2096921,179578,607549,0
2096921,2096921,179526,607366,0
2096921,2096921,179638,607104,0
2096921,2096921,179451,607484,0
2096921,2096921,179497,607290,0
2096921,2096921,179885,607255,0
2096921,2096921,179783,607358,0
2096921,2096921,179937,607301,0
2096921,2096921,179779,607313,0
2096921,2096921,179939,607258,0
2096921,2096921,179800,607280,0
2096921,2096921,179800,607501,0
2096921,2096921,179843,607634,0
2096921,2096921,179641,607544,0
2096921,2096921,179859,607482,0
2096921,2096921,179835,607417,0
2096921,2096921,180026,607255,0
2096921,2096921,179879,607195,0
2096921,2096921,179734,607298,0
2096921,2096921,179861,607470,0
2096921,2096921,179970,607291,0
2096921,2096921,179806,606901,0
2096921,2096921,179897,607529,0
2096921,2096921,180069,607683,0
2096921,2096921,180007,607241,0
2096921,2096921,179840,607180,0
2096921,2096921,179988,606977,0
2096921,2096921,180003,607283,0
2096921,2096921,180116,607391,0
2096921,2096921,180219,607238,0
2096921,2096921,180086,607565,0
2096921,2096921,180024,607447,0
2096921,2096921,180026,607238,0
2096921,2096921,180111,607501,0
2096921,2096921,179732,607417,0
2096921,2096921,179741,607092,0
2096921,2096921,180062,607480,0
2096921,2096921,180176,607624,0
2096921,2096921,180318,607633,0
2096921,2096921,179714,607449,0
2096921,2096921,179858,607138,0
2096921,2096921,179971,607238,0
2096921,2096921,179921,607342,0
2096921,2096921,179969,607481,0
2096921,2096921,180139,607379,0
2096921,2096921,180253,607600,0
2096921,2096921,180285,607723,0
2096921,2096921,180114,607974,0
2096921,2096921,180277,607652,0
2096921,2096921,180064,607545,0
2096921,2096921,180136,607373,0
2096921,2096921,180132,607613,0
2096921,2096921,180012,607567,0
2096921,2096921,180017,607890,0
2096921,2096921,180193,607530,0
2096921,2096921,180045,607841,0
2096921,2096921,179956,607590,0
2096921,2096921,180047,607459,0
2096921,2096921,180202,607501,0
2096921,2096921,180082,607727,0
2096921,2096921,180411,607627,0
2096921,2096921,180528,607812,0
2096921,2096921,179988,607493,0
2096921,2096921,180113,607612,0
2096921,2096921,179855,607484,0
2096921,2096921,180627,607690,0
2096921,2096921,180564,607840,0
2096921,2096921,180632,607763,0
2096921,2096921,180355,607762,0
2096921,2096921,180099,608151,0
2096921,2096921,180113,607692,0
2096921,2096921,180160,607687,0
2096921,2096921,180080,607661,0
2096921,2096921,180387,607729,0
2096921,2096921,180437,607686,0
2096921,2096921,180367,607705,0
2096921,2096921,180248,607784,0
2096921,2096921,180320,607881,0
2096921,2096921,180407,607870,0
2096921,2096921,180261,607571,0
2096921,2096921,180147,607943,0
2096921,2096921,180335,607841,0
2096921,2096921,180546,607593,0
2096921,2096921,180497,607853,0
2096921,2096921,180345,607410,0
2096921,2096921,180428,607794,0
2096921,2096921,180258,607711,0
2096921,2096921,180510,607692,0
2096921,2096921,180335,607903,0
2096921,2096921,180555,607873,0
2096921,2096921,180657,608129,0
2096921,2096921,180749,608113,0
2096921,2096921,180175,607846,0
2096921,2096921,180252,607801,0
2096921,2096921,180510,607749,0
2096921,2096921,180448,608116,0
2096921,2096921,180466,608085,0
2096921,2096921,180437,607963,0
2096921,2096921,180462,608056,0
2096921,2096921,180482,607851,0
2096921,2096921,180301,607936,0
2096921,2096921,180361,608002,0
2096921,2096921,180468,607838,0
2096921,2096921,180352,608095,0
2096921,2096921,180276,607845,0
2096921,2096921,180242,607614,0
2096921,2096921,180229,608152,0
2096921,2096921,180150,608098,0
2096921,2096921,180458,607915,0
2096921,2096921,180427,608096,0
2096921,2096921,180698,608371,0
2096921,2096921,180665,607964,0
2096921,2096921,180881,607957,0
2096921,2096921,180601,608001,0
2096921,2096921,180485,607860,0
2096921,2096921,180500,608060,0
2096921,2096921,180841,608276,0
2096921,2096921,180685,608201,0
2096921,2096921,180666,608347,0
2096921,2096921,180428,608044,0
2096921,2096921,180374,608323,0
2096921,2096921,180372,608398,0
2096921,2096921,180680,608180,0
2096921,2096921,180785,608222,0
2096921,2096921,180782,608319,0
2096921,2096921,180771,608541,0
2096921,2096921,181128,608866,0
2096921,2096921,180743,608624,0
2096921,2096921,180747,608632,0
2096921,2096921,180774,608332,0
2096921,2096921,180891,608517,0
2096921,2096921,180524,608221,0
2096921,2096921,180970,608124,0
2096921,2096921,180911,608467,0
2096921,2096921,180728,608519,0
2096921,2096921,180773,608299,0
2096921,2096921,180562,608501,0
2096921,2096921,180814,608480,0
2096921,2096921,180687,608651,0
2096921,2096921,180730,608356,0
2096921,2096921,180769,608408,0
2096921,2096921,181140,608325,0
2096921,2096921,180857,608343,0
2096921,2096921,181052,608377,0
2096921,2096921,180815,608514,0
2096921,2096921,180977,608520,0
2096921,2096921,180949,608223,0
2096921,2096921,180788,608547,0
2096921,2096921,180872,608711,0
2096921,2096921,180728,608532,0
2096921,2096921,180968,608622,0
2096921,2096921,180966,608385,0
2096921,2096921,180686,608606,0
2096921,2096921,180918,608596,0
2096921,2096921,180716,608609,0
2096921,2096921,180976,608700,0
2096921,2096921,181067,608643,0
2096921,2096921,181022,608683,0
2096921,2096921,180685,608752,0
2096921,2096921,180862,608902,0
2096921,2096921,180719,608632,0
2096921,2096921,180663,608721,0
2096921,2096921,180746,608437,0
2096921,2096921,180735,608670,0
2096921,2096921,180961,608757,0
2096921,2096921,181097,608356,0
2096921,2096921,181131,608553,0
2096921,2096921,181034,608622,0
2096921,2096921,181030,608594,0
2096921,2096921,181141,608775,0
2096921,2096921,180852,608772,0
2096921,2096921,181114,608821,0
2096921,2096921,181126,608859,0
2096921,2096921,180977,608966,0
2096921,2096921,181048,608421,0
2096921,2096921,180799,608530,0
2096921,2096921,181098,608639,0
2096921,2096921,181072,608822,0
2096921,2096921,181273,609008,0
2096921,2096921,180765,608719,0
2096921,2096921,180988,608835,0
2096921,2096921,180968,608673,0
2096921,2096921,180787,608702,0
2096921,2096921,180745,608451,0
2096921,2096921,181188,608717,0
2096921,2096921,180985,608742,0
2096921,2096921,180846,608795,0
2096921,2096921,180750,608622,0
2096921,2096921,180859,608762,0
2096921,2096921,181069,608863,0
2096921,2096921,180823,608683,0
2096921,2096921,180688,608579,0
2096921,2096921,180802,608708,0
2096921,2096921,181069,608573,0
2096921,2096921,180766,608580,0
2096921,2096921,181097,608454,0
2096921,2096921,180716,608821,0
2096921,2096921,181103,608748,0
2096921,2096921,180983,608501,0
2096921,2096921,180983,608691,0
2096921,2096921,180859,608645,0
2096921,2096921,181039,608694,0
2096921,2096921,180798,608535,0
2096921,2096921,180814,608500,0
2096921,2096921,180692,608544,0
2096921,2096921,181012,608304,0
2096921,2096921,180691,608308,0
2096921,2096921,180822,608557,0
2096921,2096921,180853,608372,0
2096921,2096921,180640,608389,0
2096921,2096921,180449,608046,0
2096921,2096921,180357,608009,0
2096921,2096921,180496,607717,0
2096921,2096921,180543,608044,0
2096921,2096921,180854,607642,0
2096921,2096921,180339,607230,0
2096921,2096921,180139,607261,0
2096921,2096921,179975,607348,0
2096921,2096921,179960,607157,0
2096921,2096921,180167,607070,0
2096921,2096921,179907,606426,0
2096921,2096921,180005,606348,0
2096921,2096921,179913,606426,0
2096921,2096921,179450,606290,0
2096921,2096921,179772,606298,0
2096921,2096921,179369,605349,0
2096921,2096921,179226,605398,0
2096921,2096921,179307,605388,0
2096921,2096921,179290,605008,0
2096921,2096921,179219,605442,0
2096921,2096921,178248,603866,0
2096921,2096921,178153,603271,0
2096921,2096921,178100,603178,0
2096921,2096921,177628,603239,0
2096921,2096921,178192,603109,0
2096921,2096921,177055,601075,0
2096921,2096921,176811,600624,0
2096921,2096921,176697,600429,0
2096921,2096921,176849,600422,0
2096921,2096921,176514,600503,0
2096921,2096921,175633,598979,0
2096921,2096921,175354,598382,0
2096921,2096921,175479,598699,0
2096921,2096921,175651,598413,0
2096921,2096921,175597,598747,0
2096921,2096921,175114,597604,0
2096921,2096921,174843,597384,0
2096921,2096921,174735,597661,0
2096921,2096921,174814,597530,0
2096921,2096921,174754,597381,0
2096921,2096921,174408,596628,0
2096921,2096921,174287,596183,0
2096921,2096921,174176,596042,0
2096921,2096921,174393,596095,0
2096921,2096921,174210,596199,0
2096921,2096921,174000,595742,0
2096921,2096921,173743,595517,0
2096921,2096921,173857,595361,0
2096921,2096921,173863,595297,0
2096921,2096921,174075,595402,0
2096921,2096921,173587,595273,0
2096921,2096921,173445,595049,0
2096921,2096921,173451,594966,0
2096921,2096921,173566,594710,0
2096921,2096921,173214,594757,0
2096921,2096921,173297,594530,0
2096921,2096921,173531,594410,0
2096921,2096921,173482,594604,0
2096921,2096921,173589,594496,0
2096921,2096921,173571,594637,0
2096921,2096921,173548,594462,0
2096921,2096921,173300,594237,0
2096921,2096921,173301,594529,0
2096921,2096921,173089,594484,0
2096921,2096921,173281,594464,0
2096921,2096921,173444,594562,0
2096921,2096921,173355,594468,0
2096921,2096921,173403,594851,0
2096921,2096921,173620,594721,0
2096921,2096921,173597,594632,0
2096921,2096921,173694,594816,0
2096921,2096921,173269,594706,0
2096921,2096921,173545,595063,0
2096921,2096921,173376,594836,0
2096921,2096921,173519,594740,0
2096921,2096921,173425,594820,0
2096921,2096921,173425,595213,0
2096921,2096921,173730,594932,0
2096921,2096921,173834,595006,0
2096921,2096921,173665,594992,0
2096921,2096921,173912,595427,0
2096921,2096921,173805,595499,0
2096921,2096921,174009,595438,0
2096921,2096921,173719,595414,0
2096921,2096921,173680,595281,0
2096921,2096921,173998,595553,0
2096921,2096921,174158,595976,0
2096921,2096921,173889,595556,0
2096921,2096921,174167,596003,0
2096921,2096921,174210,596105,0
2096921,2096921,174244,596373,0
2096921,2096921,173976,595880,0
2096921,2096921,174202,596499,0
2096921,2096921,174200,596390,0
2096921,2096921,174244,596561,0
2096921,2096921,174420,596646,0
2096921,2096921,174621,597222,0
2096921,2096921,174738,597042,0
2096921,2096921,174675,597188,0
2096921,2096921,174610,596926,0
2096921,2096921,174730,597410,0
2096921,2096921,174712,597444,0
2096921,2096921,174994,597667,0
2096921,2096921,174939,597575,0
2096921,2096921,175238,597570,0
2096921,2096921,175084,597911,0
2096921,2096921,174876,598230,0
2096921,2096921,174996,598205,0
2096921,2096921,174965,597760,0
2096921,2096921,175103,598028,0
2096921,2096921,175217,598712,0
2096921,2096921,175375,598420,0
2096921,2096921,175025,598690,0
2096921,2096921,175232,599024,0
2096921,2096921,175290,598767,0
2096921,2096921,175897,599019,0
2096921,2096921,175605,599091,0
2096921,2096921,175498,599200,0
2096921,2096921,175664,599173,0
2096921,2096921,175903,599477,0
2096921,2096921,175908,599927,0
2096921,2096921,175987,599926,0
2096921,2096921,175794,599661,0
2096921,2096921,175865,599637,0
2096921,2096921,175605,599924,0
2096921,2096921,176284,600210,0
2096921,2096921,176431,600704,0
2096921,2096921,176206,601072,0
2096921,2096921,176263,600835,0
2096921,2096921,176324,600760,0
2096921,2096921,176508,601270,0
2096921,2096921,176498,601092,0
2096921,2096921,176641,601112,0
2096921,2096921,176293,601000,0
2096921,2096921,176359,601289,0
2096921,2096921,176763,601722,0
2096921,2096921,176955,602075,0
2096921,2096921,176821,601919,0
2096921,2096921,177038,601866,0
2096921,2096921,176932,601951,0
2096921,2096921,177023,602316,0
2096921,2096921,177152,602267,0
2096921,2096921,177130,602582,0
2096921,2096921,177232,602778,0
2096921,2096921,176854,602541,0
2096921,2096921,177463,602819,0
2096921,2096921,177622,603032,0
2096921,2096921,177419,603444,0
2096921,2096921,177513,603151,0
2096921,2096921,177463,603377,0
2096921,2096921,177699,603949,0
2096921,2096921,177535,603856,0
2096921,2096921,177818,603578,0
2096921,2096921,177716,603548,0
2096921,2096921,177661,603532,0
2096921,2096921,177752,604092,0
2096921,2096921,178035,604381,0
2096921,2096921,178186,604329,0
2096921,2096921,178149,604391,0
2096921,2096921,178054,604437,0
2096921,2096921,177956,604600,0
2096921,2096921,178271,604681,0
2096921,2096921,178177,604626,0
2096921,2096921,178176,604453,0
2096921,2096921,177997,604447,0
2096921,2096921,178427,605024,0
2096921,2096921,178291,604965,0
2096921,2096921,178200,605093,0
2096921,2096921,178322,605144,0
2096921,2096921,178168,605088,0
2096921,2096921,178429,605071,0
2096921,2096921,178170,605358,0
2096921,2096921,178552,604894,0
2096921,2096921,178337,605149,0
2096921,2096921,178229,605247,0
2096921,2096921,178234,605266,0
2096921,2096921,178367,605354,0
2096921,2096921,178385,605364,0
2096921,2096921,178093,605638,0
2096921,2096921,178332,605391,0
2096921,2096921,178284,605440,0
2096921,2096921,178203,605570,0
2096921,2096921,178410,605800,0
2096921,2096921,178203,605763,0
2096921,2096921,178378,605639,0
2096921,2096921,178444,605792,0
2096921,2096921,178595,605876,0
2096921,2096921,178509,606084,0
2096921,2096921,178368,605775,0
2096921,2096921,178369,605995,0
2096921,2096921,178382,605699,0
2096921,2096921,178306,605915,0
2096921,2096921,178561,605963,0
2096921,2096921,178797,605862,0
2096921,2096921,178614,605821,0
2096921,2096921,178524,605792,0
2096921,2096921,178443,606082,0
2096921,2096921,178057,605847,0
2096921,2096921,178309,606038,0
2096921,2096921,178452,606039,0
2096921,2096921,178795,606240,0
2096921,2096921,178518,606199,0
2096921,2096921,178567,606136,0
2096921,2096921,178559,605974,0
2096921,2096921,178323,606106,0
2096921,2096921,178507,606180,0
2096921,2096921,178539,606330,0
2096921,2096921,178611,606435,0
2096921,2096921,178774,606609,0
2096921,2096921,178686,606603,0
2096921,2096921,178788,606716,0
2096921,2096921,178537,606816,0
2096921,2096921,178238,606875,0
2096921,2096921,178691,606937,0
2096921,2096921,178556,607004,0
2096921,2096921,178474,607159,0
2096921,2096921,178737,607039,0
2096921,2096921,178754,607025,0
2096921,2096921,178784,607432,0
2096921,2096921,178674,607331,0
2096921,2096921,178823,607367,0
2096921,2096921,178936,607352,0
2096921,2096921,178742,607478,0
2096921,2096921,179041,607641,0
2096921,2096921,178617,607128,0
2096921,2096921,179039,607778,0
2096921,2096921,179366,607786,0
2096921,2096921,179225,608063,0
2096921,2096921,179078,607826,0
2096921,2096921,179071,608132,0
2096921,2096921,179250,608531,0
2096921,2096921,179120,608622,0
2096921,2096921,179159,608393,0
2096921,2096921,179253,608766,0
2096921,2096921,179107,608337,0
2096921,2096921,179497,609364,0
2096921,2096921,179798,609641,0
2096921,2096921,179990,609807,0
2096921,2096921,179708,609468,0
2096921,2096921,179646,609628,0
2096921,2096921,179944,610186,0
2096921,2096921,179571,610364,0
2096921,2096921,179992,610086,0
2096921,2096921,179520,610224,0
2096921,2096921,179879,610180,0
2096921,2096921,180083,610673,0
2096921,2096921,180184,610884,0
2096921,2096921,180198,610898,0
2096921,2096921,180361,610828,0
2096921,2096921,180518,610878,0
2096921,2096921,180517,611212,0
2096921,2096921,180464,611244,0
2096921,2096921,180565,611513,0
2096921,2096921,180185,611479,0
2096921,2096921,180436,611384,0
2096921,2096921,180717,611634,0
2096921,2096921,180546,612022,0
2096921,2096921,180720,612050,0
2096921,2096921,180778,611857,0
2096921,2096921,180873,612193,0
2096921,2096921,180951,612685,0
2096921,2096921,180979,612536,0
2096921,2096921,180797,612658,0
2096921,2096921,180767,612806,0
2096921,2096921,180903,612665,0
2096921,2096921,181061,613078,0
2096921,2096921,181060,613520,0
2096921,2096921,181332,613215,0
2096921,2096921,181235,613177,0
2096921,2096921,181351,613368,0
2096921,2096921,181181,613894,0
2096921,2096921,181457,613778,0
2096921,2096921,181463,613897,0
2096921,2096921,181452,613994,0
2096921,2096921,181403,613901,0
2096921,2096921,181637,614677,0
2096921,2096921,181829,614581,0
2096921,2096921,181887,614702,0
2096921,2096921,181839,614832,0
2096921,2096921,181712,614595,0
2096921,2096921,182045,615139,0
2096921,2096921,182177,615258,0
2096921,2096921,181952,615249,0
2096921,2096921,182118,614908,0
2096921,2096921,181737,615205,0
2096921,2096921,181747,615606,0
2096921,2096921,182299,615546,0
2096921,2096921,182426,615822,0
2096921,2096921,182408,615762,0
2096921,2096921,182526,615998,0
2096921,2096921,182650,616267,0
2096921,2096921,182018,616557,0
2096921,2096921,182189,616382,0
2096921,2096921,182291,616488,0
2096921,2096921,182409,616361,0
2096921,2096921,182405,616863,0
2096921,2096921,182762,617124,0
2096921,2096921,182580,617161,0
2096921,2096921,182764,616868,0
2096921,2096921,182522,616928,0
2096921,2096921,182716,617454,0
2096921,2096921,182899,617652,0
2096921,2096921,183000,618006,0
2096921,2096921,182901,617727,0
2096921,2096921,182720,617809,0
2096921,2096921,182838,617964,0
2096921,2096921,183111,618248,0
2096921,2096921,183097,618307,0
2096921,2096921,183422,618377,0
2096921,2096921,183225,618543,0
2096921,2096921,183290,619034,0
2096921,2096921,183371,618923,0
2096921,2096921,183034,618836,0
2096921,2096921,183016,618799,0
2096921,2096921,183119,618580,0
2096921,2096921,183755,619235,0
2096921,2096921,183736,619549,0
2096921,2096921,183572,619452,0
2096921,2096921,183785,619735,0
2096921,2096921,183628,619576,0
2096921,2096921,183636,619840,0
2096921,2096921,183578,620124,0
2096921,2096921,183855,619927,0
2096921,2096921,183805,620195,0
2096921,2096921,183971,620215,0
2096921,2096921,184092,620378,0
2096921,2096921,184057,620712,0
2096921,2096921,184152,620760,0
2096921,2096921,184212,620700,0
2096921,2096921,184187,620819,0
2096921,2096921,183948,621062,0
2096921,2096921,184314,621061,0
2096921,2096921,184099,621151,0
2096921,2096921,184692,621264,0
2096921,2096921,184186,621283,0
2096921,2096921,184387,621726,0
2096921,2096921,184618,621767,0
2096921,2096921,184452,621911,0
2096921,2096921,184514,621938,0
2096921,2096921,184903,621891,0
2096921,2096921,184737,622022,0
2096921,2096921,184740,622289,0
2096921,2096921,184763,622349,0
2096921,2096921,184866,622177,0
2096921,2096921,184962,622288,0
2096921,2096921,184933,622733,0
2096921,2096921,185171,622947,0
2096921,2096921,184873,623169,0
2096921,2096921,184936,622751,0
2096921,2096921,184935,622946,0
2096921,2096921,185271,623109,0
2096921,2096921,185124,623162,0
2096921,2096921,185159,623471,0
2096921,2096921,185050,623595,0
2096921,2096921,185111,623624,0
2096921,2096921,185333,623886,0
2096921,2096921,185064,624024,0
2096921,2096921,185224,624046,0
2096921,2096921,185322,623960,0
2096921,2096921,185370,624258,0
2096921,2096921,185562,624719,0
2096921,2096921,185688,624901,0
2096921,2096921,185608,624675,0
2096921,2096921,185473,624289,0
2096921,2096921,185489,624481,0
2096921,2096921,185375,624814,0
2096921,2096921,185512,625084,0
2096921,2096921,185711,624993,0
2096921,2096921,185815,625263,0
2096921,2096921,185853,625018,0
2096921,2096921,186152,625557,0
2096921,2096921,185902,625453,0
2096921,2096921,186037,625522,0
2096921,2096921,185712,625403,0
2096921,2096921,186062,625383,0
2096921,2096921,186135,625433,0
2096921,2096921,186280,625699,0
2096921,2096921,185763,625939,0
2096921,2096921,186005,626060,0
2096921,2096921,186067,626303,0
2096921,2096921,186030,626579,0
2096921,2096921,186559,626816,0
2096921,2096921,186180,626610,0
2096921,2096921,186134,626657,0
2096921,2096921,186175,626350,0
2096921,2096921,186479,626733,0
2096921,2096921,186192,626777,0
2096921,2096921,186573,626954,0
2096921,2096921,186399,627162,0
2096921,2096921,186191,627247,0
2096921,2096921,186481,627593,0
2096921,2096921,186300,627484,0
2096921,2096921,186508,627423,0
2096921,2096921,186712,627517,0
2096921,2096921,186747,627592,0
2096921,2096921,187026,627682,0
2096921,2096921,186824,627897,0
2096921,2096921,186714,627922,0
2096921,2096921,186391,627997,0
2096921,2096921,186667,627878,0
2096921,2096921,186807,628271,0
2096921,2096921,186966,628743,0
2096921,2096921,186832,628548,0
2096921,2096921,186904,628401,0
2096921,2096921,186940,628400,0
2096921,2096921,187171,628802,0
2096921,2096921,186922,628865,0
2096921,2096921,187011,629134,0
2096921,2096921,186955,629048,0
2096921,2096921,187069,629376,0
2096921,2096921,187188,629211,0
2096921,2096921,187184,629122,0
2096921,2096921,187156,629154,0
2096921,2096921,187131,628970,0
2096921,2096921,187240,629309,0
2096921,2096921,187155,629772,0
2096921,2096921,187332,630052,0
2096921,2096921,187757,629875,0
2096921,2096921,187265,629797,0
2096921,2096921,187299,629865,0
2096921,2096921,187400,630212,0
2096921,2096921,187611,630050,0
2096921,2096921,187729,630130,0
2096921,2096921,187554,630258,0
2096921,2096921,187429,630406,0
2096921,2096921,187546,630513,0
2096921,2096921,187785,630657,0
2096921,2096921,187786,630857,0
2096921,2096921,187702,630698,0
2096921,2096921,187749,630715,0
2096921,2096921,187725,631118,0
2096921,2096921,187784,631281,0
2096921,2096921,187765,631335,0
2096921,2096921,187967,631104,0
2096921,2096921,187786,631071,0
2096921,2096921,187907,631627,0
2096921,2096921,188063,631896,0
2096921,2096921,188071,631740,0
2096921,2096921,188231,631892,0
2096921,2096921,188148,631749,0
2096921,2096921,188257,631639,0
2096921,2096921,188271,631770,0
2096921,2096921,188128,632019,0
2096921,2096921,187879,631989,0
2096921,2096921,188178,631850,0
2096921,2096921,187946,632328,0
2096921,2096921,188146,632458,0
2096921,2096921,188367,632507,0
2096921,2096921,188133,632544,0
2096921,2096921,188206,632568,0
2096921,2096921,188117,632802,0
2096921,2096921,188026,632763,0
2096921,2096921,187915,632806,0
2096921,2096921,188209,632701,0
2096921,2096921,188049,632887,0
2096921,2096921,188421,633082,0
2096921,2096921,188553,633233,0
2096921,2096921,188631,633253,0
2096921,2096921,188380,632841,0
2096921,2096921,188279,633234,0
2096921,2096921,188640,633438,0
2096921,2096921,188435,633527,0
2096921,2096921,188637,633676,0
2096921,2096921,188279,633515,0
2096921,2096921,188571,633448,0
2096921,2096921,188277,633730,0
2096921,2096921,188686,633745,0
2096921,2096921,188899,634050,0
2096921,2096921,188699,633638,0
2096921,2096921,188707,633886,0
2096921,2096921,188813,634140,0
2096921,2096921,188747,634094,0
2096921,2096921,188524,634067,0
2096921,2096921,188452,634004,0
2096921,2096921,188749,633998,0
2096921,2096921,188663,634569,0
2096921,2096921,188906,634622,0
2096921,2096921,188572,634447,0
2096921,2096921,188706,634252,0
2096921,2096921,188837,634584,0
2096921,2096921,188825,634490,0
2096921,2096921,188989,634554,0
2096921,2096921,188803,634494,0
2096921,2096921,188887,634209,0
2096921,2096921,188804,634275,0
2096921,2096921,188695,634640,0
2096921,2096921,188858,634695,0
2096921,2096921,188942,634816,0
2096921,2096921,188970,634848,0
2096921,2096921,188593,635024,0
2096921,2096921,188936,634995,0
2096921,2096921,188975,634645,0
2096921,2096921,189128,634743,0
2096921,2096921,188958,635131,0
2096921,2096921,188893,635058,0
2096921,2096921,188856,634829,0
2096921,2096921,189099,634767,0
2096921,2096921,189066,634896,0
2096921,2096921,188827,634802,0
2096921,2096921,188840,634816,0
2096921,2096921,188747,634697,0
2096921,2096921,189009,634647,0
2096921,2096921,188669,634881,0
2096921,2096921,188739,634933,0
2096921,2096921,188544,634677,0
2096921,2096921,188557,634414,0
2096921,2096921,188583,634378,0
2096921,2096921,188558,634118,0
2096921,2096921,188521,634290,0
2096921,2096921,188666,634231,0
2096921,2096921,188007,633584,0
2096921,2096921,188137,633769,0
2096921,2096921,187981,633535,0
2096921,2096921,187758,633482,0
2096921,2096921,187790,633550,0
2096921,2096921,187615,633392,0
2096921,2096921,187586,633096,0
2096921,2096921,187551,633133,0
2096921,2096921,187409,632981,0
2096921,2096921,187585,632992,0
2096921,2096921,186937,631504,0
2096921,2096921,186548,631210,0
2096921,2096921,186718,630779,0
2096921,2096921,186648,631030,0
2096921,2096921,186712,631191,0
2096921,2096921,185162,629185,0
2096921,2096921,185054,628728,0
2096921,2096921,185033,628730,0
2096921,2096921,185221,628333,0
2096921,2096921,185198,628646,0
2096921,2096921,184520,627067,0
2096921,2096921,184135,626853,0
2096921,2096921,184015,626661,0
2096921,2096921,184014,626505,0
2096921,2096921,184219,626579,0
2096921,2096921,183410,625690,0
2096921,2096921,183597,625569,0
2096921,2096921,183567,625515,0
2096921,2096921,183421,625456,0
2096921,2096921,183133,625406,0
2096921,2096921,183112,624629,0
2096921,2096921,182740,624221,0
2096921,2096921,182699,624493,0
2096921,2096921,182989,624364,0
2096921,2096921,183053,624552,0
2096921,2096921,182770,623938,0
2096921,2096921,182548,624009,0
2096921,2096921,182599,623753,0
2096921,2096921,182572,623798,0
2096921,2096921,182579,623688,0
2096921,2096921,182508,623413,0
2096921,2096921,182454,623835,0
2096921,2096921,182188,623571,0
2096921,2096921,182439,623533,0
2096921,2096921,182310,623450,0
2096921,2096921,182278,623105,0
2096921,2096921,182317,623242,0
2096921,2096921,181969,623114,0
2096921,2096921,182011,623231,0
2096921,2096921,182258,623381,0
2096921,2096921,182279,623402,0
2096921,2096921,182042,623405,0
2096921,2096921,182098,623385,0
2096921,2096921,182081,623177,0
2096921,2096921,182297,623300,0
2096921,2096921,182114,623118,0
2096921,2096921,182324,623437,0
2096921,2096921,182580,623697,0
2096921,2096921,182254,623554,0
2096921,2096921,182117,623661,0
2096921,2096921,182628,623842,0
2096921,2096921,182764,623609,0
2096921,2096921,182659,623812,0
2096921,2096921,182659,624072,0
2096921,2096921,182410,623978,0
2096921,2096921,182375,624399,0
2096921,2096921,182522,624420,0
2096921,2096921,182489,624363,0
2096921,2096921,182693,624547,0
2096921,2096921,182542,624438,0
2096921,2096921,182574,624863,0
2096921,2096921,182775,624710,0
2096921,2096921,182861,625068,0
2096921,2096921,182790,625014,0
2096921,2096921,182711,624643,0
2096921,2096921,182629,625147,0
2096921,2096921,182945,625161,0
2096921,2096921,182776,625112,0
2096921,2096921,182910,625538,0
2096921,2096921,183197,625492,0
2096921,2096921,183404,625748,0
2096921,2096921,183160,625879,0
2096921,2096921,183344,625667,0
2096921,2096921,183149,625652,0
2096921,2096921,183122,625682,0
2096921,2096921,183382,626239,0
2096921,2096921,183570,626149,0
2096921,2096921,183394,626267,0
2096921,2096921,183334,626299,0
2096921,2096921,183402,626153,0
2096921,2096921,183931,626673,0
2096921,2096921,183739,626711,0
2096921,2096921,183977,627022,0
2096921,2096921,183760,626937,0
2096921,2096921,183819,627429,0
2096921,2096921,183953,627412,0
2096921,2096921,183635,627373,0
2096921,2096921,184078,627768,0
2096921,2096921,184125,627623,0
2096921,2096921,183967,627573,0
2096921,2096921,184160,628331,0
2096921,2096921,184452,628010,0
2096921,2096921,184142,628188,0
2096921,2096921,184315,627604,0
2096921,2096921,184383,627739,0
2096921,2096921,184506,628562,0
2096921,2096921,184268,628519,0
2096921,2096921,184411,628850,0
2096921,2096921,184481,628787,0
2096921,2096921,184480,628833,0
2096921,2096921,184713,629165,0
2096921,2096921,184900,629043,0
2096921,2096921,185006,629073,0
2096921,2096921,184789,629143,0
2096921,2096921,184925,629446,0
2096921,2096921,185231,629799,0
2096921,2096921,184967,629619,0
2096921,2096921,185131,629859,0
2096921,2096921,184832,629843,0
2096921,2096921,185187,629790,0
2096921,2096921,185526,630025,0
2096921,2096921,185374,630251,0
2096921,2096921,185362,630380,0
2096921,2096921,185240,630395,0
2096921,2096921,185241,630426,0
2096921,2096921,185457,630846,0
2096921,2096921,185538,630910,0
2096921,2096921,185613,631196,0
2096921,2096921,185796,631049,0
2096921,2096921,185788,631026,0
2096921,2096921,186027,631592,0
2096921,2096921,185819,631393,0
2096921,2096921,185957,631257,0
2096921,2096921,186045,631469,0
2096921,2096921,186062,631558,0
2096921,2096921,186285,631711,0
2096921,2096921,186290,631881,0
2096921,2096921,186381,631964,0
2096921,2096921,186302,632072,0
2096921,2096921,186209,632037,0
2096921,2096921,186675,632568,0
2096921,2096921,186337,632446,0
2096921,2096921,186415,632399,0
2096921,2096921,186114,632455,0
2096921,2096921,186172,632503,0
2096921,2096921,186481,632520,0
2096921,2096921,186601,632474,0
2096921,2096921,186485,632609,0
2096921,2096921,186774,632622,0
2096921,2096921,186586,632756,0
2096921,2096921,186831,633032,0
2096921,2096921,186712,632958,0
2096921,2096921,186252,632975,0
2096921,2096921,186378,632678,0
2096921,2096921,186685,632789,0
2096921,2096921,186622,632777,0
2096921,2096921,186714,633122,0
2096921,2096921,187121,633056,0
2096921,2096921,186616,633217,0
2096921,2096921,186660,633021,0
2096921,2096921,186800,632956,0
2096921,2096921,186614,632822,0
2096921,2096921,186641,632850,0
2096921,2096921,186784,633094,0
2096921,2096921,186633,632926,0
2096921,2096921,186758,632893,0
2096921,2096921,186341,632900,0
2096921,2096921,186456,632930,0
2096921,2096921,186991,633106,0
2096921,2096921,186902,633253,0
2096921,2096921,186705,632886,0
2096921,2096921,186746,632905,0
2096921,2096921,186741,632981,0
2096921,2096921,186621,632900,0
2096921,2096921,186463,632781,0
2096921,2096921,186454,632726,0
2096921,2096921,186381,632735,0
2096921,2096921,186516,632801,0
2096921,2096921,186760,633054,0
2096921,2096921,186551,632680,0
2096921,2096921,186674,632561,0
2096921,2096921,186172,632604,0
2096921,2096921,186415,632373,0
2096921,2096921,186399,632680,0
2096921,2096921,186529,632678,0
2096921,2096921,186293,632622,0
2096921,2096921,186258,632484,0
2096921,2096921,186506,632413,0
2096921,2096921,186485,632571,0
2096921,2096921,186548,632714,0
2096921,2096921,186626,632190,0
2096921,2096921,186652,632184,0
2096921,2096921,186703,632316,0
2096921,2096921,186297,632201,0
2096921,2096921,186398,632090,0
2096921,2096921,186281,632024,0
2096921,2096921,186456,632247,0
2096921,2096921,186342,632485,0
2096921,2096921,186548,632253,0
2096921,2096921,186514,632263,0
2096921,2096921,186307,632337,0
2096921,2096921,186213,631978,0
2096921,2096921,186125,632085,0
2096921,2096921,186383,631893,0
2096921,2096921,186345,632382,0
2096921,2096921,186392,632410,0
2096921,2096921,186313,632421,0
2096921,2096921,186422,632321,0
2096921,2096921,186413,632400,0
2096921,2096921,186542,632401,0
2096921,2096921,186479,632526,0
2096921,2096921,186405,632517,0
2096921,2096921,186610,632466,0
2096921,2096921,186519,632729,0
2096921,2096921,186209,632360,0
2096921,2096921,186379,632052,0
2096921,2096921,186463,632377,0
2096921,2096921,186477,632523,0
2096921,2096921,186828,632918,0
2096921,2096921,186486,632609,0
2096921,2096921,186736,633003,0
2096921,2096921,186588,632637,0
2096921,2096921,186675,632805,0
2096921,2096921,186401,632816,0
2096921,2096921,186638,632702,0
2096921,2096921,186817,633134,0
2096921,2096921,186928,633143,0
2096921,2096921,187092,633407,0
2096921,2096921,187034,633276,0
2096921,2096921,186966,633072,0
2096921,2096921,186921,633499,0
2096921,2096921,186874,633618,0
2096921,2096921,187035,633678,0
2096921,2096921,187007,633556,0
2096921,2096921,187069,633497,0
2096921,2096921,187221,633878,0
2096921,2096921,187268,633641,0
2096921,2096921,187325,633857,0
2096921,2096921,187534,634003,0
2096921,2096921,187581,634257,0
2096921,2096921,187509,634146,0
2096921,2096921,187454,634410,0
2096921,2096921,187488,634264,0
2096921,2096921,187280,634220,0
2096921,2096921,187316,634114,0
2096921,2096921,187678,634426,0
2096921,2096921,187574,634147,0
2096921,2096921,187557,634643,0
2096921,2096921,187711,634481,0
2096921,2096921,187667,634509,0
2096921,2096921,187773,634681,0
2096921,2096921,187546,634500,0
2096921,2096921,187529,634580,0
2096921,2096921,187677,634608,0
2096921,2096921,187719,634618,0
2096921,2096921,187743,634613,0
2096921,2096921,187523,634827,0
2096921,2096921,187918,634920,0
2096921,2096921,187998,634882,0
2096921,2096921,188107,634964,0
2096921,2096921,188360,635205,0
2096921,2096921,188247,635391,0
2096921,2096921,187752,635284,0
2096921,2096921,187756,635433,0
2096921,2096921,187809,635394,0
2096921,2096921,187945,635485,0
2096921,2096921,188206,635879,0
2096921,2096921,188255,636090,0
2096921,2096921,188411,635804,0
2096921,2096921,188170,636099,0
2096921,2096921,188325,636113,0
2096921,2096921,188622,636119,0
2096921,2096921,188579,636015,0
2096921,2096921,188576,635876,0
2096921,2096921,188447,635934,0
2096921,2096921,188357,636209,0
2096921,2096921,188289,636193,0
2096921,2096921,188616,636307,0
2096921,2096921,188349,636002,0
2096921,2096921,188483,636250,0
2096921,2096921,188775,636369,0
2096921,2096921,189076,636350,0
2096921,2096921,188574,636141,0
2096921,2096921,188516,636472,0
2096921,2096921,188237,636382,0
2096921,2096921,188587,636507,0
2096921,2096921,188630,636452,0
2096921,2096921,188835,636698,0
2096921,2096921,188959,636633,0
2096921,2096921,188865,636656,0
2096921,2096921,188958,636795,0
2096921,2096921,188647,636769,0
2096921,2096921,188819,636553,0
2096921,2096921,188843,636702,0
2096921,2096921,188862,636468,0
2096921,2096921,188959,637082,0
2096921,2096921,188645,637127,0
2096921,2096921,189028,636928,0
2096921,2096921,188789,636827,0
2096921,2096921,188947,637020,0
2096921,2096921,189104,637012,0
2096921,2096921,189174,637182,0
2096921,2096921,188881,637062,0
2096921,2096921,188849,637145,0
2096921,2096921,188711,637045,0
2096921,2096921,188938,637174,0
2096921,2096921,189135,637270,0
2096921,2096921,188886,637544,0
2096921,2096921,188971,637382,0
2096921,2096921,188969,637159,0
2096921,2096921,189141,637320,0
2096921,2096921,189040,637224,0
2096921,2096921,189176,637263,0
2096921,2096921,189032,637357,0
2096921,2096921,189130,637238,0
2096921,2096921,189226,637783,0
2096921,2096921,189223,637477,0
2096921,2096921,189285,637527,0
2096921,2096921,189276,637295,0
2096921,2096921,189555,637628,0
2096921,2096921,189391,637688,0
2096921,2096921,189444,637490,0
2096921,2096921,189405,637509,0
2096921,2096921,189463,637569,0
2096921,2096921,189391,637626,0
2096921,2096921,189527,637560,0
2096921,2096921,189327,637707,0
2096921,2096921,189408,637690,0
2096921,2096921,189571,637664,0
2096921,2096921,189391,637962,0
2096921,2096921,189566,637748,0
2096921,2096921,189486,638013,0
2096921,2096921,189547,637821,0
2096921,2096921,189489,638024,0
2096921,2096921,189240,637841,0
2096921,2096921,189218,638070,0
2096921,2096921,189446,638160,0
2096921,2096921,189593,638113,0
2096921,2096921,190008,638217,0
2096921,2096921,189606,638259,0
2096921,2096921,189533,637937,0
2096921,2096921,189468,637952,0
2096921,2096921,189509,637987,0
2096921,2096921,189502,637985,0
2096921,2096921,189647,638186,0
2096921,2096921,189766,638082,0
2096921,2096921,189494,637766,0
2096921,2096921,189416,637858,0
2096921,2096921,189152,637974,0
2096921,2096921,189626,638208,0
2096921,2096921,189401,637990,0
2096921,2096921,189516,638084,0
2096921,2096921,189649,637990,0
2096921,2096921,189623,637770,0
2096921,2096921,189372,638062,0
2096921,2096921,189547,637937,0
2096921,2096921,189744,637978,0
2096921,2096921,189841,638071,0
2096921,2096921,189879,638215,0
2096921,2096921,189467,637930,0
2096921,2096921,189544,637746,0
2096921,2096921,189428,637944,0
2096921,2096921,189513,637973,0
2096921,2096921,189552,638322,0
2096921,2096921,189620,638288,0
2096921,2096921,189642,638027,0
2096921,2096921,189641,638076,0
2096921,2096921,189506,637818,0
2096921,2096921,189758,637521,0
2096921,2096921,189821,637586,0
2096921,2096921,189818,637793,0
2096921,2096921,189747,637870,0
2096921,2096921,189630,637811,0
2096921,2096921,189725,637813,0
2096921,2096921,189504,637796,0
2096921,2096921,189676,637485,0
2096921,2096921,189849,637652,0
2096921,2096921,189730,637946,0
2096921,2096921,189678,637902,0
2096921,2096921,189459,637719,0
2096921,2096921,189818,637729,0
2096921,2096921,189475,637524,0
2096921,2096921,189485,637525,0
2096921,2096921,189394,637647,0
2096921,2096921,189873,637631,0
2096921,2096921,189762,637669,0
2096921,2096921,189499,637575,0
2096921,2096921,189440,637416,0
2096921,2096921,189911,637458,0
2096921,2096921,189789,637406,0
2096921,2096921,189814,637617,0
2096921,2096921,190053,637407,0
2096921,2096921,189748,637501,0
2096921,2096921,189685,637301,0
2096921,2096921,189548,637295,0
2096921,2096921,189757,637224,0
2096921,2096921,189757,637190,0
2096921,2096921,189890,637463,0
2096921,2096921,189559,637347,0
2096921,2096921,189453,637261,0
2096921,2096921,189500,637141,0
2096921,2096921,189367,637321,0
2096921,2096921,189168,637070,0
2096921,2096921,189278,636905,0
2096921,2096921,189326,637252,0
2096921,2096921,189776,636843,0
2096921,2096921,189560,636783,0
2096921,2096921,189593,636797,0
2096921,2096921,189864,636847,0
2096921,2096921,189635,636967,0
2096921,2096921,189436,636920,0
2096921,2096921,189456,636931,0
2096921,2096921,189590,636626,0
2096921,2096921,189726,636558,0
2096921,2096921,189516,636827,0
2096921,2096921,189292,636557,0
2096921,2096921,189384,636520,0
2096921,2096921,189353,636747,0
2096921,2096921,189516,636866,0
2096921,2096921,189467,636654,0
2096921,2096921,189393,636216,0
2096921,2096921,189243,636291,0
2096921,2096921,189402,636009,0
2096921,2096921,189466,636145,0
2096921,2096921,189401,636217,0
2096921,2096921,189236,636063,0
2096921,2096921,189457,635898,0
2096921,2096921,189296,636084,0
2096921,2096921,189452,636076,0
2096921,2096921,189367,635885,0
2096921,2096921,189287,635902,0
2096921,2096921,189169,635620,0
2096921,2096921,189120,635689,0
2096921,2096921,189318,635860,0
2096921,2096921,189130,635609,0
2096921,2096921,189255,635540,0
2096921,2096921,189106,635449,0
2096921,2096921,189193,635755,0
2096921,2096921,189055,635682,0
2096921,2096921,189370,635484,0
2096921,2096921,189183,635633,0
2096921,2096921,189275,635247,0
2096921,2096921,189057,635093,0
2096921,2096921,189289,635249,0
2096921,2096921,188971,635627,0
2096921,2096921,188943,635497,0
2096921,2096921,188826,635011,0
2096921,2096921,189130,634765,0
2096921,2096921,189045,634974,0
2096921,2096921,189288,635224,0
2096921,2096921,189109,634848,0
2096921,2096921,188908,634822,0
2096921,2096921,188875,634525,0
2096921,2096921,188999,634721,0
2096921,2096921,188857,634481,0
2096921,2096921,188977,634044,0
2096921,2096921,189064,634653,0
2096921,2096921,188783,634533,0
2096921,2096921,188839,634302,0
2096921,2096921,188875,634272,0
2096921,2096921,189032,633845,0
2096921,2096921,188989,634158,0
2096921,2096921,188729,633804,0
2096921,2096921,188623,633952,0
2096921,2096921,188726,633897,0
2096921,2096921,188498,633805,0
2096921,2096921,188670,633727,0
2096921,2096921,188772,633721,0
2096921,2096921,188667,633847,0
2096921,2096921,188506,633867,0
2096921,2096921,188603,633759,0
2096921,2096921,188500,633511,0
2096921,2096921,188416,633368,0
2096921,2096921,188533,633459,0
2096921,2096921,188623,633288,0
2096921,2096921,188383,633235,0
2096921,2096921,188492,633116,0
2096921,2096921,188421,633082,0
2096921,2096921,188610,633012,0
2096921,2096921,188457,633485,0
2096921,2096921,188388,633055,0
2096921,2096921,188447,632717,0
2096921,2096921,188768,632723,0
2096921,2096921,188738,632794,0
2096921,2096921,188425,632982,0
2096921,2096921,188179,632122,0
2096921,2096921,188013,631931,0
2096921,2096921,188150,632296,0
2096921,2096921,188086,632221,0
2096921,2096921,188322,632200,0
2096921,2096921,187943,631781,0
2096921,2096921,187729,631322,0
2096921,2096921,187607,631254,0
2096921,2096921,187698,631098,0
2096921,2096921,187579,631368,0
2096921,2096921,187295,630353,0
2096921,2096921,187586,630217,0
2096921,2096921,187351,630258,0
2096921,2096921,187346,630498,0
2096921,2096921,187116,630046,0
2096921,2096921,186707,628853,0
2096921,2096921,186531,628894,0
2096921,2096921,186596,628894,0
2096921,2096921,186861,629217,0
2096921,2096921,186652,629050,0
2096921,2096921,186157,627355,0
2096921,2096921,186017,627445,0
2096921,2096921,185913,627430,0
2096921,2096921,185672,627390,0
2096921,2096921,186112,627446,0
2096921,2096921,185317,625511,0
2096921,2096921,185202,625154,0
2096921,2096921,184805,624908,0
2096921,2096921,184742,624830,0
2096921,2096921,184555,624737,0
2096921,2096921,183479,622267,0
2096921,2096921,183377,621889,0
2096921,2096921,183527,621956,0
2096921,2096921,183285,621915,0
2096921,2096921,183146,621856,0
2096921,2096921,182079,619827,0
2096921,2096921,182097,619498,0
2096921,2096921,181600,619404,0
2096921,2096921,181802,619356,0
2096921,2096921,181978,619624,0
2096921,2096921,181306,617869,0
2096921,2096921,181193,617517,0
2096921,2096921,181016,617689,0
2096921,2096921,181012,617541,0
2096921,2096921,181069,617369,0
2096921,2096921,180614,616472,0
2096921,2096921,180380,616292,0
2096921,2096921,180593,616020,0
2096921,2096921,180447,615928,0
2096921,2096921,180669,615925,0
2096921,2096921,179887,614957,0
2096921,2096921,179838,614983,0
2096921,2096921,179857,614896,0
2096921,2096921,180119,614755,0
2096921,2096921,179740,615311,0
2096921,2096921,179426,614253,0
2096921,2096921,179486,613888,0
2096921,2096921,179361,613921,0
2096921,2096921,179211,613750,0
2096921,2096921,179204,613626,0
2096921,2096921,179241,613453,0
2096921,2096921,179214,613588,0
2096921,2096921,179231,613281,0
2096921,2096921,179107,613438,0
2096921,2096921,179164,613363,0
2096921,2096921,178647,613021,0
2096921,2096921,178945,612957,0
2096921,2096921,178812,612594,0
2096921,2096921,178842,612808,0
2096921,2096921,178939,612657,0
2096921,2096921,178792,612323,0
2096921,2096921,178500,612381,0
2096921,2096921,178500,612328,0
2096921,2096921,178631,612490,0
2096921,2096921,178935,612502,0
2096921,2096921,178883,612084,0
2096921,2096921,178803,612120,0
2096921,2096921,178661,612117,0
2096921,2096921,178462,612056,0
2096921,2096921,178815,612119,0
2096921,2096921,178604,611612,0
2096921,2096921,178758,611933,0
2096921,2096921,179036,611916,0
2096921,2096921,178547,611995,0
2096921,2096921,179157,612265,0
2096921,2096921,178858,612006,0
2096921,2096921,178972,611821,0
2096921,2096921,178777,611300,0
2096921,2096921,178938,611679,0
2096921,2096921,178743,611889,0
2096921,2096921,178990,611643,0
2096921,2096921,178936,611804,0
2096921,2096921,178978,611571,0
2096921,2096921,178928,611798,0
2096921,2096921,178604,611760,0
2096921,2096921,178828,611980,0
2096921,2096921,178782,611714,0
2096921,2096921,178791,612006,0
2096921,2096921,178948,611727,0
2096921,2096921,178849,611663,0
2096921,2096921,178974,611637,0
2096921,2096921,179302,611787,0
2096921,2096921,179266,612006,0
2096921,2096921,179075,611886,0
2096921,2096921,179154,612357,0
2096921,2096921,179491,612327,0
2096921,2096921,179221,612244,0
2096921,2096921,179003,612334,0
2096921,2096921,179015,612112,0
2096921,2096921,179179,611905,0
2096921,2096921,179311,611982,0
2096921,2096921,179446,612248,0
2096921,2096921,179481,612236,0
2096921,2096921,179444,612066,0
2096921,2096921,179511,612024,0
2096921,2096921,179238,611875,0
2096921,2096921,179196,611925,0
2096921,2096921,179480,612266,0
2096921,2096921,179447,612173,0
2096921,2096921,179400,612359,0
2096921,2096921,179529,612226,0
2096921,2096921,179646,612326,0
2096921,2096921,179472,612397,0
2096921,2096921,179473,612400,0
2096921,2096921,179927,612124,0
2096921,2096921,179757,612204,0
2096921,2096921,179763,612356,0
2096921,2096921,179558,612291,0
2096921,2096921,179768,612459,0
2096921,2096921,179464,612506,0
2096921,2096921,179805,612432,0
2096921,2096921,179833,612376,0
2096921,2096921,179804,612529,0
2096921,2096921,179969,612471,0
2096921,2096921,180101,612265,0
2096921,2096921,180019,612366,0
2096921,2096921,180017,612364,0
2096921,2096921,179920,612267,0
2096921,2096921,180090,612143,0
2096921,2096921,179976,612209,0
2096921,2096921,180181,612168,0
2096921,2096921,180274,612304,0
2096921,2096921,180236,612768,0
2096921,2096921,180130,612827,0
2096921,2096921,180010,612511,0
2096921,2096921,180101,612719,0
2096921,2096921,180078,612552,0
2096921,2096921,180216,612555,0
2096921,2096921,180359,612400,0
2096921,2096921,180262,612489,0
2096921,2096921,180300,612592,0
2096921,2096921,180427,612592,0
2096921,2096921,180361,612554,0
2096921,2096921,180494,612575,0
2096921,2096921,180262,612772,0
2096921,2096921,180547,612650,0
2096921,2096921,180528,612750,0
2096921,2096921,180461,612557,0
2096921,2096921,180270,612466,0
2096921,2096921,180367,612282,0
2096921,2096921,180490,612112,0
2096921,2096921,180519,612460,0
2096921,2096921,180576,612622,0
2096921,2096921,180863,612767,0
2096921,2096921,180688,612563,0
2096921,2096921,180611,612572,0
2096921,2096921,180347,612171,0
2096921,2096921,180431,612185,0
2096921,2096921,180509,612161,0
2096921,2096921,180497,612314,0
2096921,2096921,180463,612248,0
2096921,2096921,180630,612093,0
2096921,2096921,180442,612101,0
2096921,2096921,180149,612393,0
2096921,2096921,180403,612100,0
2096921,2096921,180253,611842,0
2096921,2096921,180550,611930,0
2096921,2096921,180359,611897,0
2096921,2096921,180271,611702,0
2096921,2096921,180253,611770,0
2096921,2096921,180208,611394,0
2096921,2096921,180294,611415,0
2096921,2096921,180252,611542,0
2096921,2096921,180276,611551,0
2096921,2096921,180359,611707,0
2096921,2096921,180149,611291,0
2096921,2096921,180274,610868,0
2096921,2096921,180223,610624,0
2096921,2096921,180012,610772,0
2096921,2096921,179929,610494,0
2096921,2096921,179971,610445,0
2096921,2096921,179884,610292,0
2096921,2096921,180020,610319,0
2096921,2096921,180047,610400,0
2096921,2096921,179866,610173,0
2096921,2096921,179558,610048,0
2096921,2096921,179818,609885,0
2096921,2096921,179840,610025,0
2096921,2096921,179795,609822,0
2096921,2096921,179538,609741,0
2096921,2096921,179464,609439,0
2096921,2096921,179449,609163,0
2096921,2096921,179387,609444,0
2096921,2096921,179460,609310,0
2096921,2096921,179456,609579,0
2096921,2096921,179586,608981,0
2096921,2096921,179264,609188,0
2096921,2096921,179351,608978,0
2096921,2096921,179353,608835,0
2096921,2096921,179295,608708,0
2096921,2096921,179179,608604,0
2096921,2096921,179152,608745,0
2096921,2096921,179088,608943,0
2096921,2096921,179306,608501,0
2096921,2096921,179275,608749,0
2096921,2096921,179027,608144,0
2096921,2096921,178870,607801,0
2096921,2096921,178996,608149,0
2096921,2096921,178953,607982,0
2096921,2096921,178859,608074,0
2096921,2096921,178792,607953,0
2096921,2096921,179007,607827,0
2096921,2096921,178766,607827,0
2096921,2096921,179047,607727,0
2096921,2096921,178871,607702,0
2096921,2096921,179046,607811,0
2096921,2096921,178890,607607,0
2096921,2096921,178920,607670,0
2096921,2096921,178949,607420,0
2096921,2096921,178977,607540,0
2096921,2096921,178886,607235,0
2096921,2096921,178913,607581,0
2096921,2096921,179115,607309,0
2096921,2096921,178883,607327,0
2096921,2096921,178999,607533,0
2096921,2096921,179008,607452,0
2096921,2096921,179131,607273,0
2096921,2096921,179050,607292,0
2096921,2096921,178815,607504,0
2096921,2096921,178944,607468,0
2096921,2096921,179075,607429,0
2096921,2096921,179119,607391,0
2096921,2096921,179339,607646,0
2096921,2096921,179207,607691,0
2096921,2096921,178871,607500,0
2096921,2096921,179045,607456,0
2096921,2096921,179198,607302,0
2096921,2096921,179129,607402,0
2096921,2096921,179285,607699,0
2096921,2096921,179115,607498,0
2096921,2096921,179353,607549,0
2096921,2096921,179127,607465,0
2096921,2096921,179255,607335,0
2096921,2096921,179303,607439,0
2096921,2096921,179316,607622,0
2096921,2096921,179406,607864,0
2096921,2096921,179493,607671,0
2096921,2096921,179386,607559,0
2096921,2096921,179102,607477,0
2096921,2096921,179090,607269,0
2096921,2096921,179056,607289,0
2096921,2096921,179520,607418,0
2096921,2096921,179434,607542,0
2096921,2096921,179494,607781,0
2096921,2096921,179233,607985,0
2096921,2096921,179041,607757,0
2096921,2096921,179131,607860,0
2096921,2096921,178999,607443,0
2096921,2096921,179180,607223,0
2096921,2096921,179188,607574,0
2096921,2096921,179198,607547,0
2096921,2096921,179509,607642,0
2096921,2096921,179609,607718,0
2096921,2096921,179421,607767,0
2096921,2096921,179251,607834,0
2096921,2096921,179614,607905,0
2096921,2096921,179554,608035,0
2096921,2096921,179504,607846,0
2096921,2096921,179276,607937,0
2096921,2096921,179499,607480,0
2096921,2096921,179522,607616,0
2096921,2096921,179690,607609,0
2096921,2096921,179585,607498,0
2096921,2096921,179587,607632,0
2096921,2096921,179771,607650,0
2096921,2096921,179604,607878,0
2096921,2096921,179580,607827,0
2096921,2096921,179179,607711,0
2096921,2096921,179200,607438,0
2096921,2096921,179591,607741,0
2096921,2096921,179533,607572,0
2096921,2096921,179734,607549,0
2096921,2096921,179527,607525,0
2096921,2096921,179517,607689,0
2096921,2096921,179659,607779,0
2096921,2096921,179733,607644,0
2096921,2096921,179845,607700,0
2096921,2096921,179660,607807,0
2096921,2096921,179738,607530,0
2096921,2096921,179745,607646,0
2096921,2096921,179804,607535,0
2096921,2096921,179597,607658,0
2096921,2096921,179777,607653,0
2096921,2096921,179609,607775,0
2096921,2096921,180108,607841,0
2096921,2096921,179903,607709,0
2096921,2096921,179712,607802,0
2096921,2096921,179890,607587,0
2096921,2096921,179649,607533,0
2096921,2096921,179582,607564,0
2096921,2096921,179877,607446,0
2096921,2096921,179596,607761,0
2096921,2096921,179925,608045,0
2096921,2096921,179811,607520,0
2096921,2096921,179846,607596,0
2096921,2096921,180088,607686,0
2096921,2096921,180162,607708,0
2096921,2096921,180255,607819,0
2096921,2096921,179811,608175,0
2096921,2096921,180062,608029,0
2096921,2096921,180003,607891,0
2096921,2096921,179914,607941,0
2096921,2096921,180108,608230,0
2096921,2096921,180058,607983,0
2096921,2096921,180210,607934,0
2096921,2096921,180345,608002,0
2096921,2096921,180175,608206,0
2096921,2096921,180184,608079,0
2096921,2096921,179939,608063,0
2096921,2096921,180058,607653,0
2096921,2096921,179964,607570,0
2096921,2096921,179952,607704,0
2096921,2096921,180132,608011,0
2096921,2096921,180545,608006,0
2096921,2096921,180591,607812,0
2096921,2096921,180130,607994,0
2096921,2096921,179934,607738,0
2096921,2096921,179842,607486,0
2096921,2096921,180150,607596,0
2096921,2096921,180334,607742,0
2096921,2096921,180182,607722,0
2096921,2096921,180370,607744,0
2096921,2096921,180304,607742,0
2096921,2096921,180521,608143,0
2096921,2096921,180280,607985,0
2096921,2096921,179876,608188,0
2096921,2096921,180098,607666,0
2096921,2096921,180325,607932,0
2096921,2096921,180044,607893,0
2096921,2096921,180369,608036,0
2096921,2096921,180111,607776,0
2096921,2096921,179969,607984,0
2096921,2096921,180203,607810,0
2096921,2096921,180303,607973,0
2096921,2096921,180172,607862,0
2096921,2096921,180160,607763,0
2096921,2096921,180199,607926,0
2096921,2096921,180442,607874,0
2096921,2096921,180410,607879,0
2096921,2096921,180312,607893,0
2096921,2096921,180212,607493,0
2096921,2096921,180291,607873,0
2096921,2096921,180492,607859,0
2096921,2096921,180425,608159,0
2096921,2096921,180525,607988,0
2096921,2096921,180318,608101,0
2096921,2096921,180303,608128,0
2096921,2096921,180175,607856,0
2096921,2096921,180473,608080,0
2096921,2096921,180617,607780,0
2096921,2096921,180635,607838,0
2096921,2096921,180829,607829,0
2096921,2096921,180631,608142,0
2096921,2096921,180341,607925,0
2096921,2096921,180236,607843,0
2096921,2096921,180374,608143,0
2096921,2096921,180371,607973,0
2096921,2096921,180274,607974,0
2096921,2096921,180599,607854,0
2096921,2096921,180455,607730,0
2096921,2096921,180581,607835,0
2096921,2096921,180830,607710,0
2096921,2096921,180738,607991,0
2096921,2096921,180699,608259,0
2096921,2096921,180676,608222,0
2096921,2096921,180581,608228,0
2096921,2096921,180555,608181,0
2096921,2096921,180530,608259,0
2096921,2096921,180411,607943,0
2096921,2096921,180472,607920,0
2096921,2096921,180598,608001,0
2096921,2096921,180754,608078,0
2096921,2096921,180758,608009,0
2096921,2096921,180498,607848,0
2096921,2096921,180587,608070,0
2096921,2096921,180787,608097,0
2096921,2096921,180824,608178,0
2096921,2096921,180985,608101,0
2096921,2096921,180419,608125,0
2096921,2096921,180531,608028,0
2096921,2096921,180394,608223,0
2096921,2096921,180619,607953,0
2096921,2096921,180551,608154,0
2096921,2096921,180590,608203,0
2096921,2096921,180920,608108,0
2096921,2096921,181017,608180,0
2096921,2096921,180544,608103,0
2096921,2096921,180785,607766,0
2096921,2096921,180680,607984,0
2096921,2096921,180471,607985,0
2096921,2096921,180702,608308,0
2096921,2096921,180808,608234,0
2096921,2096921,180867,608080,0
2096921,2096921,180443,608116,0
2096921,2096921,180465,607814,0
2096921,2096921,180611,608235,0
2096921,2096921,180804,608229,0
2096921,2096921,180636,608364,0
2096921,2096921,180838,608214,0
2096921,2096921,180934,608212,0
2096921,2096921,180637,608312,0
2096921,2096921,180904,608560,0
2096921,2096921,180819,608135,0
2096921,2096921,180768,608198,0
2096921,2096921,180890,608202,0
2096921,2096921,180909,608182,0
2096921,2096921,180717,608461,0
2096921,2096921,180749,608398,0
2096921,2096921,180697,608145,0
2096921,2096921,180896,608279,0
2096921,2096921,180901,608561,0
2096921,2096921,180901,608622,0
2096921,2096921,181076,608629,0
2096921,2096921,180617,608613,0
2096921,2096921,180736,608678,0
2096921,2096921,180767,608465,0
2096921,2096921,180720,608726,0
2096921,2096921,180853,608227,0
2096921,2096921,180752,608655,0
2096921,2096921,180775,608510,0
2096921,2096921,180961,608429,0
2096921,2096921,180695,608373,0
2096921,2096921,180585,608423,0
2096921,2096921,180990,608642,0
2096921,2096921,181062,608346,0
2096921,2096921,180840,608454,0
2096921,2096921,180628,608795,0
2096921,2096921,180971,608579,0
2096921,2096921,180918,608719,0
2096921,2096921,180956,608445,0
2096921,2096921,181023,608544,0
2096921,2096921,181016,608715,0
2096921,2096921,180801,608901,0
2096921,2096921,180863,608836,0
2096921,2096921,181080,608575,0
2096921,2096921,180924,608862,0
2096921,2096921,181260,608794,0
2096921,2096921,180978,608873,0
2096921,2096921,181261,608752,0
2096921,2096921,180989,609006,0
2096921,2096921,180868,608426,0
2096921,2096921,180857,608776,0
2096921,2096921,181029,608746,0
2096921,2096921,180818,608767,0
2096921,2096921,181073,608986,0
2096921,2096921,180789,608757,0
2096921,2096921,180913,608945,0
2096921,2096921,180715,608507,0
2096921,2096921,181026,608708,0
2096921,2096921,180914,608913,0
2096921,2096921,180717,608887,0
2096921,2096921,180996,609137,0
2096921,2096921,180918,608741,0
2096921,2096921,181024,608656,0
2096921,2096921,180887,608938,0
2096921,2096921,181120,608997,0
2096921,2096921,180840,608949,0
2096921,2096921,180922,608983,0
2096921,2096921,181096,609019,0
2096921,2096921,180941,608718,0
2096921,2096921,181044,608690,0
2096921,2096921,180936,608848,0
2096921,2096921,180734,608971,0
2096921,2096921,181052,608829,0
2096921,2096921,181107,608914,0
2096921,2096921,181294,608706,0
2096921,2096921,181037,608944,0
2096921,2096921,181142,608847,0
2096921,2096921,180852,608725,0
2096921,2096921,180728,608660,0
2096921,2096921,180995,608761,0
2096921,2096921,180920,608583,0
2096921,2096921,180984,608902,0
2096921,2096921,180876,608744,0
2096921,2096921,180779,609081,0
2096921,2096921,181031,608387,0
2096921,2096921,181027,608746,0
2096921,2096921,181065,608757,0
2096921,2096921,180865,608782,0
2096921,2096921,180990,608723,0
2096921,2096921,180610,608086,0
2096921,2096921,180579,607862,0
2096921,2096921,180672,608118,0
2096921,2096921,180574,608116,0
2096921,2096921,180518,608495,0
2096921,2096921,180685,607986,0
2096921,2096921,180425,608122,0
2096921,2096921,180555,608047,0
2096921,2096921,180212,607982,0
2096921,2096921,180359,607846,0
2096921,2096921,180021,607144,0
2096921,2096921,180237,607243,0
2096921,2096921,180255,607079,0
2096921,2096921,180248,607378,0
2096921,2096921,180098,607193,0
2096921,2096921,179699,606465,0
2096921,2096921,179682,606543,0
2096921,2096921,179307,606546,0
2096921,2096921,179539,606407,0
2096921,2096921,179658,606715,0
2096921,2096921,179340,605627,0
2096921,2096921,179120,605366,0
2096921,2096921,179085,605225,0
2096921,2096921,179139,605094,0
2096921,2096921,178927,605071,0
2096921,2096921,178043,603652,0
2096921,2096921,178030,603547,0
2096921,2096921,178103,603403,0
2096921,2096921,178244,603317,0
2096921,2096921,177930,603271,0
2096921,2096921,176607,601161,0
2096921,2096921,176644,600607,0
2096921,2096921,176570,600345,0
2096921,2096921,176701,600635,0
2096921,2096921,176927,600537,0
2096921,2096921,176065,599201,0
2096921,2096921,175925,598774,0
2096921,2096921,175749,598755,0
2096921,2096921,175721,598440,0
2096921,2096921,175541,598497,0
2096921,2096921,174976,597707,0
2096921,2096921,174696,596965,0
2096921,2096921,175101,597036,0
2096921,2096921,174988,597328,0
2096921,2096921,174788,597247,0
2096921,2096921,174049,596519,0
2096921,2096921,174260,596490,0
2096921,2096921,174091,596222,0
2096921,2096921,174277,596140,0
2096921,2096921,174114,596274,0
2096921,2096921,174148,595539,0
2096921,2096921,174081,595628,0
2096921,2096921,173768,595159,0
2096921,2096921,173944,595239,0
2096921,2096921,173936,595150,0
2096921,2096921,173904,594637,0
2096921,2096921,173576,594808,0
2096921,2096921,173702,594728,0
2096921,2096921,173393,595016,0
2096921,2096921,173436,594852,0
2096921,2096921,173273,594586,0
2096921,2096921,173477,594539,0
2096921,2096921,173488,594543,0
2096921,2096921,173550,594547,0
2096921,2096921,173493,594460,0
2096921,2096921,173971,594367,0
2096921,2096921,173646,594294,0
2096921,2096921,173235,594434,0
2096921,2096921,173358,594297,0
2096921,2096921,173225,594462,0
2096921,2096921,173117,594146,0
2096921,2096921,173525,594421,0
2096921,2096921,173403,594332,0
2096921,2096921,173434,594667,0
2096921,2096921,173554,594512,0
2096921,2096921,173417,594563,0
2096921,2096921,173469,594674,0
2096921,2096921,173406,594606,0
2096921,2096921,173362,594517,0
2096921,2096921,173489,594840,0
2096921,2096921,173554,594895,0
2096921,2096921,173550,595116,0
2096921,2096921,173610,595167,0
2096921,2096921,173415,595013,0
2096921,2096921,173520,595148,0
2096921,2096921,173665,595187,0
2096921,2096921,173836,595229,0
2096921,2096921,173808,595129,0
2096921,2096921,173670,594913,0
2096921,2096921,173829,595003,0
2096921,2096921,174066,595364,0
2096921,2096921,173835,595253,0
2096921,2096921,173883,595450,0
2096921,2096921,174351,595636,0
2096921,2096921,174250,595847,0
2096921,2096921,174641,596117,0
2096921,2096921,174518,596441,0
2096921,2096921,173983,596081,0
2096921,2096921,174215,596211,0
2096921,2096921,173906,595894,0
2096921,2096921,174105,596501,0
2096921,2096921,174268,596667,0
2096921,2096921,174364,596821,0
2096921,2096921,174505,596655,0
2096921,2096921,174682,596698,0
2096921,2096921,174696,596666,0
2096921,2096921,174732,597130,0
2096921,2096921,174690,597188,0
2096921,2096921,174705,597387,0
2096921,2096921,175226,597043,0
2096921,2096921,174894,597492,0
2096921,2096921,175125,597539,0
2096921,2096921,174862,597780,0
2096921,2096921,174948,597872,0
2096921,2096921,174842,597875,0
2096921,2096921,175327,598218,0
2096921,2096921,175129,598374,0
2096921,2096921,175340,598320,0
2096921,2096921,175079,598457,0
2096921,2096921,175146,598226,0
2096921,2096921,175519,598814,0
2096921,2096921,175488,599051,0
2096921,2096921,175414,599077,0
2096921,2096921,175450,599079,0
2096921,2096921,175702,598977,0
2096921,2096921,175834,599605,0
2096921,2096921,175749,599538,0
2096921,2096921,175933,599709,0
2096921,2096921,175590,599629,0
2096921,2096921,175869,599733,0
2096921,2096921,175985,600098,0
2096921,2096921,176276,600348,0
2096921,2096921,175986,600383,0
2096921,2096921,176304,600908,0
2096921,2096921,176185,600026,0
2096921,2096921,176279,600725,0
2096921,2096921,176335,600546,0
2096921,2096921,176042,600683,0
2096921,2096921,176337,600893,0
2096921,2096921,176332,601037,0
2096921,2096921,176571,601229,0
2096921,2096921,176717,601299,0
2096921,2096921,176592,601694,0
2096921,2096921,176314,601314,0
2096921,2096921,176802,601411,0
2096921,2096921,177075,602077,0
2096921,2096921,177055,602098,0
2096921,2096921,177016,602070,0
2096921,2096921,177171,602174,0
2096921,2096921,176942,602001,0
2096921,2096921,177081,602508,0
2096921,2096921,176966,602812,0
2096921,2096921,177217,602803,0
2096921,2096921,177287,603061,0
2096921,2096921,177308,603112,0
2096921,2096921,177383,603155,0
2096921,2096921,177373,603282,0
2096921,2096921,177562,603061,0
2096921,2096921,177642,603001,0
2096921,2096921,177599,603323,0
2096921,2096921,177597,603716,0
2096921,2096921,177732,603954,0
2096921,2096921,177723,603946,0
2096921,2096921,177594,603718,0
2096921,2096921,177912,604003,0
2096921,2096921,177997,604135,0
2096921,2096921,178092,604333,0
2096921,2096921,177899,604200,0
2096921,2096921,177689,604180,0
2096921,2096921,177632,603947,0
2096921,2096921,177796,604287,0
2096921,2096921,177968,604372,0
2096921,2096921,177965,604370,0
2096921,2096921,178288,604388,0
2096921,2096921,178459,604584,0
2096921,2096921,178269,604838,0
2096921,2096921,178044,604895,0
2096921,2096921,178040,604519,0
2096921,2096921,178137,604589,0
2096921,2096921,177935,604713,0
2096921,2096921,177976,604756,0
2096921,2096921,178065,605416,0
2096921,2096921,178192,605223,0
2096921,2096921,178251,604988,0
2096921,2096921,178310,605030,0
2096921,2096921,178243,605130,0
2096921,2096921,178208,605016,0
2096921,2096921,178007,605231,0
2096921,2096921,178308,605320,0
2096921,2096921,178309,605305,0
2096921,2096921,178323,605311,0
2096921,2096921,178062,605426,0
2096921,2096921,178337,605125,0
2096921,2096921,178343,605285,0
2096921,2096921,178443,605310,0
2096921,2096921,178066,605149,0
2096921,2096921,178263,605280,0
2096921,2096921,178293,605414,0
2096921,2096921,178393,605195,0
2096921,2096921,177984,605449,0
2096921,2096921,178173,605031,0
2096921,2096921,178242,605248,0
2096921,2096921,178280,605613,0
2096921,2096921,178221,605459,0
2096921,2096921,178390,605652,0
2096921,2096921,178607,605832,0
2096921,2096921,178283,605745,0
2096921,2096921,178163,605538,0
2096921,2096921,178064,605648,0
2096921,2096921,178510,605527,0
2096921,2096921,178346,606008,0
2096921,2096921,178090,605800,0
2096921,2096921,178310,605691,0
2096921,2096921,177950,605809,0
2096921,2096921,178375,605769,0
2096921,2096921,178306,606118,0
2096921,2096921,178637,606040,0
2096921,2096921,178533,606201,0
2096921,2096921,178359,606017,0
2096921,2096921,178243,605853,0
2096921,2096921,178246,606265,0
2096921,2096921,178314,606351,0
2096921,2096921,178793,606358,0
2096921,2096921,178504,606564,0
2096921,2096921,178676,606685,0
2096921,2096921,178889,607268,0
2096921,2096921,178844,607152,0
2096921,2096921,178562,607078,0
2096921,2096921,178231,606904,0
2096921,2096921,178703,607015,0
2096921,2096921,178576,607361,0
2096921,2096921,178938,607418,0
2096921,2096921,179210,607264,0
2096921,2096921,178970,607410,0
2096921,2096921,178782,607091,0
2096921,2096921,178964,607768,0
2096921,2096921,179014,607851,0
2096921,2096921,178995,608079,0
2096921,2096921,179196,607943,0
2096921,2096921,179449,608145,0
2096921,2096921,179442,608611,0
2096921,2096921,179401,608836,0
2096921,2096921,179395,608921,0
2096921,2096921,179659,608921,0
2096921,2096921,179623,608964,0
2096921,2096921,179668,609506,0
2096921,2096921,179805,609582,0
2096921,2096921,179819,609446,0
2096921,2096921,179700,609327,0
2096921,2096921,179607,609084,0
2096921,2096921,179927,610043,0
2096921,2096921,180155,609998,0
2096921,2096921,180371,610229,0
2096921,2096921,180265,609972,0
2096921,2096921,180249,610214,0
2096921,2096921,180399,610716,0
2096921,2096921,180507,610885,0
2096921,2096921,180204,610429,0
2096921,2096921,180308,610741,0
2096921,2096921,180195,610833,0
2096921,2096921,180858,611258,0
2096921,2096921,180817,611256,0
2096921,2096921,180598,611369,0
2096921,2096921,180584,611230,0
2096921,2096921,180565,611158,0
2096921,2096921,180624,611557,0
2096921,2096921,181124,611942,0
2096921,2096921,181163,611897,0
2096921,2096921,180831,612179,0
2096921,2096921,180488,611735,0
2096921,2096921,180832,612323,0
2096921,2096921,181039,612403,0
2096921,2096921,181172,612638,0
2096921,2096921,181247,612631,0
2096921,2096921,181165,612706,0
2096921,2096921,181362,613246,0
2096921,2096921,181240,613185,0
2096921,2096921,181160,613092,0
2096921,2096921,181186,613348,0
2096921,2096921,181218,613575,0
2096921,2096921,181252,613926,0
2096921,2096921,181528,613826,0
2096921,2096921,181633,613809,0
2096921,2096921,181303,613945,0
2096921,2096921,181386,614042,0
2096921,2096921,181882,614291,0
2096921,2096921,181581,614426,0
2096921,2096921,181913,614774,0
2096921,2096921,181894,614387,0
2096921,2096921,181702,614577,0
2096921,2096921,182003,614736,0
2096921,2096921,181871,615019,0
2096921,2096921,181804,614919,0
2096921,2096921,181937,614974,0
2096921,2096921,182144,615086,0
2096921,2096921,182032,615788,0
2096921,2096921,182191,615787,0
2096921,2096921,182130,615761,0
2096921,2096921,182232,615473,0
2096921,2096921,182217,615641,0
2096921,2096921,182562,615971,0
2096921,2096921,182588,616452,0
2096921,2096921,182645,616323,0
2096921,2096921,182646,616633,0
2096921,2096921,182350,616199,0
2096921,2096921,182559,616703,0
2096921,2096921,182519,616739,0
2096921,2096921,182500,617191,0
2096921,2096921,182694,617240,0
2096921,2096921,182678,616882,0
2096921,2096921,182810,617461,0
2096921,2096921,182736,617637,0
2096921,2096921,183090,617382,0
2096921,2096921,182859,617573,0
2096921,2096921,182703,617505,0
2096921,2096921,183170,618204,0
2096921,2096921,183192,618345,0
2096921,2096921,183114,618014,0
2096921,2096921,183296,618097,0
2096921,2096921,183227,618153,0
2096921,2096921,183255,618806,0
2096921,2096921,183242,618833,0
2096921,2096921,183360,618980,0
2096921,2096921,183405,618857,0
2096921,2096921,183269,618964,0
2096921,2096921,183604,619365,0
2096921,2096921,183630,619566,0
2096921,2096921,183409,619463,0
2096921,2096921,183669,619300,0
2096921,2096921,183785,619472,0
2096921,2096921,183890,619996,0
2096921,2096921,184004,619979,0
2096921,2096921,183943,620230,0
2096921,2096921,184122,619919,0
2096921,2096921,183791,619989,0
2096921,2096921,184013,620099,0
2096921,2096921,183883,620454,0
2096921,2096921,183780,620568,0
2096921,2096921,183990,620566,0
2096921,2096921,184044,620347,0
2096921,2096921,183874,621100,0
2096921,2096921,184163,621265,0
2096921,2096921,183995,621068,0
2096921,2096921,184317,621214,0
2096921,2096921,184593,621481,0
2096921,2096921,184513,621692,0
2096921,2096921,184585,621474,0
2096921,2096921,184697,621913,0
2096921,2096921,184320,621577,0
2096921,2096921,184810,621628,0
2096921,2096921,184580,621916,0
2096921,2096921,184721,622357,0
2096921,2096921,184629,622424,0
2096921,2096921,184695,622536,0
2096921,2096921,184823,622331,0
2096921,2096921,185034,622800,0
2096921,2096921,184870,622917,0
2096921,2096921,184685,622964,0
2096921,2096921,184813,623006,0
2096921,2096921,184781,622983,0
2096921,2096921,184991,623274,0
2096921,2096921,184961,623436,0
2096921,2096921,184992,623386,0
2096921,2096921,185185,623331,0
2096921,2096921,185221,623270,0
2096921,2096921,185343,623917,0
2096921,2096921,185290,623904,0
2096921,2096921,185231,623916,0
2096921,2096921,185335,623856,0
2096921,2096921,185285,623389,0
2096921,2096921,185141,623782,0
2096921,2096921,185164,623987,0
2096921,2096921,185501,624244,0
2096921,2096921,185511,623936,0
2096921,2096921,185627,624319,0
2096921,2096921,185695,624905,0
2096921,2096921,185859,624936,0
2096921,2096921,185716,624500,0
2096921,2096921,185555,624760,0
2096921,2096921,185513,624563,0
2096921,2096921,185835,625082,0
2096921,2096921,185689,625231,0
2096921,2096921,185729,625213,0
2096921,2096921,185567,625155,0
2096921,2096921,185695,625342,0
2096921,2096921,186094,625516,0
2096921,2096921,186103,625673,0
2096921,2096921,186126,625709,0
2096921,2096921,185965,625944,0
2096921,2096921,186090,625579,0
2096921,2096921,185838,626015,0
2096921,2096921,185891,626206,0
2096921,2096921,186055,626360,0
2096921,2096921,186221,626235,0
2096921,2096921,186141,626427,0
2096921,2096921,186428,626668,0
2096921,2096921,186367,626894,0
2096921,2096921,186264,626464,0
2096921,2096921,186342,626673,0
2096921,2096921,186316,626606,0
2096921,2096921,186590,627159,0
2096921,2096921,186658,627236,0
2096921,2096921,186375,627173,0
2096921,2096921,186433,626941,0
2096921,2096921,186578,627187,0
2096921,2096921,186654,627597,0
2096921,2096921,186837,627696,0
2096921,2096921,186646,627666,0
2096921,2096921,186758,627705,0
2096921,2096921,186539,627698,0
2096921,2096921,186668,627962,0
2096921,2096921,186582,628339,0
2096921,2096921,186797,628125,0
2096921,2096921,186807,628271,0
2096921,2096921,186900,628356,0
2096921,2096921,186917,628753,0
2096921,2096921,187086,628669,0
2096921,2096921,186981,628363,0
2096921,2096921,186988,628504,0
2096921,2096921,187029,629015,0
2096921,2096921,187136,629109,0
2096921,2096921,187319,629137,0
2096921,2096921,187211,629063,0
2096921,2096921,187119,629173,0
2096921,2096921,187116,628981,0
2096921,2096921,187220,629441,0
2096921,2096921,187160,629371,0
2096921,2096921,187180,629505,0
2096921,2096921,187159,629364,0
2096921,2096921,187241,629610,0
2096921,2096921,187734,629896,0
2096921,2096921,187522,629937,0
2096921,2096921,187692,629904,0
2096921,2096921,187537,629998,0
2096921,2096921,187489,629911,0
2096921,2096921,187896,630686,0
2096921,2096921,187835,630349,0
2096921,2096921,187622,630406,0
2096921,2096921,187573,630176,0
2096921,2096921,187816,630232,0
2096921,2096921,187603,631007,0
2096921,2096921,187884,630999,0
2096921,2096921,188067,630993,0
2096921,2096921,187748,630792,0
2096921,2096921,188119,631024,0
2096921,2096921,187846,631238,0
2096921,2096921,187956,631348,0
2096921,2096921,188009,631534,0
2096921,2096921,187795,631445,0
2096921,2096921,187968,631266,0
2096921,2096921,187980,631538,0
2096921,2096921,188146,631883,0
2096921,2096921,188139,631739,0
2096921,2096921,188103,631737,0
2096921,2096921,187888,631816,0
2096921,2096921,188030,632119,0
2096921,2096921,187751,632046,0
2096921,2096921,188119,632111,0
2096921,2096921,188236,631917,0
2096921,2096921,187907,631888,0
2096921,2096921,188459,632065,0
2096921,2096921,188080,632603,0
2096921,2096921,188326,632400,0
2096921,2096921,188346,632641,0
2096921,2096921,188460,632449,0
2096921,2096921,188433,632537,0
2096921,2096921,188520,633003,0
2096921,2096921,188683,632926,0
2096921,2096921,188470,632742,0
2096921,2096921,188282,632444,0
2096921,2096921,188031,632902,0
2096921,2096921,188241,632869,0
2096921,2096921,188398,632968,0
2096921,2096921,188487,633141,0
2096921,2096921,188511,633092,0
2096921,2096921,188469,633391,0
2096921,2096921,188412,633578,0
2096921,2096921,188425,633386,0
2096921,2096921,188555,633390,0
2096921,2096921,188562,633351,0
2096921,2096921,188808,633575,0
2096921,2096921,188542,633394,0
2096921,2096921,188701,633428,0
2096921,2096921,188606,633777,0
2096921,2096921,188730,633479,0
2096921,2096921,188865,634133,0
2096921,2096921,188974,634260,0
2096921,2096921,188685,634119,0
2096921,2096921,188567,634115,0
2096921,2096921,188703,633982,0
2096921,2096921,188947,634173,0
2096921,2096921,188904,634384,0
2096921,2096921,189175,634319,0
2096921,2096921,189018,634435,0
2096921,2096921,189196,634268,0
2096921,2096921,188810,634743,0
2096921,2096921,188566,634929,0
2096921,2096921,188771,634833,0
2096921,2096921,188816,634770,0
2096921,2096921,188925,634876,0
2096921,2096921,188917,634783,0
2096921,2096921,188793,634643,0
2096921,2096921,188503,634657,0
2096921,2096921,188841,634668,0
2096921,2096921,188786,634617,0
2096921,2096921,188825,634601,0
2096921,2096921,188652,634583,0
2096921,2096921,188597,634586,0
2096921,2096921,188616,634249,0
2096921,2096921,188594,634370,0
2096921,2096921,188384,634182,0
2096921,2096921,188342,634170,0
2096921,2096921,188512,634283,0
2096921,2096921,188712,634355,0
2096921,2096921,188625,634200,0
2096921,2096921,188433,633581,0
2096921,2096921,188206,633456,0
2096921,2096921,187854,633566,0
2096921,2096921,187932,633472,0
2096921,2096921,188199,633535,0
2096921,2096921,187699,633006,0
2096921,2096921,187644,632917,0
2096921,2096921,187855,632821,0
2096921,2096921,187654,632732,0
2096921,2096921,187512,632605,0
2096921,2096921,186734,631137,0
2096921,2096921,186474,630861,0
2096921,2096921,186491,631120,0
2096921,2096921,186404,630891,0
2096921,2096921,186314,630874,0
2096921,2096921,185354,628670,0
2096921,2096921,185082,628583,0
2096921,2096921,185138,628331,0
2096921,2096921,185078,628510,0
2096921,2096921,185201,628553,0
2096921,2096921,184496,627383,0
2096921,2096921,184199,626972,0
2096921,2096921,184357,626601,0
2096921,2096921,184070,626518,0
2096921,2096921,183969,626435,0
2096921,2096921,183339,625558,0
2096921,2096921,183244,625486,0
2096921,2096921,183448,625200,0
2096921,2096921,183200,625378,0
2096921,2096921,183170,625177,0
2096921,2096921,182739,624529,0
2096921,2096921,182555,624220,0
2096921,2096921,182753,624433,0
2096921,2096921,182887,624416,0
2096921,2096921,182759,624594,0
2096921,2096921,182335,624019,0
2096921,2096921,182503,623739,0
2096921,2096921,182438,623668,0
2096921,2096921,182235,623566,0
2096921,2096921,182340,623902,0
2096921,2096921,182205,623435,0
2096921,2096921,182356,623403,0
2096921,2096921,182193,623106,0
2096921,2096921,182379,623593,0
2096921,2096921,182182,623158,0
2096921,2096921,181934,623069,0
2096921,2096921,182123,622932,0
2096921,2096921,182043,623192,0
2096921,2096921,182067,623282,0
2096921,2096921,181949,623171,0
2096921,2096921,182224,623332,0
2096921,2096921,182062,623159,0
2096921,2096921,181976,623131,0
