2096921,2096921,187035,631051,0
2096921,2096921,187387,630997,0
2096921,2096921,187249,630838,0
2096921,2096921,187558,630904,0
2096921,2096921,187341,630775,0
2096921,2096921,187263,630468,0
2096921,2096921,187241,630607,0
2096921,2096921,187341,630796,0
2096921,2096921,187266,630963,0
2096921,2096921,186930,630595,0
2096921,2096921,186955,630430,0
2096921,2096921,187065,631061,0
2096921,2096921,187231,630647,0
2096921,2096921,187067,630655,0
2096921,2096921,187235,630585,0
2096921,2096921,186929,630552,0
2096921,2096921,186974,630394,0
2096921,2096921,187066,630278,0
2096921,2096921,186996,630459,0
2096921,2096921,187135,630530,0
2096921,2096921,187200,630255,0
2096921,2096921,187152,630493,0
2096921,2096921,187223,630121,0
2096921,2096921,187281,630002,0
2096921,2096921,187499,629976,0
2096921,2096921,187289,630056,0
2096921,2096921,187200,629839,0
2096921,2096921,186866,629891,0
2096921,2096921,187247,629968,0
2096921,2096921,187098,629926,0
2096921,2096921,187217,629659,0
2096921,2096921,186950,629799,0
2096921,2096921,187150,629804,0
2096921,2096921,187125,629914,0
2096921,2096921,186993,629715,0
2096921,2096921,186999,629714,0
2096921,2096921,187023,629587,0
2096921,2096921,186856,629693,0
2096921,2096921,186773,629584,0
2096921,2096921,186907,629283,0
2096921,2096921,187095,629278,0
2096921,2096921,187053,629118,0
2096921,2096921,187000,629351,0
2096921,2096921,186869,629482,0
2096921,2096921,186949,629364,0
2096921,2096921,187025,628943,0
2096921,2096921,186972,629069,0
2096921,2096921,186759,628862,0
2096921,2096921,186959,628907,0
2096921,2096921,186912,628512,0
2096921,2096921,186920,628865,0
2096921,2096921,187195,629004,0
2096921,2096921,186999,628989,0
2096921,2096921,187244,628889,0
2096921,2096921,186743,628892,0
2096921,2096921,186896,628361,0
2096921,2096921,186878,628549,0
2096921,2096921,186892,628624,0
2096921,2096921,186923,628872,0
2096921,2096921,186805,628404,0
2096921,2096921,186810,628363,0
2096921,2096921,186970,628332,0
2096921,2096921,186964,628282,0
2096921,2096921,186744,628501,0
2096921,2096921,186687,628284,0
2096921,2096921,186837,628143,0
2096921,2096921,186556,627621,0
2096921,2096921,186612,627880,0
2096921,2096921,186654,627892,0
2096921,2096921,186983,627841,0
2096921,2096921,186917,627685,0
2096921,2096921,186477,627325,0
2096921,2096921,186764,627290,0
2096921,2096921,186715,627562,0
2096921,2096921,186695,627748,0
2096921,2096921,186626,627585,0
2096921,2096921,186395,627435,0
2096921,2096921,186373,627509,0
2096921,2096921,186834,627518,0
2096921,2096921,186727,627397,0
2096921,2096921,186366,627312,0
2096921,2096921,186517,627132,0
2096921,2096921,186524,627023,0
2096921,2096921,186331,627274,0
2096921,2096921,186168,626792,0
2096921,2096921,186244,626883,0
2096921,2096921,186289,626777,0
2096921,2096921,186257,626805,0
2096921,2096921,186244,626714,0
2096921,2096921,186231,626753,0
2096921,2096921,186536,626725,0
2096921,2096921,186255,626453,0
2096921,2096921,186340,626569,0
2096921,2096921,186391,626684,0
2096921,2096921,186511,626608,0
2096921,2096921,186152,626338,0
2096921,2096921,186375,626252,0
2096921,2096921,186242,626211,0
2096921,2096921,186291,626249,0
2096921,2096921,186426,626085,0
2096921,2096921,186162,625700,0
2096921,2096921,186028,625707,0
2096921,2096921,186515,625825,0
2096921,2096921,186328,625937,0
2096921,2096921,186303,625773,0
2096921,2096921,186148,625265,0
2096921,2096921,186122,625400,0
2096921,2096921,185994,625199,0
2096921,2096921,186129,625355,0
2096921,2096921,186166,625273,0
2096921,2096921,186074,625190,0
2096921,2096921,185930,625075,0
2096921,2096921,185818,625079,0
2096921,2096921,185890,625230,0
2096921,2096921,186001,624933,0
2096921,2096921,185919,624831,0
2096921,2096921,185781,624822,0
2096921,2096921,186043,624549,0
2096921,2096921,185934,624677,0
2096921,2096921,185995,624342,0
2096921,2096921,185689,624540,0
2096921,2096921,185907,624313,0
2096921,2096921,186061,624771,0
2096921,2096921,186023,624646,0
2096921,2096921,185850,624494,0
2096921,2096921,185695,624126,0
2096921,2096921,185448,624168,0
2096921,2096921,185728,623966,0
2096921,2096921,185798,623691,0
2096921,2096921,185703,624192,0
2096921,2096921,185646,623844,0
2096921,2096921,185823,623808,0
2096921,2096921,185535,623798,0
2096921,2096921,185554,623963,0
2096921,2096921,185503,623734,0
2096921,2096921,185566,623274,0
2096921,2096921,185205,623259,0
2096921,2096921,185477,623504,0
2096921,2096921,185312,623382,0
2096921,2096921,185288,623212,0
2096921,2096921,185398,623066,0
2096921,2096921,185463,622856,0
2096921,2096921,185405,623194,0
2096921,2096921,185305,622944,0
2096921,2096921,185323,622532,0
2096921,2096921,185321,622395,0
2096921,2096921,185126,622542,0
2096921,2096921,185173,622371,0
2096921,2096921,185419,622447,0
2096921,2096921,185242,622381,0
2096921,2096921,185109,622329,0
2096921,2096921,184848,622177,0
2096921,2096921,185034,622002,0
2096921,2096921,185298,621946,0
2096921,2096921,185084,621878,0
2096921,2096921,185048,621796,0
2096921,2096921,185029,621596,0
2096921,2096921,184933,621763,0
2096921,2096921,185288,621628,0
2096921,2096921,185038,621478,0
2096921,2096921,184921,621085,0
2096921,2096921,184834,621245,0
2096921,2096921,184816,621157,0
2096921,2096921,184675,621292,0
2096921,2096921,184688,621017,0
2096921,2096921,184553,620940,0
2096921,2096921,184653,620943,0
2096921,2096921,184821,620748,0
2096921,2096921,184784,620713,0
2096921,2096921,184487,620128,0
2096921,2096921,184518,619976,0
2096921,2096921,184638,620314,0
2096921,2096921,184540,620161,0
2096921,2096921,184303,620156,0
2096921,2096921,184146,619662,0
2096921,2096921,184151,619133,0
2096921,2096921,183924,618898,0
2096921,2096921,183859,619097,0
2096921,2096921,184023,618850,0
2096921,2096921,183820,618694,0
2096921,2096921,183771,618470,0
2096921,2096921,183634,618208,0
2096921,2096921,183562,618316,0
2096921,2096921,183299,617996,0
2096921,2096921,183030,617616,0
2096921,2096921,182930,617062,0
2096921,2096921,182932,616759,0
2096921,2096921,182992,616684,0
2096921,2096921,183081,617059,0
2096921,2096921,182439,616429,0
2096921,2096921,182472,615706,0
2096921,2096921,182434,615559,0
2096921,2096921,182275,615681,0
2096921,2096921,182097,615729,0
2096921,2096921,181096,614181,0
2096921,2096921,181064,613245,0
2096921,2096921,180905,613104,0
2096921,2096921,181130,613062,0
2096921,2096921,181024,613016,0
2096921,2096921,179880,611070,0
2096921,2096921,179741,610382,0
2096921,2096921,179797,610288,0
2096921,2096921,179863,610318,0
2096921,2096921,179729,610169,0
2096921,2096921,178456,608753,0
2096921,2096921,178546,607960,0
2096921,2096921,178611,607819,0
2096921,2096921,178657,607403,0
2096921,2096921,178589,607376,0
2096921,2096921,177887,606080,0
2096921,2096921,177590,605898,0
2096921,2096921,177530,605944,0
2096921,2096921,177674,605899,0
2096921,2096921,177832,605926,0
2096921,2096921,177187,605038,0
2096921,2096921,176841,604810,0
2096921,2096921,176703,604230,0
2096921,2096921,176690,604392,0
2096921,2096921,176711,604087,0
2096921,2096921,176537,603657,0
2096921,2096921,176313,603336,0
2096921,2096921,176147,603387,0
2096921,2096921,176303,603338,0
2096921,2096921,176667,603531,0
2096921,2096921,176174,602724,0
2096921,2096921,175923,602443,0
2096921,2096921,175771,602267,0
2096921,2096921,175937,602297,0
2096921,2096921,175950,602570,0
2096921,2096921,175701,601749,0
2096921,2096921,175551,601481,0
2096921,2096921,175499,601911,0
2096921,2096921,175706,601839,0
2096921,2096921,175633,601788,0
2096921,2096921,175599,601422,0
2096921,2096921,175628,601288,0
2096921,2096921,175616,601191,0
2096921,2096921,175541,601108,0
2096921,2096921,175451,600902,0
2096921,2096921,175303,600809,0
2096921,2096921,175182,600563,0
2096921,2096921,175411,601130,0
2096921,2096921,175287,600852,0
2096921,2096921,175414,600863,0
2096921,2096921,175703,601002,0
2096921,2096921,175612,600829,0
2096921,2096921,175361,600662,0
2096921,2096921,175314,600926,0
2096921,2096921,175419,600552,0
2096921,2096921,175340,600687,0
2096921,2096921,175309,600695,0
2096921,2096921,175305,600693,0
2096921,2096921,175358,600913,0
2096921,2096921,175536,600591,0
2096921,2096921,175517,600977,0
2096921,2096921,175584,600651,0
2096921,2096921,175458,600421,0
2096921,2096921,175337,600417,0
2096921,2096921,175317,600164,0
2096921,2096921,175385,600695,0
2096921,2096921,174999,600392,0
2096921,2096921,175193,600728,0
2096921,2096921,175563,600791,0
2096921,2096921,175602,600727,0
2096921,2096921,175540,600611,0
2096921,2096921,175565,600610,0
2096921,2096921,175705,600835,0
2096921,2096921,175284,600535,0
2096921,2096921,175550,600466,0
2096921,2096921,175800,600988,0
2096921,2096921,175539,600914,0
2096921,2096921,175868,600908,0
2096921,2096921,175729,601023,0
2096921,2096921,175789,601028,0
2096921,2096921,176024,600849,0
2096921,2096921,176076,601135,0
2096921,2096921,175963,601002,0
2096921,2096921,175925,600945,0
2096921,2096921,175852,600893,0
2096921,2096921,176148,601246,0
2096921,2096921,176041,601535,0
2096921,2096921,176325,601460,0
2096921,2096921,175919,601358,0
2096921,2096921,176207,601285,0
2096921,2096921,176219,601420,0
2096921,2096921,176122,601312,0
2096921,2096921,176176,601142,0
2096921,2096921,176427,601393,0
2096921,2096921,176275,601389,0
2096921,2096921,176321,601718,0
2096921,2096921,176395,601474,0
2096921,2096921,176224,601640,0
2096921,2096921,176418,601777,0
2096921,2096921,176335,601314,0
2096921,2096921,176404,601530,0
2096921,2096921,176584,601737,0
2096921,2096921,176614,601926,0
2096921,2096921,176639,601632,0
2096921,2096921,176472,601902,0
2096921,2096921,176631,602019,0
2096921,2096921,176557,602195,0
2096921,2096921,176601,602040,0
2096921,2096921,176599,602187,0
2096921,2096921,176859,602192,0
2096921,2096921,177083,602276,0
2096921,2096921,177043,602057,0
2096921,2096921,176662,602232,0
2096921,2096921,176865,602160,0
2096921,2096921,176943,602444,0
2096921,2096921,177171,602364,0
2096921,2096921,176976,602605,0
2096921,2096921,176928,602211,0
2096921,2096921,177165,602278,0
2096921,2096921,177350,602577,0
2096921,2096921,177509,602723,0
2096921,2096921,177127,602600,0
2096921,2096921,177110,602861,0
2096921,2096921,176994,602920,0
2096921,2096921,177386,602743,0
2096921,2096921,177172,602934,0
2096921,2096921,177291,602736,0
2096921,2096921,177401,602843,0
2096921,2096921,177642,603159,0
2096921,2096921,177596,603019,0
2096921,2096921,177529,602935,0
2096921,2096921,177501,603114,0
2096921,2096921,177603,603148,0
2096921,2096921,177623,603048,0
2096921,2096921,177413,603033,0
2096921,2096921,177561,603257,0
2096921,2096921,177266,603127,0
2096921,2096921,177701,603150,0
2096921,2096921,177664,603076,0
2096921,2096921,177696,603033,0
2096921,2096921,177508,603327,0
2096921,2096921,177444,603245,0
2096921,2096921,177556,603101,0
2096921,2096921,177556,602940,0
2096921,2096921,177725,602971,0
2096921,2096921,177776,603128,0
2096921,2096921,177435,602931,0
2096921,2096921,177559,602832,0
2096921,2096921,177747,602922,0
2096921,2096921,177918,603310,0
2096921,2096921,177821,603035,0
2096921,2096921,177685,603083,0
2096921,2096921,177924,602944,0
2096921,2096921,177788,602967,0
2096921,2096921,177655,602733,0
2096921,2096921,177435,602712,0
2096921,2096921,177512,602878,0
2096921,2096921,177197,602798,0
2096921,2096921,177532,602703,0
2096921,2096921,177418,602499,0
2096921,2096921,177313,602559,0
2096921,2096921,177550,602537,0
2096921,2096921,177348,602483,0
2096921,2096921,177270,602587,0
2096921,2096921,177403,602453,0
2096921,2096921,177418,602279,0
2096921,2096921,177403,602222,0
2096921,2096921,177358,602245,0
2096921,2096921,177271,602453,0
2096921,2096921,177342,602138,0
2096921,2096921,177316,602436,0
2096921,2096921,177169,602155,0
2096921,2096921,177396,601885,0
2096921,2096921,177360,602044,0
2096921,2096921,177409,601874,0
2096921,2096921,176942,601678,0
2096921,2096921,177283,601724,0
2096921,2096921,177253,601603,0
2096921,2096921,177163,601839,0
2096921,2096921,177242,601756,0
2096921,2096921,176946,601842,0
2096921,2096921,176789,601239,0
2096921,2096921,177006,601448,0
2096921,2096921,177024,600920,0
2096921,2096921,176685,601364,0
2096921,2096921,176932,601258,0
2096921,2096921,176904,601386,0
2096921,2096921,176979,601214,0
2096921,2096921,177186,601485,0
2096921,2096921,177113,601125,0
2096921,2096921,176926,600971,0
2096921,2096921,176963,601164,0
2096921,2096921,176993,601104,0
2096921,2096921,176642,601024,0
2096921,2096921,176858,601238,0
2096921,2096921,176858,601054,0
2096921,2096921,176884,601280,0
2096921,2096921,176762,600804,0
2096921,2096921,176947,601129,0
2096921,2096921,177147,601018,0
2096921,2096921,176889,601671,0
2096921,2096921,176862,601410,0
2096921,2096921,176892,601409,0
2096921,2096921,176945,601021,0
2096921,2096921,176956,601282,0
2096921,2096921,177118,601069,0
2096921,2096921,176876,600795,0
2096921,2096921,177015,601133,0
2096921,2096921,177296,601351,0
2096921,2096921,176977,601202,0
2096921,2096921,176901,601450,0
2096921,2096921,176896,601512,0
2096921,2096921,177325,601285,0
2096921,2096921,177067,601419,0
2096921,2096921,176877,601630,0
2096921,2096921,177350,601549,0
2096921,2096921,177764,601836,0
2096921,2096921,177503,601665,0
2096921,2096921,177444,601739,0
2096921,2096921,177012,601816,0
2096921,2096921,177516,602119,0
2096921,2096921,177644,602191,0
2096921,2096921,177475,602129,0
2096921,2096921,177246,602046,0
2096921,2096921,177434,602186,0
2096921,2096921,177681,602511,0
2096921,2096921,177785,602275,0
2096921,2096921,177752,602261,0
2096921,2096921,177768,602351,0
2096921,2096921,177762,602196,0
2096921,2096921,177847,602469,0
2096921,2096921,177693,602638,0
2096921,2096921,177787,602662,0
2096921,2096921,177638,602580,0
2096921,2096921,177595,602308,0
2096921,2096921,177808,602521,0
2096921,2096921,177874,602818,0
2096921,2096921,178150,603093,0
2096921,2096921,177743,603242,0
2096921,2096921,177851,603267,0
2096921,2096921,177946,603109,0
2096921,2096921,178017,603306,0
2096921,2096921,178129,603551,0
2096921,2096921,178099,603415,0
2096921,2096921,178121,602963,0
2096921,2096921,177975,603416,0
2096921,2096921,178312,603561,0
2096921,2096921,178176,603423,0
2096921,2096921,178287,603467,0
2096921,2096921,178448,603735,0
2096921,2096921,178074,604003,0
2096921,2096921,178247,603629,0
2096921,2096921,178415,603850,0
2096921,2096921,178276,603580,0
2096921,2096921,178446,603650,0
2096921,2096921,178530,603999,0
2096921,2096921,178524,604169,0
2096921,2096921,178791,604032,0
2096921,2096921,178682,604229,0
2096921,2096921,178616,604205,0
2096921,2096921,178442,604416,0
2096921,2096921,178581,604379,0
2096921,2096921,178758,604528,0
2096921,2096921,178634,604322,0
2096921,2096921,178402,604177,0
2096921,2096921,178527,604356,0
2096921,2096921,178778,604448,0
2096921,2096921,178847,604562,0
2096921,2096921,178729,604504,0
2096921,2096921,178760,604533,0
2096921,2096921,178859,604829,0
2096921,2096921,179060,604733,0
2096921,2096921,178645,604759,0
2096921,2096921,178859,604648,0
2096921,2096921,178635,605064,0
2096921,2096921,179374,604927,0
2096921,2096921,178946,605019,0
2096921,2096921,179044,605133,0
2096921,2096921,178946,605199,0
2096921,2096921,179165,605242,0
2096921,2096921,179078,605060,0
2096921,2096921,179058,605202,0
2096921,2096921,179014,605083,0
2096921,2096921,179379,605361,0
2096921,2096921,179193,605261,0
2096921,2096921,178843,605494,0
2096921,2096921,179299,605415,0
2096921,2096921,179158,605660,0
2096921,2096921,179254,605818,0
2096921,2096921,179355,605475,0
2096921,2096921,179242,605671,0
2096921,2096921,179371,605985,0
2096921,2096921,179299,605799,0
2096921,2096921,179204,605716,0
2096921,2096921,179295,605655,0
2096921,2096921,179418,605918,0
2096921,2096921,179713,606001,0
2096921,2096921,179401,605883,0
2096921,2096921,179486,606015,0
2096921,2096921,179680,605714,0
2096921,2096921,179883,606134,0
2096921,2096921,179710,606151,0
2096921,2096921,179751,606033,0
2096921,2096921,179597,605801,0
2096921,2096921,179661,605998,0
2096921,2096921,179619,606168,0
2096921,2096921,179723,606548,0
2096921,2096921,179664,606574,0
2096921,2096921,179796,606569,0
2096921,2096921,179801,606573,0
2096921,2096921,179968,606392,0
2096921,2096921,180103,606558,0
2096921,2096921,179804,606564,0
2096921,2096921,179955,606489,0
2096921,2096921,179916,606370,0
2096921,2096921,179743,606242,0
2096921,2096921,179860,606408,0
2096921,2096921,179861,606484,0
2096921,2096921,180092,606751,0
2096921,2096921,180286,606679,0
2096921,2096921,180066,606807,0
2096921,2096921,179969,606927,0
2096921,2096921,180047,606907,0
2096921,2096921,179889,606437,0
2096921,2096921,179835,606354,0
2096921,2096921,179959,606802,0
2096921,2096921,180041,607069,0
2096921,2096921,180027,607049,0
2096921,2096921,179864,606947,0
2096921,2096921,180163,606828,0
2096921,2096921,180488,607189,0
2096921,2096921,179920,607208,0
2096921,2096921,180049,607268,0
2096921,2096921,180068,607089,0
2096921,2096921,180024,607146,0
2096921,2096921,180360,607459,0
2096921,2096921,180352,607226,0
2096921,2096921,180244,607197,0
2096921,2096921,180070,607180,0
2096921,2096921,180293,607396,0
2096921,2096921,180191,607139,0
2096921,2096921,180189,607456,0
2096921,2096921,180254,607335,0
2096921,2096921,180287,607052,0
2096921,2096921,180333,607383,0
2096921,2096921,180402,607273,0
2096921,2096921,180227,607465,0
2096921,2096921,180695,607549,0
2096921,2096921,180642,607452,0
2096921,2096921,180429,607381,0
2096921,2096921,180385,607443,0
2096921,2096921,180411,607592,0
2096921,2096921,180307,607617,0
2096921,2096921,180231,607512,0
2096921,2096921,180306,607591,0
2096921,2096921,180580,607781,0
2096921,2096921,180551,607541,0
2096921,2096921,180363,607579,0
2096921,2096921,180384,607390,0
2096921,2096921,180415,607368,0
2096921,2096921,180301,607722,0
2096921,2096921,180407,607643,0
2096921,2096921,180389,607649,0
2096921,2096921,180364,607690,0
2096921,2096921,180205,607702,0
2096921,2096921,180528,607910,0
2096921,2096921,180473,607872,0
2096921,2096921,180351,607938,0
2096921,2096921,180496,607933,0
2096921,2096921,180546,607909,0
2096921,2096921,180470,607885,0
2096921,2096921,180628,608025,0
2096921,2096921,180510,607738,0
2096921,2096921,180466,608027,0
2096921,2096921,180343,608059,0
2096921,2096921,180808,608044,0
2096921,2096921,181048,608270,0
2096921,2096921,180597,608369,0
2096921,2096921,180553,608238,0
2096921,2096921,180641,608060,0
2096921,2096921,180733,608500,0
2096921,2096921,180693,608492,0
2096921,2096921,180627,608529,0
2096921,2096921,180543,608125,0
2096921,2096921,180579,608147,0
2096921,2096921,180680,608156,0
2096921,2096921,180812,608348,0
2096921,2096921,180803,608214,0
2096921,2096921,181183,608417,0
2096921,2096921,180905,608249,0
2096921,2096921,180672,608338,0
2096921,2096921,180663,608138,0
2096921,2096921,180542,608214,0
2096921,2096921,180902,608302,0
2096921,2096921,180558,608369,0
2096921,2096921,180648,608358,0
2096921,2096921,180781,608565,0
2096921,2096921,180955,608443,0
2096921,2096921,181041,608640,0
2096921,2096921,180913,608372,0
2096921,2096921,181086,608827,0
2096921,2096921,181178,608713,0
2096921,2096921,180902,608869,0
2096921,2096921,180641,608638,0
2096921,2096921,180567,608778,0
2096921,2096921,180719,608957,0
2096921,2096921,180899,609050,0
2096921,2096921,180672,608612,0
2096921,2096921,180785,608802,0
2096921,2096921,181084,608847,0
2096921,2096921,181340,608807,0
2096921,2096921,180975,608922,0
2096921,2096921,181096,608815,0
2096921,2096921,181014,608997,0
2096921,2096921,180923,608786,0
2096921,2096921,181027,609187,0
2096921,2096921,180970,609275,0
2096921,2096921,181211,609199,0
2096921,2096921,181350,609151,0
2096921,2096921,181093,609453,0
2096921,2096921,181418,609370,0
2096921,2096921,180901,609549,0
2096921,2096921,181071,609337,0
2096921,2096921,180886,609331,0
2096921,2096921,180869,609185,0
2096921,2096921,181104,609445,0
2096921,2096921,181139,609373,0
2096921,2096921,181054,609243,0
2096921,2096921,181330,609163,0
2096921,2096921,181158,609206,0
2096921,2096921,181098,609646,0
2096921,2096921,181005,609809,0
2096921,2096921,181065,609798,0
2096921,2096921,181061,609240,0
2096921,2096921,181005,609819,0
2096921,2096921,180866,609737,0
2096921,2096921,181224,609789,0
2096921,2096921,181224,609738,0
2096921,2096921,181395,609631,0
2096921,2096921,181113,609742,0
2096921,2096921,181604,609773,0
2096921,2096921,181258,610159,0
2096921,2096921,181251,609970,0
2096921,2096921,181336,609661,0
2096921,2096921,181435,609719,0
2096921,2096921,181368,609838,0
2096921,2096921,181310,610006,0
2096921,2096921,181403,610164,0
2096921,2096921,181560,609688,0
2096921,2096921,181575,609650,0
2096921,2096921,181364,610023,0
2096921,2096921,181312,609871,0
2096921,2096921,181331,609957,0
2096921,2096921,181301,609650,0
2096921,2096921,181415,609825,0
2096921,2096921,181235,610091,0
2096921,2096921,181388,610260,0
2096921,2096921,181374,610509,0
2096921,2096921,181272,610486,0
2096921,2096921,181377,610413,0
2096921,2096921,181349,610437,0
2096921,2096921,181266,610410,0
2096921,2096921,181359,610551,0
2096921,2096921,181588,610654,0
2096921,2096921,181223,610653,0
2096921,2096921,181750,610408,0
2096921,2096921,181603,610671,0
2096921,2096921,181602,610885,0
2096921,2096921,181499,610669,0
2096921,2096921,181786,610789,0
2096921,2096921,181935,611002,0
2096921,2096921,181708,611098,0
2096921,2096921,181752,610769,0
2096921,2096921,181806,610744,0
2096921,2096921,181530,610789,0
2096921,2096921,181433,610505,0
2096921,2096921,181251,610647,0
2096921,2096921,181603,610667,0
2096921,2096921,181525,610678,0
2096921,2096921,181706,610741,0
2096921,2096921,181303,610329,0
2096921,2096921,181114,610479,0
2096921,2096921,181252,610463,0
2096921,2096921,181425,610733,0
2096921,2096921,181081,610266,0
2096921,2096921,180751,609809,0
2096921,2096921,181039,609919,0
2096921,2096921,181067,610158,0
2096921,2096921,180751,610183,0
2096921,2096921,181056,609982,0
2096921,2096921,180859,609321,0
2096921,2096921,180577,609566,0
2096921,2096921,180632,609197,0
2096921,2096921,180609,609066,0
2096921,2096921,180534,608910,0
2096921,2096921,180145,608674,0
2096921,2096921,180300,608485,0
2096921,2096921,180145,608591,0
2096921,2096921,180224,608414,0
2096921,2096921,180224,609028,0
2096921,2096921,179481,607626,0
2096921,2096921,178840,606871,0
2096921,2096921,179039,606508,0
2096921,2096921,179110,606745,0
2096921,2096921,178958,606642,0
2096921,2096921,178210,605183,0
2096921,2096921,177876,604415,0
2096921,2096921,177783,604582,0
2096921,2096921,177989,604615,0
2096921,2096921,177881,604536,0
2096921,2096921,177452,603615,0
2096921,2096921,176939,602655,0
2096921,2096921,176961,602738,0
2096921,2096921,176987,602528,0
2096921,2096921,176744,602484,0
2096921,2096921,176239,601734,0
2096921,2096921,176338,601556,0
2096921,2096921,176191,601529,0
2096921,2096921,176225,601439,0
2096921,2096921,176188,601149,0
2096921,2096921,175622,600600,0
2096921,2096921,175685,600310,0
2096921,2096921,175661,600593,0
2096921,2096921,175760,600348,0
2096921,2096921,175661,600568,0
2096921,2096921,175696,600368,0
2096921,2096921,175417,600416,0
2096921,2096921,175413,600297,0
2096921,2096921,175147,599992,0
2096921,2096921,175412,599871,0
2096921,2096921,175152,599987,0
2096921,2096921,175222,599960,0
2096921,2096921,175014,599761,0
2096921,2096921,175225,599650,0
2096921,2096921,175056,599687,0
2096921,2096921,175135,599620,0
2096921,2096921,174965,599581,0
2096921,2096921,174907,599896,0
2096921,2096921,175181,600152,0
2096921,2096921,175204,599750,0
2096921,2096921,175080,599872,0
2096921,2096921,174596,599955,0
2096921,2096921,175129,599960,0
2096921,2096921,175058,600068,0
2096921,2096921,175079,599808,0
2096921,2096921,175207,599937,0
2096921,2096921,174981,600074,0
2096921,2096921,175217,600451,0
2096921,2096921,175122,600392,0
2096921,2096921,175073,600279,0
2096921,2096921,175071,600525,0
2096921,2096921,175223,600647,0
2096921,2096921,175310,600924,0
2096921,2096921,175121,600706,0
2096921,2096921,175201,600450,0
2096921,2096921,175254,600772,0
2096921,2096921,175217,600960,0
2096921,2096921,175455,601448,0
2096921,2096921,175325,601425,0
2096921,2096921,175344,601224,0
2096921,2096921,175785,601508,0
2096921,2096921,175400,601524,0
2096921,2096921,175416,601524,0
2096921,2096921,175351,601476,0
2096921,2096921,175911,601959,0
2096921,2096921,176069,602036,0
2096921,2096921,176087,602002,0
2096921,2096921,175914,602325,0
2096921,2096921,175802,602367,0
2096921,2096921,176029,602606,0
2096921,2096921,176187,602825,0
2096921,2096921,176293,602985,0
2096921,2096921,176295,603196,0
2096921,2096921,176445,603046,0
2096921,2096921,176410,603012,0
2096921,2096921,176646,603356,0
2096921,2096921,176658,603568,0
2096921,2096921,176680,603901,0
2096921,2096921,176611,603819,0
2096921,2096921,176778,603868,0
2096921,2096921,176978,604193,0
2096921,2096921,176893,604672,0
2096921,2096921,177061,604942,0
2096921,2096921,176666,604493,0
2096921,2096921,176713,604899,0
2096921,2096921,177270,605048,0
2096921,2096921,176989,605469,0
2096921,2096921,177426,605572,0
2096921,2096921,177842,605775,0
2096921,2096921,177813,605640,0
2096921,2096921,177862,605737,0
2096921,2096921,177732,606243,0
2096921,2096921,177735,606155,0
2096921,2096921,177699,606307,0
2096921,2096921,177768,606414,0
2096921,2096921,177917,606834,0
2096921,2096921,177766,607290,0
2096921,2096921,177799,607325,0
2096921,2096921,177607,606953,0
2096921,2096921,178072,607370,0
2096921,2096921,178346,607653,0
2096921,2096921,178473,608156,0
2096921,2096921,178496,607957,0
2096921,2096921,178410,607613,0
2096921,2096921,178367,607757,0
2096921,2096921,178511,608319,0
2096921,2096921,178613,608822,0
2096921,2096921,178554,608853,0
2096921,2096921,178849,608832,0
2096921,2096921,178632,608939,0
2096921,2096921,179177,609345,0
2096921,2096921,179126,609776,0
2096921,2096921,179194,609650,0
2096921,2096921,179329,609853,0
2096921,2096921,179135,609681,0
2096921,2096921,179456,610144,0
2096921,2096921,179517,610447,0
2096921,2096921,179624,610879,0
2096921,2096921,179601,610694,0
2096921,2096921,179712,610538,0
2096921,2096921,179798,611078,0
2096921,2096921,180081,611532,0
2096921,2096921,179935,611446,0
2096921,2096921,179910,610855,0
2096921,2096921,179930,610969,0
2096921,2096921,180091,611856,0
2096921,2096921,180270,612380,0
2096921,2096921,180219,612204,0
2096921,2096921,180223,612200,0
2096921,2096921,180253,612414,0
2096921,2096921,180404,612718,0
2096921,2096921,180323,612632,0
2096921,2096921,180393,612977,0
2096921,2096921,180136,612912,0
2096921,2096921,180600,612813,0
2096921,2096921,180830,613526,0
2096921,2096921,180750,613736,0
2096921,2096921,181025,613662,0
2096921,2096921,180900,613698,0
2096921,2096921,180808,613560,0
2096921,2096921,180636,613655,0
2096921,2096921,180474,614048,0
2096921,2096921,180815,614171,0
2096921,2096921,180941,613978,0
2096921,2096921,180862,614241,0
2096921,2096921,181081,614217,0
2096921,2096921,181234,614725,0
2096921,2096921,181233,614644,0
2096921,2096921,181255,614685,0
2096921,2096921,181080,614751,0
2096921,2096921,181323,614831,0
2096921,2096921,181152,615249,0
2096921,2096921,181129,615417,0
2096921,2096921,181154,614879,0
2096921,2096921,181091,614968,0
2096921,2096921,181569,615427,0
2096921,2096921,181289,615483,0
2096921,2096921,181587,615636,0
2096921,2096921,181419,615611,0
2096921,2096921,181642,615548,0
2096921,2096921,181628,615588,0
2096921,2096921,181665,615550,0
2096921,2096921,181389,615551,0
2096921,2096921,181413,615404,0
2096921,2096921,181452,615863,0
2096921,2096921,181630,615847,0
2096921,2096921,181519,615874,0
2096921,2096921,181716,615744,0
2096921,2096921,181921,615775,0
2096921,2096921,181890,616153,0
2096921,2096921,181604,616283,0
2096921,2096921,181385,616111,0
2096921,2096921,181605,616197,0
2096921,2096921,181764,616119,0
2096921,2096921,181384,616350,0
2096921,2096921,181432,616601,0
2096921,2096921,181423,616549,0
2096921,2096921,181689,616562,0
2096921,2096921,181797,616485,0
2096921,2096921,181644,616587,0
2096921,2096921,181745,616558,0
2096921,2096921,181803,616870,0
2096921,2096921,181635,616649,0
2096921,2096921,181410,616614,0
2096921,2096921,181445,616469,0
2096921,2096921,181601,616890,0
2096921,2096921,181570,616918,0
2096921,2096921,181906,617022,0
2096921,2096921,181789,616991,0
2096921,2096921,181723,616950,0
2096921,2096921,181825,616930,0
2096921,2096921,181741,617151,0
2096921,2096921,181836,617270,0
2096921,2096921,181713,617191,0
2096921,2096921,182029,617560,0
2096921,2096921,181974,617308,0
2096921,2096921,181849,617562,0
2096921,2096921,181858,617783,0
2096921,2096921,181935,617676,0
2096921,2096921,181958,618005,0
2096921,2096921,182239,618444,0
2096921,2096921,182162,618540,0
2096921,2096921,182197,618358,0
2096921,2096921,182126,618348,0
2096921,2096921,182236,617924,0
2096921,2096921,182157,618404,0
2096921,2096921,182214,619013,0
2096921,2096921,182263,618922,0
2096921,2096921,182074,618971,0
2096921,2096921,182210,618848,0
2096921,2096921,182666,619161,0
2096921,2096921,182873,619565,0
2096921,2096921,182758,619598,0
2096921,2096921,182614,619754,0
2096921,2096921,182612,619711,0
2096921,2096921,182910,620000,0
2096921,2096921,182950,620355,0
2096921,2096921,182953,620381,0
2096921,2096921,183036,620535,0
2096921,2096921,182896,620430,0
2096921,2096921,183227,620881,0
2096921,2096921,183241,620973,0
2096921,2096921,183056,621009,0
2096921,2096921,183564,621353,0
2096921,2096921,183322,621122,0
2096921,2096921,183624,621445,0
2096921,2096921,183880,621664,0
2096921,2096921,183637,621915,0
2096921,2096921,183475,621665,0
2096921,2096921,183261,621718,0
2096921,2096921,183758,622118,0
2096921,2096921,183652,622498,0
2096921,2096921,183683,622726,0
2096921,2096921,183738,622414,0
2096921,2096921,183478,622444,0
2096921,2096921,183880,622801,0
2096921,2096921,183859,623151,0
2096921,2096921,184123,623216,0
2096921,2096921,184047,623143,0
2096921,2096921,184252,623276,0
2096921,2096921,184304,623505,0
2096921,2096921,184307,623592,0
2096921,2096921,184339,623573,0
2096921,2096921,184345,623601,0
2096921,2096921,184164,623703,0
2096921,2096921,184473,624258,0
2096921,2096921,184815,624353,0
2096921,2096921,184832,624366,0
2096921,2096921,184504,624641,0
2096921,2096921,184562,624586,0
2096921,2096921,184681,625146,0
2096921,2096921,184800,624803,0
2096921,2096921,184832,624892,0
2096921,2096921,184830,624914,0
2096921,2096921,184733,624898,0
2096921,2096921,184941,625361,0
2096921,2096921,184898,625347,0
2096921,2096921,184993,625815,0
2096921,2096921,184911,625743,0
2096921,2096921,185156,625776,0
2096921,2096921,185329,626251,0
2096921,2096921,185273,626518,0
2096921,2096921,185141,626131,0
2096921,2096921,184978,626204,0
2096921,2096921,185443,626300,0
2096921,2096921,185234,626654,0
2096921,2096921,185637,626880,0
2096921,2096921,185658,626965,0
2096921,2096921,185837,627074,0
2096921,2096921,185743,627090,0
2096921,2096921,185855,627563,0
2096921,2096921,185959,627480,0
2096921,2096921,185702,627635,0
2096921,2096921,185714,627385,0
2096921,2096921,185575,627354,0
2096921,2096921,185731,627892,0
2096921,2096921,185942,627889,0
2096921,2096921,185974,628260,0
2096921,2096921,186145,628264,0
2096921,2096921,186163,628139,0
2096921,2096921,186214,628807,0
2096921,2096921,186158,628869,0
2096921,2096921,186234,628807,0
2096921,2096921,186340,628631,0
2096921,2096921,186177,629149,0
2096921,2096921,186499,629331,0
2096921,2096921,186584,629353,0
2096921,2096921,186482,629123,0
2096921,2096921,186409,629374,0
2096921,2096921,186877,629631,0
2096921,2096921,186928,629921,0
2096921,2096921,186808,629743,0
2096921,2096921,186828,629761,0
2096921,2096921,186921,629872,0
2096921,2096921,187054,629577,0
2096921,2096921,187159,630139,0
2096921,2096921,187179,630032,0
2096921,2096921,187088,630072,0
2096921,2096921,186886,630419,0
2096921,2096921,186958,630548,0
2096921,2096921,186989,630446,0
2096921,2096921,186812,630861,0
2096921,2096921,187274,630718,0
2096921,2096921,187134,630824,0
2096921,2096921,186924,631061,0
2096921,2096921,187160,631268,0
2096921,2096921,187405,631494,0
2096921,2096921,187450,631558,0
2096921,2096921,187471,631426,0
2096921,2096921,187580,631403,0
2096921,2096921,187832,631647,0
2096921,2096921,187701,632107,0
2096921,2096921,187781,631798,0
2096921,2096921,187264,631882,0
2096921,2096921,187523,631885,0
2096921,2096921,187798,632204,0
2096921,2096921,187621,632500,0
2096921,2096921,187654,632467,0
2096921,2096921,187553,632442,0
2096921,2096921,187657,632646,0
2096921,2096921,188069,632808,0
2096921,2096921,188020,632405,0
2096921,2096921,187972,632649,0
2096921,2096921,188213,633092,0
2096921,2096921,188055,633200,0
2096921,2096921,188033,633380,0
2096921,2096921,187930,633291,0
2096921,2096921,188148,633586,0
2096921,2096921,188184,633437,0
2096921,2096921,188022,633718,0
2096921,2096921,188177,633721,0
2096921,2096921,188356,633919,0
2096921,2096921,188509,633832,0
2096921,2096921,188343,633636,0
2096921,2096921,188093,633845,0
2096921,2096921,188305,633941,0
2096921,2096921,188200,634230,0
2096921,2096921,188562,634168,0
2096921,2096921,188577,634107,0
2096921,2096921,188315,634287,0
2096921,2096921,188464,634594,0
2096921,2096921,188305,634823,0
2096921,2096921,188299,634487,0
2096921,2096921,188295,634417,0
2096921,2096921,188691,634602,0
2096921,2096921,188970,634586,0
2096921,2096921,188681,635229,0
2096921,2096921,188905,635222,0
2096921,2096921,188827,635361,0
2096921,2096921,189166,635127,0
2096921,2096921,188828,635332,0
2096921,2096921,188745,635575,0
2096921,2096921,189029,635442,0
2096921,2096921,188988,635329,0
2096921,2096921,188831,635566,0
2096921,2096921,188850,635417,0
2096921,2096921,189366,636056,0
2096921,2096921,189213,635870,0
2096921,2096921,188907,636170,0
2096921,2096921,189010,635778,0
2096921,2096921,189385,635831,0
2096921,2096921,189211,636265,0
2096921,2096921,188981,636117,0
2096921,2096921,189109,636130,0
2096921,2096921,189175,636121,0
2096921,2096921,189258,636455,0
2096921,2096921,189228,636381,0
2096921,2096921,189402,636370,0
2096921,2096921,189523,636403,0
2096921,2096921,189659,636490,0
2096921,2096921,189311,636612,0
2096921,2096921,189470,636811,0
2096921,2096921,189405,636927,0
2096921,2096921,189352,636820,0
2096921,2096921,189060,637157,0
2096921,2096921,189297,637187,0
2096921,2096921,189452,636984,0
2096921,2096921,189750,637076,0
2096921,2096921,189591,636998,0
2096921,2096921,189469,636948,0
2096921,2096921,189574,637097,0
2096921,2096921,189661,637307,0
2096921,2096921,189603,637306,0
2096921,2096921,189871,637410,0
2096921,2096921,189706,637088,0
2096921,2096921,189627,637486,0
2096921,2096921,189538,637926,0
2096921,2096921,189620,637612,0
2096921,2096921,189715,637714,0
2096921,2096921,189780,637856,0
2096921,2096921,190107,637798,0
2096921,2096921,189829,638327,0
2096921,2096921,189856,638473,0
2096921,2096921,189488,638259,0
2096921,2096921,189826,637819,0
2096921,2096921,189922,638189,0
2096921,2096921,190014,638194,0
2096921,2096921,189878,638385,0
2096921,2096921,189988,638398,0
2096921,2096921,190125,638344,0
2096921,2096921,190014,638444,0
2096921,2096921,190086,638402,0
2096921,2096921,190015,638517,0
2096921,2096921,189843,638735,0
2096921,2096921,190183,638771,0
2096921,2096921,190206,638538,0
2096921,2096921,190437,638792,0
2096921,2096921,190394,639130,0
2096921,2096921,190235,638997,0
2096921,2096921,189958,638786,0
2096921,2096921,190397,638879,0
2096921,2096921,190502,639065,0
2096921,2096921,190340,639025,0
2096921,2096921,190407,638950,0
2096921,2096921,190427,639003,0
2096921,2096921,190522,639388,0
2096921,2096921,190350,639461,0
2096921,2096921,190370,639379,0
2096921,2096921,190120,639475,0
2096921,2096921,190583,639249,0
2096921,2096921,190325,639527,0
2096921,2096921,190165,639434,0
2096921,2096921,190441,639385,0
2096921,2096921,190455,639312,0
2096921,2096921,190332,639311,0
2096921,2096921,190276,639628,0
2096921,2096921,190554,639546,0
2096921,2096921,190643,639571,0
2096921,2096921,190323,639725,0
2096921,2096921,190524,639594,0
2096921,2096921,190471,639483,0
2096921,2096921,190375,639864,0
2096921,2096921,190223,639848,0
2096921,2096921,190682,639665,0
2096921,2096921,190712,639815,0
2096921,2096921,190250,639852,0
2096921,2096921,190586,639836,0
2096921,2096921,190525,639948,0
2096921,2096921,190547,639923,0
2096921,2096921,190544,639854,0
2096921,2096921,190458,639847,0
2096921,2096921,190521,639957,0
2096921,2096921,190427,639977,0
2096921,2096921,190601,640223,0
2096921,2096921,190613,639952,0
2096921,2096921,190548,639966,0
2096921,2096921,190608,639956,0
2096921,2096921,190460,640350,0
2096921,2096921,190656,640085,0
2096921,2096921,190874,640353,0
2096921,2096921,190881,640052,0
2096921,2096921,190748,640241,0
2096921,2096921,190880,640329,0
2096921,2096921,190534,640182,0
2096921,2096921,190398,640188,0
2096921,2096921,190271,640186,0
2096921,2096921,190636,640520,0
2096921,2096921,190525,640538,0
2096921,2096921,190663,640143,0
2096921,2096921,190540,640258,0
2096921,2096921,190873,640288,0
2096921,2096921,190865,640587,0
2096921,2096921,190874,640502,0
2096921,2096921,190741,640410,0
2096921,2096921,190602,640311,0
2096921,2096921,190584,640204,0
2096921,2096921,190787,640534,0
2096921,2096921,190734,640361,0
2096921,2096921,190742,640437,0
2096921,2096921,190850,640390,0
2096921,2096921,190735,640412,0
2096921,2096921,190728,640316,0
2096921,2096921,190640,640279,0
2096921,2096921,190353,640311,0
2096921,2096921,190641,640575,0
2096921,2096921,190691,640119,0
2096921,2096921,190786,640019,0
2096921,2096921,190547,639981,0
2096921,2096921,190515,640172,0
2096921,2096921,190411,639998,0
2096921,2096921,190236,639787,0
2096921,2096921,190064,639414,0
2096921,2096921,190184,639547,0
2096921,2096921,190537,639475,0
2096921,2096921,190213,639470,0
2096921,2096921,189928,639014,0
2096921,2096921,190197,639198,0
2096921,2096921,190150,639222,0
2096921,2096921,190035,639189,0
2096921,2096921,189685,639031,0
2096921,2096921,189568,638362,0
2096921,2096921,189396,638162,0
2096921,2096921,189356,637954,0
2096921,2096921,189282,637851,0
2096921,2096921,189255,638071,0
2096921,2096921,189287,637463,0
2096921,2096921,189005,637226,0
2096921,2096921,188911,637004,0
2096921,2096921,189250,636938,0
2096921,2096921,189163,637005,0
2096921,2096921,187844,635641,0
2096921,2096921,187815,634817,0
2096921,2096921,187559,634505,0
2096921,2096921,187639,634853,0
2096921,2096921,188081,634679,0
2096921,2096921,186792,632877,0
2096921,2096921,186103,631877,0
2096921,2096921,186182,631825,0
2096921,2096921,186465,631962,0
2096921,2096921,186371,632044,0
2096921,2096921,185224,630425,0
2096921,2096921,184986,630196,0
2096921,2096921,185070,629988,0
2096921,2096921,185025,629902,0
2096921,2096921,185043,629711,0
2096921,2096921,184287,629070,0
2096921,2096921,184322,628668,0
2096921,2096921,184166,628636,0
2096921,2096921,184248,628313,0
2096921,2096921,184413,628585,0
2096921,2096921,184044,627549,0
2096921,2096921,183667,627391,0
2096921,2096921,183714,627210,0
2096921,2096921,183870,626988,0
2096921,2096921,183917,627291,0
2096921,2096921,183615,626529,0
2096921,2096921,183470,626359,0
2096921,2096921,183350,626399,0
2096921,2096921,183549,626461,0
2096921,2096921,183471,626461,0
2096921,2096921,183145,625969,0
2096921,2096921,183080,625690,0
2096921,2096921,182765,625720,0
2096921,2096921,182886,626059,0
2096921,2096921,182925,625770,0
2096921,2096921,182638,625603,0
2096921,2096921,182958,625586,0
2096921,2096921,182805,625378,0
2096921,2096921,182630,625418,0
2096921,2096921,182656,625159,0
2096921,2096921,182662,625277,0
2096921,2096921,182510,625197,0
2096921,2096921,183007,625480,0
2096921,2096921,182773,625455,0
2096921,2096921,182622,625248,0
2096921,2096921,182720,625366,0
2096921,2096921,182846,625740,0
2096921,2096921,182835,625376,0
2096921,2096921,182770,625481,0
2096921,2096921,182783,625363,0
2096921,2096921,182884,625799,0
2096921,2096921,183016,625740,0
2096921,2096921,183206,625454,0
2096921,2096921,182848,625514,0
2096921,2096921,182825,625306,0
2096921,2096921,183141,625905,0
2096921,2096921,182803,625753,0
2096921,2096921,182946,625521,0
2096921,2096921,182737,625971,0
2096921,2096921,183245,625654,0
2096921,2096921,182868,625628,0
2096921,2096921,183020,625727,0
2096921,2096921,183084,626052,0
2096921,2096921,183234,625862,0
2096921,2096921,182716,625840,0
2096921,2096921,183005,626265,0
2096921,2096921,183001,626128,0
2096921,2096921,183160,626496,0
2096921,2096921,183303,626428,0
2096921,2096921,183338,626457,0
2096921,2096921,183473,626700,0
2096921,2096921,183624,626746,0
2096921,2096921,183654,626964,0
2096921,2096921,183418,626702,0
2096921,2096921,183585,626393,0
2096921,2096921,183484,627134,0
2096921,2096921,184066,627214,0
2096921,2096921,183866,627309,0
2096921,2096921,183621,627296,0
2096921,2096921,183797,627123,0
2096921,2096921,184109,627399,0
2096921,2096921,184044,627630,0
2096921,2096921,183883,627610,0
2096921,2096921,183883,627824,0
2096921,2096921,184080,627493,0
2096921,2096921,184501,628334,0
2096921,2096921,184252,628323,0
2096921,2096921,184372,628183,0
2096921,2096921,184430,628071,0
2096921,2096921,184275,628055,0
2096921,2096921,184555,628528,0
2096921,2096921,184243,628521,0
2096921,2096921,184667,628548,0
2096921,2096921,184373,628420,0
2096921,2096921,184394,628630,0
2096921,2096921,184513,628609,0
2096921,2096921,184485,629131,0
2096921,2096921,184799,629234,0
2096921,2096921,184840,629168,0
2096921,2096921,184827,629184,0
2096921,2096921,185125,629364,0
2096921,2096921,184960,629480,0
2096921,2096921,184741,629442,0
2096921,2096921,184795,629335,0
2096921,2096921,184830,629370,0
2096921,2096921,185098,629942,0
2096921,2096921,185345,629857,0
2096921,2096921,185154,629828,0
2096921,2096921,185423,630303,0
2096921,2096921,185509,630245,0
2096921,2096921,185410,630544,0
2096921,2096921,185479,630679,0
2096921,2096921,185554,630756,0
2096921,2096921,185577,630525,0
2096921,2096921,185509,630681,0
2096921,2096921,185643,630777,0
2096921,2096921,185796,631168,0
2096921,2096921,185839,631196,0
2096921,2096921,186013,631200,0
2096921,2096921,185808,631246,0
2096921,2096921,185908,631371,0
2096921,2096921,186098,631529,0
2096921,2096921,186073,631810,0
2096921,2096921,186013,631486,0
2096921,2096921,185855,631521,0
2096921,2096921,186292,631687,0
2096921,2096921,186174,631906,0
2096921,2096921,186274,632055,0
2096921,2096921,186380,631991,0
2096921,2096921,186254,632064,0
2096921,2096921,186474,632208,0
2096921,2096921,186472,632326,0
2096921,2096921,186170,632163,0
2096921,2096921,186375,632240,0
2096921,2096921,186448,632368,0
2096921,2096921,186362,632532,0
2096921,2096921,186052,632282,0
2096921,2096921,186453,632530,0
2096921,2096921,186439,632654,0
2096921,2096921,186634,632492,0
2096921,2096921,186452,632584,0
2096921,2096921,186574,632439,0
2096921,2096921,186478,632683,0
2096921,2096921,186693,632806,0
2096921,2096921,186426,632469,0
2096921,2096921,186451,632564,0
2096921,2096921,186555,632571,0
2096921,2096921,186658,632814,0
2096921,2096921,186838,632411,0
2096921,2096921,186724,632511,0
2096921,2096921,186580,632904,0
2096921,2096921,186708,632907,0
2096921,2096921,186632,632999,0
2096921,2096921,186331,632640,0
2096921,2096921,186588,632383,0
2096921,2096921,186640,632502,0
2096921,2096921,186633,632780,0
2096921,2096921,186443,632536,0
2096921,2096921,186834,632687,0
2096921,2096921,186593,632670,0
2096921,2096921,186566,632375,0
2096921,2096921,186254,632355,0
2096921,2096921,186531,632449,0
2096921,2096921,186685,632458,0
2096921,2096921,186340,632552,0
2096921,2096921,186257,632003,0
2096921,2096921,186301,632199,0
2096921,2096921,186340,632264,0
2096921,2096921,186593,632444,0
2096921,2096921,186243,632008,0
2096921,2096921,186371,631777,0
2096921,2096921,186516,631862,0
2096921,2096921,186575,631997,0
2096921,2096921,186384,631776,0
2096921,2096921,186507,631667,0
2096921,2096921,186343,631687,0
2096921,2096921,186280,631985,0
2096921,2096921,186094,631641,0
2096921,2096921,186319,631731,0
2096921,2096921,186239,631641,0
2096921,2096921,186174,631463,0
2096921,2096921,185996,631517,0
2096921,2096921,185924,631414,0
2096921,2096921,186064,631316,0
2096921,2096921,186036,631254,0
2096921,2096921,185947,631172,0
2096921,2096921,185791,631266,0
2096921,2096921,186010,630980,0
2096921,2096921,185853,630730,0
2096921,2096921,186122,631118,0
2096921,2096921,185995,630996,0
2096921,2096921,186302,630984,0
2096921,2096921,185808,631199,0
2096921,2096921,185893,631079,0
2096921,2096921,185735,630977,0
2096921,2096921,185926,631142,0
2096921,2096921,185917,631151,0
2096921,2096921,185907,630972,0
2096921,2096921,186070,630899,0
2096921,2096921,186097,630980,0
2096921,2096921,185975,631105,0
2096921,2096921,185669,630944,0
2096921,2096921,185951,630869,0
2096921,2096921,185948,630772,0
2096921,2096921,186114,630960,0
2096921,2096921,185828,630944,0
2096921,2096921,185835,630793,0
2096921,2096921,185965,630806,0
2096921,2096921,186017,630926,0
2096921,2096921,186061,630675,0
2096921,2096921,185967,630954,0
2096921,2096921,185959,631105,0
2096921,2096921,185987,631262,0
2096921,2096921,186126,631200,0
2096921,2096921,185970,631168,0
2096921,2096921,186153,631336,0
2096921,2096921,186128,631263,0
2096921,2096921,186366,631524,0
2096921,2096921,186248,631508,0
2096921,2096921,186352,631339,0
2096921,2096921,186427,631579,0
2096921,2096921,186435,631897,0
2096921,2096921,186530,631598,0
2096921,2096921,186262,631655,0
2096921,2096921,186502,631602,0
2096921,2096921,186460,631485,0
2096921,2096921,186549,631497,0
2096921,2096921,186263,631551,0
2096921,2096921,186289,631698,0
2096921,2096921,186162,631485,0
2096921,2096921,186656,631809,0
2096921,2096921,186417,631711,0
2096921,2096921,186370,631746,0
2096921,2096921,186746,631948,0
2096921,2096921,186616,631801,0
2096921,2096921,186573,631905,0
2096921,2096921,186653,631833,0
2096921,2096921,186659,631998,0
2096921,2096921,186991,631978,0
2096921,2096921,186737,632052,0
2096921,2096921,186687,632001,0
2096921,2096921,187071,631825,0
2096921,2096921,186725,631988,0
2096921,2096921,186641,631715,0
2096921,2096921,186896,631933,0
2096921,2096921,186831,632023,0
2096921,2096921,186660,632029,0
2096921,2096921,186801,632076,0
2096921,2096921,186687,631862,0
2096921,2096921,187194,632052,0
2096921,2096921,187001,632355,0
2096921,2096921,186992,632122,0
2096921,2096921,186985,631907,0
2096921,2096921,186852,632248,0
2096921,2096921,186732,632185,0
2096921,2096921,187001,631961,0
2096921,2096921,186888,632080,0
2096921,2096921,187043,632067,0
2096921,2096921,187035,632089,0
2096921,2096921,187164,632022,0
2096921,2096921,187118,632224,0
2096921,2096921,187099,632303,0
2096921,2096921,187013,632139,0
2096921,2096921,187142,632018,0
2096921,2096921,186894,632077,0
2096921,2096921,187395,632150,0
2096921,2096921,187307,631907,0
2096921,2096921,187394,632167,0
2096921,2096921,187202,631735,0
2096921,2096921,187073,631920,0
2096921,2096921,187332,631967,0
2096921,2096921,187392,631931,0
2096921,2096921,187254,631878,0
2096921,2096921,187341,632088,0
2096921,2096921,187121,631827,0
2096921,2096921,187029,632094,0
2096921,2096921,186988,631877,0
2096921,2096921,187138,631953,0
2096921,2096921,187289,632023,0
2096921,2096921,187139,631898,0
2096921,2096921,187312,631642,0
2096921,2096921,187088,631856,0
2096921,2096921,187160,632172,0
2096921,2096921,187120,632090,0
2096921,2096921,186974,632005,0
2096921,2096921,187387,631472,0
2096921,2096921,187210,632121,0
2096921,2096921,187189,632034,0
2096921,2096921,187420,631906,0
2096921,2096921,187167,631835,0
2096921,2096921,187475,631953,0
2096921,2096921,187374,632051,0
2096921,2096921,187426,631730,0
2096921,2096921,187251,631629,0
2096921,2096921,187261,631331,0
2096921,2096921,187508,631595,0
2096921,2096921,187197,631770,0
2096921,2096921,187504,631893,0
2096921,2096921,187510,631931,0
2096921,2096921,187697,631830,0
2096921,2096921,187400,631801,0
2096921,2096921,187356,631649,0
2096921,2096921,187246,631624,0
2096921,2096921,187359,631428,0
2096921,2096921,187335,631609,0
2096921,2096921,187400,631526,0
2096921,2096921,187343,631622,0
2096921,2096921,187614,631543,0
2096921,2096921,187643,631531,0
2096921,2096921,187589,631543,0
2096921,2096921,187212,631559,0
2096921,2096921,187187,631367,0
2096921,2096921,187162,631266,0
2096921,2096921,187216,631155,0
2096921,2096921,187008,631267,0
2096921,2096921,187369,631026,0
2096921,2096921,187591,631406,0
2096921,2096921,187410,631429,0
2096921,2096921,187414,631146,0
2096921,2096921,187649,631254,0
2096921,2096921,187562,631085,0
2096921,2096921,187486,630978,0
2096921,2096921,187080,631034,0
2096921,2096921,187538,630877,0
2096921,2096921,187439,631143,0
2096921,2096921,187530,631214,0
2096921,2096921,187399,631138,0
2096921,2096921,187591,631149,0
2096921,2096921,187335,631292,0
2096921,2096921,187579,631163,0
2096921,2096921,187410,630892,0
2096921,2096921,187279,630877,0
2096921,2096921,187321,630637,0
2096921,2096921,187478,630609,0
2096921,2096921,187126,630436,0
2096921,2096921,187126,630503,0
2096921,2096921,187312,630521,0
2096921,2096921,187577,630445,0
2096921,2096921,187433,630258,0
2096921,2096921,187384,630515,0
2096921,2096921,187019,630449,0
2096921,2096921,187298,630158,0
2096921,2096921,187180,630160,0
2096921,2096921,186872,630050,0
2096921,2096921,187159,630053,0
2096921,2096921,187274,629889,0
2096921,2096921,187103,629918,0
2096921,2096921,187243,629919,0
2096921,2096921,187206,629677,0
2096921,2096921,187187,629976,0
2096921,2096921,187300,630079,0
2096921,2096921,186991,629888,0
2096921,2096921,187110,629744,0
2096921,2096921,187468,629850,0
2096921,2096921,187171,629745,0
2096921,2096921,187100,629342,0
2096921,2096921,187238,629414,0
2096921,2096921,186929,629412,0
2096921,2096921,187011,629105,0
2096921,2096921,186936,629177,0
2096921,2096921,186894,629276,0
2096921,2096921,187045,629189,0
2096921,2096921,186939,629174,0
2096921,2096921,186931,628949,0
2096921,2096921,187150,629085,0
2096921,2096921,186990,629279,0
2096921,2096921,186900,629055,0
2096921,2096921,186863,628868,0
2096921,2096921,186980,629132,0
2096921,2096921,186807,628932,0
2096921,2096921,187000,628762,0
2096921,2096921,187025,628538,0
2096921,2096921,186916,628721,0
2096921,2096921,187081,628573,0
2096921,2096921,186643,628751,0
2096921,2096921,186618,628483,0
2096921,2096921,186553,628307,0
2096921,2096921,186771,628321,0
2096921,2096921,186753,628591,0
2096921,2096921,186674,628276,0
2096921,2096921,186893,628199,0
2096921,2096921,186756,628150,0
2096921,2096921,186757,627875,0
2096921,2096921,186689,628190,0
2096921,2096921,186752,628146,0
2096921,2096921,186709,627943,0
2096921,2096921,186788,628183,0
2096921,2096921,186879,627819,0
2096921,2096921,186746,627925,0
2096921,2096921,186879,627653,0
2096921,2096921,186576,627600,0
2096921,2096921,186433,627508,0
2096921,2096921,186350,627201,0
2096921,2096921,186447,627238,0
2096921,2096921,186428,627201,0
2096921,2096921,186497,627317,0
2096921,2096921,186633,626967,0
2096921,2096921,186823,627222,0
2096921,2096921,186767,627360,0
2096921,2096921,186785,627563,0
2096921,2096921,186578,627222,0
2096921,2096921,186455,627058,0
2096921,2096921,186528,626913,0
2096921,2096921,186547,626536,0
2096921,2096921,186303,626699,0
2096921,2096921,186549,626728,0
2096921,2096921,186625,626518,0
2096921,2096921,186387,626502,0
2096921,2096921,186612,626567,0
2096921,2096921,186725,626506,0
2096921,2096921,186513,626451,0
2096921,2096921,186504,626335,0
2096921,2096921,186255,625963,0
2096921,2096921,185931,626096,0
2096921,2096921,186473,626044,0
2096921,2096921,186058,626010,0
2096921,2096921,186111,625950,0
2096921,2096921,186145,625738,0
2096921,2096921,186066,625805,0
2096921,2096921,185778,626021,0
2096921,2096921,185904,625615,0
2096921,2096921,186095,625607,0
2096921,2096921,186230,625604,0
2096921,2096921,186038,625411,0
2096921,2096921,185976,625005,0
2096921,2096921,186040,625422,0
2096921,2096921,186206,625511,0
2096921,2096921,185940,625323,0
2096921,2096921,185930,625277,0
2096921,2096921,186103,625218,0
2096921,2096921,185969,624804,0
2096921,2096921,185926,624756,0
2096921,2096921,185873,624909,0
2096921,2096921,186030,624773,0
2096921,2096921,185579,624963,0
2096921,2096921,185769,624818,0
2096921,2096921,185892,624411,0
2096921,2096921,185955,624149,0
2096921,2096921,185617,624341,0
2096921,2096921,185378,624627,0
2096921,2096921,185800,624305,0
2096921,2096921,185588,624106,0
2096921,2096921,185577,624158,0
2096921,2096921,185275,623814,0
2096921,2096921,185323,623888,0
2096921,2096921,185491,623849,0
2096921,2096921,185387,623787,0
2096921,2096921,185565,623324,0
2096921,2096921,185462,623607,0
2096921,2096921,185612,623422,0
2096921,2096921,185703,623527,0
2096921,2096921,185539,623424,0
2096921,2096921,185277,623077,0
2096921,2096921,185641,623112,0
2096921,2096921,185456,623373,0
2096921,2096921,185325,622867,0
2096921,2096921,185226,622803,0
2096921,2096921,185524,622999,0
2096921,2096921,185304,622840,0
2096921,2096921,185416,622569,0
2096921,2096921,185116,622417,0
2096921,2096921,185169,622579,0
2096921,2096921,185521,622537,0
2096921,2096921,184988,622317,0
2096921,2096921,185206,622356,0
2096921,2096921,185214,622313,0
2096921,2096921,185162,621928,0
2096921,2096921,185014,621997,0
2096921,2096921,184989,622161,0
2096921,2096921,185186,621901,0
2096921,2096921,185015,621999,0
2096921,2096921,184944,621526,0
2096921,2096921,184556,621460,0
2096921,2096921,184796,621486,0
2096921,2096921,184957,621701,0
2096921,2096921,184304,621240,0
2096921,2096921,184573,620963,0
2096921,2096921,184561,620994,0
2096921,2096921,184557,620688,0
2096921,2096921,184719,620792,0
2096921,2096921,184640,620658,0
2096921,2096921,184142,619936,0
2096921,2096921,184259,619915,0
2096921,2096921,184092,619860,0
2096921,2096921,184473,619942,0
2096921,2096921,184084,619469,0
2096921,2096921,183888,619090,0
2096921,2096921,183787,619017,0
2096921,2096921,183897,618935,0
2096921,2096921,183558,618729,0
2096921,2096921,183497,618093,0
2096921,2096921,183291,617726,0
2096921,2096921,183187,617637,0
2096921,2096921,183061,617449,0
2096921,2096921,183215,617291,0
2096921,2096921,182707,616750,0
2096921,2096921,182586,616714,0
2096921,2096921,182435,616278,0
2096921,2096921,182594,616412,0
2096921,2096921,182592,616457,0
2096921,2096921,181686,614862,0
2096921,2096921,181451,614114,0
2096921,2096921,181242,613904,0
2096921,2096921,181309,613729,0
2096921,2096921,181099,613770,0
2096921,2096921,180116,611771,0
2096921,2096921,179763,610713,0
2096921,2096921,179686,610728,0
2096921,2096921,179944,611000,0
2096921,2096921,179954,611189,0
2096921,2096921,178757,609548,0
2096921,2096921,178561,608578,0
2096921,2096921,178326,608654,0
2096921,2096921,178321,608404,0
2096921,2096921,178469,608445,0
2096921,2096921,177694,607020,0
2096921,2096921,177590,606546,0
2096921,2096921,178054,606936,0
2096921,2096921,177754,606563,0
2096921,2096921,177860,606472,0
2096921,2096921,177222,605630,0
2096921,2096921,177240,605235,0
2096921,2096921,176974,605051,0
2096921,2096921,177032,605080,0
2096921,2096921,176842,604850,0
2096921,2096921,176481,604300,0
2096921,2096921,176553,603966,0
2096921,2096921,176654,603685,0
2096921,2096921,176473,603818,0
2096921,2096921,176857,603863,0
2096921,2096921,176386,603206,0
2096921,2096921,176183,602988,0
2096921,2096921,175945,603229,0
2096921,2096921,175643,603047,0
2096921,2096921,176026,603071,0
2096921,2096921,175800,602264,0
2096921,2096921,175701,602055,0
2096921,2096921,175651,602135,0
2096921,2096921,175753,602221,0
2096921,2096921,175881,602628,0
2096921,2096921,175860,602346,0
2096921,2096921,175463,601789,0
2096921,2096921,175485,601701,0
2096921,2096921,175491,602090,0
2096921,2096921,175433,601603,0
2096921,2096921,175463,601360,0
2096921,2096921,175573,601173,0
2096921,2096921,175386,601348,0
2096921,2096921,175548,601533,0
2096921,2096921,175680,601681,0
2096921,2096921,175507,601665,0
2096921,2096921,175546,601603,0
2096921,2096921,175722,601745,0
2096921,2096921,175871,601484,0
2096921,2096921,175784,601367,0
2096921,2096921,175712,601216,0
2096921,2096921,175753,601221,0
2096921,2096921,175576,601153,0
2096921,2096921,175602,601121,0
2096921,2096921,175684,601154,0
2096921,2096921,175671,600901,0
2096921,2096921,175481,600800,0
2096921,2096921,175758,601040,0
2096921,2096921,175583,600924,0
2096921,2096921,175800,601089,0
2096921,2096921,175647,601392,0
2096921,2096921,175869,601319,0
2096921,2096921,175799,601245,0
2096921,2096921,175716,601215,0
2096921,2096921,175957,601026,0
2096921,2096921,175965,601341,0
2096921,2096921,175652,601399,0
2096921,2096921,175658,601134,0
2096921,2096921,175718,601353,0
2096921,2096921,175727,601311,0
2096921,2096921,175785,601424,0
2096921,2096921,175787,601594,0
2096921,2096921,176042,601585,0
2096921,2096921,176036,601451,0
2096921,2096921,176062,601376,0
2096921,2096921,175867,601722,0
2096921,2096921,176279,601517,0
2096921,2096921,176134,601472,0
2096921,2096921,176250,601467,0
2096921,2096921,175696,601597,0
2096921,2096921,176162,601840,0
2096921,2096921,176299,602169,0
2096921,2096921,176366,601994,0
2096921,2096921,176268,601950,0
2096921,2096921,176133,601979,0
2096921,2096921,176509,601921,0
2096921,2096921,176430,601985,0
2096921,2096921,176398,601985,0
2096921,2096921,176111,601894,0
2096921,2096921,176289,601909,0
2096921,2096921,176598,602042,0
2096921,2096921,176489,602240,0
2096921,2096921,176475,602092,0
2096921,2096921,176417,601739,0
2096921,2096921,176869,602352,0
2096921,2096921,176910,602325,0
2096921,2096921,176577,602391,0
2096921,2096921,176853,602187,0
2096921,2096921,176626,602261,0
2096921,2096921,176867,602275,0
2096921,2096921,176826,602452,0
2096921,2096921,177184,602439,0
2096921,2096921,177007,602196,0
2096921,2096921,177018,602645,0
2096921,2096921,176907,602443,0
2096921,2096921,177277,602735,0
2096921,2096921,177140,602962,0
2096921,2096921,177055,603070,0
2096921,2096921,176900,602689,0
2096921,2096921,176843,602726,0
2096921,2096921,176977,602915,0
2096921,2096921,177122,603052,0
2096921,2096921,177349,602886,0
2096921,2096921,177437,602799,0
2096921,2096921,177002,602872,0
2096921,2096921,177476,603165,0
2096921,2096921,177462,603178,0
2096921,2096921,177513,603272,0
2096921,2096921,177246,602716,0
2096921,2096921,177354,602979,0
2096921,2096921,177371,603206,0
2096921,2096921,177474,603317,0
2096921,2096921,177753,603134,0
2096921,2096921,177690,603146,0
2096921,2096921,177712,603395,0
2096921,2096921,177598,603727,0
2096921,2096921,177785,603774,0
2096921,2096921,177411,603490,0
2096921,2096921,177697,603620,0
2096921,2096921,177614,603452,0
2096921,2096921,177630,603393,0
2096921,2096921,177501,603461,0
2096921,2096921,177643,603711,0
2096921,2096921,177629,603677,0
2096921,2096921,177604,603624,0
2096921,2096921,177746,603760,0
2096921,2096921,177716,603261,0
2096921,2096921,177989,603545,0
2096921,2096921,177593,603544,0
2096921,2096921,177743,603219,0
2096921,2096921,177902,603660,0
2096921,2096921,177845,603545,0
2096921,2096921,177867,603181,0
2096921,2096921,177968,603497,0
2096921,2096921,177580,603507,0
2096921,2096921,177997,603598,0
2096921,2096921,177764,603694,0
2096921,2096921,177611,603318,0
2096921,2096921,177671,603241,0
2096921,2096921,177820,603461,0
2096921,2096921,177886,603483,0
2096921,2096921,177622,603219,0
2096921,2096921,177610,603258,0
2096921,2096921,177620,603229,0
2096921,2096921,177757,603248,0
2096921,2096921,177408,603049,0
2096921,2096921,177426,602562,0
2096921,2096921,177469,602557,0
2096921,2096921,177647,602773,0
2096921,2096921,177793,602930,0
2096921,2096921,177569,602446,0
2096921,2096921,177381,602353,0
2096921,2096921,177575,602484,0
2096921,2096921,177575,602770,0
2096921,2096921,177637,602589,0
2096921,2096921,177395,601959,0
2096921,2096921,177216,602139,0
2096921,2096921,177451,602107,0
2096921,2096921,177460,602249,0
2096921,2096921,177207,602156,0
2096921,2096921,177018,601959,0
2096921,2096921,176893,602009,0
2096921,2096921,177229,602128,0
2096921,2096921,177037,601633,0
2096921,2096921,177165,602010,0
2096921,2096921,177101,601752,0
2096921,2096921,176951,601835,0
2096921,2096921,176972,601761,0
2096921,2096921,176839,601705,0
2096921,2096921,177088,601615,0
2096921,2096921,177026,601173,0
2096921,2096921,176977,601355,0
2096921,2096921,177096,601208,0
2096921,2096921,177252,601544,0
2096921,2096921,177064,601638,0
2096921,2096921,176797,601363,0
2096921,2096921,176824,601494,0
2096921,2096921,177153,601582,0
2096921,2096921,176897,601600,0
2096921,2096921,176896,601408,0
2096921,2096921,176798,601223,0
2096921,2096921,177151,601311,0
2096921,2096921,177221,601410,0
2096921,2096921,176942,601416,0
2096921,2096921,176907,601326,0
2096921,2096921,177032,601345,0
2096921,2096921,177065,600977,0
2096921,2096921,177070,601373,0
2096921,2096921,176946,600999,0
2096921,2096921,176905,601030,0
2096921,2096921,177007,601215,0
2096921,2096921,176993,601210,0
2096921,2096921,177006,601073,0
2096921,2096921,177383,601428,0
2096921,2096921,177215,601448,0
2096921,2096921,177390,601808,0
2096921,2096921,177213,601676,0
2096921,2096921,177010,601549,0
2096921,2096921,177253,601641,0
2096921,2096921,177203,601532,0
2096921,2096921,177250,601749,0
2096921,2096921,177104,601993,0
2096921,2096921,177369,602043,0
2096921,2096921,177504,601903,0
2096921,2096921,177326,602124,0
2096921,2096921,177475,602314,0
2096921,2096921,177583,602272,0
2096921,2096921,177565,602299,0
2096921,2096921,177520,602399,0
2096921,2096921,177542,602207,0
2096921,2096921,177674,602516,0
2096921,2096921,177464,602744,0
2096921,2096921,177846,602494,0
2096921,2096921,177608,602270,0
2096921,2096921,177833,602365,0
2096921,2096921,177933,602677,0
2096921,2096921,177768,602900,0
2096921,2096921,177671,602717,0
2096921,2096921,177827,602577,0
2096921,2096921,177992,602605,0
2096921,2096921,178078,602853,0
2096921,2096921,177955,602768,0
2096921,2096921,177893,603193,0
2096921,2096921,178003,602984,0
2096921,2096921,177932,603047,0
2096921,2096921,178075,603164,0
2096921,2096921,178092,603044,0
2096921,2096921,178162,603143,0
2096921,2096921,178160,603216,0
2096921,2096921,178053,603364,0
2096921,2096921,178344,603400,0
2096921,2096921,178355,603105,0
2096921,2096921,178372,603334,0
2096921,2096921,178341,603394,0
2096921,2096921,178303,603312,0
2096921,2096921,178413,603483,0
2096921,2096921,178582,603381,0
2096921,2096921,178441,603692,0
2096921,2096921,178389,603575,0
2096921,2096921,178671,603276,0
2096921,2096921,178351,604066,0
2096921,2096921,178379,604219,0
2096921,2096921,178146,603975,0
2096921,2096921,178464,604087,0
2096921,2096921,178582,604091,0
2096921,2096921,178619,604337,0
2096921,2096921,178699,604365,0
2096921,2096921,178729,604176,0
2096921,2096921,178723,604389,0
2096921,2096921,178679,604353,0
2096921,2096921,178662,604112,0
2096921,2096921,178788,604495,0
2096921,2096921,178810,604718,0
2096921,2096921,178976,604555,0
2096921,2096921,178845,604417,0
2096921,2096921,178767,604605,0
2096921,2096921,178884,604603,0
2096921,2096921,178808,604922,0
2096921,2096921,179014,604834,0
2096921,2096921,178749,604618,0
2096921,2096921,178867,604882,0
2096921,2096921,179170,604954,0
2096921,2096921,179167,605133,0
2096921,2096921,179164,605140,0
2096921,2096921,179053,605058,0
2096921,2096921,179283,605307,0
2096921,2096921,179629,605599,0
2096921,2096921,179317,605265,0
2096921,2096921,179508,605328,0
2096921,2096921,179166,605122,0
2096921,2096921,179363,605411,0
2096921,2096921,179314,605650,0
2096921,2096921,179315,605575,0
2096921,2096921,179457,605453,0
2096921,2096921,179478,605316,0
2096921,2096921,179212,605676,0
2096921,2096921,179392,605476,0
2096921,2096921,179276,605840,0
2096921,2096921,179370,605766,0
2096921,2096921,179110,605718,0
2096921,2096921,179091,605464,0
2096921,2096921,179309,605538,0
2096921,2096921,179605,605708,0
2096921,2096921,179782,605675,0
2096921,2096921,179235,605779,0
2096921,2096921,179421,605709,0
2096921,2096921,179537,606057,0
2096921,2096921,179540,606248,0
2096921,2096921,179515,606120,0
2096921,2096921,179452,605846,0
2096921,2096921,179535,606255,0
2096921,2096921,179303,606267,0
2096921,2096921,179668,606061,0
2096921,2096921,179498,606155,0
2096921,2096921,179810,606218,0
2096921,2096921,179902,606341,0
2096921,2096921,179673,606617,0
2096921,2096921,179592,606453,0
2096921,2096921,179621,606362,0
2096921,2096921,179727,606399,0
2096921,2096921,180034,606563,0
2096921,2096921,180020,606139,0
2096921,2096921,179646,606348,0
2096921,2096921,179817,606524,0
2096921,2096921,179849,606689,0
2096921,2096921,180234,606928,0
2096921,2096921,179989,606591,0
2096921,2096921,179838,606788,0
2096921,2096921,180057,606875,0
2096921,2096921,180119,606803,0
2096921,2096921,180006,606976,0
2096921,2096921,179746,606965,0
2096921,2096921,180099,607029,0
2096921,2096921,180187,607070,0
2096921,2096921,180135,607020,0
2096921,2096921,180055,607026,0
2096921,2096921,180183,606985,0
2096921,2096921,179898,607362,0
2096921,2096921,180107,607112,0
2096921,2096921,180026,606901,0
2096921,2096921,180123,607159,0
2096921,2096921,180389,607374,0
2096921,2096921,180291,606992,0
2096921,2096921,180241,607271,0
2096921,2096921,180221,607091,0
2096921,2096921,180280,607573,0
2096921,2096921,180480,607259,0
2096921,2096921,180199,607401,0
2096921,2096921,180114,607263,0
2096921,2096921,180150,607506,0
2096921,2096921,180171,607396,0
2096921,2096921,180036,607455,0
2096921,2096921,180117,607678,0
2096921,2096921,180278,607710,0
2096921,2096921,180187,607669,0
2096921,2096921,180187,607609,0
2096921,2096921,180295,607520,0
2096921,2096921,180158,607804,0
2096921,2096921,180176,607284,0
2096921,2096921,180246,607476,0
2096921,2096921,180311,607682,0
2096921,2096921,180289,607451,0
2096921,2096921,180426,607669,0
2096921,2096921,180165,607550,0
2096921,2096921,180217,607605,0
2096921,2096921,180373,607941,0
2096921,2096921,180117,607852,0
2096921,2096921,180116,607363,0
2096921,2096921,180414,607472,0
2096921,2096921,180624,607429,0
2096921,2096921,180409,607675,0
2096921,2096921,180616,607736,0
2096921,2096921,180413,607947,0
2096921,2096921,180572,608211,0
2096921,2096921,180608,607860,0
2096921,2096921,180580,607590,0
2096921,2096921,180597,607770,0
2096921,2096921,180439,607984,0
2096921,2096921,180494,607808,0
2096921,2096921,180517,607687,0
2096921,2096921,180587,607790,0
2096921,2096921,180649,607872,0
2096921,2096921,180441,608073,0
2096921,2096921,180681,608010,0
2096921,2096921,180370,608006,0
2096921,2096921,180626,608048,0
2096921,2096921,180652,608117,0
2096921,2096921,180771,608222,0
2096921,2096921,180615,608258,0
2096921,2096921,180680,608263,0
2096921,2096921,180701,608178,0
2096921,2096921,180717,608231,0
2096921,2096921,180745,608303,0
2096921,2096921,180906,608355,0
2096921,2096921,180748,608169,0
2096921,2096921,180813,608320,0
2096921,2096921,180556,608485,0
2096921,2096921,180702,608415,0
2096921,2096921,180800,608231,0
2096921,2096921,180688,608491,0
2096921,2096921,180620,608235,0
2096921,2096921,180591,608290,0
2096921,2096921,180625,608343,0
2096921,2096921,180608,608346,0
2096921,2096921,180566,608223,0
2096921,2096921,180767,608349,0
2096921,2096921,181115,608258,0
2096921,2096921,181119,608513,0
2096921,2096921,180854,608728,0
2096921,2096921,180740,608512,0
2096921,2096921,180802,608575,0
2096921,2096921,181001,608769,0
2096921,2096921,180990,608901,0
2096921,2096921,181119,608794,0
2096921,2096921,181214,608624,0
2096921,2096921,181094,608886,0
2096921,2096921,180919,608664,0
2096921,2096921,180805,608838,0
2096921,2096921,181093,608851,0
2096921,2096921,181320,608773,0
2096921,2096921,181259,609038,0
2096921,2096921,180974,608701,0
2096921,2096921,181071,608797,0
2096921,2096921,181300,608946,0
2096921,2096921,181190,609070,0
2096921,2096921,180842,608616,0
2096921,2096921,181076,609129,0
2096921,2096921,181064,609242,0
2096921,2096921,181285,609171,0
2096921,2096921,181259,609047,0
2096921,2096921,181394,608977,0
2096921,2096921,181047,609326,0
2096921,2096921,181350,609367,0
2096921,2096921,181111,609272,0
2096921,2096921,181266,609444,0
2096921,2096921,181335,609606,0
2096921,2096921,181230,609512,0
2096921,2096921,181095,609429,0
2096921,2096921,181432,609362,0
2096921,2096921,181411,609393,0
2096921,2096921,181183,609491,0
2096921,2096921,181187,609634,0
2096921,2096921,181074,609977,0
2096921,2096921,181411,609565,0
2096921,2096921,181223,609558,0
2096921,2096921,181318,609425,0
2096921,2096921,181095,609899,0
2096921,2096921,181108,609785,0
2096921,2096921,181147,609586,0
2096921,2096921,181041,609984,0
2096921,2096921,181314,609960,0
2096921,2096921,181449,609866,0
2096921,2096921,181180,610158,0
2096921,2096921,181298,609701,0
2096921,2096921,181276,609891,0
2096921,2096921,181442,609759,0
2096921,2096921,181301,609945,0
2096921,2096921,181196,610052,0
2096921,2096921,181276,609937,0
2096921,2096921,181728,609946,0
2096921,2096921,181174,610100,0
2096921,2096921,181403,610059,0
2096921,2096921,181395,610410,0
2096921,2096921,181648,610347,0
2096921,2096921,181362,610364,0
2096921,2096921,181455,610326,0
2096921,2096921,181511,610408,0
2096921,2096921,181425,610322,0
2096921,2096921,181297,610513,0
2096921,2096921,181152,610395,0
2096921,2096921,181401,610234,0
2096921,2096921,181525,610352,0
2096921,2096921,181645,610319,0
2096921,2096921,181679,610270,0
2096921,2096921,181380,610384,0
2096921,2096921,181542,610601,0
2096921,2096921,181406,610669,0
2096921,2096921,181405,610599,0
2096921,2096921,181429,610451,0
2096921,2096921,181630,610777,0
2096921,2096921,181350,610428,0
2096921,2096921,181480,610247,0
2096921,2096921,181652,610177,0
2096921,2096921,181418,610730,0
2096921,2096921,181520,610313,0
2096921,2096921,181466,610209,0
2096921,2096921,181296,610300,0
2096921,2096921,180883,610496,0
2096921,2096921,181490,610501,0
2096921,2096921,181221,610219,0
2096921,2096921,180817,609870,0
2096921,2096921,180947,609678,0
2096921,2096921,181003,609910,0
2096921,2096921,180716,609900,0
2096921,2096921,180619,610096,0
2096921,2096921,180702,609571,0
2096921,2096921,180849,609410,0
2096921,2096921,180426,609586,0
2096921,2096921,180485,609262,0
2096921,2096921,180733,609175,0
2096921,2096921,180070,608551,0
2096921,2096921,180151,608476,0
2096921,2096921,180073,608393,0
2096921,2096921,180202,607984,0
2096921,2096921,180502,608402,0
2096921,2096921,179595,607273,0
2096921,2096921,179283,606870,0
2096921,2096921,179157,606805,0
2096921,2096921,179255,606303,0
2096921,2096921,179464,606359,0
2096921,2096921,178009,604571,0
2096921,2096921,177581,604098,0
2096921,2096921,177732,603877,0
2096921,2096921,177870,604323,0
2096921,2096921,178115,604238,0
2096921,2096921,176853,602863,0
2096921,2096921,176889,602684,0
2096921,2096921,176756,602557,0
2096921,2096921,176977,602235,0
2096921,2096921,176867,602394,0
2096921,2096921,176171,601328,0
2096921,2096921,176016,601142,0
2096921,2096921,176079,601101,0
2096921,2096921,176119,601185,0
2096921,2096921,176340,601369,0
2096921,2096921,175991,600605,0
2096921,2096921,175868,600384,0
2096921,2096921,175765,600449,0
2096921,2096921,175749,600612,0
2096921,2096921,175502,600450,0
2096921,2096921,175138,600031,0
2096921,2096921,175448,599975,0
2096921,2096921,175293,599828,0
2096921,2096921,175361,599910,0
2096921,2096921,175294,599534,0
2096921,2096921,175015,599666,0
2096921,2096921,175227,599531,0
2096921,2096921,174783,599720,0
2096921,2096921,175006,599596,0
2096921,2096921,175154,599341,0
2096921,2096921,174560,599086,0
2096921,2096921,174688,599572,0
2096921,2096921,175025,599453,0
2096921,2096921,175003,599881,0
2096921,2096921,174808,599648,0
2096921,2096921,174996,599373,0
2096921,2096921,175184,599308,0
2096921,2096921,174569,599548,0
2096921,2096921,174864,599104,0
2096921,2096921,174788,599030,0
2096921,2096921,174885,599331,0
2096921,2096921,174914,599412,0
2096921,2096921,175021,599705,0
2096921,2096921,175070,599832,0
2096921,2096921,175024,599538,0
2096921,2096921,175272,599995,0
2096921,2096921,175693,600288,0
2096921,2096921,175240,600209,0
2096921,2096921,175370,600173,0
2096921,2096921,175132,599802,0
2096921,2096921,175187,600450,0
2096921,2096921,175378,600632,0
2096921,2096921,175835,600508,0
2096921,2096921,175472,600813,0
2096921,2096921,175550,600781,0
2096921,2096921,175617,601056,0
2096921,2096921,175700,601078,0
2096921,2096921,175581,601201,0
2096921,2096921,175437,601117,0
2096921,2096921,175727,601014,0
2096921,2096921,175824,601564,0
2096921,2096921,175411,601660,0
2096921,2096921,175989,601900,0
2096921,2096921,175941,601856,0
2096921,2096921,175834,601699,0
2096921,2096921,175806,602379,0
2096921,2096921,176013,602408,0
2096921,2096921,176088,602375,0
2096921,2096921,176236,602577,0
2096921,2096921,176178,602317,0
2096921,2096921,176283,603140,0
2096921,2096921,176552,603162,0
2096921,2096921,176543,603571,0
2096921,2096921,176579,603500,0
2096921,2096921,176456,603219,0
2096921,2096921,176775,603998,0
2096921,2096921,177171,604196,0
2096921,2096921,177001,604202,0
2096921,2096921,176961,604037,0
2096921,2096921,176877,604268,0
2096921,2096921,177052,604748,0
2096921,2096921,176889,604887,0
2096921,2096921,177068,604954,0
2096921,2096921,177161,604775,0
2096921,2096921,177327,605005,0
2096921,2096921,177744,605481,0
2096921,2096921,177574,605430,0
2096921,2096921,177819,605605,0
2096921,2096921,177415,605739,0
2096921,2096921,177582,605678,0
2096921,2096921,177600,606216,0
2096921,2096921,177766,606442,0
2096921,2096921,177837,606220,0
2096921,2096921,177760,606626,0
2096921,2096921,177765,606334,0
2096921,2096921,178195,606959,0
2096921,2096921,177867,607328,0
2096921,2096921,178178,607384,0
2096921,2096921,178310,607077,0
2096921,2096921,178179,607271,0
2096921,2096921,178203,607288,0
2096921,2096921,178294,607909,0
2096921,2096921,178230,608108,0
2096921,2096921,178470,608180,0
2096921,2096921,178718,608308,0
2096921,2096921,178895,608933,0
2096921,2096921,179034,609201,0
2096921,2096921,178874,609087,0
2096921,2096921,179073,608859,0
2096921,2096921,179152,608843,0
2096921,2096921,179646,609499,0
2096921,2096921,179073,609760,0
2096921,2096921,179168,609771,0
2096921,2096921,179489,609701,0
2096921,2096921,179346,609840,0
2096921,2096921,179664,610271,0
2096921,2096921,179779,610393,0
2096921,2096921,179927,610695,0
2096921,2096921,180019,610730,0
2096921,2096921,179812,610576,0
2096921,2096921,179907,610997,0
2096921,2096921,180133,611172,0
2096921,2096921,180244,611485,0
2096921,2096921,180186,611471,0
2096921,2096921,180287,611673,0
2096921,2096921,180428,611949,0
2096921,2096921,180515,612268,0
2096921,2096921,180367,612332,0
2096921,2096921,180103,612118,0
2096921,2096921,180283,611951,0
2096921,2096921,180432,612546,0
2096921,2096921,180495,612659,0
2096921,2096921,180499,612920,0
2096921,2096921,180529,612871,0
2096921,2096921,180695,612705,0
2096921,2096921,180627,613267,0
2096921,2096921,180442,613587,0
2096921,2096921,180671,613406,0
2096921,2096921,180606,613352,0
2096921,2096921,180619,613914,0
2096921,2096921,180824,613995,0
2096921,2096921,180968,613734,0
2096921,2096921,180788,613966,0
2096921,2096921,181092,614102,0
2096921,2096921,181132,614038,0
2096921,2096921,181171,614116,0
2096921,2096921,181064,614297,0
2096921,2096921,181145,614513,0
2096921,2096921,181077,614404,0
2096921,2096921,181027,614139,0
2096921,2096921,181176,614311,0
2096921,2096921,181414,614330,0
2096921,2096921,181304,614561,0
2096921,2096921,181161,614697,0
2096921,2096921,181239,614564,0
2096921,2096921,181355,614756,0
2096921,2096921,181299,614847,0
2096921,2096921,181124,615163,0
2096921,2096921,181364,614727,0
2096921,2096921,181349,614963,0
2096921,2096921,181516,615051,0
2096921,2096921,180876,615266,0
2096921,2096921,181316,614835,0
2096921,2096921,181478,615365,0
2096921,2096921,181280,615532,0
2096921,2096921,181399,615630,0
2096921,2096921,181524,615079,0
2096921,2096921,181383,615502,0
2096921,2096921,181121,615234,0
2096921,2096921,181093,615498,0
2096921,2096921,181274,615300,0
2096921,2096921,181214,615305,0
2096921,2096921,181336,615839,0
2096921,2096921,181391,615908,0
2096921,2096921,181006,615610,0
2096921,2096921,181154,615941,0
2096921,2096921,181413,615878,0
2096921,2096921,181554,615765,0
2096921,2096921,181577,615787,0
2096921,2096921,181532,615817,0
2096921,2096921,181593,616225,0
2096921,2096921,181586,616717,0
2096921,2096921,181553,616389,0
2096921,2096921,181264,616332,0
2096921,2096921,181627,616195,0
2096921,2096921,181415,616629,0
2096921,2096921,181358,616714,0
2096921,2096921,181364,616867,0
2096921,2096921,181648,616679,0
2096921,2096921,181614,616834,0
2096921,2096921,181593,617044,0
2096921,2096921,181456,616885,0
2096921,2096921,181848,617203,0
2096921,2096921,181626,617284,0
2096921,2096921,181609,617102,0
2096921,2096921,181798,617362,0
2096921,2096921,182042,617519,0
2096921,2096921,181960,617756,0
2096921,2096921,181622,617623,0
2096921,2096921,181959,617523,0
2096921,2096921,182337,618018,0
2096921,2096921,182320,617804,0
2096921,2096921,182143,618205,0
2096921,2096921,182368,618348,0
2096921,2096921,182139,618331,0
2096921,2096921,182440,618902,0
2096921,2096921,182383,618730,0
2096921,2096921,182514,618784,0
2096921,2096921,182494,618947,0
2096921,2096921,182538,618839,0
2096921,2096921,182648,619084,0
2096921,2096921,182980,619494,0
2096921,2096921,182807,619467,0
2096921,2096921,183183,619826,0
2096921,2096921,182897,619733,0
2096921,2096921,183082,620057,0
2096921,2096921,182853,620568,0
2096921,2096921,183016,620207,0
2096921,2096921,182833,620290,0
2096921,2096921,182873,620163,0
2096921,2096921,183219,621000,0
2096921,2096921,183491,621131,0
2096921,2096921,183487,621032,0
2096921,2096921,183148,621434,0
2096921,2096921,183537,620999,0
2096921,2096921,183570,621652,0
2096921,2096921,183416,621748,0
2096921,2096921,183674,621610,0
2096921,2096921,183588,621628,0
2096921,2096921,183747,621764,0
2096921,2096921,183957,622381,0
2096921,2096921,183836,622615,0
2096921,2096921,183976,622429,0
2096921,2096921,184058,622446,0
2096921,2096921,183839,622588,0
2096921,2096921,183778,622912,0
2096921,2096921,184178,622664,0
2096921,2096921,184361,623181,0
2096921,2096921,183951,623140,0
2096921,2096921,183824,622949,0
2096921,2096921,184118,623375,0
2096921,2096921,184323,623677,0
2096921,2096921,184727,623613,0
2096921,2096921,184275,624018,0
2096921,2096921,184584,623681,0
2096921,2096921,184643,624380,0
2096921,2096921,184568,624550,0
2096921,2096921,184629,624441,0
2096921,2096921,184368,624259,0
2096921,2096921,184332,624413,0
2096921,2096921,184651,624832,0
2096921,2096921,184519,625019,0
2096921,2096921,185083,624697,0
2096921,2096921,184959,624891,0
2096921,2096921,184618,625273,0
2096921,2096921,185133,625371,0
2096921,2096921,184931,625577,0
2096921,2096921,184949,625415,0
2096921,2096921,184998,625577,0
2096921,2096921,184970,625678,0
2096921,2096921,185328,626020,0
2096921,2096921,185433,626188,0
2096921,2096921,185510,626436,0
2096921,2096921,185500,626142,0
2096921,2096921,185622,626294,0
2096921,2096921,185662,626525,0
2096921,2096921,185408,626993,0
2096921,2096921,185717,627049,0
2096921,2096921,185625,627175,0
2096921,2096921,185712,626921,0
2096921,2096921,185691,627213,0
2096921,2096921,185727,627480,0
2096921,2096921,185915,627251,0
2096921,2096921,186109,627423,0
2096921,2096921,185899,627566,0
2096921,2096921,186397,628013,0
2096921,2096921,186311,628130,0
2096921,2096921,186234,628334,0
2096921,2096921,186248,628294,0
2096921,2096921,186033,628041,0
2096921,2096921,186146,628183,0
2096921,2096921,186281,628589,0
2096921,2096921,186271,628882,0
2096921,2096921,186226,628720,0
2096921,2096921,186484,628542,0
2096921,2096921,186762,629055,0
2096921,2096921,186680,629202,0
2096921,2096921,186704,629329,0
2096921,2096921,186514,629403,0
2096921,2096921,186790,629396,0
2096921,2096921,186737,629522,0
2096921,2096921,186809,629863,0
2096921,2096921,186761,629745,0
2096921,2096921,186860,629917,0
2096921,2096921,187108,629886,0
2096921,2096921,187161,630257,0
2096921,2096921,187010,630127,0
2096921,2096921,187358,630520,0
2096921,2096921,187307,630209,0
2096921,2096921,186971,630264,0
2096921,2096921,186894,630290,0
2096921,2096921,186955,630746,0
2096921,2096921,187235,630533,0
2096921,2096921,187232,630961,0
2096921,2096921,187316,630824,0
2096921,2096921,186966,631026,0
2096921,2096921,187482,631411,0
2096921,2096921,187355,631472,0
2096921,2096921,187454,631403,0
2096921,2096921,187409,631317,0
2096921,2096921,187471,631477,0
2096921,2096921,187639,632007,0
2096921,2096921,187494,631949,0
2096921,2096921,187642,631785,0
2096921,2096921,187560,631934,0
2096921,2096921,187859,632264,0
2096921,2096921,188083,632416,0
2096921,2096921,187647,632246,0
2096921,2096921,187502,632033,0
2096921,2096921,187889,632199,0
2096921,2096921,187992,632769,0
2096921,2096921,187889,632737,0
2096921,2096921,187710,632911,0
2096921,2096921,187782,632772,0
2096921,2096921,188056,633023,0
2096921,2096921,188214,633266,0
2096921,2096921,188103,633141,0
2096921,2096921,187973,633268,0
2096921,2096921,188251,633636,0
2096921,2096921,187917,633217,0
2096921,2096921,188155,633686,0
2096921,2096921,188355,633699,0
2096921,2096921,188490,633865,0
2096921,2096921,188468,633724,0
2096921,2096921,188531,633556,0
2096921,2096921,188486,634166,0
2096921,2096921,188594,634149,0
2096921,2096921,188512,634027,0
2096921,2096921,188569,634026,0
2096921,2096921,188482,634140,0
2096921,2096921,188329,634461,0
2096921,2096921,188771,634550,0
2096921,2096921,188772,634667,0
2096921,2096921,188722,634742,0
2096921,2096921,188358,634658,0
2096921,2096921,188739,634705,0
2096921,2096921,189033,634949,0
2096921,2096921,189046,634834,0
2096921,2096921,188918,634774,0
2096921,2096921,188834,634861,0
2096921,2096921,188780,635085,0
2096921,2096921,188918,635127,0
2096921,2096921,188869,635317,0
2096921,2096921,189315,635208,0
2096921,2096921,188988,635478,0
2096921,2096921,189157,635554,0
2096921,2096921,189050,635745,0
2096921,2096921,189027,635706,0
2096921,2096921,189106,635656,0
2096921,2096921,189022,635796,0
2096921,2096921,189037,635909,0
2096921,2096921,189123,635916,0
2096921,2096921,188947,635725,0
2096921,2096921,189335,636229,0
2096921,2096921,189103,635992,0
2096921,2096921,189482,636263,0
2096921,2096921,189289,636179,0
2096921,2096921,189120,636712,0
2096921,2096921,188988,636649,0
2096921,2096921,188839,636603,0
2096921,2096921,189234,636900,0
2096921,2096921,189525,636854,0
2096921,2096921,189599,636929,0
2096921,2096921,189412,636683,0
2096921,2096921,189259,636730,0
2096921,2096921,189653,637174,0
2096921,2096921,189693,637267,0
2096921,2096921,189611,637056,0
2096921,2096921,189523,637213,0
2096921,2096921,189786,637154,0
2096921,2096921,189912,637323,0
2096921,2096921,189539,637433,0
2096921,2096921,189554,637442,0
2096921,2096921,189592,637470,0
2096921,2096921,189596,637452,0
2096921,2096921,189756,637561,0
2096921,2096921,190030,637105,0
2096921,2096921,189947,637584,0
2096921,2096921,189791,637569,0
2096921,2096921,189583,637448,0
2096921,2096921,189645,637657,0
2096921,2096921,189727,637859,0
2096921,2096921,189704,637987,0
2096921,2096921,189799,638027,0
2096921,2096921,189911,638134,0
2096921,2096921,190029,638220,0
2096921,2096921,189956,638166,0
2096921,2096921,190124,638206,0
2096921,2096921,190195,638130,0
2096921,2096921,190008,638130,0
2096921,2096921,190020,638389,0
2096921,2096921,189909,638454,0
2096921,2096921,190212,638670,0
2096921,2096921,190292,638724,0
2096921,2096921,190139,638565,0
2096921,2096921,189996,639054,0
2096921,2096921,190282,638913,0
2096921,2096921,190368,639049,0
2096921,2096921,190050,638791,0
2096921,2096921,190049,638833,0
2096921,2096921,190040,638802,0
2096921,2096921,190031,639013,0
2096921,2096921,189896,639013,0
2096921,2096921,190103,639061,0
2096921,2096921,190273,639149,0
2096921,2096921,190585,639303,0
2096921,2096921,190658,639101,0
2096921,2096921,190462,639209,0
2096921,2096921,190513,639225,0
2096921,2096921,190330,639174,0
2096921,2096921,189798,639145,0
2096921,2096921,190276,639242,0
2096921,2096921,190635,639477,0
2096921,2096921,190458,639796,0
2096921,2096921,190266,639656,0
2096921,2096921,190644,639630,0
2096921,2096921,190580,639753,0
2096921,2096921,190321,639473,0
2096921,2096921,190298,639451,0
2096921,2096921,190459,639610,0
2096921,2096921,190468,639823,0
2096921,2096921,190479,639886,0
2096921,2096921,190461,639562,0
2096921,2096921,190625,639929,0
2096921,2096921,190676,639624,0
2096921,2096921,190597,639903,0
2096921,2096921,190602,639879,0
2096921,2096921,190390,639804,0
2096921,2096921,190531,640044,0
2096921,2096921,190409,639957,0
2096921,2096921,190434,639936,0
2096921,2096921,190564,639756,0
2096921,2096921,190837,639806,0
2096921,2096921,190743,640051,0
2096921,2096921,190824,640002,0
2096921,2096921,190750,640011,0
2096921,2096921,191043,640109,0
2096921,2096921,190685,640191,0
2096921,2096921,190401,640188,0
2096921,2096921,190554,639918,0
2096921,2096921,190442,640291,0
2096921,2096921,190544,640336,0
2096921,2096921,190531,640059,0
2096921,2096921,190347,640124,0
2096921,2096921,190533,640370,0
2096921,2096921,190534,640416,0
2096921,2096921,191057,640126,0
2096921,2096921,190851,639991,0
2096921,2096921,190639,640188,0
2096921,2096921,190659,640214,0
2096921,2096921,190580,640000,0
2096921,2096921,190698,640136,0
2096921,2096921,190724,640432,0
2096921,2096921,190815,640254,0
2096921,2096921,190721,640442,0
2096921,2096921,190888,640178,0
2096921,2096921,190831,640497,0
2096921,2096921,190734,640611,0
2096921,2096921,190565,640300,0
2096921,2096921,190695,640331,0
2096921,2096921,190558,640093,0
2096921,2096921,190442,640043,0
2096921,2096921,190731,639847,0
2096921,2096921,190775,640045,0
2096921,2096921,190695,639948,0
2096921,2096921,190503,639646,0
2096921,2096921,190315,639516,0
2096921,2096921,190257,639622,0
2096921,2096921,190389,639508,0
2096921,2096921,190360,639583,0
2096921,2096921,189865,639114,0
2096921,2096921,190099,638689,0
2096921,2096921,190166,639078,0
2096921,2096921,189902,639044,0
2096921,2096921,189968,639051,0
2096921,2096921,189556,638621,0
2096921,2096921,189837,637980,0
2096921,2096921,189640,638112,0
2096921,2096921,189147,637719,0
2096921,2096921,189410,638023,0
2096921,2096921,189258,637473,0
2096921,2096921,188780,637260,0
2096921,2096921,188965,637077,0
2096921,2096921,189082,636809,0
2096921,2096921,189302,637071,0
2096921,2096921,188366,635401,0
2096921,2096921,187868,634760,0
2096921,2096921,187731,635005,0
2096921,2096921,187603,635191,0
2096921,2096921,187811,634931,0
2096921,2096921,186558,632740,0
2096921,2096921,186085,632262,0
2096921,2096921,186378,631943,0
2096921,2096921,186485,632305,0
2096921,2096921,186424,632144,0
2096921,2096921,185582,630363,0
2096921,2096921,185302,630234,0
2096921,2096921,185364,630136,0
2096921,2096921,185437,629971,0
2096921,2096921,184995,629907,0
2096921,2096921,184214,628583,0
2096921,2096921,184489,628102,0
2096921,2096921,184627,628457,0
2096921,2096921,184398,628318,0
2096921,2096921,184445,628196,0
2096921,2096921,184100,627782,0
2096921,2096921,183905,627298,0
2096921,2096921,183698,627173,0
2096921,2096921,183524,627003,0
2096921,2096921,183917,627219,0
2096921,2096921,183615,626676,0
2096921,2096921,183203,626440,0
2096921,2096921,183208,626297,0
2096921,2096921,183285,626501,0
2096921,2096921,183696,626513,0
2096921,2096921,182986,625892,0
2096921,2096921,183180,625825,0
2096921,2096921,182914,625633,0
2096921,2096921,183044,625921,0
2096921,2096921,183151,625930,0
2096921,2096921,182532,625388,0
2096921,2096921,182650,625382,0
2096921,2096921,183088,625400,0
2096921,2096921,182907,625671,0
2096921,2096921,182983,625626,0
2096921,2096921,182573,625355,0
2096921,2096921,182649,625198,0
2096921,2096921,183119,625275,0
2096921,2096921,182659,625674,0
2096921,2096921,182605,625433,0
2096921,2096921,182402,625304,0
2096921,2096921,182726,625399,0
2096921,2096921,182867,625225,0
2096921,2096921,182720,625533,0
2096921,2096921,182723,625265,0
2096921,2096921,183209,625779,0
2096921,2096921,182883,625425,0
2096921,2096921,182697,625384,0
2096921,2096921,182790,625636,0
2096921,2096921,182816,625679,0
2096921,2096921,182853,625762,0
2096921,2096921,182774,625809,0
2096921,2096921,182959,625792,0
2096921,2096921,182801,625654,0
2096921,2096921,182946,625762,0
2096921,2096921,183091,626067,0
2096921,2096921,183017,625894,0
2096921,2096921,183168,625958,0
2096921,2096921,182780,625876,0
2096921,2096921,183008,625857,0
2096921,2096921,183039,626245,0
2096921,2096921,183232,626417,0
2096921,2096921,183251,625878,0
2096921,2096921,183281,626100,0
2096921,2096921,183229,626075,0
2096921,2096921,183287,626350,0
2096921,2096921,183778,626597,0
2096921,2096921,183298,626438,0
2096921,2096921,183171,626584,0
2096921,2096921,183184,626850,0
2096921,2096921,183681,626972,0
2096921,2096921,183511,627111,0
2096921,2096921,183652,627162,0
2096921,2096921,183609,627261,0
2096921,2096921,183669,627365,0
2096921,2096921,183941,627845,0
2096921,2096921,184006,627693,0
2096921,2096921,184118,627973,0
2096921,2096921,184247,628014,0
2096921,2096921,184061,627706,0
2096921,2096921,184074,628029,0
2096921,2096921,183963,628300,0
2096921,2096921,184358,628076,0
2096921,2096921,184136,628241,0
2096921,2096921,184042,628068,0
2096921,2096921,184469,628442,0
2096921,2096921,184453,628801,0
2096921,2096921,184504,628722,0
2096921,2096921,184469,628423,0
2096921,2096921,184263,628498,0
2096921,2096921,184556,628946,0
2096921,2096921,184685,628795,0
2096921,2096921,184754,628949,0
2096921,2096921,184699,628884,0
2096921,2096921,185063,629051,0
2096921,2096921,184957,629509,0
2096921,2096921,184915,629604,0
2096921,2096921,184656,629671,0
2096921,2096921,184992,629600,0
2096921,2096921,184960,629396,0
2096921,2096921,185101,629712,0
2096921,2096921,184879,629952,0
2096921,2096921,185207,629884,0
2096921,2096921,185131,629998,0
2096921,2096921,185083,630199,0
2096921,2096921,185443,629939,0
2096921,2096921,185643,630386,0
2096921,2096921,185678,630642,0
2096921,2096921,185344,630448,0
2096921,2096921,185321,630471,0
2096921,2096921,185458,630837,0
2096921,2096921,185774,631050,0
2096921,2096921,185815,631161,0
2096921,2096921,185815,631051,0
2096921,2096921,185535,630817,0
2096921,2096921,186194,631393,0
2096921,2096921,185886,631796,0
2096921,2096921,185964,631491,0
2096921,2096921,186045,631462,0
2096921,2096921,186044,631671,0
2096921,2096921,186076,631962,0
2096921,2096921,186244,632049,0
2096921,2096921,186194,631960,0
2096921,2096921,186511,632166,0
2096921,2096921,186512,632124,0
2096921,2096921,186498,632456,0
2096921,2096921,186336,632104,0
2096921,2096921,186680,632425,0
2096921,2096921,186255,631967,0
2096921,2096921,186417,631853,0
2096921,2096921,186233,632292,0
2096921,2096921,186376,632640,0
2096921,2096921,186622,632384,0
2096921,2096921,186690,632740,0
2096921,2096921,186747,632258,0
2096921,2096921,186692,632798,0
2096921,2096921,186742,632601,0
2096921,2096921,186738,632645,0
2096921,2096921,186795,632509,0
2096921,2096921,186467,632538,0
2096921,2096921,186869,632827,0
2096921,2096921,186601,632894,0
2096921,2096921,186676,633175,0
2096921,2096921,186821,632906,0
2096921,2096921,187014,633041,0
2096921,2096921,186456,632876,0
2096921,2096921,186772,632779,0
2096921,2096921,186783,632858,0
2096921,2096921,186678,632787,0
2096921,2096921,186692,632725,0
2096921,2096921,186515,632521,0
2096921,2096921,186296,632467,0
2096921,2096921,186624,632477,0
2096921,2096921,186656,632895,0
2096921,2096921,186706,632844,0
2096921,2096921,186773,632668,0
2096921,2096921,186819,632644,0
2096921,2096921,186565,632423,0
2096921,2096921,186364,632563,0
2096921,2096921,186180,632315,0
2096921,2096921,186497,632482,0
2096921,2096921,186674,632336,0
2096921,2096921,186538,632327,0
2096921,2096921,186326,632246,0
2096921,2096921,186673,632451,0
2096921,2096921,186622,632458,0
2096921,2096921,186555,632202,0
2096921,2096921,186462,631843,0
2096921,2096921,186227,632057,0
2096921,2096921,186419,631811,0
2096921,2096921,186410,631704,0
2096921,2096921,186473,631688,0
2096921,2096921,186426,631723,0
2096921,2096921,186307,631841,0
2096921,2096921,186274,631926,0
2096921,2096921,186209,631405,0
2096921,2096921,186024,631458,0
2096921,2096921,186345,631557,0
2096921,2096921,186008,631745,0
2096921,2096921,185961,631377,0
2096921,2096921,186095,631591,0
2096921,2096921,186020,631643,0
2096921,2096921,186096,631267,0
2096921,2096921,186206,631375,0
2096921,2096921,186240,631616,0
2096921,2096921,186229,631405,0
2096921,2096921,185814,631491,0
2096921,2096921,185959,631213,0
2096921,2096921,186117,631200,0
2096921,2096921,186090,631528,0
2096921,2096921,185764,631076,0
2096921,2096921,185885,631118,0
2096921,2096921,186139,631228,0
2096921,2096921,186375,631205,0
2096921,2096921,186239,631191,0
2096921,2096921,185847,631100,0
2096921,2096921,185750,630900,0
2096921,2096921,185759,631365,0
2096921,2096921,185930,631193,0
2096921,2096921,185972,630985,0
2096921,2096921,186069,631099,0
2096921,2096921,185978,631164,0
2096921,2096921,186079,631132,0
2096921,2096921,186158,631598,0
2096921,2096921,186216,631176,0
2096921,2096921,186363,631436,0
2096921,2096921,186876,631314,0
2096921,2096921,185962,631364,0
2096921,2096921,186179,631056,0
2096921,2096921,186229,631353,0
2096921,2096921,186267,631825,0
2096921,2096921,186345,631784,0
2096921,2096921,186394,631656,0
2096921,2096921,186478,632020,0
2096921,2096921,186704,631854,0
2096921,2096921,186450,631981,0
2096921,2096921,186582,631901,0
2096921,2096921,186864,632012,0
2096921,2096921,186486,631876,0
2096921,2096921,186311,631681,0
2096921,2096921,186691,632007,0
2096921,2096921,186897,631714,0
2096921,2096921,186585,632044,0
2096921,2096921,186890,631990,0
2096921,2096921,186556,632172,0
2096921,2096921,186923,632063,0
2096921,2096921,186728,632158,0
2096921,2096921,186722,631898,0
2096921,2096921,186718,631841,0
2096921,2096921,186956,631778,0
2096921,2096921,187249,632044,0
2096921,2096921,186605,632035,0
2096921,2096921,186667,631828,0
2096921,2096921,186724,632104,0
2096921,2096921,186844,632038,0
2096921,2096921,186825,632004,0
2096921,2096921,186915,632106,0
2096921,2096921,186879,632195,0
2096921,2096921,186922,632061,0
2096921,2096921,186874,631969,0
2096921,2096921,186868,632246,0
2096921,2096921,186888,632086,0
2096921,2096921,187102,632427,0
2096921,2096921,187251,632330,0
2096921,2096921,187062,632259,0
2096921,2096921,186989,632350,0
2096921,2096921,187168,632166,0
2096921,2096921,187110,632064,0
2096921,2096921,186815,632427,0
2096921,2096921,187039,632296,0
2096921,2096921,186877,632157,0
2096921,2096921,187053,632173,0
2096921,2096921,187053,632341,0
2096921,2096921,187077,632282,0
2096921,2096921,187333,632291,0
2096921,2096921,187376,632423,0
2096921,2096921,187211,632127,0
2096921,2096921,187129,632452,0
2096921,2096921,187229,632165,0
2096921,2096921,187297,632280,0
2096921,2096921,187020,632311,0
2096921,2096921,187065,632250,0
2096921,2096921,187308,632120,0
2096921,2096921,187468,632357,0
2096921,2096921,187118,632442,0
2096921,2096921,187298,632462,0
2096921,2096921,187359,632325,0
2096921,2096921,187213,632317,0
2096921,2096921,187224,632256,0
2096921,2096921,187436,632388,0
2096921,2096921,187541,632287,0
2096921,2096921,187203,632435,0
2096921,2096921,187188,632312,0
2096921,2096921,187623,632445,0
2096921,2096921,187671,632558,0
2096921,2096921,187271,632669,0
2096921,2096921,187338,632273,0
2096921,2096921,187588,632371,0
2096921,2096921,187370,632466,0
2096921,2096921,187316,632111,0
2096921,2096921,187355,632052,0
2096921,2096921,187310,632093,0
2096921,2096921,187528,632105,0
2096921,2096921,187544,632329,0
2096921,2096921,187473,632225,0
2096921,2096921,187394,632154,0
2096921,2096921,187653,632357,0
2096921,2096921,187383,632274,0
2096921,2096921,187351,632227,0
2096921,2096921,187338,632160,0
2096921,2096921,187570,632133,0
2096921,2096921,187480,632105,0
2096921,2096921,187528,631887,0
2096921,2096921,187522,631919,0
2096921,2096921,187636,632282,0
2096921,2096921,187556,632220,0
2096921,2096921,187513,632095,0
2096921,2096921,187612,631820,0
2096921,2096921,187622,632110,0
2096921,2096921,187475,631790,0
2096921,2096921,187449,631702,0
2096921,2096921,187356,631606,0
2096921,2096921,187597,631871,0
2096921,2096921,187753,631986,0
2096921,2096921,187777,632156,0
2096921,2096921,187459,631819,0
2096921,2096921,187335,631679,0
2096921,2096921,187558,631944,0
2096921,2096921,187269,631633,0
2096921,2096921,187386,631622,0
2096921,2096921,187451,631761,0
2096921,2096921,187482,631548,0
2096921,2096921,187531,631471,0
2096921,2096921,187540,631506,0
2096921,2096921,187361,631568,0
2096921,2096921,187639,631543,0
2096921,2096921,187678,631637,0
2096921,2096921,187439,631322,0
2096921,2096921,187270,631211,0
2096921,2096921,187318,631133,0
2096921,2096921,187546,631376,0
2096921,2096921,187425,631149,0
2096921,2096921,187204,630963,0
2096921,2096921,187357,631295,0
2096921,2096921,187408,630988,0
2096921,2096921,187287,631088,0
2096921,2096921,187195,631000,0
2096921,2096921,187485,631342,0
2096921,2096921,187530,631267,0
2096921,2096921,187607,630999,0
2096921,2096921,187570,630781,0
2096921,2096921,187291,631073,0
2096921,2096921,187346,630924,0
2096921,2096921,187416,630976,0
2096921,2096921,187557,630856,0
2096921,2096921,187331,630473,0
2096921,2096921,187494,630297,0
2096921,2096921,187153,630583,0
2096921,2096921,187131,630455,0
2096921,2096921,187283,630749,0
2096921,2096921,187012,630410,0
2096921,2096921,187234,630422,0
2096921,2096921,187295,630419,0
2096921,2096921,187552,630631,0
2096921,2096921,187503,630462,0
2096921,2096921,187375,629942,0
2096921,2096921,187403,630051,0
2096921,2096921,187524,630186,0
2096921,2096921,187134,629975,0
2096921,2096921,187088,630137,0
2096921,2096921,187405,630049,0
2096921,2096921,187219,630077,0
2096921,2096921,187454,630197,0
2096921,2096921,187384,629926,0
2096921,2096921,187432,629948,0
2096921,2096921,187312,629688,0
2096921,2096921,187002,629469,0
2096921,2096921,186825,629532,0
2096921,2096921,187249,629460,0
2096921,2096921,187319,629539,0
2096921,2096921,187079,629580,0
2096921,2096921,186914,629505,0
2096921,2096921,187204,629650,0
2096921,2096921,187204,629683,0
2096921,2096921,186981,629598,0
2096921,2096921,186869,629613,0
2096921,2096921,186913,629516,0
2096921,2096921,187121,629266,0
2096921,2096921,187175,629540,0
2096921,2096921,187041,629430,0
2096921,2096921,186961,629293,0
2096921,2096921,187161,629106,0
2096921,2096921,186777,629227,0
2096921,2096921,187001,629274,0
2096921,2096921,186972,629090,0
2096921,2096921,187032,628933,0
2096921,2096921,186823,628816,0
2096921,2096921,186641,628945,0
2096921,2096921,186913,628701,0
2096921,2096921,187022,628814,0
2096921,2096921,186698,628650,0
2096921,2096921,186829,628320,0
2096921,2096921,186791,628600,0
2096921,2096921,187083,628618,0
2096921,2096921,186847,628568,0
2096921,2096921,187009,628360,0
2096921,2096921,187192,628301,0
2096921,2096921,186990,628442,0
2096921,2096921,186976,628337,0
2096921,2096921,186761,628473,0
2096921,2096921,186736,627886,0
2096921,2096921,187062,628047,0
2096921,2096921,187011,628085,0
2096921,2096921,187092,628296,0
2096921,2096921,186975,627988,0
2096921,2096921,186810,628068,0
2096921,2096921,186767,627854,0
2096921,2096921,186517,627580,0
2096921,2096921,186824,627598,0
2096921,2096921,186680,627924,0
2096921,2096921,186568,627428,0
2096921,2096921,186420,627552,0
2096921,2096921,186408,627345,0
2096921,2096921,186693,627349,0
2096921,2096921,186813,627029,0
2096921,2096921,186646,627076,0
2096921,2096921,186444,626978,0
2096921,2096921,186673,626984,0
2096921,2096921,186624,627021,0
2096921,2096921,186424,626863,0
2096921,2096921,186376,626966,0
2096921,2096921,186516,626740,0
2096921,2096921,186538,626595,0
2096921,2096921,186488,626643,0
2096921,2096921,186557,626485,0
2096921,2096921,186506,626200,0
2096921,2096921,185954,626257,0
2096921,2096921,186220,626191,0
2096921,2096921,186170,626616,0
2096921,2096921,186299,626308,0
2096921,2096921,186276,626133,0
2096921,2096921,186347,626097,0
2096921,2096921,186624,626178,0
2096921,2096921,186126,626147,0
2096921,2096921,186195,625712,0
2096921,2096921,186282,625672,0
2096921,2096921,186299,625641,0
2096921,2096921,186241,625232,0
2096921,2096921,185819,625206,0
2096921,2096921,185840,625259,0
2096921,2096921,185953,625001,0
2096921,2096921,185931,625030,0
2096921,2096921,186222,625111,0
2096921,2096921,186115,625070,0
2096921,2096921,186165,625240,0
2096921,2096921,186107,624722,0
2096921,2096921,185887,624615,0
2096921,2096921,185849,624631,0
2096921,2096921,186033,624690,0
2096921,2096921,185643,624363,0
2096921,2096921,185787,624375,0
2096921,2096921,185682,624258,0
2096921,2096921,185796,624271,0
2096921,2096921,185677,624245,0
2096921,2096921,185967,624216,0
2096921,2096921,185845,624468,0
2096921,2096921,185751,623964,0
2096921,2096921,185867,624197,0
2096921,2096921,185453,623828,0
2096921,2096921,185492,623782,0
2096921,2096921,185527,623640,0
2096921,2096921,185304,623585,0
2096921,2096921,185335,623555,0
2096921,2096921,185377,623700,0
2096921,2096921,185627,623812,0
2096921,2096921,185612,623388,0
2096921,2096921,185098,623200,0
2096921,2096921,185521,623482,0
2096921,2096921,185236,623118,0
2096921,2096921,185403,623162,0
2096921,2096921,185351,622786,0
2096921,2096921,185346,622926,0
2096921,2096921,185235,623163,0
2096921,2096921,185022,623066,0
2096921,2096921,185182,622778,0
2096921,2096921,185305,622734,0
2096921,2096921,185114,622636,0
2096921,2096921,185040,622742,0
2096921,2096921,185012,622459,0
2096921,2096921,185078,622442,0
2096921,2096921,184801,621659,0
2096921,2096921,184761,621503,0
2096921,2096921,184759,621444,0
2096921,2096921,184756,621438,0
2096921,2096921,184792,621681,0
2096921,2096921,184645,621147,0
2096921,2096921,184295,620859,0
2096921,2096921,184552,620890,0
2096921,2096921,184671,620934,0
2096921,2096921,184387,620896,0
2096921,2096921,184034,619840,0
2096921,2096921,183943,619989,0
2096921,2096921,184251,619493,0
2096921,2096921,184073,619588,0
2096921,2096921,184157,619712,0
2096921,2096921,183552,618749,0
2096921,2096921,183548,618775,0
2096921,2096921,183444,618817,0
2096921,2096921,183537,618398,0
2096921,2096921,183252,618238,0
2096921,2096921,183260,617352,0
2096921,2096921,182834,616973,0
2096921,2096921,182743,617061,0
2096921,2096921,182491,616880,0
2096921,2096921,182517,617263,0
2096921,2096921,181835,615112,0
2096921,2096921,181682,614945,0
2096921,2096921,181598,614494,0
2096921,2096921,181645,614588,0
2096921,2096921,181647,614723,0
2096921,2096921,180618,612166,0
2096921,2096921,180041,611397,0
2096921,2096921,179967,611407,0
2096921,2096921,180064,611355,0
2096921,2096921,180282,611694,0
2096921,2096921,179003,609718,0
2096921,2096921,178732,609500,0
2096921,2096921,178901,609129,0
2096921,2096921,178912,609259,0
2096921,2096921,178910,609239,0
2096921,2096921,178052,607682,0
2096921,2096921,177839,607381,0
2096921,2096921,177650,607418,0
2096921,2096921,177717,607435,0
2096921,2096921,177804,607260,0
2096921,2096921,177536,606020,0
2096921,2096921,177635,606218,0
2096921,2096921,177305,605738,0
2096921,2096921,177021,605338,0
2096921,2096921,177280,605454,0
2096921,2096921,176838,604677,0
2096921,2096921,176980,604629,0
2096921,2096921,176870,604389,0
2096921,2096921,176714,604702,0
2096921,2096921,176740,604828,0
2096921,2096921,176385,603750,0
2096921,2096921,175903,603731,0
2096921,2096921,176625,603665,0
2096921,2096921,176542,603570,0
2096921,2096921,176406,603664,0
2096921,2096921,176245,602995,0
2096921,2096921,176023,602805,0
2096921,2096921,175945,602686,0
2096921,2096921,175807,602921,0
2096921,2096921,176046,603023,0
2096921,2096921,176039,602812,0
2096921,2096921,175756,602565,0
2096921,2096921,175878,602485,0
2096921,2096921,175702,602374,0
2096921,2096921,175718,602251,0
2096921,2096921,175850,601863,0
2096921,2096921,175752,602203,0
2096921,2096921,175817,601894,0
2096921,2096921,175888,602210,0
2096921,2096921,175618,602133,0
2096921,2096921,175676,602022,0
2096921,2096921,175936,602342,0
2096921,2096921,175638,602319,0
2096921,2096921,175765,602053,0
2096921,2096921,175654,601968,0
2096921,2096921,175766,601867,0
2096921,2096921,175719,601800,0
2096921,2096921,175549,601826,0
2096921,2096921,175600,601780,0
2096921,2096921,175694,601913,0
2096921,2096921,175746,601684,0
2096921,2096921,175787,601706,0
2096921,2096921,175433,601779,0
2096921,2096921,175543,601566,0
2096921,2096921,175969,601617,0
2096921,2096921,175940,601602,0
2096921,2096921,175941,601677,0
2096921,2096921,175970,601758,0
2096921,2096921,176064,601922,0
2096921,2096921,175758,601901,0
2096921,2096921,175869,601846,0
2096921,2096921,175836,602029,0
2096921,2096921,176022,602011,0
2096921,2096921,175792,601864,0
2096921,2096921,175774,601872,0
2096921,2096921,176053,601739,0
2096921,2096921,175876,602025,0
2096921,2096921,176024,601660,0
2096921,2096921,175838,601783,0
2096921,2096921,176107,602033,0
2096921,2096921,176640,602092,0
2096921,2096921,176373,602419,0
2096921,2096921,176426,602515,0
2096921,2096921,176369,602310,0
2096921,2096921,176266,602038,0
2096921,2096921,176102,602379,0
2096921,2096921,176297,602302,0
2096921,2096921,176587,602506,0
2096921,2096921,176499,602557,0
2096921,2096921,176690,602282,0
2096921,2096921,176600,602703,0
2096921,2096921,176492,602547,0
2096921,2096921,176652,602537,0
2096921,2096921,176579,602376,0
2096921,2096921,176758,602758,0
2096921,2096921,176632,602674,0
2096921,2096921,176964,602212,0
2096921,2096921,176674,602565,0
2096921,2096921,176874,602633,0
2096921,2096921,176818,602584,0
2096921,2096921,177054,602781,0
2096921,2096921,177130,602937,0
2096921,2096921,177339,602911,0
2096921,2096921,176731,602766,0
2096921,2096921,176656,602771,0
2096921,2096921,177004,603066,0
2096921,2096921,177484,603199,0
2096921,2096921,176987,603019,0
2096921,2096921,177101,603095,0
2096921,2096921,177130,603255,0
2096921,2096921,177354,603426,0
2096921,2096921,177230,603305,0
2096921,2096921,177280,603364,0
2096921,2096921,177164,603197,0
2096921,2096921,177252,603427,0
2096921,2096921,177284,603399,0
2096921,2096921,177232,603264,0
2096921,2096921,177343,603290,0
2096921,2096921,177621,603484,0
2096921,2096921,177125,603614,0
2096921,2096921,177495,603925,0
2096921,2096921,177606,603689,0
2096921,2096921,177565,603777,0
2096921,2096921,177698,603966,0
2096921,2096921,177638,603451,0
2096921,2096921,177555,603781,0
2096921,2096921,177581,603896,0
2096921,2096921,177831,603944,0
2096921,2096921,177493,603993,0
2096921,2096921,177843,603944,0
2096921,2096921,177839,604008,0
2096921,2096921,177966,604033,0
2096921,2096921,177834,603958,0
2096921,2096921,177705,603908,0
2096921,2096921,177937,603921,0
2096921,2096921,178019,603868,0
2096921,2096921,177869,603890,0
2096921,2096921,177788,603800,0
2096921,2096921,178011,603633,0
2096921,2096921,177868,604000,0
2096921,2096921,177645,604133,0
2096921,2096921,177514,603757,0
2096921,2096921,177949,603963,0
2096921,2096921,177696,603915,0
2096921,2096921,177685,603993,0
2096921,2096921,177648,603690,0
2096921,2096921,177871,603745,0
2096921,2096921,177880,603706,0
2096921,2096921,178017,603942,0
2096921,2096921,177981,604090,0
2096921,2096921,177957,603306,0
2096921,2096921,177999,603524,0
2096921,2096921,177986,603786,0
2096921,2096921,177847,603534,0
2096921,2096921,177924,603647,0
2096921,2096921,177973,603594,0
2096921,2096921,177963,603452,0
2096921,2096921,177646,603381,0
2096921,2096921,177707,603350,0
2096921,2096921,177949,603330,0
2096921,2096921,178125,603504,0
2096921,2096921,177833,603037,0
2096921,2096921,177884,603036,0
2096921,2096921,177456,603201,0
2096921,2096921,177600,603308,0
2096921,2096921,177319,602821,0
2096921,2096921,177489,602826,0
2096921,2096921,177502,602701,0
2096921,2096921,177538,602943,0
2096921,2096921,177491,603161,0
2096921,2096921,177337,602610,0
2096921,2096921,176977,602304,0
2096921,2096921,177333,602569,0
2096921,2096921,177179,602489,0
2096921,2096921,177072,602411,0
2096921,2096921,176965,602226,0
2096921,2096921,177468,602171,0
2096921,2096921,177037,602019,0
2096921,2096921,177188,602345,0
2096921,2096921,177190,602283,0
2096921,2096921,177122,602041,0
2096921,2096921,177282,601970,0
2096921,2096921,177000,601803,0
2096921,2096921,176823,601652,0
2096921,2096921,176801,602087,0
2096921,2096921,176995,601829,0
2096921,2096921,176798,601394,0
2096921,2096921,177125,601521,0
2096921,2096921,177243,601780,0
2096921,2096921,177042,601873,0
2096921,2096921,177063,601852,0
2096921,2096921,177118,601514,0
2096921,2096921,177416,601649,0
2096921,2096921,176942,601590,0
2096921,2096921,176930,601584,0
2096921,2096921,176995,601564,0
2096921,2096921,176992,601487,0
2096921,2096921,177342,601567,0
2096921,2096921,177042,601862,0
2096921,2096921,177088,601634,0
2096921,2096921,177043,601583,0
2096921,2096921,177151,601638,0
2096921,2096921,176997,601560,0
2096921,2096921,177071,601370,0
2096921,2096921,177208,601415,0
2096921,2096921,177242,601583,0
2096921,2096921,177224,601580,0
2096921,2096921,177336,601613,0
2096921,2096921,176909,601594,0
2096921,2096921,177281,601831,0
2096921,2096921,177066,601921,0
2096921,2096921,177379,601707,0
2096921,2096921,177135,601817,0
2096921,2096921,177402,602212,0
2096921,2096921,177422,602048,0
2096921,2096921,177416,602265,0
2096921,2096921,177322,601995,0
2096921,2096921,177563,602106,0
2096921,2096921,177655,602317,0
2096921,2096921,177565,602282,0
2096921,2096921,177531,602549,0
2096921,2096921,177699,602564,0
2096921,2096921,177600,602460,0
2096921,2096921,177382,602307,0
2096921,2096921,177597,602184,0
2096921,2096921,177678,602611,0
2096921,2096921,177556,602504,0
2096921,2096921,177484,602650,0
2096921,2096921,177854,602397,0
2096921,2096921,177878,602759,0
2096921,2096921,177862,602819,0
2096921,2096921,177734,603099,0
2096921,2096921,177823,602795,0
2096921,2096921,177808,602694,0
2096921,2096921,177729,602756,0
2096921,2096921,177893,602717,0
2096921,2096921,177855,603061,0
2096921,2096921,177953,603204,0
2096921,2096921,177979,603287,0
2096921,2096921,177683,603018,0
2096921,2096921,177945,602915,0
2096921,2096921,178001,603132,0
2096921,2096921,178108,603332,0
2096921,2096921,177770,603263,0
2096921,2096921,177755,603160,0
2096921,2096921,177969,603179,0
2096921,2096921,178208,603408,0
2096921,2096921,178422,603234,0
2096921,2096921,178477,603459,0
2096921,2096921,178300,603301,0
2096921,2096921,178385,603878,0
2096921,2096921,178467,603845,0
2096921,2096921,178340,603838,0
2096921,2096921,178479,603570,0
2096921,2096921,178253,603710,0
2096921,2096921,178121,603888,0
2096921,2096921,178332,604101,0
2096921,2096921,178595,603974,0
2096921,2096921,178727,604112,0
2096921,2096921,178675,603971,0
2096921,2096921,178344,604077,0
2096921,2096921,178549,604232,0
2096921,2096921,178810,604144,0
2096921,2096921,178862,604229,0
2096921,2096921,178418,603895,0
2096921,2096921,178855,604375,0
2096921,2096921,178734,604595,0
2096921,2096921,178976,604615,0
2096921,2096921,178308,604282,0
2096921,2096921,178792,604797,0
2096921,2096921,178644,604720,0
2096921,2096921,178958,604995,0
2096921,2096921,178920,604803,0
2096921,2096921,178817,604704,0
2096921,2096921,178935,604630,0
2096921,2096921,179485,605155,0
2096921,2096921,179217,605013,0
2096921,2096921,179150,604654,0
2096921,2096921,178997,604850,0
2096921,2096921,179322,605050,0
2096921,2096921,179389,605135,0
2096921,2096921,179372,605084,0
2096921,2096921,179016,605288,0
2096921,2096921,179225,605144,0
2096921,2096921,178970,605223,0
2096921,2096921,179304,605288,0
2096921,2096921,179231,605242,0
2096921,2096921,179460,605386,0
2096921,2096921,179118,605326,0
2096921,2096921,179221,605574,0
2096921,2096921,179448,605755,0
2096921,2096921,179560,605880,0
2096921,2096921,179237,605829,0
2096921,2096921,179207,605752,0
2096921,2096921,179542,605762,0
2096921,2096921,179450,606067,0
2096921,2096921,179356,606031,0
2096921,2096921,179242,605841,0
2096921,2096921,179275,605527,0
2096921,2096921,179489,605769,0
2096921,2096921,179590,606208,0
2096921,2096921,179145,606145,0
2096921,2096921,179454,606031,0
2096921,2096921,179415,605984,0
2096921,2096921,179628,605940,0
2096921,2096921,179478,606306,0
2096921,2096921,179628,606018,0
2096921,2096921,179631,606216,0
2096921,2096921,179660,606200,0
2096921,2096921,179767,606275,0
2096921,2096921,179715,606573,0
2096921,2096921,179703,606413,0
2096921,2096921,179327,606268,0
2096921,2096921,179870,606440,0
2096921,2096921,179634,606321,0
2096921,2096921,179793,606433,0
2096921,2096921,179879,606498,0
2096921,2096921,180133,606514,0
2096921,2096921,179953,606628,0
2096921,2096921,179783,606608,0
2096921,2096921,180156,606842,0
2096921,2096921,180353,606781,0
2096921,2096921,180087,606781,0
2096921,2096921,180092,606567,0
2096921,2096921,179913,606627,0
2096921,2096921,179915,606901,0
2096921,2096921,180021,607118,0
2096921,2096921,180227,606837,0
2096921,2096921,179882,607021,0
2096921,2096921,180004,607032,0
2096921,2096921,179963,607094,0
2096921,2096921,180092,607162,0
2096921,2096921,180058,607190,0
2096921,2096921,180396,607226,0
2096921,2096921,179870,607545,0
2096921,2096921,179948,607166,0
2096921,2096921,180119,606936,0
2096921,2096921,180275,607212,0
2096921,2096921,180095,607328,0
2096921,2096921,180001,607119,0
2096921,2096921,180157,607176,0
2096921,2096921,180335,607060,0
2096921,2096921,180360,607427,0
2096921,2096921,180203,606987,0
2096921,2096921,179860,606918,0
2096921,2096921,180046,606957,0
2096921,2096921,180106,606986,0
2096921,2096921,180177,607476,0
2096921,2096921,180146,607343,0
2096921,2096921,180239,607555,0
2096921,2096921,180292,607429,0
2096921,2096921,180464,607344,0
2096921,2096921,180340,607332,0
2096921,2096921,180377,607559,0
2096921,2096921,179982,607476,0
2096921,2096921,180205,607538,0
2096921,2096921,180496,607371,0
2096921,2096921,180671,607416,0
2096921,2096921,180589,607439,0
2096921,2096921,180384,607562,0
2096921,2096921,180402,607576,0
2096921,2096921,180718,607778,0
2096921,2096921,180551,607240,0
2096921,2096921,180339,607745,0
2096921,2096921,180444,607773,0
2096921,2096921,180268,607863,0
2096921,2096921,180524,607775,0
2096921,2096921,180403,607589,0
2096921,2096921,180507,607709,0
2096921,2096921,180478,607763,0
2096921,2096921,180616,607873,0
2096921,2096921,180439,607684,0
2096921,2096921,180657,607949,0
2096921,2096921,180676,607821,0
2096921,2096921,180565,607821,0
2096921,2096921,180388,607924,0
2096921,2096921,180641,607837,0
2096921,2096921,180700,608252,0
2096921,2096921,180521,607822,0
2096921,2096921,180655,607913,0
2096921,2096921,180831,608152,0
2096921,2096921,180897,608104,0
2096921,2096921,180308,608158,0
2096921,2096921,180502,607862,0
2096921,2096921,180474,607892,0
2096921,2096921,180737,608152,0
2096921,2096921,180651,608349,0
2096921,2096921,180704,608240,0
2096921,2096921,180691,607972,0
2096921,2096921,180847,608233,0
2096921,2096921,180683,608248,0
2096921,2096921,180680,608258,0
2096921,2096921,180633,608219,0
2096921,2096921,180804,608276,0
2096921,2096921,180809,608290,0
2096921,2096921,180807,608138,0
2096921,2096921,180675,608588,0
2096921,2096921,180464,608637,0
2096921,2096921,180792,608718,0
2096921,2096921,181206,608373,0
2096921,2096921,181161,608513,0
2096921,2096921,180848,608453,0
2096921,2096921,180822,608468,0
2096921,2096921,180809,608417,0
2096921,2096921,180680,608597,0
2096921,2096921,180593,608721,0
2096921,2096921,180922,608455,0
2096921,2096921,180949,608691,0
2096921,2096921,181137,608726,0
2096921,2096921,181167,608745,0
2096921,2096921,180934,608848,0
2096921,2096921,180911,608664,0
2096921,2096921,180933,608765,0
2096921,2096921,180787,608901,0
2096921,2096921,180680,608722,0
2096921,2096921,180761,608744,0
2096921,2096921,180904,608724,0
2096921,2096921,181112,608978,0
2096921,2096921,181112,608800,0
2096921,2096921,180888,609033,0
2096921,2096921,180814,609073,0
2096921,2096921,181038,608939,0
2096921,2096921,181011,609000,0
2096921,2096921,181002,608860,0
2096921,2096921,180757,609177,0
2096921,2096921,181062,609382,0
2096921,2096921,181079,609150,0
2096921,2096921,181109,609267,0
2096921,2096921,181088,609219,0
2096921,2096921,180858,609470,0
2096921,2096921,181141,609169,0
2096921,2096921,181055,609251,0
2096921,2096921,180947,609384,0
2096921,2096921,180748,609136,0
2096921,2096921,180832,609153,0
2096921,2096921,180982,609567,0
2096921,2096921,180995,609318,0
2096921,2096921,180869,609225,0
2096921,2096921,180973,609165,0
2096921,2096921,181091,609564,0
2096921,2096921,181392,609465,0
2096921,2096921,181088,609426,0
2096921,2096921,181249,609672,0
2096921,2096921,181226,609405,0
2096921,2096921,181046,609439,0
2096921,2096921,181433,609696,0
2096921,2096921,181240,609315,0
2096921,2096921,181275,609537,0
2096921,2096921,181347,609708,0
2096921,2096921,181182,609468,0
2096921,2096921,181153,609614,0
2096921,2096921,181351,609511,0
2096921,2096921,181310,609741,0
2096921,2096921,181183,609649,0
2096921,2096921,181309,609740,0
2096921,2096921,181297,609558,0
2096921,2096921,181191,609957,0
2096921,2096921,181442,610023,0
2096921,2096921,181274,609977,0
2096921,2096921,181148,609701,0
2096921,2096921,181237,609985,0
2096921,2096921,181540,609968,0
2096921,2096921,181549,609976,0
2096921,2096921,181266,609891,0
2096921,2096921,181116,609657,0
2096921,2096921,181189,610079,0
2096921,2096921,181391,610113,0
2096921,2096921,181581,610129,0
2096921,2096921,181375,610304,0
2096921,2096921,181304,609979,0
2096921,2096921,181251,610326,0
2096921,2096921,181393,610270,0
2096921,2096921,181370,610420,0
2096921,2096921,181001,610447,0
2096921,2096921,181198,610236,0
2096921,2096921,181150,610019,0
2096921,2096921,181125,610179,0
2096921,2096921,181120,610049,0
2096921,2096921,181143,610149,0
2096921,2096921,181248,610088,0
2096921,2096921,181048,609849,0
2096921,2096921,180943,609793,0
2096921,2096921,181000,609387,0
2096921,2096921,181120,609408,0
2096921,2096921,181174,609598,0
2096921,2096921,180524,609430,0
2096921,2096921,180991,609152,0
2096921,2096921,180859,609320,0
2096921,2096921,180829,609294,0
2096921,2096921,180872,609575,0
2096921,2096921,180549,608867,0
2096921,2096921,180536,608791,0
2096921,2096921,180346,608812,0
2096921,2096921,180511,608759,0
2096921,2096921,180350,608304,0
2096921,2096921,180115,607890,0
2096921,2096921,180039,607754,0
2096921,2096921,180036,607953,0
2096921,2096921,179955,607975,0
2096921,2096921,179995,607959,0
2096921,2096921,179245,606435,0
2096921,2096921,178969,606345,0
2096921,2096921,178707,606334,0
2096921,2096921,178823,605891,0
2096921,2096921,178892,606146,0
2096921,2096921,177688,604127,0
2096921,2096921,177472,603558,0
2096921,2096921,177366,603509,0
2096921,2096921,177365,603848,0
2096921,2096921,177674,603920,0
2096921,2096921,176683,602114,0
2096921,2096921,176600,601924,0
2096921,2096921,176625,601936,0
2096921,2096921,176353,601968,0
2096921,2096921,176490,602029,0
2096921,2096921,175638,600625,0
2096921,2096921,175646,600477,0
2096921,2096921,175853,600593,0
2096921,2096921,175744,600367,0
2096921,2096921,176085,600272,0
2096921,2096921,175641,599652,0
2096921,2096921,175256,599702,0
2096921,2096921,175533,599813,0
2096921,2096921,175175,599653,0
2096921,2096921,175078,599714,0
2096921,2096921,175010,599337,0
2096921,2096921,175010,599399,0
2096921,2096921,175039,599373,0
2096921,2096921,174936,598957,0
2096921,2096921,174876,599118,0
2096921,2096921,174962,599227,0
2096921,2096921,174771,598986,0
2096921,2096921,174646,598876,0
2096921,2096921,174816,598898,0
2096921,2096921,174761,599000,0
2096921,2096921,174978,598950,0
2096921,2096921,174790,598712,0
2096921,2096921,174639,598578,0
2096921,2096921,174645,598903,0
2096921,2096921,174576,599185,0
2096921,2096921,174552,599288,0
2096921,2096921,174729,599002,0
2096921,2096921,174780,599248,0
2096921,2096921,174704,598979,0
2096921,2096921,174589,599044,0
2096921,2096921,174809,598991,0
2096921,2096921,174782,599166,0
2096921,2096921,174795,599126,0
2096921,2096921,174983,599293,0
2096921,2096921,175276,599371,0
2096921,2096921,174939,599923,0
2096921,2096921,175308,599927,0
2096921,2096921,174995,599911,0
2096921,2096921,174845,599961,0
2096921,2096921,174939,599488,0
2096921,2096921,175127,599997,0
