2096921,2096921,159233,660840,0
2096921,2096921,159300,660906,0
2096921,2096921,159672,661159,0
2096921,2096921,159656,660974,0
2096921,2096921,159714,660925,0
2096921,2096921,159472,660981,0
2096921,2096921,159310,661019,0
2096921,2096921,159521,661035,0
2096921,2096921,159665,661026,0
2096921,2096921,159847,661042,0
2096921,2096921,159730,661353,0
2096921,2096921,159589,661396,0
2096921,2096921,159320,661112,0
2096921,2096921,159498,660769,0
2096921,2096921,159382,661229,0
2096921,2096921,159275,661357,0
2096921,2096921,159391,660870,0
2096921,2096921,159347,661203,0
2096921,2096921,159544,661106,0
2096921,2096921,159473,660904,0
2096921,2096921,159715,661124,0
2096921,2096921,159446,661004,0
2096921,2096921,159441,661040,0
2096921,2096921,159558,661093,0
2096921,2096921,159464,660929,0
2096921,2096921,159406,660903,0
2096921,2096921,159657,660771,0
2096921,2096921,159540,660981,0
2096921,2096921,159520,660997,0
2096921,2096921,159347,660992,0
2096921,2096921,159270,660703,0
2096921,2096921,159204,660923,0
2096921,2096921,159485,661112,0
2096921,2096921,159405,660903,0
2096921,2096921,159440,660687,0
2096921,2096921,159648,660621,0
2096921,2096921,159452,660782,0
2096921,2096921,159343,660753,0
2096921,2096921,159244,660553,0
2096921,2096921,159199,660331,0
2096921,2096921,159292,660679,0
2096921,2096921,159671,660896,0
2096921,2096921,159579,660502,0
2096921,2096921,159715,660717,0
2096921,2096921,159310,660707,0
2096921,2096921,159272,660571,0
2096921,2096921,159261,660344,0
2096921,2096921,159415,660724,0
2096921,2096921,159444,660667,0
2096921,2096921,159481,660822,0
2096921,2096921,159332,660875,0
2096921,2096921,159369,661213,0
2096921,2096921,159397,660769,0
2096921,2096921,159416,660486,0
2096921,2096921,159019,660221,0
2096921,2096921,159230,660535,0
2096921,2096921,159559,660510,0
2096921,2096921,159149,660543,0
2096921,2096921,159519,660619,0
2096921,2096921,159468,660716,0
2096921,2096921,159213,660728,0
2096921,2096921,159205,660791,0
2096921,2096921,159644,660576,0
2096921,2096921,159849,660579,0
2096921,2096921,159961,661007,0
2096921,2096921,159700,661064,0
2096921,2096921,159577,661113,0
2096921,2096921,159723,660892,0
2096921,2096921,159282,661014,0
2096921,2096921,159570,660831,0
2096921,2096921,159560,661326,0
2096921,2096921,159487,661099,0
2096921,2096921,159558,661113,0
2096921,2096921,160091,661520,0
2096921,2096921,159836,661379,0
2096921,2096921,159850,661415,0
2096921,2096921,159815,661470,0
2096921,2096921,159549,661456,0
2096921,2096921,160022,661625,0
2096921,2096921,160014,661766,0
2096921,2096921,159986,661920,0
2096921,2096921,159909,661666,0
2096921,2096921,159905,661520,0
2096921,2096921,159885,662085,0
2096921,2096921,160271,662040,0
2096921,2096921,159795,661826,0
2096921,2096921,159783,661727,0
2096921,2096921,159920,661806,0
2096921,2096921,160140,661879,0
2096921,2096921,159855,662213,0
2096921,2096921,159842,662237,0
2096921,2096921,160006,662132,0
2096921,2096921,160253,662238,0
2096921,2096921,160209,662178,0
2096921,2096921,160041,662360,0
2096921,2096921,159883,662001,0
2096921,2096921,160073,662462,0
2096921,2096921,160031,662394,0
2096921,2096921,160006,662635,0
2096921,2096921,160071,662814,0
2096921,2096921,160218,662499,0
2096921,2096921,160286,662712,0
2096921,2096921,160223,662449,0
2096921,2096921,160172,662679,0
2096921,2096921,160268,662636,0
2096921,2096921,160316,662946,0
2096921,2096921,160400,662850,0
2096921,2096921,160354,663164,0
2096921,2096921,160643,663049,0
2096921,2096921,160484,663055,0
2096921,2096921,160560,663085,0
2096921,2096921,160346,663130,0
2096921,2096921,160543,663153,0
2096921,2096921,160811,663298,0
2096921,2096921,160774,663379,0
2096921,2096921,160542,663229,0
2096921,2096921,160723,663332,0
2096921,2096921,160440,663314,0
2096921,2096921,160498,663401,0
2096921,2096921,160631,663609,0
2096921,2096921,160692,663766,0
2096921,2096921,160589,663791,0
2096921,2096921,160635,663643,0
2096921,2096921,160476,663825,0
2096921,2096921,160614,663582,0
2096921,2096921,160736,663360,0
2096921,2096921,160780,663424,0
2096921,2096921,161023,663714,0
2096921,2096921,160959,664012,0
2096921,2096921,160954,664298,0
2096921,2096921,161078,663906,0
2096921,2096921,160863,663959,0
2096921,2096921,160807,664095,0
2096921,2096921,160951,664228,0
2096921,2096921,160875,664243,0
2096921,2096921,160853,664356,0
2096921,2096921,160841,664340,0
2096921,2096921,161110,664345,0
2096921,2096921,161249,664263,0
2096921,2096921,160930,664398,0
2096921,2096921,160887,664680,0
2096921,2096921,160946,664473,0
2096921,2096921,161404,664541,0
2096921,2096921,161064,664618,0
2096921,2096921,161100,664726,0
2096921,2096921,161077,664857,0
2096921,2096921,161209,665152,0
2096921,2096921,161209,665011,0
2096921,2096921,161077,664832,0
2096921,2096921,161126,664833,0
2096921,2096921,161322,664960,0
2096921,2096921,161054,664901,0
2096921,2096921,161156,665262,0
2096921,2096921,161573,665511,0
2096921,2096921,161669,665468,0
2096921,2096921,161456,665548,0
2096921,2096921,161351,665735,0
2096921,2096921,161770,665455,0
2096921,2096921,161164,665456,0
2096921,2096921,161545,665654,0
2096921,2096921,161471,665622,0
2096921,2096921,161634,665672,0
2096921,2096921,161672,665854,0
2096921,2096921,161579,665886,0
2096921,2096921,161455,665630,0
2096921,2096921,161586,665821,0
2096921,2096921,161384,665742,0
2096921,2096921,161279,665750,0
2096921,2096921,161468,666064,0
2096921,2096921,161505,666213,0
2096921,2096921,161415,665833,0
2096921,2096921,161225,666224,0
2096921,2096921,161550,665947,0
2096921,2096921,161562,665941,0
2096921,2096921,161830,665971,0
2096921,2096921,161740,666117,0
2096921,2096921,161716,666141,0
2096921,2096921,161852,666031,0
2096921,2096921,161877,666565,0
2096921,2096921,161746,666574,0
2096921,2096921,161640,666476,0
2096921,2096921,161438,666544,0
2096921,2096921,162068,666656,0
2096921,2096921,161792,666658,0
2096921,2096921,161696,666737,0
2096921,2096921,161993,666992,0
2096921,2096921,162120,667008,0
2096921,2096921,161731,666840,0
2096921,2096921,161656,666859,0
2096921,2096921,161721,666899,0
2096921,2096921,161994,666662,0
2096921,2096921,162270,667024,0
2096921,2096921,162046,667070,0
2096921,2096921,162159,667197,0
2096921,2096921,162090,666918,0
2096921,2096921,161814,667120,0
2096921,2096921,161996,667202,0
2096921,2096921,161944,667373,0
2096921,2096921,162151,667095,0
2096921,2096921,162137,667252,0
2096921,2096921,162122,667289,0
2096921,2096921,161988,667418,0
2096921,2096921,162188,667540,0
2096921,2096921,162287,667541,0
2096921,2096921,162325,667616,0
2096921,2096921,162313,667489,0
2096921,2096921,162103,667789,0
2096921,2096921,162269,667761,0
2096921,2096921,162056,668066,0
2096921,2096921,162199,667909,0
2096921,2096921,162377,667915,0
2096921,2096921,162277,667772,0
2096921,2096921,162062,668065,0
2096921,2096921,162333,668220,0
2096921,2096921,162254,668101,0
2096921,2096921,162406,668170,0
2096921,2096921,162526,668173,0
2096921,2096921,162697,668309,0
2096921,2096921,163007,668521,0
2096921,2096921,162564,668504,0
2096921,2096921,162435,668447,0
2096921,2096921,162204,668687,0
2096921,2096921,162207,668486,0
2096921,2096921,162417,668705,0
2096921,2096921,162257,668744,0
2096921,2096921,162471,668792,0
2096921,2096921,162529,668803,0
2096921,2096921,162583,668854,0
2096921,2096921,162836,669159,0
2096921,2096921,162414,669184,0
2096921,2096921,162594,669099,0
2096921,2096921,162326,669129,0
2096921,2096921,162364,668975,0
2096921,2096921,162676,669131,0
2096921,2096921,162856,669038,0
2096921,2096921,162677,669099,0
2096921,2096921,162731,669486,0
2096921,2096921,162607,669153,0
2096921,2096921,162727,669331,0
2096921,2096921,162823,669411,0
2096921,2096921,162736,669652,0
2096921,2096921,162779,669621,0
2096921,2096921,162795,669663,0
2096921,2096921,162910,669799,0
2096921,2096921,162995,669917,0
2096921,2096921,162834,669945,0
2096921,2096921,162713,669690,0
2096921,2096921,162883,669794,0
2096921,2096921,162989,670260,0
2096921,2096921,163111,670341,0
2096921,2096921,163281,670215,0
2096921,2096921,163093,670266,0
2096921,2096921,163196,670246,0
2096921,2096921,162789,670540,0
2096921,2096921,162779,670472,0
2096921,2096921,162679,670412,0
2096921,2096921,163146,670430,0
2096921,2096921,163130,670351,0
2096921,2096921,163390,670685,0
2096921,2096921,163106,671037,0
2096921,2096921,163229,670899,0
2096921,2096921,162967,671013,0
2096921,2096921,163261,670846,0
2096921,2096921,163254,670518,0
2096921,2096921,163203,671206,0
2096921,2096921,163050,671034,0
2096921,2096921,163276,670994,0
2096921,2096921,163307,671083,0
2096921,2096921,163180,671689,0
2096921,2096921,163519,671745,0
2096921,2096921,162922,671719,0
2096921,2096921,163388,671428,0
2096921,2096921,163318,671687,0
2096921,2096921,163215,671786,0
2096921,2096921,163364,671654,0
2096921,2096921,163327,671858,0
2096921,2096921,163675,671917,0
2096921,2096921,163540,671741,0
2096921,2096921,163724,671997,0
2096921,2096921,163398,672216,0
2096921,2096921,163613,672163,0
2096921,2096921,163527,672033,0
2096921,2096921,163279,671926,0
2096921,2096921,163322,672326,0
2096921,2096921,163838,672532,0
2096921,2096921,163411,672472,0
2096921,2096921,163707,672388,0
2096921,2096921,163505,672183,0
2096921,2096921,163690,672770,0
2096921,2096921,163511,672493,0
2096921,2096921,163381,672624,0
2096921,2096921,163391,672523,0
2096921,2096921,163509,672461,0
2096921,2096921,163660,672820,0
2096921,2096921,163907,673311,0
2096921,2096921,163682,672915,0
2096921,2096921,163848,673179,0
2096921,2096921,164019,672964,0
2096921,2096921,163911,673304,0
2096921,2096921,164024,673362,0
2096921,2096921,163702,673292,0
2096921,2096921,163779,673237,0
2096921,2096921,163777,673429,0
2096921,2096921,164025,673484,0
2096921,2096921,164175,673379,0
2096921,2096921,163894,673571,0
2096921,2096921,164130,673327,0
2096921,2096921,163895,673515,0
2096921,2096921,164017,673837,0
2096921,2096921,163825,673994,0
2096921,2096921,164125,674013,0
2096921,2096921,164184,674041,0
2096921,2096921,164001,673761,0
2096921,2096921,163773,673966,0
2096921,2096921,163998,673986,0
2096921,2096921,163880,674122,0
2096921,2096921,163846,673989,0
2096921,2096921,163869,674149,0
2096921,2096921,164076,674431,0
2096921,2096921,164141,674272,0
2096921,2096921,164158,674705,0
2096921,2096921,163998,674503,0
2096921,2096921,164058,674551,0
2096921,2096921,164245,674643,0
2096921,2096921,164274,674764,0
2096921,2096921,164031,674516,0
2096921,2096921,164081,674619,0
2096921,2096921,164304,674690,0
2096921,2096921,164311,675002,0
2096921,2096921,164104,675047,0
2096921,2096921,164366,675297,0
2096921,2096921,164133,674956,0
2096921,2096921,163992,674776,0
2096921,2096921,164190,675015,0
2096921,2096921,164249,674848,0
2096921,2096921,164304,675220,0
2096921,2096921,164439,675004,0
2096921,2096921,164171,675382,0
2096921,2096921,164081,675114,0
2096921,2096921,163950,675056,0
2096921,2096921,164287,674998,0
2096921,2096921,163922,674819,0
2096921,2096921,163932,674994,0
2096921,2096921,164013,674994,0
2096921,2096921,164136,675033,0
2096921,2096921,164129,674833,0
2096921,2096921,164004,674986,0
2096921,2096921,163632,674929,0
2096921,2096921,163462,674622,0
2096921,2096921,163627,674302,0
2096921,2096921,163633,674425,0
2096921,2096921,163735,674437,0
2096921,2096921,163459,674228,0
2096921,2096921,163704,673858,0
2096921,2096921,163380,674120,0
2096921,2096921,163561,673917,0
2096921,2096921,163364,673872,0
2096921,2096921,163066,673765,0
2096921,2096921,162794,672869,0
2096921,2096921,162842,672495,0
2096921,2096921,163138,672656,0
2096921,2096921,163237,672523,0
2096921,2096921,161984,672417,0
2096921,2096921,161640,670941,0
2096921,2096921,161685,670436,0
2096921,2096921,162043,670531,0
2096921,2096921,161889,670836,0
2096921,2096921,161491,670675,0
2096921,2096921,161332,669692,0
2096921,2096921,160997,669280,0
2096921,2096921,160955,669215,0
2096921,2096921,161275,669251,0
2096921,2096921,160918,669466,0
2096921,2096921,160756,668476,0
2096921,2096921,160731,668434,0
2096921,2096921,160501,668391,0
2096921,2096921,160673,668466,0
2096921,2096921,160452,668350,0
2096921,2096921,160213,667885,0
2096921,2096921,160467,667769,0
2096921,2096921,160504,667732,0
2096921,2096921,160524,667425,0
2096921,2096921,160269,667624,0
2096921,2096921,160381,667094,0
2096921,2096921,160511,667353,0
2096921,2096921,160484,667410,0
2096921,2096921,160382,667537,0
2096921,2096921,160124,667490,0
2096921,2096921,160273,667480,0
2096921,2096921,160140,667573,0
2096921,2096921,160026,667486,0
2096921,2096921,160156,667353,0
2096921,2096921,160194,667315,0
2096921,2096921,160067,667298,0
2096921,2096921,159906,667404,0
2096921,2096921,159748,667437,0
2096921,2096921,160114,667386,0
2096921,2096921,159876,667616,0
2096921,2096921,160148,667911,0
2096921,2096921,160128,667725,0
2096921,2096921,160222,667646,0
2096921,2096921,159951,667563,0
2096921,2096921,160212,667717,0
2096921,2096921,160226,668042,0
2096921,2096921,160230,668227,0
2096921,2096921,160159,668188,0
2096921,2096921,160343,668145,0
2096921,2096921,160334,667887,0
2096921,2096921,160149,668427,0
2096921,2096921,160349,668508,0
2096921,2096921,160067,668738,0
2096921,2096921,160434,668633,0
2096921,2096921,160519,668532,0
2096921,2096921,160734,668963,0
2096921,2096921,160366,668894,0
2096921,2096921,160457,668895,0
2096921,2096921,160463,668995,0
2096921,2096921,160481,669069,0
2096921,2096921,160683,669457,0
2096921,2096921,160668,669342,0
2096921,2096921,160771,669397,0
2096921,2096921,160673,669556,0
2096921,2096921,160765,669410,0
2096921,2096921,160760,669957,0
2096921,2096921,161030,669681,0
2096921,2096921,160914,669829,0
2096921,2096921,160872,669999,0
2096921,2096921,160856,670068,0
2096921,2096921,161364,670756,0
2096921,2096921,161128,670841,0
2096921,2096921,161119,670588,0
2096921,2096921,160924,670533,0
2096921,2096921,161191,670672,0
2096921,2096921,161398,671290,0
2096921,2096921,161264,671645,0
2096921,2096921,161253,671495,0
2096921,2096921,161107,671635,0
2096921,2096921,161571,671356,0
2096921,2096921,161497,672143,0
2096921,2096921,161660,672194,0
2096921,2096921,161450,672231,0
2096921,2096921,161607,672169,0
2096921,2096921,161813,672192,0
2096921,2096921,161850,672839,0
2096921,2096921,161502,673092,0
2096921,2096921,162000,673087,0
2096921,2096921,162097,673248,0
2096921,2096921,162264,673178,0
2096921,2096921,162061,673551,0
2096921,2096921,161958,673645,0
2096921,2096921,162332,673696,0
2096921,2096921,162088,673608,0
2096921,2096921,162234,673477,0
2096921,2096921,162106,674419,0
2096921,2096921,162499,674176,0
2096921,2096921,162312,674205,0
2096921,2096921,162439,674467,0
2096921,2096921,162426,674347,0
2096921,2096921,162562,674592,0
2096921,2096921,162503,675034,0
2096921,2096921,162441,675092,0
2096921,2096921,162952,674953,0
2096921,2096921,162631,675193,0
2096921,2096921,162681,675607,0
2096921,2096921,162921,675749,0
2096921,2096921,162992,675826,0
2096921,2096921,162784,675644,0
2096921,2096921,163206,675887,0
2096921,2096921,163186,676501,0
2096921,2096921,163275,676487,0
2096921,2096921,163515,676520,0
2096921,2096921,163301,676963,0
2096921,2096921,163332,676485,0
2096921,2096921,163548,676856,0
2096921,2096921,163221,677132,0
2096921,2096921,163374,677269,0
2096921,2096921,163467,677318,0
2096921,2096921,163751,677511,0
2096921,2096921,164153,678007,0
2096921,2096921,163630,678214,0
2096921,2096921,163802,678219,0
2096921,2096921,163722,677991,0
2096921,2096921,164045,678085,0
2096921,2096921,164000,678515,0
2096921,2096921,164152,678486,0
2096921,2096921,163876,678788,0
2096921,2096921,164207,678482,0
2096921,2096921,164045,678527,0
2096921,2096921,164147,679186,0
2096921,2096921,164161,678999,0
2096921,2096921,164152,679449,0
2096921,2096921,164007,679270,0
2096921,2096921,164369,679286,0
2096921,2096921,164177,679576,0
2096921,2096921,164090,679714,0
2096921,2096921,164261,679823,0
2096921,2096921,164294,679704,0
2096921,2096921,164694,679834,0
2096921,2096921,164512,680382,0
2096921,2096921,164426,680167,0
2096921,2096921,164352,680013,0
2096921,2096921,164528,680205,0
2096921,2096921,164436,680085,0
2096921,2096921,164522,680742,0
2096921,2096921,164607,680805,0
2096921,2096921,164707,680801,0
2096921,2096921,164538,680862,0
2096921,2096921,164299,680831,0
2096921,2096921,164819,680838,0
2096921,2096921,164690,680764,0
2096921,2096921,164875,680900,0
2096921,2096921,164809,680613,0
2096921,2096921,164876,681084,0
2096921,2096921,164681,681260,0
2096921,2096921,164798,681528,0
2096921,2096921,164644,680999,0
2096921,2096921,164613,681378,0
2096921,2096921,164715,681444,0
2096921,2096921,164794,681532,0
2096921,2096921,164629,681687,0
2096921,2096921,164614,681825,0
2096921,2096921,164647,681538,0
2096921,2096921,164760,681535,0
2096921,2096921,164597,681535,0
2096921,2096921,164588,681614,0
2096921,2096921,164662,681564,0
2096921,2096921,164749,681720,0
2096921,2096921,164705,681478,0
2096921,2096921,164828,681872,0
2096921,2096921,164733,681932,0
2096921,2096921,165026,681707,0
2096921,2096921,164590,681803,0
2096921,2096921,164699,681334,0
2096921,2096921,164722,681897,0
2096921,2096921,164777,681999,0
2096921,2096921,164505,681876,0
2096921,2096921,164750,682100,0
2096921,2096921,164764,682165,0
2096921,2096921,164855,682094,0
2096921,2096921,164980,682216,0
2096921,2096921,165052,682254,0
2096921,2096921,164693,682195,0
2096921,2096921,164887,681906,0
2096921,2096921,164845,682100,0
2096921,2096921,165029,682238,0
2096921,2096921,164983,682263,0
2096921,2096921,165039,682341,0
2096921,2096921,164750,682644,0
2096921,2096921,164732,682894,0
2096921,2096921,165133,682870,0
2096921,2096921,164998,682957,0
2096921,2096921,164828,682728,0
2096921,2096921,164864,682684,0
2096921,2096921,164944,683007,0
2096921,2096921,165004,683055,0
2096921,2096921,165127,683138,0
2096921,2096921,165126,683100,0
2096921,2096921,165386,682695,0
2096921,2096921,165227,683106,0
2096921,2096921,165204,683494,0
2096921,2096921,165427,683180,0
2096921,2096921,165255,683388,0
2096921,2096921,165330,683444,0
2096921,2096921,165067,683645,0
2096921,2096921,165297,684077,0
2096921,2096921,165525,683566,0
2096921,2096921,165046,683600,0
2096921,2096921,165030,683786,0
2096921,2096921,165509,684074,0
2096921,2096921,165161,684080,0
2096921,2096921,165670,684448,0
2096921,2096921,165433,684242,0
2096921,2096921,165554,684291,0
2096921,2096921,165635,684581,0
2096921,2096921,165892,684716,0
2096921,2096921,165497,684458,0
2096921,2096921,165509,684668,0
2096921,2096921,165772,684917,0
2096921,2096921,165783,685261,0
2096921,2096921,165946,685634,0
2096921,2096921,165807,685825,0
2096921,2096921,165758,685603,0
2096921,2096921,165757,685363,0
2096921,2096921,165789,685890,0
2096921,2096921,165979,685833,0
2096921,2096921,165933,685607,0
2096921,2096921,166064,685684,0
2096921,2096921,166159,685935,0
2096921,2096921,166365,686368,0
2096921,2096921,166098,686284,0
2096921,2096921,166266,686335,0
2096921,2096921,165602,686716,0
2096921,2096921,166131,686158,0
2096921,2096921,166224,686754,0
2096921,2096921,166332,686783,0
2096921,2096921,166468,686562,0
2096921,2096921,166335,686591,0
2096921,2096921,166269,686945,0
2096921,2096921,166411,687238,0
2096921,2096921,166406,686970,0
2096921,2096921,166498,686902,0
2096921,2096921,166376,686989,0
2096921,2096921,166379,687095,0
2096921,2096921,166378,687376,0
2096921,2096921,166731,687519,0
2096921,2096921,166655,687302,0
2096921,2096921,166565,687709,0
2096921,2096921,166929,687727,0
2096921,2096921,166621,688222,0
2096921,2096921,166612,688012,0
2096921,2096921,166645,688032,0
2096921,2096921,166797,688026,0
2096921,2096921,166913,687835,0
2096921,2096921,167056,688416,0
2096921,2096921,166991,688464,0
2096921,2096921,167083,688660,0
2096921,2096921,166747,688704,0
2096921,2096921,166752,688371,0
2096921,2096921,167044,688687,0
2096921,2096921,166929,688749,0
2096921,2096921,167164,688790,0
2096921,2096921,167150,688600,0
2096921,2096921,167304,688910,0
2096921,2096921,167097,688968,0
2096921,2096921,167493,689114,0
2096921,2096921,167168,689069,0
2096921,2096921,167358,689141,0
2096921,2096921,167432,689172,0
2096921,2096921,167191,689370,0
2096921,2096921,167718,689689,0
2096921,2096921,167188,689585,0
2096921,2096921,167258,689448,0
2096921,2096921,167278,689633,0
2096921,2096921,167067,689994,0
2096921,2096921,167019,689812,0
2096921,2096921,167325,689624,0
2096921,2096921,167248,689834,0
2096921,2096921,167512,689497,0
2096921,2096921,167515,690013,0
2096921,2096921,167890,690406,0
2096921,2096921,167678,690590,0
2096921,2096921,167454,690399,0
2096921,2096921,167692,690257,0
2096921,2096921,167668,690822,0
2096921,2096921,167587,690659,0
2096921,2096921,167681,690822,0
2096921,2096921,167486,690584,0
2096921,2096921,167875,690672,0
2096921,2096921,167813,691185,0
2096921,2096921,167844,691210,0
2096921,2096921,167609,691084,0
2096921,2096921,167461,691212,0
2096921,2096921,167694,690890,0
2096921,2096921,167846,691295,0
2096921,2096921,168091,691117,0
2096921,2096921,168037,691073,0
2096921,2096921,167975,691348,0
2096921,2096921,168289,691595,0
2096921,2096921,168023,691474,0
2096921,2096921,168187,691683,0
2096921,2096921,167907,691499,0
2096921,2096921,167949,691260,0
2096921,2096921,168155,691639,0
2096921,2096921,168186,691980,0
2096921,2096921,168075,692145,0
2096921,2096921,168297,691908,0
2096921,2096921,168117,691669,0
2096921,2096921,168375,691844,0
2096921,2096921,168282,692025,0
2096921,2096921,168246,692193,0
2096921,2096921,168108,692296,0
2096921,2096921,168220,692222,0
2096921,2096921,168209,692187,0
2096921,2096921,168589,692155,0
2096921,2096921,168402,692297,0
2096921,2096921,167975,692260,0
2096921,2096921,168073,692177,0
2096921,2096921,168301,692331,0
2096921,2096921,168599,692557,0
2096921,2096921,168504,692725,0
2096921,2096921,168339,692402,0
2096921,2096921,168329,692342,0
2096921,2096921,168202,692588,0
2096921,2096921,168171,692895,0
2096921,2096921,168420,692964,0
2096921,2096921,168278,692703,0
2096921,2096921,168749,692918,0
2096921,2096921,168765,693025,0
2096921,2096921,168650,692906,0
2096921,2096921,168622,692981,0
2096921,2096921,168626,693114,0
2096921,2096921,168447,693208,0
2096921,2096921,168550,693220,0
2096921,2096921,168445,693254,0
2096921,2096921,168473,693260,0
2096921,2096921,168585,693391,0
2096921,2096921,168757,693708,0
2096921,2096921,168757,693753,0
2096921,2096921,168640,693577,0
2096921,2096921,168779,693356,0
2096921,2096921,168470,693346,0
2096921,2096921,168425,693147,0
2096921,2096921,168552,693283,0
2096921,2096921,168861,693291,0
2096921,2096921,168838,693429,0
2096921,2096921,168651,693595,0
2096921,2096921,168775,693114,0
2096921,2096921,168745,693317,0
2096921,2096921,168774,693498,0
2096921,2096921,168790,693369,0
2096921,2096921,168681,693550,0
2096921,2096921,168616,693513,0
2096921,2096921,168640,693752,0
2096921,2096921,168838,693776,0
2096921,2096921,168889,693808,0
2096921,2096921,168992,693957,0
2096921,2096921,168845,693917,0
2096921,2096921,168613,693911,0
2096921,2096921,168771,694011,0
2096921,2096921,168768,693821,0
2096921,2096921,168573,693622,0
2096921,2096921,168484,693455,0
2096921,2096921,168926,693887,0
2096921,2096921,169304,693903,0
2096921,2096921,168977,694277,0
2096921,2096921,169023,694099,0
2096921,2096921,168780,694140,0
2096921,2096921,168912,693757,0
2096921,2096921,168936,693882,0
2096921,2096921,168820,693928,0
2096921,2096921,168993,693927,0
2096921,2096921,169165,694286,0
2096921,2096921,168891,694381,0
2096921,2096921,169102,694100,0
2096921,2096921,169057,694063,0
2096921,2096921,168840,693986,0
2096921,2096921,168933,694009,0
2096921,2096921,168586,694217,0
2096921,2096921,168615,694051,0
2096921,2096921,168954,694300,0
2096921,2096921,168762,694265,0
2096921,2096921,168881,694241,0
2096921,2096921,168800,694245,0
2096921,2096921,168964,694099,0
2096921,2096921,169043,693941,0
2096921,2096921,168996,694030,0
2096921,2096921,168831,694496,0
2096921,2096921,169041,694406,0
2096921,2096921,169223,694866,0
2096921,2096921,169110,694435,0
2096921,2096921,169185,694138,0
2096921,2096921,169176,694407,0
2096921,2096921,168974,694200,0
2096921,2096921,168980,694246,0
2096921,2096921,169080,694400,0
2096921,2096921,169218,694341,0
2096921,2096921,169083,694625,0
2096921,2096921,169439,694512,0
2096921,2096921,169341,694557,0
2096921,2096921,169220,694301,0
2096921,2096921,168909,694656,0
2096921,2096921,168827,694403,0
2096921,2096921,169017,694276,0
2096921,2096921,169131,694450,0
2096921,2096921,169045,694570,0
2096921,2096921,169036,694861,0
2096921,2096921,169294,694842,0
2096921,2096921,169209,694730,0
2096921,2096921,169238,694507,0
2096921,2096921,169229,694485,0
2096921,2096921,169097,694721,0
2096921,2096921,169380,694661,0
2096921,2096921,169208,694685,0
2096921,2096921,169337,694441,0
2096921,2096921,169522,694494,0
2096921,2096921,169145,694411,0
2096921,2096921,169067,694549,0
2096921,2096921,169129,694609,0
2096921,2096921,169227,694943,0
2096921,2096921,169145,694659,0
2096921,2096921,169146,694594,0
2096921,2096921,169428,694808,0
2096921,2096921,169028,694590,0
2096921,2096921,169245,694537,0
2096921,2096921,169431,694844,0
2096921,2096921,169236,694768,0
2096921,2096921,169467,695099,0
2096921,2096921,169233,694898,0
2096921,2096921,169108,694953,0
2096921,2096921,169165,694792,0
2096921,2096921,169262,694741,0
2096921,2096921,169278,694747,0
2096921,2096921,169141,694991,0
2096921,2096921,169571,694942,0
2096921,2096921,169360,694936,0
2096921,2096921,169182,695032,0
2096921,2096921,169298,694977,0
2096921,2096921,169315,694743,0
2096921,2096921,169407,694790,0
2096921,2096921,169369,694899,0
2096921,2096921,169081,694527,0
2096921,2096921,168921,694470,0
2096921,2096921,169004,694536,0
2096921,2096921,169068,694890,0
2096921,2096921,169302,694772,0
2096921,2096921,168981,694620,0
2096921,2096921,169127,694895,0
2096921,2096921,169184,694660,0
2096921,2096921,169353,694915,0
2096921,2096921,169394,694720,0
2096921,2096921,169260,694434,0
2096921,2096921,169522,694666,0
2096921,2096921,169232,694837,0
2096921,2096921,169368,694797,0
2096921,2096921,169058,694809,0
2096921,2096921,169178,694285,0
2096921,2096921,169268,694560,0
2096921,2096921,169311,694888,0
2096921,2096921,169118,694974,0
2096921,2096921,169374,694780,0
2096921,2096921,169170,694806,0
2096921,2096921,169009,694858,0
2096921,2096921,169400,694861,0
2096921,2096921,169346,694733,0
2096921,2096921,169457,694787,0
2096921,2096921,169233,694687,0
2096921,2096921,169102,694725,0
2096921,2096921,169165,694778,0
2096921,2096921,169436,694773,0
2096921,2096921,169053,694695,0
2096921,2096921,169232,694798,0
2096921,2096921,169165,694616,0
2096921,2096921,169081,694580,0
2096921,2096921,169515,694346,0
2096921,2096921,168966,694701,0
2096921,2096921,168987,694177,0
2096921,2096921,168708,694522,0
2096921,2096921,168961,694422,0
2096921,2096921,168788,693991,0
2096921,2096921,169284,694162,0
2096921,2096921,168877,694126,0
2096921,2096921,168887,693917,0
2096921,2096921,168736,694147,0
2096921,2096921,168699,693387,0
2096921,2096921,168472,693573,0
2096921,2096921,168463,693510,0
2096921,2096921,168564,693556,0
2096921,2096921,168465,693659,0
2096921,2096921,168452,693230,0
2096921,2096921,168321,693010,0
2096921,2096921,168343,692790,0
2096921,2096921,168332,692577,0
2096921,2096921,168194,692481,0
2096921,2096921,168102,691922,0
2096921,2096921,167983,691920,0
2096921,2096921,167873,692037,0
2096921,2096921,167983,691931,0
2096921,2096921,167389,691915,0
2096921,2096921,167215,690241,0
2096921,2096921,167189,690118,0
2096921,2096921,167555,690051,0
2096921,2096921,167283,690454,0
2096921,2096921,166419,690221,0
2096921,2096921,166120,688228,0
2096921,2096921,166165,687594,0
2096921,2096921,165969,687540,0
2096921,2096921,166052,687836,0
2096921,2096921,165694,687643,0
2096921,2096921,165397,686586,0
2096921,2096921,165538,686121,0
2096921,2096921,165511,686242,0
2096921,2096921,165395,686181,0
2096921,2096921,164852,686198,0
2096921,2096921,164823,685008,0
2096921,2096921,164701,684885,0
2096921,2096921,164992,684957,0
2096921,2096921,164983,684826,0
2096921,2096921,164633,684758,0
2096921,2096921,164715,683905,0
2096921,2096921,164609,684101,0
2096921,2096921,164388,683749,0
2096921,2096921,164382,683670,0
2096921,2096921,164101,683515,0
2096921,2096921,164169,682973,0
2096921,2096921,164201,682990,0
2096921,2096921,164463,682905,0
2096921,2096921,164222,682921,0
2096921,2096921,164068,683251,0
2096921,2096921,164040,682731,0
2096921,2096921,163870,682732,0
2096921,2096921,164068,682336,0
2096921,2096921,163879,682563,0
2096921,2096921,163761,682685,0
2096921,2096921,163899,682045,0
2096921,2096921,163575,682026,0
2096921,2096921,163748,681988,0
2096921,2096921,163733,682032,0
2096921,2096921,163755,682008,0
2096921,2096921,163579,681892,0
2096921,2096921,163961,682143,0
2096921,2096921,164076,682302,0
2096921,2096921,163656,682019,0
2096921,2096921,163685,682197,0
2096921,2096921,163792,682034,0
2096921,2096921,163912,681847,0
2096921,2096921,163823,681954,0
2096921,2096921,163512,682010,0
2096921,2096921,163672,682171,0
2096921,2096921,163644,682116,0
2096921,2096921,163924,682326,0
2096921,2096921,163876,682005,0
2096921,2096921,163770,681806,0
2096921,2096921,163540,681875,0
2096921,2096921,163609,681882,0
2096921,2096921,163801,682007,0
2096921,2096921,163878,682039,0
2096921,2096921,163977,682355,0
2096921,2096921,163953,681947,0
2096921,2096921,163802,682062,0
2096921,2096921,163448,682111,0
2096921,2096921,163482,682169,0
2096921,2096921,163885,682001,0
2096921,2096921,163709,682148,0
2096921,2096921,164202,682366,0
2096921,2096921,163883,682200,0
2096921,2096921,164420,682392,0
2096921,2096921,164060,682298,0
2096921,2096921,163987,682309,0
2096921,2096921,163746,682631,0
2096921,2096921,164184,682694,0
2096921,2096921,164347,682510,0
2096921,2096921,164350,682725,0
2096921,2096921,164521,682724,0
2096921,2096921,164367,683087,0
2096921,2096921,164510,682901,0
2096921,2096921,164168,682919,0
2096921,2096921,164405,682759,0
2096921,2096921,164170,682876,0
2096921,2096921,164375,683101,0
2096921,2096921,164289,683098,0
2096921,2096921,164295,683149,0
2096921,2096921,164324,683204,0
2096921,2096921,164543,683043,0
2096921,2096921,164546,683139,0
2096921,2096921,164361,683125,0
2096921,2096921,164609,683144,0
2096921,2096921,164587,683297,0
2096921,2096921,164599,683399,0
2096921,2096921,164968,683734,0
2096921,2096921,164847,683565,0
2096921,2096921,164844,683991,0
2096921,2096921,164715,683489,0
2096921,2096921,164612,683449,0
2096921,2096921,164772,683484,0
2096921,2096921,164764,683609,0
2096921,2096921,164796,683669,0
2096921,2096921,164775,683783,0
2096921,2096921,165167,683656,0
2096921,2096921,165239,683735,0
2096921,2096921,165072,684038,0
2096921,2096921,164875,683663,0
2096921,2096921,164751,684167,0
2096921,2096921,164960,684010,0
2096921,2096921,164956,684605,0
2096921,2096921,164985,684122,0
2096921,2096921,164919,684283,0
2096921,2096921,165089,684131,0
2096921,2096921,165040,684374,0
2096921,2096921,164962,684206,0
2096921,2096921,165309,684556,0
2096921,2096921,165195,684505,0
2096921,2096921,164863,684431,0
2096921,2096921,165230,684268,0
2096921,2096921,165512,684705,0
2096921,2096921,165386,684797,0
2096921,2096921,165396,684758,0
2096921,2096921,165386,684608,0
2096921,2096921,165290,684462,0
2096921,2096921,165537,684769,0
2096921,2096921,165503,684895,0
2096921,2096921,165133,684954,0
2096921,2096921,165318,685076,0
2096921,2096921,165591,684935,0
2096921,2096921,165491,684934,0
2096921,2096921,165305,684888,0
2096921,2096921,165370,684901,0
2096921,2096921,165128,684744,0
2096921,2096921,165459,684909,0
2096921,2096921,165680,685004,0
2096921,2096921,165804,685333,0
2096921,2096921,165594,684863,0
2096921,2096921,165254,685244,0
2096921,2096921,165415,685061,0
2096921,2096921,165318,685240,0
2096921,2096921,165735,685390,0
2096921,2096921,165564,685312,0
2096921,2096921,165977,685172,0
2096921,2096921,165565,685052,0
2096921,2096921,165616,685372,0
2096921,2096921,165555,685037,0
2096921,2096921,165537,684908,0
2096921,2096921,165413,684939,0
2096921,2096921,165671,684889,0
2096921,2096921,165645,684837,0
2096921,2096921,165684,684520,0
2096921,2096921,165681,684897,0
2096921,2096921,165883,684873,0
2096921,2096921,165664,684470,0
2096921,2096921,165526,684670,0
2096921,2096921,165525,684852,0
2096921,2096921,165463,684490,0
2096921,2096921,165494,684537,0
2096921,2096921,165511,684646,0
2096921,2096921,165623,684448,0
2096921,2096921,165435,684347,0
2096921,2096921,165524,684393,0
2096921,2096921,165455,684554,0
2096921,2096921,165348,684308,0
2096921,2096921,165224,684107,0
2096921,2096921,165155,683849,0
2096921,2096921,165543,683763,0
2096921,2096921,165374,683948,0
2096921,2096921,165438,683885,0
2096921,2096921,165341,684210,0
2096921,2096921,165238,684351,0
2096921,2096921,165213,683908,0
2096921,2096921,165186,683910,0
2096921,2096921,165203,683876,0
2096921,2096921,165230,683679,0
2096921,2096921,164906,683343,0
2096921,2096921,164943,683473,0
2096921,2096921,165088,683427,0
2096921,2096921,165128,683538,0
2096921,2096921,165241,683152,0
2096921,2096921,165131,683152,0
2096921,2096921,165037,682987,0
2096921,2096921,165128,682899,0
2096921,2096921,164906,682935,0
2096921,2096921,164838,682386,0
2096921,2096921,164963,682677,0
2096921,2096921,164818,682580,0
2096921,2096921,165126,682493,0
2096921,2096921,164869,682769,0
2096921,2096921,164815,682446,0
2096921,2096921,164639,681960,0
2096921,2096921,164899,682316,0
2096921,2096921,164972,682145,0
2096921,2096921,165002,682475,0
2096921,2096921,164708,682497,0
2096921,2096921,164811,682133,0
2096921,2096921,165080,682127,0
2096921,2096921,164885,682122,0
2096921,2096921,164457,682217,0
2096921,2096921,164540,681932,0
2096921,2096921,164776,681915,0
2096921,2096921,164590,681723,0
2096921,2096921,165118,682096,0
2096921,2096921,164659,682122,0
2096921,2096921,164990,681887,0
2096921,2096921,164997,681848,0
2096921,2096921,164656,681656,0
2096921,2096921,164531,681674,0
2096921,2096921,164423,681824,0
2096921,2096921,164553,681561,0
2096921,2096921,164830,681685,0
2096921,2096921,164697,681725,0
2096921,2096921,164869,682035,0
2096921,2096921,164782,681660,0
2096921,2096921,164913,681716,0
2096921,2096921,164757,681537,0
2096921,2096921,164838,681527,0
2096921,2096921,164833,681360,0
2096921,2096921,164608,681503,0
2096921,2096921,164714,681595,0
2096921,2096921,164852,681631,0
2096921,2096921,164870,681620,0
2096921,2096921,164821,681409,0
2096921,2096921,164499,681527,0
2096921,2096921,164664,681721,0
2096921,2096921,164559,681673,0
2096921,2096921,164831,681442,0
2096921,2096921,164897,681612,0
2096921,2096921,164750,681395,0
2096921,2096921,164861,681564,0
2096921,2096921,164828,681518,0
2096921,2096921,164785,681387,0
2096921,2096921,165147,681422,0
2096921,2096921,164949,681465,0
2096921,2096921,164831,681479,0
2096921,2096921,164730,681371,0
2096921,2096921,164872,681459,0
2096921,2096921,165013,681350,0
2096921,2096921,164895,681369,0
2096921,2096921,164950,681566,0
2096921,2096921,164494,681360,0
2096921,2096921,164842,681104,0
2096921,2096921,165045,681146,0
2096921,2096921,165054,681081,0
2096921,2096921,164990,681192,0
2096921,2096921,165253,681234,0
2096921,2096921,164964,681124,0
2096921,2096921,164803,681154,0
2096921,2096921,165093,681241,0
2096921,2096921,165051,681328,0
2096921,2096921,165069,680859,0
2096921,2096921,165016,681160,0
2096921,2096921,165191,680928,0
2096921,2096921,165323,681192,0
2096921,2096921,165171,681061,0
2096921,2096921,164961,680942,0
2096921,2096921,165145,680984,0
2096921,2096921,164814,681308,0
2096921,2096921,165062,681028,0
2096921,2096921,165067,680802,0
2096921,2096921,164944,680909,0
2096921,2096921,164960,680611,0
2096921,2096921,165132,681025,0
2096921,2096921,165025,680960,0
2096921,2096921,165155,681060,0
2096921,2096921,165047,680760,0
2096921,2096921,164989,680658,0
2096921,2096921,164865,680922,0
2096921,2096921,164852,680998,0
2096921,2096921,164918,680662,0
2096921,2096921,164979,680560,0
2096921,2096921,165213,680591,0
2096921,2096921,164966,680840,0
2096921,2096921,165020,680542,0
2096921,2096921,165184,680224,0
2096921,2096921,164944,680504,0
2096921,2096921,164953,680362,0
2096921,2096921,164824,680402,0
2096921,2096921,164964,680381,0
2096921,2096921,164931,680497,0
2096921,2096921,164860,680275,0
2096921,2096921,165040,680415,0
2096921,2096921,165148,680186,0
2096921,2096921,164933,680491,0
2096921,2096921,165166,680392,0
2096921,2096921,164823,680140,0
2096921,2096921,165355,680071,0
2096921,2096921,165223,680163,0
2096921,2096921,164862,679982,0
2096921,2096921,164971,679954,0
2096921,2096921,165203,679942,0
2096921,2096921,164834,680167,0
2096921,2096921,164920,680008,0
2096921,2096921,164896,680162,0
2096921,2096921,165113,679629,0
2096921,2096921,164933,679949,0
2096921,2096921,165120,679733,0
2096921,2096921,165004,679814,0
2096921,2096921,165124,679997,0
2096921,2096921,164842,679797,0
2096921,2096921,164578,679482,0
2096921,2096921,164631,679818,0
2096921,2096921,164717,679708,0
2096921,2096921,165031,679782,0
2096921,2096921,165298,679351,0
2096921,2096921,164927,679403,0
2096921,2096921,165087,679706,0
2096921,2096921,164867,679669,0
2096921,2096921,164795,679336,0
2096921,2096921,164701,679289,0
2096921,2096921,164661,679311,0
2096921,2096921,165113,679087,0
2096921,2096921,165217,679428,0
2096921,2096921,164858,679354,0
2096921,2096921,165092,679261,0
2096921,2096921,164576,678959,0
2096921,2096921,164875,678896,0
2096921,2096921,164863,678774,0
2096921,2096921,164568,678852,0
2096921,2096921,164768,678875,0
2096921,2096921,164981,678997,0
2096921,2096921,164841,679157,0
2096921,2096921,164629,679011,0
2096921,2096921,164986,678942,0
2096921,2096921,164556,678739,0
2096921,2096921,165191,678805,0
2096921,2096921,164694,679078,0
2096921,2096921,164933,678884,0
2096921,2096921,164948,678851,0
2096921,2096921,164692,678695,0
2096921,2096921,164663,678623,0
2096921,2096921,164840,678433,0
2096921,2096921,164885,678619,0
2096921,2096921,164912,678418,0
2096921,2096921,165072,678099,0
2096921,2096921,165257,678334,0
2096921,2096921,164877,678271,0
2096921,2096921,164919,678568,0
2096921,2096921,164706,678298,0
2096921,2096921,164812,678495,0
2096921,2096921,164885,677925,0
2096921,2096921,164812,678101,0
2096921,2096921,164850,677839,0
2096921,2096921,164638,678257,0
2096921,2096921,164936,678029,0
2096921,2096921,164538,678226,0
2096921,2096921,164787,677951,0
2096921,2096921,164847,677937,0
2096921,2096921,164539,677973,0
2096921,2096921,164597,677596,0
2096921,2096921,164596,677760,0
2096921,2096921,164836,677604,0
2096921,2096921,164961,677344,0
2096921,2096921,165047,677513,0
2096921,2096921,164727,677522,0
2096921,2096921,164963,677384,0
2096921,2096921,164487,677404,0
2096921,2096921,164528,677166,0
2096921,2096921,164535,677168,0
2096921,2096921,164543,676942,0
2096921,2096921,164492,677064,0
2096921,2096921,164793,676893,0
2096921,2096921,164539,676927,0
2096921,2096921,164368,677046,0
2096921,2096921,164660,677015,0
2096921,2096921,164485,676775,0
2096921,2096921,164675,676639,0
2096921,2096921,164581,676685,0
2096921,2096921,164614,676958,0
2096921,2096921,164234,676477,0
2096921,2096921,164528,676624,0
2096921,2096921,164323,676620,0
2096921,2096921,164292,676416,0
2096921,2096921,164454,676337,0
2096921,2096921,164427,676468,0
2096921,2096921,164243,676321,0
2096921,2096921,164767,676559,0
2096921,2096921,164579,676495,0
2096921,2096921,164505,676500,0
2096921,2096921,164352,676160,0
2096921,2096921,164378,675960,0
2096921,2096921,164115,676004,0
2096921,2096921,164288,675951,0
2096921,2096921,164659,676022,0
2096921,2096921,164262,676104,0
2096921,2096921,164260,676038,0
2096921,2096921,164204,675574,0
2096921,2096921,164196,675734,0
2096921,2096921,164196,675901,0
2096921,2096921,164043,675570,0
2096921,2096921,164151,675454,0
2096921,2096921,164117,675512,0
2096921,2096921,164104,675466,0
2096921,2096921,164235,675393,0
2096921,2096921,164279,675326,0
2096921,2096921,164244,675299,0
2096921,2096921,164134,675302,0
2096921,2096921,164033,675185,0
2096921,2096921,164332,675415,0
2096921,2096921,164324,675094,0
2096921,2096921,164301,675297,0
2096921,2096921,164033,675320,0
2096921,2096921,164449,674882,0
2096921,2096921,164036,675336,0
2096921,2096921,164291,674832,0
2096921,2096921,164244,674829,0
2096921,2096921,164062,674656,0
2096921,2096921,164250,674810,0
2096921,2096921,164121,675069,0
2096921,2096921,164154,674643,0
2096921,2096921,164046,674537,0
2096921,2096921,164147,674654,0
2096921,2096921,164004,674721,0
2096921,2096921,163991,674537,0
2096921,2096921,164096,674627,0
2096921,2096921,164219,674068,0
2096921,2096921,163846,674129,0
2096921,2096921,163905,674313,0
2096921,2096921,163957,674261,0
2096921,2096921,164009,674239,0
2096921,2096921,163704,674146,0
2096921,2096921,163876,673867,0
2096921,2096921,163669,673829,0
2096921,2096921,163758,673833,0
2096921,2096921,163873,674043,0
2096921,2096921,164236,673647,0
2096921,2096921,164210,674039,0
2096921,2096921,163992,673903,0
2096921,2096921,163855,673887,0
2096921,2096921,163875,673644,0
2096921,2096921,163777,673423,0
2096921,2096921,163793,673087,0
2096921,2096921,163881,673324,0
2096921,2096921,163652,673564,0
2096921,2096921,164066,673663,0
2096921,2096921,163774,673176,0
2096921,2096921,163673,673429,0
2096921,2096921,163718,673419,0
2096921,2096921,163783,673305,0
2096921,2096921,163623,673239,0
2096921,2096921,163336,672834,0
2096921,2096921,163777,673019,0
2096921,2096921,163825,672939,0
2096921,2096921,163933,672947,0
2096921,2096921,163616,672512,0
2096921,2096921,163702,672575,0
2096921,2096921,163702,672723,0
2096921,2096921,163530,672371,0
2096921,2096921,163592,672658,0
2096921,2096921,163324,672075,0
2096921,2096921,163681,672260,0
2096921,2096921,163444,672344,0
2096921,2096921,163397,672236,0
2096921,2096921,163263,672426,0
2096921,2096921,163203,672170,0
2096921,2096921,163529,671933,0
2096921,2096921,163572,672141,0
2096921,2096921,163333,672011,0
2096921,2096921,163313,671879,0
2096921,2096921,163271,671720,0
2096921,2096921,163570,671616,0
2096921,2096921,163446,671789,0
2096921,2096921,163401,672048,0
2096921,2096921,163509,671653,0
2096921,2096921,163449,671547,0
2096921,2096921,163430,671705,0
2096921,2096921,163012,671509,0
2096921,2096921,163286,671457,0
2096921,2096921,162936,671583,0
2096921,2096921,163158,671420,0
2096921,2096921,163155,671458,0
2096921,2096921,163206,671359,0
2096921,2096921,163189,671518,0
2096921,2096921,163455,671382,0
2096921,2096921,163077,670979,0
2096921,2096921,163049,671028,0
2096921,2096921,163244,671173,0
2096921,2096921,163242,671151,0
2096921,2096921,163059,671419,0
2096921,2096921,163053,670745,0
2096921,2096921,162854,670517,0
2096921,2096921,163036,670584,0
2096921,2096921,162952,670436,0
2096921,2096921,162931,670549,0
2096921,2096921,163223,670243,0
2096921,2096921,162995,670098,0
2096921,2096921,163068,670142,0
2096921,2096921,162693,670087,0
2096921,2096921,162447,670068,0
2096921,2096921,162301,669091,0
2096921,2096921,162345,669158,0
2096921,2096921,162521,668756,0
2096921,2096921,162390,669079,0
2096921,2096921,162501,668794,0
2096921,2096921,162312,668642,0
2096921,2096921,162076,668007,0
2096921,2096921,162259,667997,0
2096921,2096921,162068,668052,0
2096921,2096921,161670,668085,0
2096921,2096921,161967,667515,0
2096921,2096921,161647,667490,0
2096921,2096921,161719,667437,0
2096921,2096921,161815,667276,0
2096921,2096921,161158,667070,0
2096921,2096921,160890,665719,0
2096921,2096921,160853,664974,0
2096921,2096921,161135,665130,0
2096921,2096921,160956,665040,0
2096921,2096921,159890,665209,0
2096921,2096921,159788,663472,0
2096921,2096921,159708,662699,0
2096921,2096921,159849,662622,0
2096921,2096921,159970,662609,0
2096921,2096921,159258,663017,0
2096921,2096921,159307,661831,0
2096921,2096921,159108,661257,0
2096921,2096921,159278,661207,0
2096921,2096921,159076,661163,0
2096921,2096921,158142,661020,0
2096921,2096921,158561,660099,0
2096921,2096921,158817,659414,0
2096921,2096921,158654,659468,0
2096921,2096921,158684,659594,0
2096921,2096921,158425,659632,0
2096921,2096921,158247,659040,0
2096921,2096921,158128,658746,0
2096921,2096921,157982,658563,0
2096921,2096921,158347,658655,0
2096921,2096921,158070,658602,0
2096921,2096921,157728,658066,0
2096921,2096921,157907,657829,0
2096921,2096921,157907,657781,0
2096921,2096921,157892,657575,0
2096921,2096921,157413,657828,0
2096921,2096921,157614,657154,0
2096921,2096921,157903,657025,0
2096921,2096921,157587,657199,0
2096921,2096921,157659,657517,0
2096921,2096921,157378,657123,0
2096921,2096921,157494,656698,0
2096921,2096921,157385,656761,0
2096921,2096921,157327,656781,0
2096921,2096921,157227,656609,0
2096921,2096921,157382,656712,0
2096921,2096921,157576,656622,0
2096921,2096921,157495,656503,0
2096921,2096921,157426,656476,0
2096921,2096921,157190,656275,0
2096921,2096921,157218,656225,0
2096921,2096921,157228,656243,0
2096921,2096921,157235,656452,0
2096921,2096921,157295,656510,0
2096921,2096921,157497,656034,0
2096921,2096921,157527,656406,0
2096921,2096921,157553,656468,0
2096921,2096921,157173,656149,0
2096921,2096921,157374,656315,0
2096921,2096921,157371,656261,0
2096921,2096921,157407,656371,0
2096921,2096921,157310,656366,0
2096921,2096921,157354,656330,0
2096921,2096921,157254,656432,0
2096921,2096921,157207,656274,0
2096921,2096921,157359,656182,0
2096921,2096921,157411,656445,0
2096921,2096921,157240,656134,0
2096921,2096921,157211,656403,0
2096921,2096921,157362,656633,0
2096921,2096921,157784,656523,0
2096921,2096921,157627,656777,0
2096921,2096921,157785,656416,0
2096921,2096921,157427,656511,0
2096921,2096921,157548,656696,0
2096921,2096921,157853,656586,0
2096921,2096921,157713,656868,0
2096921,2096921,157746,656815,0
2096921,2096921,157786,656776,0
2096921,2096921,157575,656568,0
2096921,2096921,157715,656628,0
2096921,2096921,157782,656875,0
2096921,2096921,157704,656971,0
2096921,2096921,157578,656799,0
2096921,2096921,157668,656850,0
2096921,2096921,157922,657121,0
2096921,2096921,157782,657387,0
2096921,2096921,158005,657649,0
2096921,2096921,157814,657627,0
2096921,2096921,157749,657675,0
2096921,2096921,158104,657483,0
2096921,2096921,158022,657678,0
2096921,2096921,158098,657579,0
2096921,2096921,158250,657866,0
2096921,2096921,158308,657846,0
2096921,2096921,158167,657700,0
2096921,2096921,158069,657784,0
2096921,2096921,158002,658151,0
2096921,2096921,157826,658083,0
2096921,2096921,158274,658033,0
2096921,2096921,158576,658033,0
2096921,2096921,158502,658161,0
2096921,2096921,158402,658119,0
2096921,2096921,158303,658145,0
2096921,2096921,158284,658529,0
2096921,2096921,158336,658205,0
2096921,2096921,158819,658566,0
2096921,2096921,158652,658458,0
2096921,2096921,158679,658511,0
2096921,2096921,158573,658589,0
2096921,2096921,158616,658600,0
2096921,2096921,158540,658818,0
2096921,2096921,158420,659158,0
2096921,2096921,158872,659142,0
2096921,2096921,158516,658827,0
2096921,2096921,158826,658682,0
2096921,2096921,159039,659500,0
2096921,2096921,158775,659590,0
2096921,2096921,158622,659519,0
2096921,2096921,158667,659546,0
2096921,2096921,158591,659340,0
2096921,2096921,158939,659487,0
2096921,2096921,158732,659675,0
2096921,2096921,158627,659620,0
2096921,2096921,158826,659642,0
2096921,2096921,158858,659485,0
2096921,2096921,159207,659731,0
2096921,2096921,158904,660162,0
2096921,2096921,159258,659999,0
2096921,2096921,159142,659913,0
2096921,2096921,159188,660062,0
2096921,2096921,159153,660253,0
2096921,2096921,159436,660398,0
2096921,2096921,159137,660418,0
2096921,2096921,159621,660123,0
2096921,2096921,159580,660698,0
2096921,2096921,159316,660629,0
2096921,2096921,159126,660365,0
2096921,2096921,159199,660769,0
2096921,2096921,159393,660528,0
2096921,2096921,159722,660685,0
2096921,2096921,159668,660807,0
2096921,2096921,159480,661197,0
2096921,2096921,159606,660666,0
2096921,2096921,159181,660747,0
2096921,2096921,159390,660871,0
2096921,2096921,159193,660913,0
2096921,2096921,159370,660984,0
2096921,2096921,159468,661109,0
2096921,2096921,159570,661007,0
2096921,2096921,159527,660788,0
2096921,2096921,159426,661062,0
2096921,2096921,159559,661099,0
2096921,2096921,159492,661015,0
2096921,2096921,159399,660922,0
2096921,2096921,159432,661140,0
2096921,2096921,160083,660853,0
2096921,2096921,159839,661027,0
2096921,2096921,159701,660872,0
2096921,2096921,159632,661087,0
2096921,2096921,159527,661247,0
2096921,2096921,159871,660723,0
2096921,2096921,159820,660866,0
2096921,2096921,159432,661028,0
2096921,2096921,159863,661272,0
2096921,2096921,159835,661011,0
2096921,2096921,159503,661258,0
2096921,2096921,159475,661045,0
2096921,2096921,159484,661059,0
2096921,2096921,159598,660919,0
2096921,2096921,159587,660965,0
2096921,2096921,159732,660875,0
2096921,2096921,159684,660973,0
2096921,2096921,159457,660951,0
2096921,2096921,159460,660861,0
2096921,2096921,159341,660694,0
2096921,2096921,159307,660663,0
2096921,2096921,159373,660800,0
2096921,2096921,159596,660605,0
2096921,2096921,159810,660682,0
2096921,2096921,159486,660649,0
2096921,2096921,159320,660502,0
2096921,2096921,159258,660692,0
2096921,2096921,159459,660721,0
2096921,2096921,159466,660547,0
2096921,2096921,159478,660625,0
2096921,2096921,159476,660756,0
2096921,2096921,159131,660549,0
2096921,2096921,159181,660785,0
2096921,2096921,159119,660501,0
2096921,2096921,159308,660628,0
2096921,2096921,159372,660642,0
2096921,2096921,159329,660425,0
2096921,2096921,159367,660493,0
2096921,2096921,159302,660323,0
2096921,2096921,159323,660504,0
2096921,2096921,159284,660663,0
2096921,2096921,159424,660933,0
2096921,2096921,159361,660918,0
2096921,2096921,159103,660764,0
2096921,2096921,159204,660694,0
2096921,2096921,159274,660375,0
2096921,2096921,159331,660319,0
2096921,2096921,159464,660652,0
2096921,2096921,159252,660438,0
2096921,2096921,159189,660419,0
2096921,2096921,159129,660574,0
2096921,2096921,159107,660582,0
2096921,2096921,159525,660475,0
2096921,2096921,159247,660535,0
2096921,2096921,159274,660431,0
2096921,2096921,159466,660589,0
2096921,2096921,159608,660593,0
2096921,2096921,159230,660750,0
2096921,2096921,159271,660833,0
2096921,2096921,159532,660606,0
2096921,2096921,159263,660765,0
2096921,2096921,159201,660925,0
2096921,2096921,159542,661025,0
2096921,2096921,159619,660996,0
2096921,2096921,159906,661202,0
2096921,2096921,159657,661207,0
2096921,2096921,159767,661271,0
2096921,2096921,159626,661458,0
2096921,2096921,159667,661415,0
2096921,2096921,159993,661286,0
2096921,2096921,159668,661687,0
2096921,2096921,159812,661230,0
2096921,2096921,159712,661698,0
2096921,2096921,160089,661809,0
2096921,2096921,160052,661769,0
2096921,2096921,160002,661911,0
2096921,2096921,159796,661675,0
2096921,2096921,160106,661545,0
2096921,2096921,159859,661642,0
2096921,2096921,160033,661839,0
2096921,2096921,159841,662106,0
2096921,2096921,159984,662197,0
2096921,2096921,160273,661971,0
2096921,2096921,160180,662068,0
2096921,2096921,160075,661813,0
2096921,2096921,159995,662353,0
2096921,2096921,159949,662288,0
2096921,2096921,160078,662319,0
2096921,2096921,160209,662293,0
2096921,2096921,160135,662291,0
2096921,2096921,160495,662545,0
2096921,2096921,160222,662443,0
2096921,2096921,160167,662302,0
2096921,2096921,160240,662503,0
2096921,2096921,159865,662523,0
2096921,2096921,160304,662482,0
2096921,2096921,160371,662548,0
2096921,2096921,160357,662759,0
2096921,2096921,160050,662721,0
2096921,2096921,160175,662641,0
2096921,2096921,160381,662968,0
2096921,2096921,160125,662946,0
2096921,2096921,160124,663108,0
2096921,2096921,160404,662783,0
2096921,2096921,160521,662651,0
2096921,2096921,160850,663238,0
2096921,2096921,161012,663372,0
2096921,2096921,160585,663404,0
2096921,2096921,160730,663579,0
2096921,2096921,160636,663458,0
2096921,2096921,160717,663152,0
2096921,2096921,160408,663409,0
2096921,2096921,160519,663191,0
2096921,2096921,160580,663524,0
2096921,2096921,160825,663239,0
2096921,2096921,160719,663585,0
2096921,2096921,161094,663622,0
2096921,2096921,160860,663432,0
2096921,2096921,160837,663481,0
2096921,2096921,161064,663473,0
2096921,2096921,161063,663684,0
2096921,2096921,160844,663799,0
2096921,2096921,161053,663791,0
2096921,2096921,160729,663680,0
2096921,2096921,161016,663870,0
2096921,2096921,160944,664068,0
2096921,2096921,160822,664114,0
2096921,2096921,160874,663777,0
2096921,2096921,160663,663793,0
2096921,2096921,161224,663834,0
2096921,2096921,160971,664360,0
2096921,2096921,161182,664277,0
2096921,2096921,161084,664652,0
2096921,2096921,160892,664165,0
2096921,2096921,160918,664381,0
2096921,2096921,161100,664314,0
2096921,2096921,160845,664636,0
2096921,2096921,161052,664443,0
2096921,2096921,161094,664602,0
2096921,2096921,161232,664794,0
2096921,2096921,161231,664663,0
2096921,2096921,161145,665102,0
2096921,2096921,160943,664703,0
2096921,2096921,160791,665075,0
2096921,2096921,161082,664801,0
2096921,2096921,161170,664940,0
2096921,2096921,161492,665088,0
2096921,2096921,161179,665022,0
2096921,2096921,161220,664928,0
2096921,2096921,161345,664876,0
2096921,2096921,161257,665091,0
2096921,2096921,161331,665176,0
2096921,2096921,161289,665174,0
2096921,2096921,161388,665342,0
2096921,2096921,161453,665434,0
2096921,2096921,161259,665575,0
2096921,2096921,161315,665877,0
2096921,2096921,161118,665341,0
2096921,2096921,161241,665336,0
2096921,2096921,161453,665623,0
2096921,2096921,161311,665739,0
2096921,2096921,161782,665654,0
2096921,2096921,161321,665517,0
2096921,2096921,161471,665798,0
2096921,2096921,161691,665614,0
2096921,2096921,161826,665808,0
2096921,2096921,161459,665909,0
2096921,2096921,161631,665955,0
2096921,2096921,161565,665971,0
2096921,2096921,161693,666316,0
2096921,2096921,161711,666117,0
2096921,2096921,161749,666262,0
2096921,2096921,161789,666492,0
2096921,2096921,161490,666570,0
2096921,2096921,161237,666093,0
2096921,2096921,161697,666386,0
2096921,2096921,162034,666470,0
2096921,2096921,161851,666492,0
2096921,2096921,161862,666294,0
2096921,2096921,161972,666603,0
2096921,2096921,162037,666868,0
2096921,2096921,161860,666997,0
2096921,2096921,161702,666760,0
2096921,2096921,161731,666795,0
2096921,2096921,161929,666781,0
2096921,2096921,161880,666980,0
2096921,2096921,162091,666894,0
2096921,2096921,162009,667261,0
2096921,2096921,161971,667345,0
2096921,2096921,161897,667081,0
2096921,2096921,161900,667283,0
2096921,2096921,161931,667154,0
2096921,2096921,162122,667129,0
2096921,2096921,162111,667460,0
2096921,2096921,162390,667269,0
2096921,2096921,162190,667761,0
2096921,2096921,162316,667555,0
2096921,2096921,162155,667481,0
2096921,2096921,162221,667259,0
2096921,2096921,162370,667565,0
2096921,2096921,162184,668010,0
2096921,2096921,162052,667861,0
2096921,2096921,162381,667851,0
2096921,2096921,162011,667785,0
2096921,2096921,162282,667781,0
2096921,2096921,162115,668044,0
2096921,2096921,162453,668209,0
2096921,2096921,162148,668073,0
2096921,2096921,162125,667972,0
2096921,2096921,162120,667999,0
2096921,2096921,162257,668338,0
2096921,2096921,162307,668203,0
2096921,2096921,162336,668257,0
2096921,2096921,162219,668226,0
2096921,2096921,162345,668447,0
2096921,2096921,162421,668363,0
2096921,2096921,162312,668420,0
2096921,2096921,162273,668602,0
2096921,2096921,162615,668501,0
2096921,2096921,162577,668382,0
2096921,2096921,162432,668778,0
2096921,2096921,162701,668777,0
2096921,2096921,162738,668868,0
2096921,2096921,162736,668864,0
2096921,2096921,162358,668819,0
2096921,2096921,162567,669195,0
2096921,2096921,162615,669266,0
2096921,2096921,162963,669049,0
2096921,2096921,162767,668810,0
2096921,2096921,162856,669339,0
2096921,2096921,162702,669268,0
2096921,2096921,162503,669127,0
2096921,2096921,162738,669327,0
2096921,2096921,162477,669431,0
2096921,2096921,162695,669372,0
2096921,2096921,162684,669620,0
2096921,2096921,162996,669570,0
2096921,2096921,162717,669693,0
2096921,2096921,162918,669651,0
2096921,2096921,162969,669595,0
2096921,2096921,163281,669931,0
2096921,2096921,163089,669812,0
2096921,2096921,162953,669819,0
2096921,2096921,162841,669808,0
2096921,2096921,162939,670309,0
2096921,2096921,163013,670270,0
2096921,2096921,162977,670053,0
2096921,2096921,163168,670403,0
2096921,2096921,162723,670338,0
2096921,2096921,162903,670100,0
2096921,2096921,162780,670907,0
2096921,2096921,163039,670732,0
2096921,2096921,163237,670535,0
2096921,2096921,163117,670712,0
2096921,2096921,162994,670423,0
2096921,2096921,162969,670914,0
2096921,2096921,163128,670824,0
2096921,2096921,163129,671122,0
2096921,2096921,163210,670904,0
2096921,2096921,163263,670951,0
2096921,2096921,163179,671167,0
2096921,2096921,163069,671205,0
2096921,2096921,163296,671282,0
2096921,2096921,163408,671198,0
2096921,2096921,163086,670962,0
2096921,2096921,162978,671092,0
2096921,2096921,163101,671320,0
2096921,2096921,163216,671235,0
2096921,2096921,163249,671623,0
2096921,2096921,163445,671633,0
2096921,2096921,163724,671699,0
2096921,2096921,163363,671880,0
2096921,2096921,163226,671855,0
2096921,2096921,163511,671660,0
2096921,2096921,163368,671651,0
2096921,2096921,163660,672146,0
2096921,2096921,163607,671990,0
2096921,2096921,163534,671917,0
2096921,2096921,163674,671889,0
2096921,2096921,163444,672375,0
2096921,2096921,163370,672479,0
2096921,2096921,163658,672635,0
2096921,2096921,163682,672201,0
2096921,2096921,163348,672064,0
2096921,2096921,163601,671992,0
2096921,2096921,163464,672360,0
2096921,2096921,163562,672553,0
2096921,2096921,163477,672580,0
2096921,2096921,163786,672408,0
2096921,2096921,163621,672749,0
2096921,2096921,163627,672878,0
2096921,2096921,163297,673113,0
2096921,2096921,163626,673020,0
2096921,2096921,163848,672634,0
2096921,2096921,163714,672801,0
2096921,2096921,163599,672818,0
2096921,2096921,163398,673272,0
2096921,2096921,163620,673477,0
2096921,2096921,163933,673306,0
2096921,2096921,163641,673258,0
2096921,2096921,163579,673334,0
2096921,2096921,163769,673772,0
2096921,2096921,163813,673617,0
2096921,2096921,163746,673373,0
2096921,2096921,163780,673568,0
2096921,2096921,164063,673887,0
2096921,2096921,164288,673786,0
2096921,2096921,164026,673932,0
2096921,2096921,163990,673893,0
2096921,2096921,163620,673766,0
2096921,2096921,163890,673945,0
2096921,2096921,163797,674023,0
2096921,2096921,163883,673708,0
2096921,2096921,164096,673724,0
2096921,2096921,164148,674106,0
2096921,2096921,164021,674644,0
2096921,2096921,164240,674417,0
2096921,2096921,164034,674499,0
2096921,2096921,164006,674286,0
2096921,2096921,163891,674439,0
2096921,2096921,164241,674690,0
2096921,2096921,164207,675001,0
2096921,2096921,164304,674983,0
2096921,2096921,164465,675002,0
2096921,2096921,164248,674926,0
2096921,2096921,164060,674780,0
2096921,2096921,163883,674671,0
2096921,2096921,163885,674374,0
2096921,2096921,163865,674806,0
2096921,2096921,164158,674591,0
2096921,2096921,164260,674905,0
2096921,2096921,164443,674491,0
2096921,2096921,164090,674918,0
2096921,2096921,163900,674695,0
2096921,2096921,163683,674390,0
2096921,2096921,163559,674332,0
2096921,2096921,163765,674325,0
2096921,2096921,163909,674081,0
2096921,2096921,163682,674648,0
2096921,2096921,163390,674542,0
2096921,2096921,163714,674318,0
2096921,2096921,163604,674365,0
2096921,2096921,163538,673981,0
2096921,2096921,163574,674169,0
2096921,2096921,163342,673766,0
2096921,2096921,163007,673499,0
2096921,2096921,163259,673655,0
2096921,2096921,163271,673552,0
2096921,2096921,163334,673583,0
2096921,2096921,162850,673708,0
2096921,2096921,162882,672355,0
2096921,2096921,162746,672151,0
2096921,2096921,162680,672064,0
2096921,2096921,162823,671947,0
2096921,2096921,161978,672384,0
2096921,2096921,161728,670636,0
2096921,2096921,161594,669920,0
2096921,2096921,161650,670303,0
2096921,2096921,161574,669945,0
2096921,2096921,161161,670107,0
2096921,2096921,161295,668987,0
2096921,2096921,161492,668739,0
2096921,2096921,161323,668890,0
2096921,2096921,161169,668757,0
2096921,2096921,160478,668540,0
2096921,2096921,160655,667892,0
2096921,2096921,160547,667469,0
2096921,2096921,160812,667732,0
2096921,2096921,160564,667488,0
2096921,2096921,160341,667889,0
2096921,2096921,160373,667237,0
2096921,2096921,160209,667217,0
2096921,2096921,160498,667290,0
2096921,2096921,160143,667092,0
2096921,2096921,160063,666936,0
2096921,2096921,159965,666761,0
2096921,2096921,160358,666798,0
2096921,2096921,160109,666834,0
2096921,2096921,160088,666929,0
2096921,2096921,160111,667052,0
2096921,2096921,160053,666576,0
2096921,2096921,159985,666606,0
2096921,2096921,159981,666738,0
2096921,2096921,159927,666551,0
2096921,2096921,159944,666815,0
2096921,2096921,160020,666582,0
2096921,2096921,160124,666468,0
2096921,2096921,159787,666557,0
2096921,2096921,159849,666789,0
2096921,2096921,159870,666823,0
2096921,2096921,159992,666840,0
2096921,2096921,160111,667008,0
2096921,2096921,160167,667138,0
2096921,2096921,159966,667121,0
2096921,2096921,160239,667025,0
2096921,2096921,160136,667221,0
2096921,2096921,159913,666872,0
2096921,2096921,160002,667121,0
2096921,2096921,160095,667232,0
2096921,2096921,160351,667318,0
2096921,2096921,160501,667732,0
2096921,2096921,160317,667997,0
2096921,2096921,160396,667721,0
2096921,2096921,160268,667831,0
2096921,2096921,160252,667845,0
2096921,2096921,160531,668415,0
2096921,2096921,160498,668343,0
2096921,2096921,160228,668363,0
2096921,2096921,160634,668210,0
2096921,2096921,160594,668153,0
2096921,2096921,160525,668694,0
2096921,2096921,160310,668871,0
2096921,2096921,160637,668802,0
2096921,2096921,160555,668858,0
2096921,2096921,160763,668633,0
2096921,2096921,160687,669188,0
2096921,2096921,160979,669487,0
2096921,2096921,160797,669655,0
2096921,2096921,160652,669759,0
2096921,2096921,160748,669544,0
2096921,2096921,160699,670164,0
2096921,2096921,160995,670101,0
2096921,2096921,161092,670166,0
2096921,2096921,160936,670189,0
2096921,2096921,161020,669991,0
2096921,2096921,161309,670682,0
2096921,2096921,161449,670645,0
2096921,2096921,161245,670569,0
2096921,2096921,161326,670693,0
2096921,2096921,161423,670658,0
2096921,2096921,161497,671449,0
2096921,2096921,161308,671365,0
2096921,2096921,161677,671719,0
2096921,2096921,161771,671487,0
2096921,2096921,161694,671669,0
2096921,2096921,161722,672010,0
2096921,2096921,161746,672512,0
2096921,2096921,161790,672207,0
2096921,2096921,161585,672339,0
2096921,2096921,162168,672273,0
2096921,2096921,162102,672960,0
2096921,2096921,161996,673022,0
2096921,2096921,161915,672886,0
2096921,2096921,161949,673155,0
2096921,2096921,162227,673150,0
2096921,2096921,162066,673494,0
2096921,2096921,162093,673564,0
2096921,2096921,162512,673759,0
2096921,2096921,162526,673466,0
2096921,2096921,162202,673898,0
2096921,2096921,162444,674467,0
2096921,2096921,162568,674346,0
2096921,2096921,162584,674200,0
2096921,2096921,162525,674302,0
2096921,2096921,162949,674469,0
2096921,2096921,162938,674965,0
2096921,2096921,162797,674891,0
2096921,2096921,162803,675270,0
2096921,2096921,162921,675309,0
2096921,2096921,162934,675451,0
2096921,2096921,163000,675899,0
2096921,2096921,163146,675949,0
2096921,2096921,162949,675678,0
2096921,2096921,162967,676030,0
2096921,2096921,163236,676159,0
2096921,2096921,163375,676296,0
2096921,2096921,163239,676779,0
2096921,2096921,163296,676610,0
2096921,2096921,163209,676501,0
2096921,2096921,163395,676557,0
2096921,2096921,163748,677308,0
2096921,2096921,163519,677364,0
2096921,2096921,163424,677458,0
2096921,2096921,163470,677373,0
2096921,2096921,163579,677154,0
2096921,2096921,164044,677794,0
2096921,2096921,163700,678005,0
2096921,2096921,163790,677805,0
2096921,2096921,163607,678080,0
2096921,2096921,164160,677991,0
2096921,2096921,163996,678700,0
2096921,2096921,164053,678803,0
2096921,2096921,164197,678767,0
2096921,2096921,163720,678884,0
2096921,2096921,163996,678664,0
2096921,2096921,164103,678808,0
2096921,2096921,164095,679089,0
2096921,2096921,164181,679249,0
2096921,2096921,164125,679125,0
2096921,2096921,164124,679247,0
2096921,2096921,164507,679806,0
2096921,2096921,164548,679974,0
2096921,2096921,164318,679833,0
2096921,2096921,164224,679739,0
2096921,2096921,164246,679559,0
2096921,2096921,164363,679896,0
2096921,2096921,164575,680139,0
2096921,2096921,164654,679964,0
2096921,2096921,164580,680173,0
2096921,2096921,164435,679959,0
2096921,2096921,164474,680234,0
2096921,2096921,164309,680273,0
2096921,2096921,164247,680566,0
2096921,2096921,164524,680577,0
2096921,2096921,164709,680463,0
2096921,2096921,164735,680904,0
2096921,2096921,164697,680825,0
2096921,2096921,164699,680813,0
2096921,2096921,164738,680683,0
2096921,2096921,164507,680794,0
2096921,2096921,164614,680838,0
2096921,2096921,164594,681062,0
2096921,2096921,164745,680918,0
2096921,2096921,164492,681148,0
2096921,2096921,164924,681056,0
2096921,2096921,164630,681143,0
2096921,2096921,164404,680904,0
2096921,2096921,164514,680937,0
2096921,2096921,164585,680988,0
2096921,2096921,164528,680847,0
2096921,2096921,164639,681053,0
2096921,2096921,164673,681167,0
2096921,2096921,164627,681163,0
2096921,2096921,164875,681309,0
2096921,2096921,164732,681447,0
2096921,2096921,164470,681174,0
2096921,2096921,164742,681302,0
2096921,2096921,164511,681171,0
2096921,2096921,164853,681524,0
2096921,2096921,164910,681367,0
2096921,2096921,164902,681607,0
2096921,2096921,164834,681576,0
2096921,2096921,164799,681634,0
2096921,2096921,164725,681749,0
2096921,2096921,164547,681602,0
2096921,2096921,164670,681651,0
2096921,2096921,164817,681999,0
2096921,2096921,164748,681926,0
2096921,2096921,165092,681818,0
2096921,2096921,164838,682237,0
2096921,2096921,165012,682141,0
2096921,2096921,164778,682487,0
2096921,2096921,164696,682118,0
2096921,2096921,164977,681864,0
2096921,2096921,164827,682221,0
2096921,2096921,164736,682437,0
2096921,2096921,165200,682704,0
2096921,2096921,164906,682544,0
2096921,2096921,165074,682821,0
2096921,2096921,164894,682671,0
2096921,2096921,165228,682673,0
2096921,2096921,165080,682826,0
2096921,2096921,164911,682759,0
2096921,2096921,165248,682849,0
2096921,2096921,165467,682759,0
2096921,2096921,165347,683206,0
2096921,2096921,165221,683359,0
2096921,2096921,165032,683221,0
2096921,2096921,165052,683275,0
2096921,2096921,165203,683244,0
2096921,2096921,165362,683525,0
2096921,2096921,165508,683951,0
2096921,2096921,165310,683986,0
2096921,2096921,165392,683677,0
2096921,2096921,165680,683783,0
2096921,2096921,165383,683984,0
2096921,2096921,165422,684446,0
2096921,2096921,165468,684576,0
2096921,2096921,165493,684558,0
2096921,2096921,166097,684399,0
2096921,2096921,165977,685222,0
2096921,2096921,165749,685210,0
2096921,2096921,165802,685064,0
2096921,2096921,165555,685004,0
2096921,2096921,165685,684880,0
2096921,2096921,165693,685258,0
2096921,2096921,165698,685336,0
2096921,2096921,165918,685476,0
2096921,2096921,166087,685548,0
2096921,2096921,166257,685550,0
2096921,2096921,165986,685859,0
2096921,2096921,166109,686015,0
2096921,2096921,165801,685768,0
2096921,2096921,165808,685704,0
2096921,2096921,166010,685991,0
2096921,2096921,166186,686363,0
2096921,2096921,166127,686510,0
2096921,2096921,166340,686364,0
2096921,2096921,166101,686299,0
2096921,2096921,166371,686433,0
2096921,2096921,166280,686732,0
2096921,2096921,166367,686558,0
2096921,2096921,166266,686435,0
2096921,2096921,166237,686504,0
2096921,2096921,166706,686664,0
2096921,2096921,166602,687280,0
2096921,2096921,166497,687167,0
2096921,2096921,166706,687228,0
2096921,2096921,166625,687252,0
2096921,2096921,166576,687312,0
2096921,2096921,166574,687571,0
2096921,2096921,166481,687522,0
2096921,2096921,166734,687452,0
2096921,2096921,166594,687735,0
2096921,2096921,166915,687587,0
2096921,2096921,166927,687913,0
2096921,2096921,166879,688072,0
2096921,2096921,166958,688347,0
2096921,2096921,166879,688274,0
2096921,2096921,166872,688045,0
2096921,2096921,166959,688514,0
2096921,2096921,167002,688458,0
2096921,2096921,166978,688792,0
2096921,2096921,167043,688656,0
2096921,2096921,167233,688665,0
2096921,2096921,167134,688507,0
2096921,2096921,167131,688685,0
2096921,2096921,166916,688677,0
2096921,2096921,166634,688856,0
2096921,2096921,167332,688823,0
2096921,2096921,167475,689398,0
2096921,2096921,167556,689431,0
2096921,2096921,167332,689445,0
2096921,2096921,167412,689714,0
2096921,2096921,167063,689228,0
2096921,2096921,167222,689468,0
2096921,2096921,167385,689585,0
2096921,2096921,167414,689685,0
2096921,2096921,167616,689802,0
2096921,2096921,167547,689885,0
2096921,2096921,167391,690097,0
2096921,2096921,167474,690137,0
2096921,2096921,167683,690127,0
2096921,2096921,167561,690156,0
2096921,2096921,167746,690053,0
2096921,2096921,167660,690281,0
2096921,2096921,167729,690476,0
2096921,2096921,167680,690376,0
2096921,2096921,167481,690338,0
2096921,2096921,167951,690368,0
2096921,2096921,167618,690918,0
2096921,2096921,167843,690890,0
2096921,2096921,167671,690856,0
2096921,2096921,167742,690476,0
2096921,2096921,167992,690662,0
2096921,2096921,167973,690735,0
2096921,2096921,167588,690966,0
2096921,2096921,167823,691113,0
2096921,2096921,167881,691151,0
2096921,2096921,167950,691037,0
2096921,2096921,168060,691212,0
2096921,2096921,167967,691238,0
2096921,2096921,167959,691144,0
2096921,2096921,167699,691697,0
2096921,2096921,167880,691377,0
2096921,2096921,168074,691436,0
2096921,2096921,167956,691483,0
2096921,2096921,167972,691672,0
2096921,2096921,167989,691924,0
2096921,2096921,168221,691686,0
2096921,2096921,168095,691984,0
2096921,2096921,168192,691844,0
2096921,2096921,168522,691928,0
2096921,2096921,168003,691922,0
2096921,2096921,168227,691991,0
2096921,2096921,167983,692240,0
2096921,2096921,168135,692206,0
2096921,2096921,168358,692127,0
2096921,2096921,168299,692471,0
2096921,2096921,168352,692479,0
2096921,2096921,168268,692445,0
2096921,2096921,168358,692128,0
2096921,2096921,168362,692261,0
2096921,2096921,168376,692286,0
2096921,2096921,168330,692136,0
2096921,2096921,168469,692571,0
2096921,2096921,168515,692574,0
2096921,2096921,168527,692858,0
2096921,2096921,168501,693013,0
2096921,2096921,168399,692546,0
2096921,2096921,168500,692796,0
2096921,2096921,168623,692946,0
2096921,2096921,168414,692806,0
2096921,2096921,168483,692964,0
2096921,2096921,168512,693073,0
2096921,2096921,168589,692717,0
2096921,2096921,168629,692765,0
2096921,2096921,168538,693199,0
2096921,2096921,168477,693319,0
2096921,2096921,168776,693019,0
2096921,2096921,168840,693280,0
2096921,2096921,168894,693310,0
2096921,2096921,168597,693456,0
2096921,2096921,168618,693320,0
2096921,2096921,168652,693187,0
2096921,2096921,168682,693620,0
2096921,2096921,168672,693753,0
2096921,2096921,168572,693468,0
2096921,2096921,168753,693619,0
2096921,2096921,168814,693506,0
2096921,2096921,168717,693646,0
2096921,2096921,168783,693625,0
2096921,2096921,168835,693867,0
2096921,2096921,168702,693876,0
2096921,2096921,168961,693475,0
2096921,2096921,168899,693732,0
2096921,2096921,168792,693666,0
2096921,2096921,168884,693746,0
2096921,2096921,168910,693737,0
2096921,2096921,168597,693637,0
2096921,2096921,168801,693885,0
2096921,2096921,168899,693976,0
2096921,2096921,168744,693962,0
2096921,2096921,168913,693977,0
2096921,2096921,168895,693820,0
2096921,2096921,168869,693911,0
2096921,2096921,168720,693649,0
2096921,2096921,168553,693797,0
2096921,2096921,168759,693941,0
2096921,2096921,168816,694030,0
2096921,2096921,169033,694053,0
2096921,2096921,168762,694070,0
2096921,2096921,168997,694011,0
2096921,2096921,169049,693872,0
2096921,2096921,168959,693815,0
2096921,2096921,168686,694022,0
2096921,2096921,168686,694008,0
2096921,2096921,168537,694111,0
2096921,2096921,169147,694275,0
2096921,2096921,169167,694116,0
2096921,2096921,168804,694061,0
2096921,2096921,168908,694254,0
2096921,2096921,168988,694328,0
2096921,2096921,169035,694051,0
2096921,2096921,168932,693906,0
2096921,2096921,168776,694115,0
2096921,2096921,168976,694085,0
2096921,2096921,169017,694309,0
2096921,2096921,169264,694484,0
2096921,2096921,169039,694381,0
2096921,2096921,169210,694385,0
2096921,2096921,168793,694537,0
2096921,2096921,169102,694296,0
2096921,2096921,169019,694276,0
2096921,2096921,169151,694091,0
2096921,2096921,169345,694137,0
2096921,2096921,169326,694726,0
2096921,2096921,169078,694522,0
2096921,2096921,169142,694329,0
2096921,2096921,168827,694182,0
2096921,2096921,168824,694317,0
2096921,2096921,168830,694547,0
2096921,2096921,169033,694256,0
2096921,2096921,169189,694448,0
2096921,2096921,169340,694538,0
2096921,2096921,169369,694637,0
2096921,2096921,169247,694565,0
2096921,2096921,169056,694364,0
2096921,2096921,169197,694882,0
2096921,2096921,169063,694482,0
2096921,2096921,169352,694551,0
2096921,2096921,169214,694671,0
2096921,2096921,169266,694761,0
2096921,2096921,169339,694887,0
2096921,2096921,169160,694475,0
2096921,2096921,169319,695026,0
2096921,2096921,169039,694768,0
2096921,2096921,169141,694667,0
2096921,2096921,169134,694736,0
2096921,2096921,169089,694495,0
2096921,2096921,169165,694686,0
2096921,2096921,169085,694824,0
2096921,2096921,169196,694798,0
2096921,2096921,169160,694963,0
2096921,2096921,169225,694949,0
2096921,2096921,169338,694857,0
2096921,2096921,169357,694832,0
2096921,2096921,169092,694765,0
2096921,2096921,169074,694496,0
2096921,2096921,169011,694629,0
2096921,2096921,169363,694685,0
2096921,2096921,169416,694432,0
2096921,2096921,169500,694772,0
2096921,2096921,169496,695072,0
2096921,2096921,169197,695118,0
2096921,2096921,169188,694798,0
2096921,2096921,169061,694793,0
2096921,2096921,169155,694336,0
2096921,2096921,169246,694633,0
2096921,2096921,169316,694738,0
2096921,2096921,169655,694884,0
2096921,2096921,169431,695004,0
2096921,2096921,169191,694999,0
2096921,2096921,169167,694623,0
2096921,2096921,169155,694656,0
2096921,2096921,169185,694746,0
2096921,2096921,169145,694594,0
2096921,2096921,169419,694882,0
2096921,2096921,169304,694883,0
2096921,2096921,169360,694737,0
2096921,2096921,169405,694725,0
2096921,2096921,169606,694854,0
2096921,2096921,169278,694759,0
2096921,2096921,169432,694587,0
2096921,2096921,169058,694392,0
2096921,2096921,169073,694600,0
2096921,2096921,169160,694796,0
2096921,2096921,169376,694773,0
2096921,2096921,169140,694713,0
2096921,2096921,169290,694853,0
2096921,2096921,169380,694767,0
2096921,2096921,169287,694525,0
2096921,2096921,169420,694587,0
2096921,2096921,168929,694552,0
2096921,2096921,169209,694730,0
2096921,2096921,169140,694595,0
2096921,2096921,169133,694790,0
2096921,2096921,169585,694799,0
2096921,2096921,169392,694906,0
2096921,2096921,169274,694923,0
2096921,2096921,169410,694963,0
2096921,2096921,169238,694830,0
2096921,2096921,169157,694747,0
2096921,2096921,169257,694592,0
2096921,2096921,168647,694711,0
2096921,2096921,169263,694649,0
2096921,2096921,169278,694467,0
2096921,2096921,169306,694471,0
2096921,2096921,169160,694352,0
2096921,2096921,168768,694287,0
2096921,2096921,168698,694124,0
2096921,2096921,168789,693959,0
2096921,2096921,168605,693870,0
2096921,2096921,168893,693860,0
2096921,2096921,168827,694187,0
2096921,2096921,168740,693464,0
2096921,2096921,168749,693363,0
2096921,2096921,168459,693476,0
2096921,2096921,168675,693315,0
2096921,2096921,168486,693477,0
2096921,2096921,168237,692865,0
2096921,2096921,168423,692646,0
2096921,2096921,168398,692708,0
2096921,2096921,168372,692646,0
2096921,2096921,167897,692739,0
2096921,2096921,167999,691790,0
2096921,2096921,167747,691786,0
2096921,2096921,167856,691844,0
2096921,2096921,167700,691928,0
2096921,2096921,167261,691685,0
2096921,2096921,167542,690541,0
2096921,2096921,167712,690274,0
2096921,2096921,167289,690000,0
2096921,2096921,167099,689959,0
2096921,2096921,166570,689907,0
2096921,2096921,165964,688298,0
2096921,2096921,166227,687792,0
2096921,2096921,166258,687756,0
2096921,2096921,166177,687696,0
2096921,2096921,165698,687663,0
2096921,2096921,165588,686312,0
2096921,2096921,165599,685964,0
2096921,2096921,165547,686157,0
2096921,2096921,165552,686225,0
2096921,2096921,164987,686361,0
2096921,2096921,165207,685345,0
2096921,2096921,164895,684897,0
2096921,2096921,164847,684788,0
2096921,2096921,164862,685016,0
2096921,2096921,164442,684893,0
2096921,2096921,164243,683786,0
2096921,2096921,164495,683884,0
2096921,2096921,164543,684153,0
2096921,2096921,164491,684022,0
2096921,2096921,164274,683988,0
2096921,2096921,164393,683646,0
2096921,2096921,164212,683621,0
2096921,2096921,164187,683086,0
2096921,2096921,164026,683201,0
2096921,2096921,164278,683290,0
2096921,2096921,163981,683046,0
2096921,2096921,163768,682745,0
2096921,2096921,164212,682865,0
2096921,2096921,163891,682928,0
2096921,2096921,163596,682655,0
2096921,2096921,163715,682332,0
2096921,2096921,164002,682422,0
2096921,2096921,163775,682820,0
2096921,2096921,164125,682617,0
2096921,2096921,164100,682261,0
2096921,2096921,163832,682265,0
2096921,2096921,163855,682229,0
2096921,2096921,163873,682331,0
2096921,2096921,163419,682025,0
2096921,2096921,163650,682153,0
2096921,2096921,163650,682273,0
2096921,2096921,163564,682075,0
2096921,2096921,163957,681855,0
2096921,2096921,163743,682041,0
2096921,2096921,163626,682162,0
2096921,2096921,163925,682386,0
2096921,2096921,163888,682086,0
2096921,2096921,163888,682009,0
2096921,2096921,163776,682271,0
2096921,2096921,163631,682341,0
2096921,2096921,163950,682002,0
2096921,2096921,164183,682326,0
2096921,2096921,163905,682268,0
2096921,2096921,163928,682231,0
2096921,2096921,163897,682154,0
2096921,2096921,163788,682355,0
2096921,2096921,163957,682453,0
2096921,2096921,163601,682460,0
2096921,2096921,164027,682733,0
2096921,2096921,163922,682431,0
2096921,2096921,164002,682690,0
2096921,2096921,164006,682626,0
2096921,2096921,164001,682521,0
2096921,2096921,163971,682644,0
2096921,2096921,164188,682562,0
2096921,2096921,164656,682621,0
2096921,2096921,164330,682893,0
2096921,2096921,164280,682783,0
2096921,2096921,164214,683025,0
2096921,2096921,164323,682938,0
2096921,2096921,164352,682991,0
2096921,2096921,164115,683073,0
2096921,2096921,164453,683107,0
2096921,2096921,164296,683029,0
2096921,2096921,164248,682946,0
2096921,2096921,164550,683231,0
2096921,2096921,164573,683329,0
2096921,2096921,164382,683377,0
2096921,2096921,164455,683240,0
2096921,2096921,164477,683297,0
2096921,2096921,164718,683528,0
2096921,2096921,164829,683653,0
2096921,2096921,164920,683919,0
2096921,2096921,164910,683749,0
2096921,2096921,164795,683875,0
2096921,2096921,164602,683764,0
2096921,2096921,164414,683856,0
2096921,2096921,164696,683856,0
2096921,2096921,164800,683651,0
2096921,2096921,164997,683954,0
2096921,2096921,164821,684330,0
2096921,2096921,164758,684263,0
2096921,2096921,164798,683851,0
2096921,2096921,164715,684029,0
2096921,2096921,164797,684067,0
2096921,2096921,165169,684215,0
2096921,2096921,165117,684568,0
2096921,2096921,165022,684457,0
2096921,2096921,164948,684317,0
2096921,2096921,165105,684281,0
2096921,2096921,165029,684217,0
2096921,2096921,165036,684555,0
2096921,2096921,164946,684498,0
2096921,2096921,164740,684452,0
2096921,2096921,165226,684364,0
2096921,2096921,165384,684771,0
2096921,2096921,165431,684906,0
2096921,2096921,165167,684829,0
2096921,2096921,164804,684814,0
2096921,2096921,164844,684687,0
2096921,2096921,165156,684831,0
2096921,2096921,165306,684609,0
2096921,2096921,165452,685102,0
2096921,2096921,165297,684997,0
2096921,2096921,165643,685111,0
2096921,2096921,165580,685406,0
2096921,2096921,165499,685114,0
2096921,2096921,165260,685129,0
2096921,2096921,165356,685098,0
2096921,2096921,165572,685049,0
2096921,2096921,165532,685070,0
2096921,2096921,165487,685320,0
2096921,2096921,165606,685140,0
2096921,2096921,165677,685335,0
2096921,2096921,165671,685334,0
2096921,2096921,165708,685512,0
2096921,2096921,165429,685384,0
2096921,2096921,165512,685417,0
2096921,2096921,165543,685617,0
2096921,2096921,165655,685371,0
2096921,2096921,165738,685375,0
2096921,2096921,165786,685641,0
2096921,2096921,165771,685635,0
2096921,2096921,165694,685645,0
2096921,2096921,165660,685514,0
2096921,2096921,165725,685661,0
2096921,2096921,165625,685172,0
2096921,2096921,165621,685364,0
2096921,2096921,165901,685232,0
2096921,2096921,165838,685454,0
2096921,2096921,165806,685165,0
2096921,2096921,165700,685700,0
2096921,2096921,165642,685417,0
2096921,2096921,165722,685175,0
2096921,2096921,165591,685444,0
2096921,2096921,165663,685257,0
2096921,2096921,165493,685255,0
2096921,2096921,165610,685359,0
2096921,2096921,165742,685379,0
2096921,2096921,165739,685319,0
2096921,2096921,165757,684797,0
2096921,2096921,165521,684797,0
2096921,2096921,165579,684713,0
2096921,2096921,165486,684859,0
2096921,2096921,165689,684987,0
2096921,2096921,165397,684745,0
2096921,2096921,165464,684363,0
2096921,2096921,165665,684395,0
2096921,2096921,165741,684298,0
2096921,2096921,165521,684401,0
2096921,2096921,165302,684122,0
2096921,2096921,165094,683921,0
2096921,2096921,165370,684122,0
2096921,2096921,165261,684473,0
2096921,2096921,165144,684351,0
2096921,2096921,165456,683957,0
2096921,2096921,165390,683857,0
2096921,2096921,165348,683781,0
2096921,2096921,165272,683707,0
2096921,2096921,165235,683509,0
2096921,2096921,164966,683083,0
2096921,2096921,165158,683268,0
2096921,2096921,165328,683251,0
2096921,2096921,165315,682954,0
2096921,2096921,165417,683455,0
2096921,2096921,165237,683137,0
2096921,2096921,164998,683279,0
2096921,2096921,165089,682751,0
2096921,2096921,165041,683057,0
2096921,2096921,165001,682936,0
2096921,2096921,165049,682748,0
2096921,2096921,164912,683054,0
2096921,2096921,164877,682997,0
2096921,2096921,164813,682879,0
2096921,2096921,164627,682784,0
2096921,2096921,164854,682514,0
2096921,2096921,164816,682388,0
2096921,2096921,164787,682429,0
2096921,2096921,164745,682298,0
2096921,2096921,165001,682739,0
2096921,2096921,164981,682257,0
2096921,2096921,164844,682195,0
2096921,2096921,164789,682116,0
2096921,2096921,164477,681994,0
2096921,2096921,164801,682423,0
2096921,2096921,164733,682342,0
2096921,2096921,164981,682006,0
2096921,2096921,165023,682027,0
2096921,2096921,164808,681847,0
2096921,2096921,164760,681779,0
2096921,2096921,164658,681806,0
2096921,2096921,164853,681686,0
2096921,2096921,164723,681621,0
2096921,2096921,164338,681449,0
2096921,2096921,164883,681760,0
2096921,2096921,165026,681693,0
2096921,2096921,164866,681910,0
2096921,2096921,164634,681856,0
2096921,2096921,164397,681911,0
2096921,2096921,164626,681779,0
2096921,2096921,164776,681644,0
2096921,2096921,164893,681486,0
2096921,2096921,164572,681639,0
2096921,2096921,164730,681831,0
2096921,2096921,164892,682121,0
2096921,2096921,164995,681982,0
2096921,2096921,164968,681846,0
2096921,2096921,165017,681937,0
2096921,2096921,164629,681809,0
2096921,2096921,164751,681770,0
2096921,2096921,164616,681963,0
2096921,2096921,164668,681904,0
2096921,2096921,165097,681985,0
2096921,2096921,164906,681909,0
2096921,2096921,164943,681753,0
2096921,2096921,164944,681784,0
2096921,2096921,165087,681578,0
2096921,2096921,165055,681524,0
2096921,2096921,165161,681825,0
2096921,2096921,165000,681730,0
2096921,2096921,165321,681789,0
2096921,2096921,165192,681813,0
2096921,2096921,165079,681744,0
2096921,2096921,165114,681597,0
2096921,2096921,164843,681737,0
2096921,2096921,165067,681498,0
2096921,2096921,164951,681356,0
2096921,2096921,165470,681344,0
2096921,2096921,165364,681591,0
2096921,2096921,165178,681654,0
2096921,2096921,165340,681422,0
2096921,2096921,164929,681550,0
2096921,2096921,164842,681456,0
2096921,2096921,164750,681439,0
2096921,2096921,164927,681456,0
2096921,2096921,165265,681422,0
2096921,2096921,165390,681581,0
2096921,2096921,165270,681238,0
2096921,2096921,164915,681431,0
2096921,2096921,164804,681177,0
2096921,2096921,165034,681386,0
2096921,2096921,165264,681437,0
2096921,2096921,165211,681103,0
2096921,2096921,164994,681052,0
2096921,2096921,165051,681176,0
2096921,2096921,165210,681167,0
2096921,2096921,165384,681056,0
2096921,2096921,165222,681136,0
2096921,2096921,165204,681306,0
2096921,2096921,165067,681024,0
2096921,2096921,165142,680867,0
2096921,2096921,164860,680927,0
2096921,2096921,164924,681413,0
2096921,2096921,165200,681029,0
2096921,2096921,165189,680814,0
2096921,2096921,165265,680828,0
2096921,2096921,165238,681027,0
2096921,2096921,164919,680867,0
2096921,2096921,165024,680762,0
2096921,2096921,164950,680776,0
2096921,2096921,164789,680586,0
2096921,2096921,164887,680613,0
2096921,2096921,164932,680837,0
2096921,2096921,164909,680583,0
2096921,2096921,165211,680660,0
2096921,2096921,165125,680617,0
2096921,2096921,165185,680321,0
2096921,2096921,165125,680459,0
2096921,2096921,165045,680273,0
2096921,2096921,165217,680467,0
2096921,2096921,165246,680348,0
2096921,2096921,165247,680310,0
2096921,2096921,165359,680432,0
2096921,2096921,165336,680575,0
2096921,2096921,165280,680508,0
2096921,2096921,165092,680213,0
2096921,2096921,165077,680272,0
2096921,2096921,164901,680278,0
2096921,2096921,165087,680235,0
2096921,2096921,165079,680515,0
2096921,2096921,164928,680122,0
2096921,2096921,165145,680186,0
2096921,2096921,165159,679967,0
2096921,2096921,164990,679896,0
2096921,2096921,165046,679858,0
2096921,2096921,164969,679797,0
2096921,2096921,165168,679704,0
2096921,2096921,165272,679901,0
2096921,2096921,165151,680108,0
2096921,2096921,165068,679930,0
2096921,2096921,164866,679503,0
2096921,2096921,164849,679567,0
2096921,2096921,164963,679374,0
2096921,2096921,164907,679455,0
2096921,2096921,165130,679574,0
2096921,2096921,165071,679429,0
2096921,2096921,164999,679414,0
2096921,2096921,165140,679347,0
2096921,2096921,165103,679363,0
2096921,2096921,164769,679328,0
2096921,2096921,164827,679115,0
2096921,2096921,164871,678980,0
2096921,2096921,165161,679260,0
2096921,2096921,164767,679191,0
2096921,2096921,164888,679396,0
2096921,2096921,164800,678922,0
2096921,2096921,164660,679160,0
2096921,2096921,164811,678929,0
2096921,2096921,164774,679027,0
2096921,2096921,164879,679124,0
2096921,2096921,164927,679041,0
2096921,2096921,164972,679025,0
2096921,2096921,165091,678965,0
2096921,2096921,165048,679435,0
2096921,2096921,164971,678930,0
2096921,2096921,165251,679008,0
2096921,2096921,164874,679088,0
2096921,2096921,164981,679127,0
2096921,2096921,164786,679008,0
2096921,2096921,165055,679250,0
2096921,2096921,165052,678666,0
2096921,2096921,165020,678689,0
2096921,2096921,164816,678770,0
2096921,2096921,164695,678651,0
2096921,2096921,164775,678628,0
2096921,2096921,164940,678730,0
2096921,2096921,165055,678654,0
2096921,2096921,164956,678750,0
2096921,2096921,164997,678367,0
2096921,2096921,164823,678513,0
2096921,2096921,164911,678272,0
2096921,2096921,165084,678179,0
2096921,2096921,164594,678262,0
2096921,2096921,164672,677948,0
2096921,2096921,164785,678197,0
2096921,2096921,164605,678161,0
2096921,2096921,164768,678542,0
2096921,2096921,164733,678181,0
2096921,2096921,164646,677928,0
2096921,2096921,164741,678018,0
2096921,2096921,164770,677493,0
2096921,2096921,164854,677507,0
2096921,2096921,164883,677945,0
2096921,2096921,164756,677730,0
2096921,2096921,164756,677797,0
2096921,2096921,164778,677547,0
2096921,2096921,164806,677644,0
2096921,2096921,164673,677359,0
2096921,2096921,164712,677119,0
2096921,2096921,164547,677371,0
2096921,2096921,164372,677013,0
2096921,2096921,164604,676959,0
2096921,2096921,164834,677224,0
2096921,2096921,164360,677219,0
2096921,2096921,164393,677583,0
2096921,2096921,164471,676994,0
2096921,2096921,164493,676967,0
2096921,2096921,164503,677026,0
2096921,2096921,164603,677003,0
2096921,2096921,164615,676881,0
2096921,2096921,164734,676665,0
2096921,2096921,164644,676550,0
2096921,2096921,164682,676379,0
2096921,2096921,164759,676375,0
2096921,2096921,164446,676652,0
2096921,2096921,164397,676296,0
2096921,2096921,164221,676508,0
2096921,2096921,164334,676466,0
2096921,2096921,164227,676353,0
2096921,2096921,164412,676653,0
2096921,2096921,164383,676535,0
2096921,2096921,164326,675980,0
2096921,2096921,164167,676129,0
2096921,2096921,164459,675963,0
2096921,2096921,164307,675966,0
2096921,2096921,164277,676109,0
2096921,2096921,164397,675823,0
2096921,2096921,164648,675983,0
2096921,2096921,164365,675650,0
2096921,2096921,164383,675688,0
2096921,2096921,164424,675617,0
2096921,2096921,164179,675489,0
2096921,2096921,164316,675653,0
2096921,2096921,164131,675839,0
2096921,2096921,164237,675633,0
2096921,2096921,164451,675560,0
2096921,2096921,164289,675440,0
2096921,2096921,164448,675613,0
2096921,2096921,164570,675480,0
2096921,2096921,164175,675484,0
2096921,2096921,164184,675331,0
2096921,2096921,164232,674770,0
2096921,2096921,164164,675185,0
2096921,2096921,164204,674754,0
2096921,2096921,164294,675168,0
2096921,2096921,164309,674824,0
2096921,2096921,164368,674979,0
2096921,2096921,164416,675027,0
2096921,2096921,163984,674924,0
2096921,2096921,163725,674865,0
2096921,2096921,163922,674441,0
2096921,2096921,164250,674595,0
2096921,2096921,163881,674647,0
2096921,2096921,164118,674653,0
2096921,2096921,164005,674365,0
2096921,2096921,163995,674402,0
2096921,2096921,163762,674344,0
2096921,2096921,163998,674310,0
2096921,2096921,164065,674022,0
2096921,2096921,163859,674294,0
2096921,2096921,163743,673880,0
2096921,2096921,163904,673673,0
2096921,2096921,164104,674079,0
2096921,2096921,163905,673921,0
2096921,2096921,164217,674059,0
2096921,2096921,163936,673864,0
2096921,2096921,163875,673946,0
2096921,2096921,164160,673808,0
2096921,2096921,163688,673776,0
2096921,2096921,163702,673741,0
2096921,2096921,163574,673470,0
2096921,2096921,163670,673477,0
2096921,2096921,163936,673482,0
2096921,2096921,163886,673253,0
2096921,2096921,163700,673461,0
2096921,2096921,163698,673330,0
2096921,2096921,163654,673015,0
2096921,2096921,163706,673102,0
2096921,2096921,163681,673376,0
2096921,2096921,163851,673248,0
2096921,2096921,163862,673128,0
2096921,2096921,163773,673145,0
2096921,2096921,163762,672830,0
2096921,2096921,163727,672812,0
2096921,2096921,163386,673006,0
2096921,2096921,163453,672682,0
2096921,2096921,163623,672429,0
2096921,2096921,163624,672441,0
2096921,2096921,163633,672712,0
2096921,2096921,163636,672866,0
2096921,2096921,163807,672547,0
2096921,2096921,163830,672407,0
2096921,2096921,163451,672153,0
2096921,2096921,163600,672183,0
2096921,2096921,163580,672219,0
2096921,2096921,163427,672144,0
2096921,2096921,163913,672228,0
2096921,2096921,163739,671956,0
2096921,2096921,163613,672144,0
2096921,2096921,163453,672186,0
2096921,2096921,163395,671910,0
2096921,2096921,163464,671486,0
2096921,2096921,163358,671560,0
2096921,2096921,163494,671617,0
2096921,2096921,163512,671709,0
2096921,2096921,163763,671431,0
2096921,2096921,163590,671565,0
2096921,2096921,163586,671497,0
2096921,2096921,163521,671521,0
2096921,2096921,163138,671584,0
2096921,2096921,162888,670935,0
2096921,2096921,162981,670907,0
2096921,2096921,163087,670865,0
2096921,2096921,163225,671125,0
2096921,2096921,163000,670988,0
2096921,2096921,163045,670534,0
2096921,2096921,162958,670550,0
2096921,2096921,162891,670405,0
2096921,2096921,162892,670205,0
2096921,2096921,162430,670132,0
2096921,2096921,162487,669371,0
2096921,2096921,162403,669725,0
2096921,2096921,162662,669714,0
2096921,2096921,162718,669505,0
2096921,2096921,162294,669533,0
2096921,2096921,162034,668869,0
2096921,2096921,162235,668939,0
2096921,2096921,161861,668475,0
2096921,2096921,161962,668483,0
2096921,2096921,161895,668338,0
2096921,2096921,161814,667830,0
2096921,2096921,161963,667598,0
2096921,2096921,161786,667539,0
2096921,2096921,161800,667621,0
2096921,2096921,160806,667546,0
2096921,2096921,161043,665946,0
2096921,2096921,160879,665693,0
2096921,2096921,161117,665704,0
2096921,2096921,160783,665455,0
2096921,2096921,160303,665645,0
2096921,2096921,160065,663723,0
2096921,2096921,160066,663165,0
2096921,2096921,160223,663055,0
2096921,2096921,160063,663312,0
2096921,2096921,159429,663517,0
2096921,2096921,159435,661915,0
2096921,2096921,159332,661508,0
2096921,2096921,159455,661268,0
2096921,2096921,159329,661115,0
2096921,2096921,158302,661300,0
2096921,2096921,158440,660203,0
2096921,2096921,158608,659851,0
2096921,2096921,158682,660075,0
2096921,2096921,158664,659670,0
2096921,2096921,158454,659935,0
2096921,2096921,158057,659073,0
2096921,2096921,158234,658966,0
2096921,2096921,158044,658528,0
2096921,2096921,158210,658672,0
2096921,2096921,157957,658759,0
2096921,2096921,157739,658404,0
2096921,2096921,157893,658388,0
2096921,2096921,157768,657987,0
2096921,2096921,158196,658069,0
2096921,2096921,157727,658019,0
2096921,2096921,157688,657435,0
2096921,2096921,157836,657384,0
2096921,2096921,157982,657306,0
2096921,2096921,157590,657449,0
2096921,2096921,157500,657591,0
2096921,2096921,157598,656968,0
2096921,2096921,157346,656925,0
2096921,2096921,157335,656756,0
2096921,2096921,157191,656858,0
2096921,2096921,157376,656999,0
2096921,2096921,157128,656439,0
2096921,2096921,157481,656823,0
2096921,2096921,157338,656865,0
2096921,2096921,157386,656970,0
2096921,2096921,157314,656764,0
2096921,2096921,157083,656048,0
2096921,2096921,157330,656326,0
2096921,2096921,157381,656456,0
2096921,2096921,157457,656252,0
2096921,2096921,157506,656660,0
2096921,2096921,157459,656640,0
2096921,2096921,157357,656657,0
2096921,2096921,157424,656786,0
2096921,2096921,157080,656413,0
2096921,2096921,157289,656542,0
2096921,2096921,157449,656621,0
2096921,2096921,157826,656558,0
2096921,2096921,157511,656750,0
2096921,2096921,157506,656123,0
2096921,2096921,157824,656386,0
2096921,2096921,157556,656712,0
2096921,2096921,157695,656682,0
2096921,2096921,157415,656539,0
2096921,2096921,157653,656467,0
2096921,2096921,157681,656380,0
2096921,2096921,157766,656730,0
2096921,2096921,157696,656398,0
2096921,2096921,157633,656589,0
2096921,2096921,157499,656625,0
2096921,2096921,157482,656816,0
2096921,2096921,157475,656980,0
2096921,2096921,157395,656920,0
2096921,2096921,157291,656972,0
2096921,2096921,157592,656898,0
2096921,2096921,157838,657085,0
2096921,2096921,157682,657499,0
2096921,2096921,157737,657156,0
2096921,2096921,157791,657054,0
2096921,2096921,157834,657164,0
2096921,2096921,158107,657794,0
2096921,2096921,158310,657529,0
2096921,2096921,158041,657436,0
2096921,2096921,158187,657666,0
2096921,2096921,158106,657901,0
2096921,2096921,158013,657470,0
2096921,2096921,158038,657576,0
2096921,2096921,157865,657944,0
2096921,2096921,157725,657594,0
2096921,2096921,158006,657892,0
2096921,2096921,157779,657599,0
2096921,2096921,158158,658220,0
2096921,2096921,158377,658044,0
2096921,2096921,158268,658060,0
2096921,2096921,158267,658136,0
2096921,2096921,158191,658078,0
2096921,2096921,158247,658301,0
2096921,2096921,158370,658369,0
2096921,2096921,158190,658279,0
2096921,2096921,158375,658660,0
2096921,2096921,158461,658642,0
2096921,2096921,158565,658513,0
2096921,2096921,158620,658434,0
2096921,2096921,158327,658387,0
2096921,2096921,158561,658507,0
2096921,2096921,158587,658934,0
2096921,2096921,158605,659358,0
2096921,2096921,158460,659050,0
2096921,2096921,158772,658910,0
2096921,2096921,158515,659040,0
2096921,2096921,158846,658961,0
2096921,2096921,158688,659690,0
2096921,2096921,158793,659641,0
2096921,2096921,158727,659506,0
2096921,2096921,158945,659590,0
2096921,2096921,158851,659303,0
2096921,2096921,158916,659427,0
2096921,2096921,158848,659708,0
2096921,2096921,158779,659573,0
2096921,2096921,159373,659842,0
2096921,2096921,159331,659750,0
2096921,2096921,159224,660146,0
2096921,2096921,159541,660212,0
2096921,2096921,159229,660101,0
2096921,2096921,159163,660309,0
2096921,2096921,158877,659968,0
2096921,2096921,159354,660243,0
2096921,2096921,158945,660142,0
2096921,2096921,159206,660141,0
2096921,2096921,159428,660669,0
2096921,2096921,159629,660335,0
2096921,2096921,159501,660501,0
2096921,2096921,159429,660619,0
2096921,2096921,159373,660643,0
2096921,2096921,159230,660578,0
2096921,2096921,159356,660638,0
2096921,2096921,159416,660950,0
2096921,2096921,159574,660988,0
2096921,2096921,159476,660938,0
2096921,2096921,159752,660745,0
2096921,2096921,159602,660866,0
2096921,2096921,159340,661076,0
2096921,2096921,159384,661029,0
2096921,2096921,159532,661083,0
2096921,2096921,159581,660845,0
2096921,2096921,159569,660835,0
2096921,2096921,159546,661250,0
2096921,2096921,159841,661128,0
2096921,2096921,159519,661061,0
2096921,2096921,159281,661236,0
2096921,2096921,159542,660885,0
2096921,2096921,159676,661076,0
2096921,2096921,159455,661048,0
2096921,2096921,159588,660933,0
2096921,2096921,159648,661276,0
2096921,2096921,159580,661096,0
2096921,2096921,159611,660934,0
2096921,2096921,159384,661164,0
2096921,2096921,159457,661124,0
2096921,2096921,159349,661048,0
2096921,2096921,159496,660999,0
2096921,2096921,159622,660844,0
2096921,2096921,159606,661058,0
2096921,2096921,159679,661010,0
2096921,2096921,159565,661121,0
2096921,2096921,159347,660811,0
2096921,2096921,159426,660734,0
2096921,2096921,159417,660694,0
2096921,2096921,159401,661105,0
2096921,2096921,159483,660854,0
2096921,2096921,159807,661278,0
2096921,2096921,159467,661094,0
2096921,2096921,159578,661097,0
2096921,2096921,159457,660554,0
2096921,2096921,159332,660774,0
2096921,2096921,159369,660670,0
2096921,2096921,159477,660622,0
2096921,2096921,159269,660661,0
2096921,2096921,159270,660721,0
2096921,2096921,159471,660684,0
2096921,2096921,159518,660440,0
2096921,2096921,159153,660447,0
2096921,2096921,159222,660553,0
2096921,2096921,159292,660250,0
2096921,2096921,159266,660653,0
2096921,2096921,159210,660395,0
2096921,2096921,159231,660532,0
2096921,2096921,159498,660722,0
2096921,2096921,159650,660609,0
2096921,2096921,159513,660711,0
2096921,2096921,159329,660514,0
2096921,2096921,159668,660409,0
2096921,2096921,159463,660652,0
2096921,2096921,159405,660687,0
2096921,2096921,159677,660620,0
2096921,2096921,159511,660602,0
2096921,2096921,159144,660599,0
2096921,2096921,159222,660527,0
2096921,2096921,159297,660343,0
2096921,2096921,159252,660244,0
2096921,2096921,159488,660646,0
2096921,2096921,159436,660331,0
2096921,2096921,159501,660628,0
2096921,2096921,159534,660151,0
2096921,2096921,159366,660451,0
2096921,2096921,159346,660770,0
2096921,2096921,159381,660743,0
2096921,2096921,159389,660973,0
2096921,2096921,159253,660917,0
2096921,2096921,159594,660717,0
2096921,2096921,159380,660447,0
2096921,2096921,159519,661067,0
2096921,2096921,159568,661191,0
2096921,2096921,159770,661181,0
2096921,2096921,159392,660991,0
2096921,2096921,159356,660981,0
2096921,2096921,159479,661272,0
2096921,2096921,159570,661132,0
2096921,2096921,159590,661244,0
2096921,2096921,159894,661471,0
2096921,2096921,159762,661822,0
2096921,2096921,159928,661949,0
2096921,2096921,159796,661784,0
2096921,2096921,159866,661684,0
2096921,2096921,159661,661384,0
2096921,2096921,159621,661485,0
2096921,2096921,159684,662093,0
2096921,2096921,159814,662034,0
2096921,2096921,160110,661827,0
2096921,2096921,160175,661968,0
2096921,2096921,160186,661878,0
2096921,2096921,160269,661748,0
2096921,2096921,160014,662071,0
2096921,2096921,159602,662214,0
2096921,2096921,159983,661866,0
2096921,2096921,160307,662120,0
2096921,2096921,160289,662055,0
2096921,2096921,160485,662418,0
2096921,2096921,159918,661977,0
2096921,2096921,159919,662069,0
2096921,2096921,160128,661634,0
2096921,2096921,160321,662368,0
2096921,2096921,160188,662461,0
2096921,2096921,160360,662363,0
2096921,2096921,160331,662762,0
2096921,2096921,160228,662680,0
2096921,2096921,160159,662647,0
2096921,2096921,160148,662691,0
2096921,2096921,160468,662733,0
2096921,2096921,160171,662489,0
2096921,2096921,160469,662785,0
2096921,2096921,160482,663053,0
2096921,2096921,160641,663001,0
2096921,2096921,160372,663135,0
2096921,2096921,160353,663377,0
2096921,2096921,160398,663164,0
2096921,2096921,160629,663342,0
2096921,2096921,160565,663130,0
2096921,2096921,160460,663246,0
2096921,2096921,160498,663301,0
2096921,2096921,160588,663365,0
2096921,2096921,160616,663509,0
2096921,2096921,160621,663439,0
2096921,2096921,160736,663494,0
2096921,2096921,160846,663333,0
2096921,2096921,160623,663382,0
2096921,2096921,160462,663557,0
2096921,2096921,160530,663541,0
2096921,2096921,160801,663744,0
2096921,2096921,160697,663293,0
2096921,2096921,161027,663554,0
2096921,2096921,160643,663920,0
2096921,2096921,160721,663606,0
2096921,2096921,160724,663865,0
2096921,2096921,160554,663784,0
2096921,2096921,161125,663698,0
2096921,2096921,161090,663908,0
2096921,2096921,161149,664263,0
2096921,2096921,160904,664266,0
2096921,2096921,160806,664112,0
2096921,2096921,160981,664178,0
2096921,2096921,160911,664103,0
2096921,2096921,161066,664400,0
2096921,2096921,160922,664443,0
2096921,2096921,160922,664340,0
2096921,2096921,161168,664398,0
2096921,2096921,161035,664584,0
2096921,2096921,161095,664323,0
2096921,2096921,160844,664698,0
2096921,2096921,161183,664514,0
2096921,2096921,161215,664253,0
2096921,2096921,161311,664855,0
2096921,2096921,161199,664559,0
2096921,2096921,161015,664893,0
2096921,2096921,161265,664350,0
2096921,2096921,160914,664844,0
2096921,2096921,161063,665098,0
2096921,2096921,160900,664928,0
2096921,2096921,161147,664888,0
2096921,2096921,161348,664871,0
2096921,2096921,161167,665183,0
2096921,2096921,161366,665361,0
2096921,2096921,161314,665294,0
2096921,2096921,161380,665273,0
2096921,2096921,161138,665096,0
2096921,2096921,161163,665006,0
2096921,2096921,161388,665233,0
2096921,2096921,161398,665285,0
2096921,2096921,161344,665406,0
2096921,2096921,161428,665407,0
2096921,2096921,161263,665617,0
2096921,2096921,161325,665638,0
2096921,2096921,161265,665469,0
2096921,2096921,161313,665736,0
2096921,2096921,161425,665528,0
2096921,2096921,161498,665706,0
2096921,2096921,161721,665977,0
2096921,2096921,161542,665851,0
2096921,2096921,161194,665691,0
2096921,2096921,161585,665947,0
2096921,2096921,161408,665789,0
2096921,2096921,161468,666150,0
2096921,2096921,161510,666260,0
2096921,2096921,161502,666319,0
2096921,2096921,161510,666058,0
2096921,2096921,161757,666068,0
2096921,2096921,161936,666257,0
2096921,2096921,161636,665966,0
2096921,2096921,161743,666201,0
2096921,2096921,161451,666241,0
2096921,2096921,162003,666352,0
2096921,2096921,161937,666504,0
2096921,2096921,162069,666922,0
2096921,2096921,161707,666465,0
2096921,2096921,161844,666746,0
2096921,2096921,161599,666691,0
2096921,2096921,161862,666489,0
2096921,2096921,161502,666749,0
2096921,2096921,161656,666785,0
2096921,2096921,161863,666674,0
2096921,2096921,161810,666962,0
2096921,2096921,161962,667374,0
2096921,2096921,161971,667041,0
2096921,2096921,162083,667131,0
2096921,2096921,161830,667058,0
2096921,2096921,161998,666941,0
2096921,2096921,161736,667153,0
2096921,2096921,162220,667182,0
2096921,2096921,162119,667018,0
2096921,2096921,162244,667114,0
2096921,2096921,162032,667372,0
2096921,2096921,162187,667513,0
2096921,2096921,162223,667363,0
2096921,2096921,161972,667565,0
2096921,2096921,162175,667329,0
2096921,2096921,162022,667393,0
2096921,2096921,162313,667565,0
2096921,2096921,162319,667899,0
2096921,2096921,162254,667737,0
2096921,2096921,161918,667524,0
2096921,2096921,162332,667669,0
2096921,2096921,162442,667907,0
2096921,2096921,162060,668049,0
2096921,2096921,162240,667786,0
2096921,2096921,162274,667747,0
2096921,2096921,162554,667840,0
2096921,2096921,162488,668121,0
2096921,2096921,162267,668299,0
2096921,2096921,162125,668126,0
2096921,2096921,162582,668142,0
2096921,2096921,162361,668457,0
2096921,2096921,162510,668465,0
2096921,2096921,162436,668389,0
2096921,2096921,162282,668266,0
2096921,2096921,162562,668224,0
2096921,2096921,162406,668496,0
2096921,2096921,162464,668585,0
2096921,2096921,162641,668768,0
2096921,2096921,162548,668486,0
2096921,2096921,162597,668449,0
2096921,2096921,162344,668433,0
2096921,2096921,162441,668935,0
2096921,2096921,162654,669120,0
2096921,2096921,162542,669037,0
2096921,2096921,162750,669154,0
2096921,2096921,162447,669322,0
2096921,2096921,162624,669251,0
2096921,2096921,162493,669239,0
2096921,2096921,162531,669351,0
2096921,2096921,162462,669250,0
2096921,2096921,162909,669176,0
2096921,2096921,162810,669488,0
2096921,2096921,162532,669760,0
2096921,2096921,162715,669624,0
2096921,2096921,162501,669427,0
2096921,2096921,162526,669519,0
2096921,2096921,162709,669675,0
2096921,2096921,162615,669545,0
2096921,2096921,162844,669901,0
2096921,2096921,162931,669845,0
2096921,2096921,163114,669897,0
2096921,2096921,162747,670346,0
2096921,2096921,163112,670187,0
2096921,2096921,163043,670048,0
2096921,2096921,162716,669739,0
2096921,2096921,162737,669847,0
2096921,2096921,162983,670110,0
2096921,2096921,163054,670530,0
2096921,2096921,162992,670387,0
2096921,2096921,162991,670328,0
2096921,2096921,163113,670711,0
2096921,2096921,163027,670620,0
2096921,2096921,162832,670912,0
2096921,2096921,163278,670730,0
2096921,2096921,163189,670681,0
2096921,2096921,163262,670790,0
2096921,2096921,163283,670939,0
2096921,2096921,163063,671164,0
2096921,2096921,163219,671082,0
2096921,2096921,162879,671115,0
2096921,2096921,163407,671077,0
2096921,2096921,163136,671140,0
2096921,2096921,163244,671143,0
2096921,2096921,163213,671070,0
2096921,2096921,162888,671201,0
2096921,2096921,163358,671287,0
2096921,2096921,163380,671361,0
2096921,2096921,163532,671265,0
2096921,2096921,163306,671557,0
2096921,2096921,163334,671420,0
2096921,2096921,163203,671690,0
2096921,2096921,163402,671726,0
2096921,2096921,163367,671769,0
2096921,2096921,163609,671454,0
2096921,2096921,163666,671649,0
2096921,2096921,163452,671918,0
2096921,2096921,163429,672016,0
2096921,2096921,163309,672345,0
2096921,2096921,163477,671983,0
2096921,2096921,163636,671970,0
2096921,2096921,163596,672231,0
2096921,2096921,163501,672322,0
2096921,2096921,163465,672413,0
2096921,2096921,163602,672169,0
2096921,2096921,163882,672408,0
2096921,2096921,163697,672476,0
2096921,2096921,163878,672425,0
2096921,2096921,163647,672727,0
2096921,2096921,163716,672642,0
2096921,2096921,163513,672639,0
2096921,2096921,163784,672632,0
2096921,2096921,163550,672596,0
2096921,2096921,163707,672810,0
2096921,2096921,163461,672669,0
2096921,2096921,163567,672797,0
2096921,2096921,163703,672683,0
2096921,2096921,163634,673081,0
2096921,2096921,163630,673014,0
2096921,2096921,163476,673196,0
2096921,2096921,163649,673270,0
2096921,2096921,163642,673272,0
2096921,2096921,164028,673539,0
2096921,2096921,163853,673376,0
2096921,2096921,163845,673581,0
2096921,2096921,163862,673443,0
2096921,2096921,163668,673790,0
2096921,2096921,164013,673729,0
2096921,2096921,163847,673856,0
2096921,2096921,163897,673783,0
2096921,2096921,164068,673692,0
2096921,2096921,164021,673807,0
2096921,2096921,164114,674317,0
2096921,2096921,164035,674061,0
2096921,2096921,164018,674145,0
2096921,2096921,163848,674012,0
2096921,2096921,163794,673800,0
2096921,2096921,163750,673641,0
2096921,2096921,163716,673630,0
2096921,2096921,164083,673959,0
2096921,2096921,164069,673835,0
2096921,2096921,164164,673843,0
2096921,2096921,163831,673999,0
2096921,2096921,163869,673878,0
2096921,2096921,163751,674025,0
2096921,2096921,163796,674051,0
2096921,2096921,163796,673977,0
2096921,2096921,163873,673884,0
2096921,2096921,163788,673634,0
2096921,2096921,163597,674086,0
2096921,2096921,163722,673845,0
2096921,2096921,163535,674039,0
2096921,2096921,163349,673589,0
2096921,2096921,163750,673392,0
2096921,2096921,163394,673372,0
2096921,2096921,163703,673368,0
2096921,2096921,163228,673364,0
2096921,2096921,163066,673098,0
2096921,2096921,162949,672933,0
2096921,2096921,163074,672771,0
2096921,2096921,163173,672965,0
2096921,2096921,162838,672822,0
2096921,2096921,162731,671782,0
2096921,2096921,162921,671402,0
2096921,2096921,162543,671373,0
2096921,2096921,162421,671375,0
2096921,2096921,161661,671156,0
2096921,2096921,161390,669984,0
2096921,2096921,161457,669379,0
2096921,2096921,161486,669338,0
2096921,2096921,161483,669550,0
2096921,2096921,161237,669660,0
2096921,2096921,161177,668530,0
2096921,2096921,161168,668313,0
2096921,2096921,161021,668237,0
2096921,2096921,161024,668261,0
2096921,2096921,160680,668000,0
2096921,2096921,160750,667577,0
2096921,2096921,160612,667656,0
2096921,2096921,160617,667592,0
2096921,2096921,160663,667519,0
2096921,2096921,160383,667403,0
2096921,2096921,160006,666953,0
2096921,2096921,160219,666775,0
2096921,2096921,160180,666615,0
2096921,2096921,160512,666768,0
2096921,2096921,160093,666734,0
2096921,2096921,160023,666495,0
2096921,2096921,159897,666589,0
2096921,2096921,159894,666386,0
2096921,2096921,159783,666458,0
2096921,2096921,159957,666368,0
2096921,2096921,159773,666176,0
2096921,2096921,160221,666256,0
2096921,2096921,159945,666303,0
2096921,2096921,159819,666342,0
2096921,2096921,160076,666095,0
2096921,2096921,159744,666252,0
2096921,2096921,159692,666381,0
2096921,2096921,159748,666404,0
2096921,2096921,159688,666290,0
2096921,2096921,160033,666552,0
2096921,2096921,159995,666378,0
2096921,2096921,159613,666657,0
2096921,2096921,159927,666765,0
2096921,2096921,159901,666743,0
2096921,2096921,159887,666397,0
2096921,2096921,159884,667039,0
2096921,2096921,159863,666962,0
2096921,2096921,159987,666848,0
2096921,2096921,160155,666962,0
2096921,2096921,160497,667025,0
2096921,2096921,160340,667389,0
2096921,2096921,160127,667472,0
2096921,2096921,160069,667526,0
2096921,2096921,160178,667487,0
2096921,2096921,160272,667732,0
2096921,2096921,160144,667905,0
2096921,2096921,160260,667896,0
2096921,2096921,160269,667730,0
2096921,2096921,160376,667787,0
2096921,2096921,160451,667741,0
2096921,2096921,160474,668261,0
2096921,2096921,160421,668533,0
2096921,2096921,160599,668531,0
2096921,2096921,160583,668594,0
2096921,2096921,160644,668256,0
2096921,2096921,160556,669000,0
2096921,2096921,160519,669149,0
2096921,2096921,160491,668842,0
2096921,2096921,160560,668879,0
2096921,2096921,160811,668935,0
2096921,2096921,161130,669350,0
2096921,2096921,160903,669811,0
2096921,2096921,160862,669987,0
2096921,2096921,161152,669972,0
2096921,2096921,161259,669813,0
2096921,2096921,160736,670199,0
2096921,2096921,160945,670430,0
2096921,2096921,161143,670150,0
2096921,2096921,161028,670638,0
2096921,2096921,161408,670608,0
2096921,2096921,161365,670820,0
2096921,2096921,161537,671069,0
2096921,2096921,161412,671098,0
2096921,2096921,161329,670945,0
2096921,2096921,161401,671397,0
2096921,2096921,161846,671620,0
2096921,2096921,161511,672167,0
2096921,2096921,161538,671889,0
2096921,2096921,161472,671650,0
2096921,2096921,161810,671828,0
2096921,2096921,161667,672440,0
2096921,2096921,161852,672426,0
2096921,2096921,161932,672528,0
2096921,2096921,161759,672560,0
2096921,2096921,162038,672628,0
2096921,2096921,162228,673226,0
2096921,2096921,162159,673178,0
2096921,2096921,162104,673318,0
2096921,2096921,161892,672816,0
2096921,2096921,162181,673008,0
2096921,2096921,162248,673572,0
2096921,2096921,162243,673795,0
2096921,2096921,162362,674178,0
2096921,2096921,162302,674027,0
2096921,2096921,162795,674067,0
2096921,2096921,162722,674529,0
2096921,2096921,162458,674561,0
2096921,2096921,162737,674877,0
2096921,2096921,162356,675046,0
2096921,2096921,162748,674682,0
2096921,2096921,162996,675527,0
2096921,2096921,163019,675490,0
2096921,2096921,163128,675530,0
2096921,2096921,163174,675221,0
2096921,2096921,163007,675295,0
2096921,2096921,163303,676231,0
2096921,2096921,163242,676012,0
2096921,2096921,163160,676002,0
2096921,2096921,163298,676085,0
2096921,2096921,163404,676253,0
2096921,2096921,163442,676985,0
2096921,2096921,163666,676963,0
2096921,2096921,163404,676746,0
2096921,2096921,163319,676794,0
2096921,2096921,163631,676577,0
2096921,2096921,163507,677338,0
2096921,2096921,163720,677560,0
2096921,2096921,163632,677637,0
2096921,2096921,163788,677642,0
2096921,2096921,163916,677718,0
2096921,2096921,163876,678040,0
2096921,2096921,164068,678311,0
2096921,2096921,163810,678077,0
2096921,2096921,163686,678040,0
2096921,2096921,163981,678348,0
2096921,2096921,164091,678432,0
2096921,2096921,163970,678702,0
2096921,2096921,163815,678735,0
2096921,2096921,163763,678792,0
2096921,2096921,164154,678664,0
2096921,2096921,164154,679235,0
2096921,2096921,164292,679307,0
2096921,2096921,164194,679306,0
2096921,2096921,164398,679172,0
2096921,2096921,164185,679152,0
2096921,2096921,164406,679606,0
2096921,2096921,164263,679560,0
2096921,2096921,164206,679824,0
2096921,2096921,163938,679499,0
2096921,2096921,164423,679482,0
2096921,2096921,164451,679978,0
2096921,2096921,164486,680111,0
2096921,2096921,164411,679951,0
2096921,2096921,164266,679756,0
2096921,2096921,164280,680009,0
2096921,2096921,164420,680373,0
2096921,2096921,164689,680391,0
2096921,2096921,164343,680258,0
2096921,2096921,164592,680476,0
2096921,2096921,164328,680374,0
2096921,2096921,164403,680674,0
2096921,2096921,164451,680676,0
2096921,2096921,164589,680551,0
2096921,2096921,164420,680249,0
2096921,2096921,164483,680406,0
2096921,2096921,164213,680524,0
2096921,2096921,164354,680554,0
2096921,2096921,164284,680626,0
2096921,2096921,164442,680324,0
2096921,2096921,164606,680678,0
2096921,2096921,164369,680774,0
2096921,2096921,164366,680573,0
2096921,2096921,164238,680744,0
2096921,2096921,164599,680584,0
2096921,2096921,164633,680596,0
2096921,2096921,164272,680644,0
2096921,2096921,164632,681105,0
2096921,2096921,164518,680865,0
2096921,2096921,164502,680867,0
2096921,2096921,164706,680981,0
2096921,2096921,164511,680795,0
2096921,2096921,164593,680977,0
2096921,2096921,164534,680729,0
2096921,2096921,164417,680842,0
2096921,2096921,164663,680905,0
2096921,2096921,164905,681010,0
2096921,2096921,164859,681274,0
2096921,2096921,164684,681184,0
2096921,2096921,164449,681106,0
2096921,2096921,164426,681161,0
2096921,2096921,164624,681370,0
2096921,2096921,164821,681463,0
2096921,2096921,164415,681823,0
2096921,2096921,164630,681442,0
2096921,2096921,164589,681858,0
2096921,2096921,164625,681940,0
2096921,2096921,164603,682027,0
2096921,2096921,164777,681462,0
2096921,2096921,164433,681620,0
2096921,2096921,164694,681578,0
2096921,2096921,164795,681797,0
2096921,2096921,165070,682387,0
2096921,2096921,164862,682307,0
2096921,2096921,165257,682241,0
2096921,2096921,164905,682330,0
2096921,2096921,165156,682589,0
2096921,2096921,165186,682592,0
2096921,2096921,164741,682843,0
2096921,2096921,164874,682698,0
2096921,2096921,165270,682746,0
2096921,2096921,165100,683371,0
2096921,2096921,165212,683308,0
2096921,2096921,165411,683392,0
2096921,2096921,165152,683235,0
2096921,2096921,165445,682824,0
2096921,2096921,165412,683368,0
2096921,2096921,165523,683600,0
2096921,2096921,165166,683907,0
2096921,2096921,165252,683929,0
2096921,2096921,165394,683973,0
2096921,2096921,165649,684152,0
2096921,2096921,165574,684233,0
2096921,2096921,165508,684306,0
2096921,2096921,165566,684294,0
2096921,2096921,165780,684170,0
2096921,2096921,165516,684729,0
2096921,2096921,165504,685131,0
2096921,2096921,165889,684911,0
2096921,2096921,166108,684934,0
2096921,2096921,166217,684866,0
2096921,2096921,165938,685101,0
2096921,2096921,165941,685425,0
2096921,2096921,165669,685108,0
2096921,2096921,165888,685147,0
2096921,2096921,166222,685377,0
2096921,2096921,165978,685993,0
2096921,2096921,166103,685916,0
2096921,2096921,166030,685830,0
2096921,2096921,165845,685769,0
2096921,2096921,166124,685810,0
2096921,2096921,166077,685943,0
2096921,2096921,165855,686374,0
2096921,2096921,166092,686256,0
2096921,2096921,166277,686463,0
2096921,2096921,166558,685935,0
2096921,2096921,166287,686554,0
2096921,2096921,166160,686695,0
2096921,2096921,166067,686793,0
2096921,2096921,166370,686501,0
2096921,2096921,166488,686731,0
2096921,2096921,166677,687176,0
2096921,2096921,166745,687146,0
2096921,2096921,166786,687554,0
2096921,2096921,166448,687282,0
2096921,2096921,166607,687223,0
2096921,2096921,166664,687701,0
2096921,2096921,166685,687507,0
2096921,2096921,166814,687739,0
2096921,2096921,166691,687678,0
2096921,2096921,166828,687904,0
2096921,2096921,166880,688009,0
2096921,2096921,166736,688116,0
2096921,2096921,166861,688142,0
2096921,2096921,166792,687770,0
2096921,2096921,166858,687961,0
2096921,2096921,167041,688221,0
2096921,2096921,167199,688378,0
2096921,2096921,166923,688663,0
2096921,2096921,167059,688272,0
2096921,2096921,167167,688224,0
2096921,2096921,167049,688695,0
2096921,2096921,167026,688789,0
2096921,2096921,166951,689101,0
2096921,2096921,167200,688825,0
2096921,2096921,167378,688723,0
2096921,2096921,167305,689067,0
2096921,2096921,167367,689321,0
2096921,2096921,167248,689336,0
2096921,2096921,167216,689407,0
2096921,2096921,167033,689266,0
2096921,2096921,167167,689431,0
2096921,2096921,167137,689419,0
2096921,2096921,167326,689424,0
2096921,2096921,167510,689444,0
2096921,2096921,167317,689295,0
2096921,2096921,167593,690015,0
2096921,2096921,167550,689913,0
2096921,2096921,167671,689608,0
2096921,2096921,167657,690066,0
2096921,2096921,167641,689907,0
2096921,2096921,167532,690305,0
2096921,2096921,167697,690164,0
2096921,2096921,167803,690261,0
2096921,2096921,167829,690360,0
2096921,2096921,167903,690282,0
2096921,2096921,167975,690837,0
2096921,2096921,167724,690715,0
2096921,2096921,167751,690894,0
2096921,2096921,167679,690820,0
2096921,2096921,167938,690816,0
2096921,2096921,167940,691089,0
2096921,2096921,167918,691282,0
2096921,2096921,168010,691411,0
2096921,2096921,167858,691210,0
2096921,2096921,167752,691079,0
2096921,2096921,167752,691052,0
2096921,2096921,167755,691153,0
2096921,2096921,168000,691174,0
2096921,2096921,168052,691298,0
2096921,2096921,168015,691258,0
2096921,2096921,168281,691907,0
2096921,2096921,168130,691641,0
2096921,2096921,167941,691718,0
2096921,2096921,167800,691426,0
2096921,2096921,168029,691557,0
2096921,2096921,168118,691963,0
2096921,2096921,168219,691799,0
2096921,2096921,168255,692033,0
2096921,2096921,168058,691904,0
2096921,2096921,168036,691817,0
2096921,2096921,168045,692119,0
2096921,2096921,168216,692163,0
2096921,2096921,168290,692126,0
2096921,2096921,168304,692308,0
2096921,2096921,168284,692544,0
2096921,2096921,168489,692755,0
2096921,2096921,168389,692549,0
2096921,2096921,168169,692419,0
2096921,2096921,168413,692487,0
2096921,2096921,168625,692542,0
2096921,2096921,168621,692407,0
2096921,2096921,168527,692423,0
2096921,2096921,168485,692842,0
2096921,2096921,168620,692876,0
2096921,2096921,168570,692835,0
2096921,2096921,168814,692623,0
2096921,2096921,168631,692898,0
2096921,2096921,168363,692718,0
2096921,2096921,168645,692758,0
2096921,2096921,168761,692687,0
2096921,2096921,168758,693355,0
2096921,2096921,168948,692832,0
2096921,2096921,168768,693189,0
2096921,2096921,168751,693016,0
2096921,2096921,168583,693010,0
2096921,2096921,168599,693175,0
2096921,2096921,168472,693563,0
2096921,2096921,168731,693108,0
2096921,2096921,168416,693271,0
2096921,2096921,168718,693327,0
2096921,2096921,168999,693577,0
2096921,2096921,168808,693230,0
2096921,2096921,168854,693274,0
2096921,2096921,168833,693432,0
2096921,2096921,168690,693209,0
2096921,2096921,168641,693705,0
2096921,2096921,168841,693566,0
2096921,2096921,168564,693569,0
2096921,2096921,168779,693791,0
2096921,2096921,168768,694030,0
2096921,2096921,168943,693906,0
2096921,2096921,168657,693694,0
2096921,2096921,168663,693596,0
2096921,2096921,168718,693904,0
2096921,2096921,168973,693655,0
2096921,2096921,168760,693584,0
2096921,2096921,168795,693795,0
2096921,2096921,168930,693756,0
2096921,2096921,169013,694005,0
2096921,2096921,168923,694037,0
2096921,2096921,168885,694034,0
2096921,2096921,168782,693849,0
2096921,2096921,168826,694297,0
2096921,2096921,169065,693917,0
2096921,2096921,169012,693945,0
2096921,2096921,168892,693850,0
2096921,2096921,168948,693771,0
2096921,2096921,168919,694079,0
2096921,2096921,169313,694300,0
2096921,2096921,169072,694069,0
2096921,2096921,169134,694027,0
2096921,2096921,168852,694301,0
2096921,2096921,168842,694210,0
2096921,2096921,168975,694149,0
2096921,2096921,169070,693959,0
2096921,2096921,168987,694467,0
2096921,2096921,168991,694133,0
2096921,2096921,168763,694387,0
2096921,2096921,169043,694322,0
2096921,2096921,169249,694474,0
2096921,2096921,168902,694426,0
2096921,2096921,168929,694661,0
