2096921,2096921, 149276, 704166
2096921,2096921, 149367, 704490
2096921,2096921, 149383, 704444
2096921,2096921, 149366, 704505
2096921,2096921, 149363, 704416
2096921,2096921, 149455, 704415
2096921,2096921, 149750, 704260
2096921,2096921, 149397, 704712
2096921,2096921, 149674, 704651
2096921,2096921, 149338, 704632
2096921,2096921, 149485, 704400
2096921,2096921, 149401, 704541
2096921,2096921, 149670, 704565
2096921,2096921, 149406, 704742
2096921,2096921, 149404, 705001
2096921,2096921, 149440, 704910
2096921,2096921, 149745, 704931
2096921,2096921, 149482, 704991
2096921,2096921, 149695, 705128
2096921,2096921, 149847, 705101
2096921,2096921, 149248, 705107
2096921,2096921, 149407, 704893
2096921,2096921, 149791, 705255
2096921,2096921, 149521, 705473
2096921,2096921, 149596, 705683
2096921,2096921, 149703, 705400
2096921,2096921, 149905, 705615
2096921,2096921, 149649, 705605
2096921,2096921, 149820, 706132
2096921,2096921, 149692, 705393
2096921,2096921, 149809, 705445
2096921,2096921, 149753, 705576
2096921,2096921, 149917, 705786
2096921,2096921, 150006, 705765
2096921,2096921, 150000, 705866
2096921,2096921, 150176, 705555
2096921,2096921, 149791, 705641
2096921,2096921, 149636, 705657
2096921,2096921, 149742, 705933
2096921,2096921, 149823, 705616
2096921,2096921, 149852, 705895
2096921,2096921, 149779, 705802
2096921,2096921, 149923, 706053
2096921,2096921, 150186, 706201
2096921,2096921, 150028, 706107
2096921,2096921, 149977, 705915
2096921,2096921, 149915, 706137
2096921,2096921, 150117, 706394
2096921,2096921, 149958, 706405
2096921,2096921, 150142, 706412
2096921,2096921, 150106, 706363
2096921,2096921, 150143, 706460
2096921,2096921, 150160, 706587
2096921,2096921, 150233, 706452
2096921,2096921, 149921, 706511
2096921,2096921, 150048, 706341
2096921,2096921, 150206, 706565
2096921,2096921, 150163, 706583
2096921,2096921, 150055, 706825
2096921,2096921, 150342, 706855
2096921,2096921, 150402, 706726
2096921,2096921, 150545, 706968
2096921,2096921, 150554, 706997
2096921,2096921, 150373, 706880
2096921,2096921, 150424, 706655
2096921,2096921, 150199, 706786
2096921,2096921, 150412, 706923
2096921,2096921, 150072, 706979
2096921,2096921, 150218, 707186
2096921,2096921, 150277, 706947
2096921,2096921, 150442, 707238
2096921,2096921, 150291, 707192
2096921,2096921, 150377, 707413
2096921,2096921, 150239, 707032
2096921,2096921, 150365, 707294
2096921,2096921, 150321, 706969
2096921,2096921, 150686, 707044
2096921,2096921, 150432, 707610
2096921,2096921, 150294, 707630
2096921,2096921, 150254, 707456
2096921,2096921, 150474, 707274
2096921,2096921, 150494, 707545
2096921,2096921, 150629, 707291
2096921,2096921, 150530, 707544
2096921,2096921, 150369, 707134
2096921,2096921, 150527, 707246
2096921,2096921, 150717, 707718
2096921,2096921, 150676, 707701
2096921,2096921, 150625, 707584
2096921,2096921, 150384, 707593
2096921,2096921, 150286, 707496
2096921,2096921, 150314, 707261
2096921,2096921, 150289, 707594
2096921,2096921, 150445, 707900
2096921,2096921, 150476, 707963
2096921,2096921, 150543, 707736
2096921,2096921, 150418, 707652
2096921,2096921, 150684, 707681
2096921,2096921, 150762, 707581
2096921,2096921, 150546, 707701
2096921,2096921, 150435, 707783
2096921,2096921, 150452, 707833
2096921,2096921, 150537, 707868
2096921,2096921, 150523, 707966
2096921,2096921, 150835, 707708
2096921,2096921, 150635, 708043
2096921,2096921, 150623, 708187
2096921,2096921, 150652, 707975
2096921,2096921, 150340, 708167
2096921,2096921, 150446, 708098
2096921,2096921, 150847, 707743
2096921,2096921, 150681, 707860
2096921,2096921, 150559, 708054
2096921,2096921, 150360, 708131
2096921,2096921, 150531, 708055
2096921,2096921, 150398, 707906
2096921,2096921, 150506, 708226
2096921,2096921, 150681, 708339
2096921,2096921, 150764, 707991
2096921,2096921, 150915, 708084
2096921,2096921, 150638, 708074
2096921,2096921, 150693, 708244
2096921,2096921, 150700, 708218
2096921,2096921, 150648, 708406
2096921,2096921, 150793, 708270
2096921,2096921, 150911, 708388
2096921,2096921, 150760, 708429
2096921,2096921, 150620, 708275
2096921,2096921, 150800, 708448
2096921,2096921, 150728, 708353
2096921,2096921, 150853, 708381
2096921,2096921, 151015, 708341
2096921,2096921, 151050, 708133
2096921,2096921, 150835, 708522
2096921,2096921, 150914, 708552
2096921,2096921, 150733, 708566
2096921,2096921, 150923, 708336
2096921,2096921, 150304, 708240
2096921,2096921, 150562, 708155
2096921,2096921, 150733, 707978
2096921,2096921, 151199, 708267
2096921,2096921, 151059, 708670
2096921,2096921, 150938, 708616
2096921,2096921, 150794, 708763
2096921,2096921, 150866, 709001
2096921,2096921, 151154, 708659
2096921,2096921, 151042, 708736
2096921,2096921, 150881, 708767
2096921,2096921, 150960, 708833
2096921,2096921, 150840, 708778
2096921,2096921, 150886, 708728
2096921,2096921, 151048, 708958
2096921,2096921, 151419, 709018
2096921,2096921, 151175, 708601
2096921,2096921, 151203, 708699
2096921,2096921, 150885, 708643
2096921,2096921, 150781, 708816
2096921,2096921, 151006, 708644
2096921,2096921, 150981, 708773
2096921,2096921, 151033, 709046
2096921,2096921, 150894, 708878
2096921,2096921, 151183, 708800
2096921,2096921, 151137, 709190
2096921,2096921, 151102, 708921
2096921,2096921, 150914, 708989
2096921,2096921, 151115, 708750
2096921,2096921, 150813, 708879
2096921,2096921, 150593, 708649
2096921,2096921, 150961, 708781
2096921,2096921, 151021, 708915
2096921,2096921, 151044, 708888
2096921,2096921, 151052, 709061
2096921,2096921, 151131, 708879
2096921,2096921, 151131, 708933
2096921,2096921, 151191, 708932
2096921,2096921, 150959, 708899
2096921,2096921, 151001, 708969
2096921,2096921, 150998, 709057
2096921,2096921, 150908, 708845
2096921,2096921, 151093, 708931
2096921,2096921, 151163, 708693
2096921,2096921, 151092, 708974
2096921,2096921, 150915, 708961
2096921,2096921, 151093, 708865
2096921,2096921, 151179, 708899
2096921,2096921, 151054, 709160
2096921,2096921, 150926, 708854
2096921,2096921, 150983, 709251
2096921,2096921, 151210, 709001
2096921,2096921, 151342, 709126
2096921,2096921, 151298, 708982
2096921,2096921, 151101, 709007
2096921,2096921, 151660, 708683
2096921,2096921, 151253, 709227
2096921,2096921, 151099, 708968
2096921,2096921, 150884, 709320
2096921,2096921, 150989, 708907
2096921,2096921, 150634, 708855
2096921,2096921, 150981, 709043
2096921,2096921, 151023, 708978
2096921,2096921, 151133, 709112
2096921,2096921, 150852, 708984
2096921,2096921, 151045, 709104
2096921,2096921, 151066, 708818
2096921,2096921, 150827, 709108
2096921,2096921, 151011, 708940
2096921,2096921, 151250, 708936
2096921,2096921, 151160, 708734
2096921,2096921, 151076, 708688
2096921,2096921, 151147, 708674
2096921,2096921, 151107, 708914
2096921,2096921, 150928, 709114
2096921,2096921, 150926, 709102
2096921,2096921, 151323, 708930
2096921,2096921, 150860, 709051
2096921,2096921, 151142, 708864
2096921,2096921, 151011, 708983
2096921,2096921, 150796, 709023
2096921,2096921, 150576, 709121
2096921,2096921, 150832, 709085
2096921,2096921, 150994, 709237
2096921,2096921, 151210, 709144
2096921,2096921, 151235, 709034
2096921,2096921, 151064, 708990
2096921,2096921, 150942, 708944
2096921,2096921, 150883, 708840
2096921,2096921, 150759, 708989
2096921,2096921, 150811, 708554
2096921,2096921, 150663, 708643
2096921,2096921, 150911, 708609
2096921,2096921, 150785, 708802
2096921,2096921, 150867, 708475
2096921,2096921, 150745, 708346
2096921,2096921, 150751, 708203
2096921,2096921, 150844, 708243
2096921,2096921, 150988, 707902
2096921,2096921, 150616, 708023
2096921,2096921, 150808, 707894
2096921,2096921, 150364, 707504
2096921,2096921, 150486, 707629
2096921,2096921, 150724, 707716
2096921,2096921, 150342, 707531
2096921,2096921, 150283, 706811
2096921,2096921, 150132, 706711
2096921,2096921, 150047, 706845
2096921,2096921, 150342, 706900
2096921,2096921, 150262, 706708
2096921,2096921, 149902, 705956
2096921,2096921, 149951, 706078
2096921,2096921, 149505, 705494
2096921,2096921, 149690, 705633
2096921,2096921, 148879, 705238
2096921,2096921, 149297, 704088
2096921,2096921, 148941, 704137
2096921,2096921, 149208, 703921
2096921,2096921, 149263, 703955
2096921,2096921, 148663, 703304
2096921,2096921, 148174, 701823
2096921,2096921, 148077, 701678
2096921,2096921, 148168, 701477
2096921,2096921, 148200, 701725
2096921,2096921, 147762, 701147
2096921,2096921, 147848, 700296
2096921,2096921, 147731, 699910
2096921,2096921, 147866, 700088
2096921,2096921, 147668, 699799
2096921,2096921, 147198, 699402
2096921,2096921, 147124, 698664
2096921,2096921, 147221, 698314
2096921,2096921, 147188, 698389
2096921,2096921, 147170, 698376
2096921,2096921, 146638, 697976
2096921,2096921, 146969, 697510
2096921,2096921, 146743, 697390
2096921,2096921, 146930, 697337
2096921,2096921, 146676, 697433
2096921,2096921, 146579, 697143
2096921,2096921, 146465, 696829
2096921,2096921, 146494, 696449
2096921,2096921, 146436, 696411
2096921,2096921, 146527, 696367
2096921,2096921, 146118, 696552
2096921,2096921, 146103, 696188
2096921,2096921, 146338, 696561
2096921,2096921, 146300, 696074
2096921,2096921, 146524, 696100
2096921,2096921, 146509, 696182
2096921,2096921, 146453, 696005
2096921,2096921, 146416, 695830
2096921,2096921, 146235, 695942
2096921,2096921, 146226, 695635
2096921,2096921, 146180, 695825
2096921,2096921, 146354, 695590
2096921,2096921, 146349, 695733
2096921,2096921, 146191, 695864
2096921,2096921, 146183, 695855
2096921,2096921, 146291, 695928
2096921,2096921, 146058, 696030
2096921,2096921, 146295, 695665
2096921,2096921, 146374, 695834
2096921,2096921, 146458, 695520
2096921,2096921, 146218, 695806
2096921,2096921, 146189, 696089
2096921,2096921, 146271, 695750
2096921,2096921, 146318, 695930
2096921,2096921, 146147, 695868
2096921,2096921, 146101, 695685
2096921,2096921, 146199, 696037
2096921,2096921, 146077, 695839
2096921,2096921, 146248, 696087
2096921,2096921, 146333, 695890
2096921,2096921, 146303, 695895
2096921,2096921, 146413, 696090
2096921,2096921, 146438, 695973
2096921,2096921, 146318, 696238
2096921,2096921, 146321, 696198
2096921,2096921, 146580, 696202
2096921,2096921, 146510, 696381
2096921,2096921, 146584, 696672
2096921,2096921, 146465, 696556
2096921,2096921, 146490, 696574
2096921,2096921, 146473, 696731
2096921,2096921, 146442, 696808
2096921,2096921, 146763, 696741
2096921,2096921, 146758, 696969
2096921,2096921, 146490, 697025
2096921,2096921, 146943, 697016
2096921,2096921, 146798, 697512
2096921,2096921, 146834, 697324
2096921,2096921, 146606, 697196
2096921,2096921, 146752, 697540
2096921,2096921, 146917, 697211
2096921,2096921, 147057, 697475
2096921,2096921, 147098, 697563
2096921,2096921, 146945, 697732
2096921,2096921, 146783, 697783
2096921,2096921, 146840, 697757
2096921,2096921, 146951, 698122
2096921,2096921, 147218, 698388
2096921,2096921, 147361, 698168
2096921,2096921, 147081, 698445
2096921,2096921, 147269, 698263
2096921,2096921, 147057, 698481
2096921,2096921, 147104, 698509
2096921,2096921, 147479, 698632
2096921,2096921, 147296, 698411
2096921,2096921, 147160, 698363
2096921,2096921, 147670, 699002
2096921,2096921, 147568, 699067
2096921,2096921, 147586, 699102
2096921,2096921, 147349, 699303
2096921,2096921, 147380, 699272
2096921,2096921, 147250, 699098
2096921,2096921, 147826, 699242
2096921,2096921, 147524, 699092
2096921,2096921, 147562, 699537
2096921,2096921, 147648, 699417
2096921,2096921, 147682, 699620
2096921,2096921, 147819, 699633
2096921,2096921, 147803, 699481
2096921,2096921, 147537, 699651
2096921,2096921, 147849, 699818
2096921,2096921, 147615, 700231
2096921,2096921, 148004, 700155
2096921,2096921, 148057, 700074
2096921,2096921, 147581, 700296
2096921,2096921, 148042, 700443
2096921,2096921, 148032, 700949
2096921,2096921, 147882, 700581
2096921,2096921, 147884, 700727
2096921,2096921, 148003, 700618
2096921,2096921, 147979, 700925
2096921,2096921, 148072, 700884
2096921,2096921, 147934, 701145
2096921,2096921, 148157, 700971
2096921,2096921, 148297, 701361
2096921,2096921, 148404, 701171
2096921,2096921, 148298, 701448
2096921,2096921, 148445, 701594
2096921,2096921, 148149, 701380
2096921,2096921, 148371, 701296
2096921,2096921, 148363, 701498
2096921,2096921, 148559, 701746
2096921,2096921, 148439, 701764
2096921,2096921, 148275, 701849
2096921,2096921, 148483, 701770
2096921,2096921, 148673, 702012
2096921,2096921, 148466, 702024
2096921,2096921, 148566, 702160
2096921,2096921, 148332, 702196
2096921,2096921, 148390, 702135
2096921,2096921, 148365, 702009
2096921,2096921, 148642, 702297
2096921,2096921, 148609, 702335
2096921,2096921, 148667, 702398
2096921,2096921, 148367, 702157
2096921,2096921, 148235, 702061
2096921,2096921, 148584, 702371
2096921,2096921, 148599, 702285
2096921,2096921, 148699, 702472
2096921,2096921, 148505, 702475
2096921,2096921, 148515, 702184
2096921,2096921, 148685, 702317
2096921,2096921, 148721, 702362
2096921,2096921, 148337, 702687
2096921,2096921, 148441, 702714
2096921,2096921, 148694, 702659
2096921,2096921, 148928, 702603
2096921,2096921, 148847, 702364
2096921,2096921, 148652, 702309
2096921,2096921, 148523, 702421
2096921,2096921, 148600, 702329
2096921,2096921, 148714, 702242
2096921,2096921, 148497, 702161
2096921,2096921, 148305, 702093
2096921,2096921, 148590, 702183
2096921,2096921, 148483, 702191
2096921,2096921, 148753, 702177
2096921,2096921, 148646, 702202
2096921,2096921, 148897, 702101
2096921,2096921, 148536, 702353
2096921,2096921, 148611, 702072
2096921,2096921, 148181, 701964
2096921,2096921, 148526, 702054
2096921,2096921, 148392, 701605
2096921,2096921, 148540, 702099
2096921,2096921, 148372, 701953
2096921,2096921, 148492, 701646
2096921,2096921, 148423, 701678
2096921,2096921, 148475, 701944
2096921,2096921, 148361, 701958
2096921,2096921, 148341, 701852
2096921,2096921, 148438, 701724
2096921,2096921, 148478, 701544
2096921,2096921, 148259, 701566
2096921,2096921, 148348, 701634
2096921,2096921, 148472, 701751
2096921,2096921, 148432, 701770
2096921,2096921, 148485, 701502
2096921,2096921, 148388, 701504
2096921,2096921, 148376, 701501
2096921,2096921, 148294, 701634
2096921,2096921, 148434, 701462
2096921,2096921, 148481, 701478
2096921,2096921, 148400, 701912
2096921,2096921, 148458, 701640
2096921,2096921, 148534, 701684
2096921,2096921, 148240, 701744
2096921,2096921, 148073, 701663
2096921,2096921, 148276, 701700
2096921,2096921, 148558, 701388
2096921,2096921, 148534, 701384
2096921,2096921, 148550, 701637
2096921,2096921, 148462, 701904
2096921,2096921, 148496, 702144
2096921,2096921, 148481, 701815
2096921,2096921, 148451, 701798
2096921,2096921, 148252, 701798
2096921,2096921, 148492, 701763
2096921,2096921, 147934, 701885
2096921,2096921, 148469, 702055
2096921,2096921, 148581, 701956
2096921,2096921, 148730, 702583
2096921,2096921, 148627, 702717
2096921,2096921, 148339, 702557
2096921,2096921, 148477, 702345
2096921,2096921, 148751, 702436
2096921,2096921, 148791, 702682
2096921,2096921, 148874, 702570
2096921,2096921, 148858, 703021
2096921,2096921, 148789, 702935
2096921,2096921, 148931, 703004
2096921,2096921, 148867, 703003
2096921,2096921, 148848, 703137
2096921,2096921, 148830, 702879
2096921,2096921, 148833, 703058
2096921,2096921, 148711, 703172
2096921,2096921, 148563, 703252
2096921,2096921, 148924, 703170
2096921,2096921, 148900, 703453
2096921,2096921, 149132, 703340
2096921,2096921, 149109, 703411
2096921,2096921, 149119, 703498
2096921,2096921, 148880, 703403
2096921,2096921, 148866, 703461
2096921,2096921, 149031, 703331
2096921,2096921, 149268, 703010
2096921,2096921, 149260, 703336
2096921,2096921, 149393, 703626
2096921,2096921, 148908, 703907
2096921,2096921, 148796, 703376
2096921,2096921, 149284, 703603
2096921,2096921, 149162, 703640
2096921,2096921, 149049, 703820
2096921,2096921, 149428, 703917
2096921,2096921, 149092, 704143
2096921,2096921, 149104, 704246
2096921,2096921, 149202, 704333
2096921,2096921, 149224, 704430
2096921,2096921, 149207, 704448
2096921,2096921, 149073, 704235
2096921,2096921, 148982, 704599
2096921,2096921, 149080, 704592
2096921,2096921, 149315, 704546
2096921,2096921, 149474, 704425
2096921,2096921, 149354, 704406
2096921,2096921, 149474, 704523
2096921,2096921, 149802, 704727
2096921,2096921, 149545, 704800
2096921,2096921, 149546, 704693
2096921,2096921, 149385, 704766
2096921,2096921, 149662, 704887
2096921,2096921, 149718, 705017
2096921,2096921, 149453, 705045
2096921,2096921, 149428, 705091
2096921,2096921, 149465, 704908
2096921,2096921, 149939, 705088
2096921,2096921, 149797, 705194
2096921,2096921, 149798, 705436
2096921,2096921, 149738, 705276
2096921,2096921, 149493, 705367
2096921,2096921, 149353, 704825
2096921,2096921, 149352, 705208
2096921,2096921, 149586, 705160
2096921,2096921, 149956, 705457
2096921,2096921, 149877, 705318
2096921,2096921, 149837, 705777
2096921,2096921, 149982, 705336
2096921,2096921, 149855, 705575
2096921,2096921, 149826, 705378
2096921,2096921, 149882, 705597
2096921,2096921, 149949, 705255
2096921,2096921, 149856, 705604
2096921,2096921, 149905, 705821
2096921,2096921, 149778, 706083
2096921,2096921, 150153, 705775
2096921,2096921, 149974, 705774
2096921,2096921, 149887, 705820
2096921,2096921, 149548, 705769
2096921,2096921, 149787, 705932
2096921,2096921, 149832, 705833
2096921,2096921, 150089, 705943
2096921,2096921, 150022, 706254
2096921,2096921, 150156, 706163
2096921,2096921, 150257, 706287
2096921,2096921, 150089, 706325
2096921,2096921, 150062, 706314
2096921,2096921, 150179, 706076
2096921,2096921, 149914, 705955
2096921,2096921, 150079, 705900
2096921,2096921, 150067, 706300
2096921,2096921, 150082, 706562
2096921,2096921, 150245, 706357
2096921,2096921, 150500, 706553
2096921,2096921, 150271, 706433
2096921,2096921, 150154, 706551
2096921,2096921, 150355, 706554
2096921,2096921, 150360, 706581
2096921,2096921, 150512, 706539
2096921,2096921, 150451, 706510
2096921,2096921, 150208, 706848
2096921,2096921, 150236, 707040
2096921,2096921, 150366, 706770
2096921,2096921, 150140, 706579
2096921,2096921, 149998, 707013
2096921,2096921, 149870, 706688
2096921,2096921, 150135, 707082
2096921,2096921, 150349, 707198
2096921,2096921, 150544, 707128
2096921,2096921, 150306, 707078
2096921,2096921, 150432, 707183
2096921,2096921, 150475, 707245
2096921,2096921, 150292, 707268
2096921,2096921, 150503, 707325
2096921,2096921, 150267, 707289
2096921,2096921, 150374, 707337
2096921,2096921, 150515, 707428
2096921,2096921, 150577, 707157
2096921,2096921, 150623, 707573
2096921,2096921, 150345, 707210
2096921,2096921, 150497, 707368
2096921,2096921, 150453, 707127
2096921,2096921, 150281, 707276
2096921,2096921, 150479, 707277
2096921,2096921, 150430, 707428
2096921,2096921, 150346, 707548
2096921,2096921, 150324, 707611
2096921,2096921, 150566, 707641
2096921,2096921, 150478, 707627
2096921,2096921, 150585, 707646
2096921,2096921, 150779, 707647
2096921,2096921, 150367, 707467
2096921,2096921, 150522, 707621
2096921,2096921, 150492, 707748
2096921,2096921, 150429, 707727
2096921,2096921, 150696, 707443
2096921,2096921, 150531, 707810
2096921,2096921, 150417, 707873
2096921,2096921, 150612, 708011
2096921,2096921, 150654, 707995
2096921,2096921, 150536, 707587
2096921,2096921, 150633, 708038
2096921,2096921, 150565, 707880
2096921,2096921, 150650, 707757
2096921,2096921, 150469, 707811
2096921,2096921, 150623, 707731
2096921,2096921, 150565, 708056
2096921,2096921, 150710, 708150
2096921,2096921, 150682, 707868
2096921,2096921, 150689, 708063
2096921,2096921, 150573, 708011
2096921,2096921, 150599, 708028
2096921,2096921, 150619, 707677
2096921,2096921, 150405, 707912
2096921,2096921, 150601, 708106
2096921,2096921, 150634, 708068
2096921,2096921, 150773, 708211
2096921,2096921, 150574, 708123
2096921,2096921, 150549, 708199
2096921,2096921, 150443, 708333
2096921,2096921, 150608, 708196
2096921,2096921, 150496, 708300
2096921,2096921, 150617, 708465
2096921,2096921, 150591, 708259
2096921,2096921, 150889, 708344
2096921,2096921, 150864, 708088
2096921,2096921, 150716, 708162
2096921,2096921, 150788, 708196
2096921,2096921, 150708, 708184
2096921,2096921, 150769, 708294
2096921,2096921, 150745, 708317
2096921,2096921, 150847, 708533
2096921,2096921, 150705, 708539
2096921,2096921, 150738, 708481
2096921,2096921, 150612, 708330
2096921,2096921, 150870, 708541
2096921,2096921, 150761, 708566
2096921,2096921, 150577, 708411
2096921,2096921, 150841, 708796
2096921,2096921, 150966, 708443
2096921,2096921, 150774, 708597
2096921,2096921, 150938, 708308
2096921,2096921, 150976, 708744
2096921,2096921, 151184, 708462
2096921,2096921, 150910, 708811
2096921,2096921, 150809, 708582
2096921,2096921, 150730, 708609
2096921,2096921, 150693, 708449
2096921,2096921, 150964, 708583
2096921,2096921, 151016, 708634
2096921,2096921, 151080, 708735
2096921,2096921, 151001, 708701
2096921,2096921, 150990, 709003
2096921,2096921, 151049, 708801
2096921,2096921, 151000, 708802
2096921,2096921, 150771, 708704
2096921,2096921, 150735, 708622
2096921,2096921, 151156, 708896
2096921,2096921, 150894, 709196
2096921,2096921, 150926, 708923
2096921,2096921, 150904, 708788
2096921,2096921, 151126, 708983
2096921,2096921, 151134, 708972
2096921,2096921, 150839, 708871
2096921,2096921, 150909, 708994
2096921,2096921, 151030, 708921
2096921,2096921, 150806, 708602
2096921,2096921, 150904, 708769
2096921,2096921, 151005, 708815
2096921,2096921, 151237, 708990
2096921,2096921, 151059, 708766
2096921,2096921, 151131, 709025
2096921,2096921, 151238, 708948
2096921,2096921, 151099, 709085
2096921,2096921, 150915, 709236
2096921,2096921, 150943, 708948
2096921,2096921, 151157, 708967
2096921,2096921, 151180, 708815
2096921,2096921, 150983, 708900
2096921,2096921, 151203, 708966
2096921,2096921, 150852, 708855
2096921,2096921, 151284, 709092
2096921,2096921, 151276, 709076
2096921,2096921, 150856, 708949
2096921,2096921, 150825, 709155
2096921,2096921, 150997, 708989
2096921,2096921, 150977, 708926
2096921,2096921, 150682, 709009
2096921,2096921, 151247, 709148
2096921,2096921, 151031, 708983
2096921,2096921, 150989, 709010
2096921,2096921, 150892, 709062
2096921,2096921, 151251, 709128
2096921,2096921, 151170, 709172
2096921,2096921, 151395, 709241
2096921,2096921, 151098, 709156
2096921,2096921, 150941, 708833
2096921,2096921, 150838, 708748
2096921,2096921, 151025, 708669
2096921,2096921, 151088, 708623
2096921,2096921, 151299, 709112
2096921,2096921, 151058, 709058
2096921,2096921, 150841, 708999
2096921,2096921, 151109, 708950
2096921,2096921, 151175, 709045
2096921,2096921, 151268, 709306
2096921,2096921, 151030, 709177
2096921,2096921, 151027, 708901
2096921,2096921, 150969, 708846
2096921,2096921, 151058, 708730
2096921,2096921, 151227, 708943
2096921,2096921, 151003, 709143
2096921,2096921, 151131, 708931
2096921,2096921, 151120, 709049
2096921,2096921, 150747, 709141
2096921,2096921, 151050, 708958
2096921,2096921, 150858, 709223
2096921,2096921, 151158, 709299
2096921,2096921, 151026, 708820
2096921,2096921, 151197, 709341
2096921,2096921, 151225, 709346
2096921,2096921, 151285, 709447
2096921,2096921, 151069, 709040
2096921,2096921, 151261, 709135
2096921,2096921, 151051, 709409
2096921,2096921, 150975, 708951
2096921,2096921, 150693, 708633
2096921,2096921, 150827, 708542
2096921,2096921, 150749, 709029
2096921,2096921, 151063, 708828
2096921,2096921, 150757, 708774
2096921,2096921, 151008, 708807
2096921,2096921, 150890, 708129
2096921,2096921, 150841, 708255
2096921,2096921, 150734, 708137
2096921,2096921, 150624, 708511
2096921,2096921, 150669, 708135
2096921,2096921, 150687, 707773
2096921,2096921, 150453, 707558
2096921,2096921, 150641, 707536
2096921,2096921, 150590, 707662
2096921,2096921, 150203, 707243
2096921,2096921, 150225, 706711
2096921,2096921, 150189, 706779
2096921,2096921, 150197, 706731
2096921,2096921, 150215, 706924
2096921,2096921, 150004, 706584
2096921,2096921, 149628, 706155
2096921,2096921, 149894, 706180
2096921,2096921, 149741, 706109
2096921,2096921, 149962, 705923
2096921,2096921, 149420, 705238
2096921,2096921, 148960, 704337
2096921,2096921, 149129, 704010
2096921,2096921, 149247, 704167
2096921,2096921, 149357, 704140
2096921,2096921, 148747, 703205
2096921,2096921, 148283, 702023
2096921,2096921, 148166, 701727
2096921,2096921, 148330, 701507
2096921,2096921, 147903, 701561
2096921,2096921, 147843, 700761
2096921,2096921, 147613, 700127
2096921,2096921, 147423, 699840
2096921,2096921, 147637, 699793
2096921,2096921, 147663, 699772
2096921,2096921, 147275, 699483
2096921,2096921, 147184, 698400
2096921,2096921, 147108, 698592
2096921,2096921, 147245, 698267
2096921,2096921, 147051, 698456
2096921,2096921, 146667, 698049
2096921,2096921, 146910, 697290
2096921,2096921, 146884, 697567
2096921,2096921, 146760, 697560
2096921,2096921, 146700, 697570
2096921,2096921, 146374, 697134
2096921,2096921, 146381, 696874
2096921,2096921, 146175, 696663
2096921,2096921, 146368, 696681
2096921,2096921, 146619, 696562
2096921,2096921, 146397, 696535
2096921,2096921, 146541, 696056
2096921,2096921, 146557, 696013
2096921,2096921, 146467, 695908
2096921,2096921, 146505, 695932
2096921,2096921, 146471, 695936
2096921,2096921, 146257, 695497
2096921,2096921, 146017, 695594
2096921,2096921, 146109, 695734
2096921,2096921, 145733, 695752
2096921,2096921, 146108, 695707
2096921,2096921, 146131, 695547
2096921,2096921, 146038, 695588
2096921,2096921, 146120, 695577
2096921,2096921, 146069, 695758
2096921,2096921, 146312, 695886
2096921,2096921, 146230, 695769
2096921,2096921, 146130, 695740
2096921,2096921, 146103, 695760
2096921,2096921, 146000, 695438
2096921,2096921, 145891, 695591
2096921,2096921, 146144, 695977
2096921,2096921, 146339, 695819
2096921,2096921, 146297, 695992
2096921,2096921, 146111, 695593
2096921,2096921, 146161, 695764
2096921,2096921, 146293, 696062
2096921,2096921, 146332, 695852
2096921,2096921, 146121, 695928
2096921,2096921, 146286, 695552
2096921,2096921, 146332, 695680
2096921,2096921, 146423, 696203
2096921,2096921, 146492, 696103
2096921,2096921, 146359, 696306
2096921,2096921, 146313, 696068
2096921,2096921, 146546, 696395
2096921,2096921, 146161, 696595
2096921,2096921, 146483, 696304
2096921,2096921, 146512, 696504
2096921,2096921, 146625, 696574
2096921,2096921, 146427, 696646
2096921,2096921, 146902, 696912
2096921,2096921, 146474, 696811
2096921,2096921, 146527, 697024
2096921,2096921, 146570, 696850
2096921,2096921, 146758, 696890
2096921,2096921, 146756, 696857
2096921,2096921, 146464, 697008
2096921,2096921, 146699, 697140
2096921,2096921, 146656, 697311
2096921,2096921, 146951, 697517
2096921,2096921, 146886, 697714
2096921,2096921, 146832, 697694
2096921,2096921, 146699, 697846
2096921,2096921, 146676, 697774
2096921,2096921, 146834, 698002
2096921,2096921, 147136, 697892
2096921,2096921, 147259, 698217
2096921,2096921, 147100, 698338
2096921,2096921, 147258, 697921
2096921,2096921, 147234, 698041
2096921,2096921, 146930, 698436
2096921,2096921, 146982, 698542
2096921,2096921, 147261, 698583
2096921,2096921, 147210, 698331
2096921,2096921, 147321, 698726
2096921,2096921, 147272, 698785
2096921,2096921, 147510, 698849
2096921,2096921, 147541, 698789
2096921,2096921, 147377, 698911
2096921,2096921, 147263, 698999
2096921,2096921, 147170, 699359
2096921,2096921, 147497, 699289
2096921,2096921, 147406, 699350
2096921,2096921, 147634, 699560
2096921,2096921, 147547, 699593
2096921,2096921, 147613, 699840
2096921,2096921, 147336, 699721
2096921,2096921, 147536, 699735
2096921,2096921, 147642, 699714
2096921,2096921, 147891, 699830
2096921,2096921, 147740, 699908
2096921,2096921, 147946, 700217
2096921,2096921, 147771, 700454
2096921,2096921, 147635, 700297
2096921,2096921, 147857, 699945
2096921,2096921, 147778, 700917
2096921,2096921, 147780, 700720
2096921,2096921, 147953, 700127
2096921,2096921, 148312, 700445
2096921,2096921, 147970, 700947
2096921,2096921, 148417, 701153
2096921,2096921, 148256, 701133
2096921,2096921, 148390, 701298
2096921,2096921, 148014, 701195
2096921,2096921, 148177, 701054
2096921,2096921, 148394, 701389
2096921,2096921, 148104, 701390
2096921,2096921, 148013, 701270
2096921,2096921, 148285, 701383
2096921,2096921, 148529, 701419
2096921,2096921, 148250, 701780
2096921,2096921, 148317, 701897
2096921,2096921, 148322, 701844
2096921,2096921, 148298, 701505
2096921,2096921, 148508, 701788
2096921,2096921, 148471, 701849
2096921,2096921, 148678, 702004
2096921,2096921, 148533, 702038
2096921,2096921, 148521, 702028
2096921,2096921, 148716, 701764
2096921,2096921, 148610, 701908
2096921,2096921, 148593, 701865
2096921,2096921, 148434, 702173
2096921,2096921, 148436, 702474
2096921,2096921, 148567, 702401
2096921,2096921, 148550, 701989
2096921,2096921, 148611, 702545
2096921,2096921, 148682, 702469
2096921,2096921, 148438, 702386
2096921,2096921, 148756, 702059
2096921,2096921, 148831, 702288
2096921,2096921, 148830, 701956
2096921,2096921, 148782, 701838
2096921,2096921, 148414, 702082
2096921,2096921, 148659, 702454
2096921,2096921, 148653, 702516
2096921,2096921, 148623, 702387
2096921,2096921, 148564, 702212
2096921,2096921, 148505, 702568
2096921,2096921, 148665, 702162
2096921,2096921, 148417, 702032
2096921,2096921, 148553, 702207
2096921,2096921, 148594, 702453
2096921,2096921, 148605, 702246
2096921,2096921, 148505, 702095
2096921,2096921, 148587, 701908
2096921,2096921, 148283, 702148
2096921,2096921, 148261, 701937
2096921,2096921, 148587, 701888
2096921,2096921, 148491, 701873
2096921,2096921, 148348, 701706
2096921,2096921, 148376, 701718
2096921,2096921, 148346, 701763
2096921,2096921, 148427, 702075
2096921,2096921, 148623, 702079
2096921,2096921, 148542, 701746
2096921,2096921, 148719, 701738
2096921,2096921, 148279, 701836
2096921,2096921, 148363, 701857
2096921,2096921, 148398, 701948
2096921,2096921, 148535, 701519
2096921,2096921, 148421, 701701
2096921,2096921, 148377, 701480
2096921,2096921, 148227, 701550
2096921,2096921, 148437, 701578
2096921,2096921, 148018, 701903
2096921,2096921, 148268, 701551
2096921,2096921, 148486, 701537
2096921,2096921, 148199, 701551
2096921,2096921, 148527, 701670
2096921,2096921, 148549, 701715
2096921,2096921, 148095, 701793
2096921,2096921, 148204, 701999
2096921,2096921, 148691, 701753
2096921,2096921, 148318, 701499
2096921,2096921, 148363, 701614
2096921,2096921, 148271, 701601
2096921,2096921, 148182, 701423
2096921,2096921, 148420, 701273
2096921,2096921, 148420, 701685
2096921,2096921, 148490, 702133
2096921,2096921, 148552, 702033
2096921,2096921, 148278, 701846
2096921,2096921, 148348, 701652
2096921,2096921, 148541, 701811
2096921,2096921, 148799, 701769
2096921,2096921, 148530, 701969
2096921,2096921, 148582, 701958
2096921,2096921, 148458, 702364
2096921,2096921, 148651, 702100
2096921,2096921, 148614, 702136
2096921,2096921, 148521, 702331
2096921,2096921, 148660, 702268
2096921,2096921, 148532, 702475
2096921,2096921, 148594, 702175
2096921,2096921, 148634, 702498
2096921,2096921, 148481, 702716
2096921,2096921, 148710, 702874
2096921,2096921, 148629, 702962
2096921,2096921, 148717, 702715
2096921,2096921, 148739, 702898
2096921,2096921, 148927, 702787
2096921,2096921, 148573, 702796
2096921,2096921, 148808, 702761
2096921,2096921, 148743, 702727
2096921,2096921, 148839, 702930
2096921,2096921, 148815, 703193
2096921,2096921, 148726, 703250
2096921,2096921, 149003, 702995
2096921,2096921, 148702, 703242
2096921,2096921, 148805, 703170
2096921,2096921, 148934, 703223
2096921,2096921, 149087, 703509
2096921,2096921, 148967, 703607
2096921,2096921, 149014, 703403
2096921,2096921, 149050, 703498
2096921,2096921, 149084, 703271
2096921,2096921, 149126, 703693
2096921,2096921, 149044, 703851
2096921,2096921, 149129, 703815
2096921,2096921, 149323, 703747
2096921,2096921, 149128, 704130
2096921,2096921, 149077, 704128
2096921,2096921, 149224, 703984
2096921,2096921, 149079, 704399
2096921,2096921, 149254, 704173
2096921,2096921, 149185, 704432
2096921,2096921, 149100, 704149
2096921,2096921, 149400, 704064
2096921,2096921, 149450, 704311
2096921,2096921, 149400, 704095
2096921,2096921, 149447, 704277
2096921,2096921, 149639, 704411
2096921,2096921, 149616, 704510
2096921,2096921, 149570, 704678
2096921,2096921, 149569, 704368
2096921,2096921, 149503, 704434
2096921,2096921, 149318, 704417
2096921,2096921, 149467, 704502
2096921,2096921, 149350, 704430
2096921,2096921, 149306, 704566
2096921,2096921, 149595, 704586
2096921,2096921, 149613, 704931
2096921,2096921, 149493, 704750
2096921,2096921, 149471, 705028
2096921,2096921, 149492, 704842
2096921,2096921, 149479, 705081
2096921,2096921, 149324, 704911
2096921,2096921, 149296, 704880
2096921,2096921, 149687, 705042
2096921,2096921, 149447, 705271
2096921,2096921, 149888, 705466
2096921,2096921, 149623, 705305
2096921,2096921, 149930, 705450
2096921,2096921, 149661, 705520
2096921,2096921, 149686, 705593
2096921,2096921, 149843, 705429
2096921,2096921, 149729, 705273
2096921,2096921, 149802, 705439
2096921,2096921, 149849, 705566
2096921,2096921, 149943, 705725
2096921,2096921, 150211, 705902
2096921,2096921, 149710, 705964
2096921,2096921, 149852, 706013
2096921,2096921, 149723, 705986
2096921,2096921, 150112, 706020
2096921,2096921, 149890, 705967
2096921,2096921, 149686, 705952
2096921,2096921, 150030, 705762
2096921,2096921, 150162, 705849
2096921,2096921, 150070, 706322
2096921,2096921, 150257, 706077
2096921,2096921, 150363, 706161
2096921,2096921, 150006, 706119
2096921,2096921, 149836, 706108
2096921,2096921, 149884, 706597
2096921,2096921, 149957, 706220
2096921,2096921, 150117, 706577
2096921,2096921, 149898, 706580
2096921,2096921, 149952, 706224
2096921,2096921, 149951, 706176
2096921,2096921, 150174, 706280
2096921,2096921, 150126, 706658
2096921,2096921, 150001, 706468
2096921,2096921, 149939, 706699
2096921,2096921, 149951, 706691
2096921,2096921, 150372, 706801
2096921,2096921, 150062, 706687
2096921,2096921, 149901, 706809
2096921,2096921, 150113, 706656
2096921,2096921, 150081, 706741
2096921,2096921, 150061, 706504
2096921,2096921, 150157, 706884
2096921,2096921, 150272, 706788
2096921,2096921, 150282, 706982
2096921,2096921, 150436, 707134
2096921,2096921, 150402, 706740
2096921,2096921, 150225, 706905
2096921,2096921, 150262, 707099
2096921,2096921, 150258, 707013
2096921,2096921, 150123, 707048
2096921,2096921, 150254, 707226
2096921,2096921, 150372, 707223
2096921,2096921, 150397, 706975
2096921,2096921, 150369, 707542
2096921,2096921, 150181, 707243
2096921,2096921, 150225, 707490
2096921,2096921, 150312, 707364
2096921,2096921, 150292, 707176
2096921,2096921, 150169, 707235
2096921,2096921, 149992, 707557
2096921,2096921, 150105, 707344
2096921,2096921, 150647, 707248
2096921,2096921, 150466, 707562
2096921,2096921, 150462, 707270
2096921,2096921, 150344, 707550
2096921,2096921, 150555, 707542
2096921,2096921, 150636, 707834
2096921,2096921, 150484, 707602
2096921,2096921, 150440, 707890
2096921,2096921, 150412, 707570
2096921,2096921, 150522, 707747
2096921,2096921, 150647, 707856
2096921,2096921, 150538, 707933
2096921,2096921, 150501, 707727
2096921,2096921, 150429, 707875
2096921,2096921, 150530, 707740
2096921,2096921, 150497, 708032
2096921,2096921, 150787, 707769
2096921,2096921, 150652, 707818
2096921,2096921, 150207, 708004
2096921,2096921, 150681, 707911
2096921,2096921, 150669, 707852
2096921,2096921, 151089, 707789
2096921,2096921, 150610, 707839
2096921,2096921, 150919, 707966
2096921,2096921, 150589, 708021
2096921,2096921, 150572, 707883
2096921,2096921, 150569, 707829
2096921,2096921, 150447, 707920
2096921,2096921, 150528, 707977
2096921,2096921, 150606, 708175
2096921,2096921, 150702, 708137
2096921,2096921, 150438, 708269
2096921,2096921, 150741, 708533
2096921,2096921, 150515, 708346
2096921,2096921, 150699, 708098
2096921,2096921, 150978, 707979
2096921,2096921, 151001, 708439
2096921,2096921, 150813, 708249
2096921,2096921, 151017, 708473
2096921,2096921, 150686, 708115
2096921,2096921, 150718, 708313
2096921,2096921, 150583, 708096
2096921,2096921, 150862, 708431
2096921,2096921, 150911, 708417
2096921,2096921, 150876, 708192
2096921,2096921, 150772, 708108
2096921,2096921, 150765, 708145
2096921,2096921, 150804, 708363
2096921,2096921, 150934, 708388
2096921,2096921, 150810, 708380
2096921,2096921, 150590, 708319
2096921,2096921, 150730, 708359
2096921,2096921, 150718, 708193
2096921,2096921, 150615, 708449
2096921,2096921, 150747, 708385
2096921,2096921, 150892, 708460
2096921,2096921, 150799, 708602
2096921,2096921, 150782, 708444
2096921,2096921, 150979, 708696
2096921,2096921, 150907, 708642
2096921,2096921, 150728, 708876
2096921,2096921, 150995, 708586
2096921,2096921, 150815, 708422
2096921,2096921, 151113, 708628
2096921,2096921, 150886, 708752
2096921,2096921, 151056, 708816
2096921,2096921, 151017, 708503
2096921,2096921, 150912, 708787
2096921,2096921, 150878, 708525
2096921,2096921, 150565, 708687
2096921,2096921, 150873, 708669
2096921,2096921, 151062, 709012
2096921,2096921, 151017, 709158
2096921,2096921, 151192, 708884
2096921,2096921, 151030, 709074
2096921,2096921, 150771, 709047
2096921,2096921, 150856, 708652
2096921,2096921, 151115, 708727
2096921,2096921, 150988, 708697
2096921,2096921, 151195, 708964
2096921,2096921, 150613, 708620
2096921,2096921, 150485, 708933
2096921,2096921, 150461, 708782
2096921,2096921, 151106, 708905
2096921,2096921, 150852, 708713
2096921,2096921, 150864, 708975
2096921,2096921, 150909, 708653
2096921,2096921, 151093, 708891
2096921,2096921, 151072, 709449
2096921,2096921, 151187, 709185
2096921,2096921, 151047, 709139
2096921,2096921, 150860, 709186
2096921,2096921, 151400, 708904
2096921,2096921, 151170, 708845
2096921,2096921, 151235, 709164
2096921,2096921, 150927, 708903
2096921,2096921, 151285, 709074
2096921,2096921, 150818, 708870
2096921,2096921, 151190, 708847
2096921,2096921, 151137, 709111
2096921,2096921, 151031, 709312
2096921,2096921, 150976, 708958
2096921,2096921, 151091, 709016
2096921,2096921, 150951, 708910
2096921,2096921, 150856, 708830
2096921,2096921, 151164, 709086
2096921,2096921, 151261, 709033
2096921,2096921, 151175, 708818
2096921,2096921, 151429, 709053
2096921,2096921, 151113, 709216
2096921,2096921, 151202, 709103
2096921,2096921, 151037, 708985
2096921,2096921, 150770, 708984
2096921,2096921, 151094, 708902
2096921,2096921, 151173, 708926
2096921,2096921, 151100, 708861
2096921,2096921, 151107, 709036
2096921,2096921, 150975, 708874
2096921,2096921, 150977, 709199
2096921,2096921, 151054, 709215
2096921,2096921, 151329, 709238
2096921,2096921, 150996, 709022
2096921,2096921, 150949, 708910
2096921,2096921, 150952, 708829
2096921,2096921, 150805, 708796
2096921,2096921, 151140, 708969
2096921,2096921, 151072, 709225
2096921,2096921, 151118, 709341
2096921,2096921, 151213, 709301
2096921,2096921, 151167, 708900
2096921,2096921, 151159, 708897
2096921,2096921, 151204, 709136
2096921,2096921, 150966, 708772
2096921,2096921, 151069, 709119
2096921,2096921, 150915, 708906
2096921,2096921, 151251, 708868
2096921,2096921, 151177, 708927
2096921,2096921, 150965, 709335
2096921,2096921, 150961, 709360
2096921,2096921, 151269, 709298
2096921,2096921, 151014, 709067
2096921,2096921, 150993, 709115
2096921,2096921, 151134, 708531
2096921,2096921, 151088, 708490
2096921,2096921, 150734, 708516
2096921,2096921, 150806, 708575
2096921,2096921, 150926, 708408
2096921,2096921, 150867, 708497
2096921,2096921, 150826, 708202
2096921,2096921, 150894, 708310
2096921,2096921, 150813, 708234
2096921,2096921, 150480, 708207
2096921,2096921, 150386, 708028
2096921,2096921, 150379, 707609
2096921,2096921, 150555, 707762
2096921,2096921, 150501, 707875
2096921,2096921, 150460, 707896
2096921,2096921, 150294, 707405
2096921,2096921, 150654, 707081
2096921,2096921, 150230, 707005
2096921,2096921, 150416, 706767
2096921,2096921, 150099, 706611
2096921,2096921, 150144, 706200
2096921,2096921, 150138, 705933
2096921,2096921, 150035, 706046
2096921,2096921, 149840, 705897
2096921,2096921, 149595, 705853
2096921,2096921, 149222, 705404
2096921,2096921, 149405, 704302
2096921,2096921, 149366, 704052
2096921,2096921, 149189, 704233
2096921,2096921, 149230, 703815
2096921,2096921, 148422, 703238
2096921,2096921, 148449, 701941
2096921,2096921, 148388, 701719
2096921,2096921, 148398, 701570
2096921,2096921, 148094, 701879
2096921,2096921, 147804, 700632
2096921,2096921, 147583, 699887
2096921,2096921, 147735, 699867
2096921,2096921, 147557, 699996
2096921,2096921, 147702, 699920
2096921,2096921, 147365, 699411
2096921,2096921, 147472, 698625
2096921,2096921, 147259, 698559
2096921,2096921, 147249, 698693
2096921,2096921, 147084, 698451
2096921,2096921, 146612, 698143
2096921,2096921, 146751, 697532
2096921,2096921, 146885, 697601
2096921,2096921, 147003, 697444
2096921,2096921, 146974, 697429
2096921,2096921, 146544, 697145
2096921,2096921, 146430, 697124
2096921,2096921, 146557, 696839
2096921,2096921, 146249, 696611
2096921,2096921, 146593, 696357
2096921,2096921, 146477, 696557
2096921,2096921, 146355, 696400
2096921,2096921, 146300, 696517
2096921,2096921, 146277, 695913
2096921,2096921, 146483, 696278
2096921,2096921, 146440, 696103
2096921,2096921, 146093, 695882
2096921,2096921, 146157, 695897
2096921,2096921, 146324, 695835
2096921,2096921, 146544, 695754
2096921,2096921, 146289, 695942
2096921,2096921, 146155, 695798
2096921,2096921, 146091, 695605
2096921,2096921, 146000, 695776
2096921,2096921, 146393, 695848
2096921,2096921, 146348, 695417
2096921,2096921, 146134, 695652
2096921,2096921, 146134, 695695
2096921,2096921, 146101, 695642
2096921,2096921, 146143, 695735
2096921,2096921, 145846, 695926
2096921,2096921, 146256, 696033
2096921,2096921, 146402, 696083
2096921,2096921, 146197, 695788
2096921,2096921, 146046, 695729
2096921,2096921, 146203, 695902
2096921,2096921, 146264, 696176
2096921,2096921, 146375, 696064
2096921,2096921, 146284, 696120
2096921,2096921, 146397, 695997
2096921,2096921, 146513, 696312
2096921,2096921, 146368, 696326
2096921,2096921, 146470, 696205
2096921,2096921, 146353, 696102
2096921,2096921, 146397, 696122
2096921,2096921, 146631, 696322
2096921,2096921, 146880, 696462
2096921,2096921, 146607, 696512
2096921,2096921, 146416, 696518
2096921,2096921, 146155, 696511
2096921,2096921, 146652, 696381
2096921,2096921, 146408, 696815
2096921,2096921, 146823, 697007
2096921,2096921, 146747, 696778
2096921,2096921, 146454, 696664
2096921,2096921, 146392, 697071
2096921,2096921, 146867, 697351
2096921,2096921, 146893, 697612
2096921,2096921, 147109, 697666
2096921,2096921, 146681, 697324
2096921,2096921, 146935, 697385
2096921,2096921, 146728, 697534
2096921,2096921, 147073, 697580
2096921,2096921, 146861, 697665
2096921,2096921, 146865, 697672
2096921,2096921, 146776, 698084
2096921,2096921, 147044, 698100
2096921,2096921, 146868, 698594
2096921,2096921, 147223, 698050
2096921,2096921, 147296, 698250
2096921,2096921, 147030, 698214
2096921,2096921, 147183, 698184
2096921,2096921, 147362, 698576
2096921,2096921, 147497, 698661
2096921,2096921, 147449, 698914
2096921,2096921, 147637, 698764
2096921,2096921, 147337, 698943
2096921,2096921, 147377, 699021
2096921,2096921, 147120, 698876
2096921,2096921, 147334, 698946
2096921,2096921, 147595, 699067
2096921,2096921, 147687, 699382
2096921,2096921, 147567, 699370
2096921,2096921, 147596, 699503
2096921,2096921, 147707, 699467
2096921,2096921, 147639, 699441
2096921,2096921, 147371, 699923
2096921,2096921, 147570, 700219
2096921,2096921, 147595, 700084
2096921,2096921, 147802, 700008
2096921,2096921, 148224, 700087
2096921,2096921, 147715, 700405
2096921,2096921, 147742, 700299
2096921,2096921, 147869, 700246
2096921,2096921, 147666, 700480
2096921,2096921, 148216, 700576
2096921,2096921, 148124, 700651
2096921,2096921, 148086, 700633
2096921,2096921, 148021, 701015
2096921,2096921, 147874, 700599
2096921,2096921, 148222, 701035
2096921,2096921, 148133, 701243
2096921,2096921, 148082, 701134
2096921,2096921, 148187, 701482
2096921,2096921, 148393, 701195
2096921,2096921, 148321, 701252
2096921,2096921, 148263, 701543
2096921,2096921, 148262, 701446
2096921,2096921, 148228, 701542
2096921,2096921, 148293, 701388
2096921,2096921, 148409, 701804
2096921,2096921, 148560, 701892
2096921,2096921, 148497, 701986
2096921,2096921, 148269, 701809
2096921,2096921, 148308, 701935
2096921,2096921, 148373, 701817
2096921,2096921, 148279, 702016
2096921,2096921, 148456, 702163
2096921,2096921, 148482, 702005
2096921,2096921, 148355, 702023
2096921,2096921, 148521, 702208
2096921,2096921, 148518, 702354
2096921,2096921, 148332, 702375
2096921,2096921, 148202, 702098
2096921,2096921, 148471, 702163
2096921,2096921, 148456, 702161
2096921,2096921, 148598, 702448
2096921,2096921, 148535, 702455
2096921,2096921, 148523, 702617
2096921,2096921, 148548, 702686
2096921,2096921, 148644, 702702
2096921,2096921, 148602, 702281
2096921,2096921, 148640, 702362
2096921,2096921, 148636, 702180
2096921,2096921, 148434, 702421
2096921,2096921, 148446, 702231
2096921,2096921, 148754, 702186
2096921,2096921, 148808, 702409
2096921,2096921, 148910, 702384
2096921,2096921, 148646, 702670
2096921,2096921, 148512, 702406
2096921,2096921, 148748, 702286
2096921,2096921, 148401, 702006
2096921,2096921, 148417, 702305
2096921,2096921, 148651, 702295
2096921,2096921, 148411, 702284
2096921,2096921, 148506, 702220
2096921,2096921, 148583, 702097
2096921,2096921, 148372, 702017
2096921,2096921, 148458, 702090
2096921,2096921, 148147, 702009
2096921,2096921, 148278, 701733
2096921,2096921, 148445, 702017
2096921,2096921, 148472, 702140
2096921,2096921, 148486, 702213
2096921,2096921, 148327, 702139
2096921,2096921, 148178, 702218
2096921,2096921, 148443, 702115
2096921,2096921, 148229, 701824
2096921,2096921, 148398, 701714
2096921,2096921, 148547, 701824
2096921,2096921, 148625, 701896
2096921,2096921, 148465, 701525
2096921,2096921, 148311, 701528
2096921,2096921, 148343, 701679
2096921,2096921, 148447, 701763
2096921,2096921, 148291, 701787
2096921,2096921, 148396, 701519
2096921,2096921, 148356, 701259
2096921,2096921, 148458, 701499
2096921,2096921, 148307, 701652
2096921,2096921, 148559, 701729
2096921,2096921, 148570, 701814
2096921,2096921, 148463, 701825
2096921,2096921, 148334, 701665
2096921,2096921, 148240, 701918
2096921,2096921, 148211, 701710
2096921,2096921, 148418, 701833
2096921,2096921, 148451, 701569
2096921,2096921, 148444, 701634
2096921,2096921, 148481, 701750
2096921,2096921, 148624, 702041
2096921,2096921, 148471, 702045
2096921,2096921, 148112, 701959
2096921,2096921, 148361, 702092
2096921,2096921, 148539, 702087
2096921,2096921, 148379, 701918
2096921,2096921, 148390, 702093
2096921,2096921, 148428, 701994
2096921,2096921, 148456, 701742
2096921,2096921, 148733, 702068
2096921,2096921, 148688, 702471
2096921,2096921, 148896, 702621
2096921,2096921, 148641, 702592
2096921,2096921, 148556, 702414
2096921,2096921, 148633, 702665
2096921,2096921, 148642, 702724
2096921,2096921, 148754, 702606
2096921,2096921, 148495, 702398
2096921,2096921, 148615, 702386
2096921,2096921, 148989, 702374
2096921,2096921, 148836, 702795
2096921,2096921, 149099, 703045
2096921,2096921, 149043, 703109
2096921,2096921, 149122, 702863
2096921,2096921, 149014, 703241
2096921,2096921, 148874, 703222
2096921,2096921, 148970, 703071
2096921,2096921, 149011, 703211
2096921,2096921, 148872, 703240
2096921,2096921, 149145, 703575
2096921,2096921, 149033, 703672
2096921,2096921, 149326, 703556
2096921,2096921, 149024, 703385
2096921,2096921, 149082, 703723
2096921,2096921, 148635, 703538
2096921,2096921, 148856, 703603
2096921,2096921, 148807, 703392
2096921,2096921, 149109, 703619
2096921,2096921, 149403, 704044
2096921,2096921, 149397, 703990
2096921,2096921, 149317, 704164
2096921,2096921, 149085, 703830
2096921,2096921, 149169, 703668
2096921,2096921, 149336, 703762
2096921,2096921, 149112, 703730
2096921,2096921, 149249, 704152
2096921,2096921, 149083, 704206
2096921,2096921, 149184, 704197
2096921,2096921, 149310, 703960
2096921,2096921, 149594, 704011
2096921,2096921, 149413, 704472
2096921,2096921, 149638, 704184
2096921,2096921, 149287, 704306
2096921,2096921, 149454, 704367
2096921,2096921, 149576, 704631
2096921,2096921, 149685, 704482
2096921,2096921, 149317, 704751
2096921,2096921, 149536, 704756
2096921,2096921, 149326, 704943
2096921,2096921, 149533, 704672
2096921,2096921, 149828, 705071
2096921,2096921, 149556, 704779
2096921,2096921, 149298, 704982
2096921,2096921, 149395, 704695
2096921,2096921, 149649, 705224
2096921,2096921, 149404, 705363
2096921,2096921, 149581, 705341
2096921,2096921, 149919, 705272
2096921,2096921, 149810, 705231
2096921,2096921, 149542, 705283
2096921,2096921, 149801, 705402
2096921,2096921, 149976, 705582
2096921,2096921, 149674, 705473
2096921,2096921, 149791, 705680
2096921,2096921, 149736, 705862
2096921,2096921, 149948, 705730
2096921,2096921, 149814, 705917
2096921,2096921, 149440, 705828
2096921,2096921, 149481, 705714
2096921,2096921, 149912, 705450
2096921,2096921, 149710, 705677
2096921,2096921, 149977, 705557
2096921,2096921, 149925, 705723
2096921,2096921, 149864, 705649
2096921,2096921, 150155, 705644
2096921,2096921, 150202, 705909
2096921,2096921, 149971, 706067
2096921,2096921, 150073, 706013
2096921,2096921, 150043, 705845
2096921,2096921, 150052, 706026
2096921,2096921, 150098, 706111
2096921,2096921, 149755, 706122
2096921,2096921, 150022, 705879
2096921,2096921, 149905, 705935
2096921,2096921, 150210, 705981
2096921,2096921, 150078, 706081
2096921,2096921, 150135, 706163
2096921,2096921, 149989, 706376
2096921,2096921, 149955, 706408
2096921,2096921, 150129, 706595
2096921,2096921, 150075, 706639
2096921,2096921, 149881, 706290
2096921,2096921, 150210, 706705
2096921,2096921, 150164, 706933
2096921,2096921, 150298, 706872
2096921,2096921, 150460, 706755
2096921,2096921, 150324, 706583
2096921,2096921, 150284, 706749
2096921,2096921, 150190, 706810
2096921,2096921, 150187, 706838
2096921,2096921, 150608, 706533
2096921,2096921, 150298, 707095
2096921,2096921, 150325, 706900
2096921,2096921, 150425, 706986
2096921,2096921, 150601, 707175
2096921,2096921, 150514, 707338
2096921,2096921, 150522, 707059
2096921,2096921, 150357, 706999
2096921,2096921, 150297, 707074
2096921,2096921, 150656, 707054
2096921,2096921, 150651, 707373
2096921,2096921, 150385, 707249
2096921,2096921, 150617, 707244
2096921,2096921, 150491, 707136
2096921,2096921, 150379, 707423
2096921,2096921, 150510, 707125
2096921,2096921, 150270, 707295
2096921,2096921, 150378, 707061
2096921,2096921, 150448, 707221
2096921,2096921, 150550, 707134
2096921,2096921, 150411, 707799
2096921,2096921, 150548, 707510
2096921,2096921, 150305, 707501
2096921,2096921, 150241, 707715
2096921,2096921, 150264, 707801
2096921,2096921, 150545, 707521
2096921,2096921, 150550, 707653
2096921,2096921, 150329, 707661
2096921,2096921, 150098, 707556
2096921,2096921, 150554, 707262
2096921,2096921, 150539, 707574
2096921,2096921, 150583, 707732
2096921,2096921, 150764, 707594
2096921,2096921, 150655, 707749
2096921,2096921, 150464, 707523
2096921,2096921, 150583, 707818
2096921,2096921, 150515, 707937
2096921,2096921, 150608, 707977
2096921,2096921, 150767, 707814
2096921,2096921, 150765, 707823
2096921,2096921, 150442, 707908
2096921,2096921, 150624, 708172
2096921,2096921, 150672, 707975
2096921,2096921, 150398, 708257
2096921,2096921, 150557, 707947
2096921,2096921, 150520, 708003
2096921,2096921, 150753, 707972
2096921,2096921, 150270, 708098
2096921,2096921, 150714, 708311
2096921,2096921, 150795, 707774
2096921,2096921, 150785, 708217
2096921,2096921, 150966, 708411
2096921,2096921, 150750, 708303
2096921,2096921, 150543, 708199
2096921,2096921, 150501, 708081
2096921,2096921, 150731, 708459
2096921,2096921, 150776, 708452
2096921,2096921, 150804, 708084
2096921,2096921, 150698, 708117
2096921,2096921, 150688, 708362
2096921,2096921, 150765, 708362
2096921,2096921, 150887, 708144
2096921,2096921, 150979, 708294
2096921,2096921, 150679, 708515
2096921,2096921, 151069, 708362
2096921,2096921, 150727, 708008
2096921,2096921, 150637, 708347
2096921,2096921, 150756, 708245
2096921,2096921, 150502, 708478
2096921,2096921, 151040, 708575
2096921,2096921, 151050, 708509
2096921,2096921, 151187, 708597
2096921,2096921, 150716, 708469
2096921,2096921, 150934, 708389
2096921,2096921, 150624, 708605
2096921,2096921, 150845, 708524
2096921,2096921, 150767, 708495
2096921,2096921, 150522, 708296
2096921,2096921, 150872, 708410
2096921,2096921, 150943, 708310
2096921,2096921, 150840, 708702
2096921,2096921, 150731, 708720
2096921,2096921, 151038, 708461
2096921,2096921, 150962, 708549
2096921,2096921, 150493, 708554
2096921,2096921, 150480, 708355
2096921,2096921, 150699, 708614
2096921,2096921, 150739, 708375
2096921,2096921, 150868, 708548
2096921,2096921, 150764, 708629
2096921,2096921, 151140, 708829
2096921,2096921, 151331, 708418
2096921,2096921, 150991, 708567
2096921,2096921, 150802, 708745
2096921,2096921, 150847, 708613
2096921,2096921, 151157, 708551
2096921,2096921, 150996, 708612
2096921,2096921, 150873, 708990
2096921,2096921, 151076, 708675
2096921,2096921, 151074, 709108
2096921,2096921, 150870, 709039
2096921,2096921, 151025, 708972
2096921,2096921, 150824, 708983
2096921,2096921, 150889, 708875
2096921,2096921, 151030, 708670
2096921,2096921, 150877, 708663
2096921,2096921, 151153, 709053
2096921,2096921, 151033, 708924
2096921,2096921, 150992, 708935
2096921,2096921, 150807, 708751
2096921,2096921, 150796, 709106
2096921,2096921, 151168, 708959
2096921,2096921, 151283, 709308
2096921,2096921, 150853, 709192
2096921,2096921, 151179, 709229
2096921,2096921, 150824, 708761
2096921,2096921, 150974, 708802
2096921,2096921, 150980, 709090
2096921,2096921, 151114, 708754
2096921,2096921, 151123, 708934
2096921,2096921, 151024, 709181
2096921,2096921, 151136, 709275
2096921,2096921, 151183, 709149
2096921,2096921, 151137, 709392
2096921,2096921, 151404, 709159
2096921,2096921, 151128, 709193
2096921,2096921, 151201, 709053
2096921,2096921, 151008, 708802
2096921,2096921, 150840, 708985
2096921,2096921, 150743, 708889
2096921,2096921, 151003, 709115
2096921,2096921, 150962, 709207
2096921,2096921, 151196, 709146
2096921,2096921, 151201, 709249
2096921,2096921, 151043, 709311
2096921,2096921, 150841, 708989
2096921,2096921, 150910, 708929
2096921,2096921, 150941, 708727
2096921,2096921, 150996, 708985
2096921,2096921, 151093, 708702
2096921,2096921, 150959, 709109
2096921,2096921, 150802, 709105
2096921,2096921, 150979, 709274
2096921,2096921, 151122, 709306
2096921,2096921, 150789, 709046
2096921,2096921, 151052, 708956
2096921,2096921, 150859, 708959
2096921,2096921, 151161, 708982
2096921,2096921, 151163, 709041
2096921,2096921, 151201, 709219
2096921,2096921, 150936, 709177
2096921,2096921, 151082, 709091
2096921,2096921, 150777, 708822
2096921,2096921, 151259, 708985
2096921,2096921, 150843, 708948
2096921,2096921, 150893, 708953
2096921,2096921, 151023, 708810
2096921,2096921, 150895, 709154
2096921,2096921, 150975, 709239
2096921,2096921, 151023, 709164
2096921,2096921, 150960, 709018
2096921,2096921, 151190, 708940
2096921,2096921, 151038, 708912
2096921,2096921, 151097, 709179
2096921,2096921, 150651, 708579
2096921,2096921, 150675, 708560
2096921,2096921, 150628, 708478
2096921,2096921, 150502, 708466
2096921,2096921, 151011, 708530
2096921,2096921, 150772, 708508
2096921,2096921, 150898, 708277
2096921,2096921, 150817, 708444
2096921,2096921, 150650, 708273
2096921,2096921, 150867, 708317
2096921,2096921, 150639, 707837
2096921,2096921, 150389, 707596
2096921,2096921, 150523, 707572
2096921,2096921, 150299, 707435
2096921,2096921, 150530, 707391
2096921,2096921, 150349, 707177
2096921,2096921, 150165, 707046
2096921,2096921, 150126, 706904
2096921,2096921, 150402, 706870
2096921,2096921, 149940, 706634
2096921,2096921, 149846, 706586
2096921,2096921, 149913, 706058
2096921,2096921, 149764, 706119
2096921,2096921, 149908, 706047
2096921,2096921, 149692, 705770
2096921,2096921, 149299, 705099
2096921,2096921, 149224, 704307
2096921,2096921, 149014, 703657
2096921,2096921, 149437, 704118
2096921,2096921, 149241, 703858
2096921,2096921, 148586, 702809
2096921,2096921, 148661, 701838
2096921,2096921, 148363, 701682
2096921,2096921, 148337, 701799
2096921,2096921, 148396, 701368
2096921,2096921, 147835, 700607
2096921,2096921, 147544, 700007
2096921,2096921, 147933, 699708
2096921,2096921, 147812, 699908
2096921,2096921, 148018, 699758
2096921,2096921, 147263, 699095
2096921,2096921, 147085, 698398
2096921,2096921, 147072, 698795
2096921,2096921, 147395, 698567
2096921,2096921, 147158, 698598
2096921,2096921, 146657, 697933
2096921,2096921, 146786, 697269
2096921,2096921, 146604, 697261
2096921,2096921, 146680, 697269
2096921,2096921, 146963, 697421
2096921,2096921, 146644, 697202
2096921,2096921, 146501, 696726
2096921,2096921, 146595, 696886
2096921,2096921, 146445, 696610
2096921,2096921, 146436, 696715
2096921,2096921, 146346, 696517
2096921,2096921, 146537, 696219
2096921,2096921, 146633, 696218
2096921,2096921, 146751, 696077
2096921,2096921, 146428, 696290
2096921,2096921, 146268, 696032
2096921,2096921, 146137, 695751
2096921,2096921, 146237, 695691
2096921,2096921, 146440, 695823
2096921,2096921, 146340, 695733
2096921,2096921, 146158, 695698
2096921,2096921, 146167, 695772
2096921,2096921, 146121, 696001
2096921,2096921, 146069, 695698
2096921,2096921, 146279, 696010
2096921,2096921, 146066, 695644
2096921,2096921, 145939, 696240
2096921,2096921, 146282, 695758
2096921,2096921, 146283, 695623
2096921,2096921, 146189, 695630
2096921,2096921, 146288, 695844
2096921,2096921, 146126, 696072
2096921,2096921, 146389, 695897
2096921,2096921, 146214, 696051
2096921,2096921, 146209, 695852
2096921,2096921, 146184, 695982
2096921,2096921, 146458, 696032
2096921,2096921, 146208, 696059
2096921,2096921, 146572, 695877
2096921,2096921, 146434, 696077
2096921,2096921, 146287, 696228
2096921,2096921, 146602, 696258
2096921,2096921, 146586, 696108
2096921,2096921, 146338, 695950
2096921,2096921, 146163, 696009
2096921,2096921, 146211, 696246
2096921,2096921, 146433, 696453
2096921,2096921, 146410, 696692
2096921,2096921, 146363, 696485
2096921,2096921, 146374, 696774
2096921,2096921, 146672, 696684
2096921,2096921, 146529, 696647
2096921,2096921, 146283, 697094
2096921,2096921, 146858, 697033
2096921,2096921, 146913, 696805
2096921,2096921, 146657, 697215
2096921,2096921, 146859, 697265
2096921,2096921, 146908, 697387
2096921,2096921, 146866, 697246
2096921,2096921, 146956, 697352
2096921,2096921, 147259, 697791
2096921,2096921, 146919, 697661
2096921,2096921, 146834, 697858
2096921,2096921, 146621, 697690
2096921,2096921, 146583, 697777
2096921,2096921, 146894, 697936
2096921,2096921, 146819, 697971
2096921,2096921, 147089, 698270
2096921,2096921, 147291, 698408
2096921,2096921, 147052, 698474
2096921,2096921, 147136, 698339
2096921,2096921, 147341, 698659
2096921,2096921, 147340, 698970
2096921,2096921, 147259, 698733
2096921,2096921, 147346, 698840
2096921,2096921, 147344, 698939
2096921,2096921, 147462, 699231
2096921,2096921, 147349, 699136
2096921,2096921, 147454, 699102
2096921,2096921, 147653, 698662
2096921,2096921, 147626, 699080
2096921,2096921, 147586, 699337
2096921,2096921, 147417, 699279
2096921,2096921, 147537, 699532
2096921,2096921, 147336, 699499
2096921,2096921, 147658, 699895
2096921,2096921, 147501, 699773
2096921,2096921, 147717, 699854
2096921,2096921, 147475, 699582
2096921,2096921, 147730, 699771
2096921,2096921, 147704, 700024
2096921,2096921, 147711, 700058
2096921,2096921, 147666, 700376
2096921,2096921, 148044, 700303
2096921,2096921, 147946, 700463
2096921,2096921, 148056, 700661
2096921,2096921, 147956, 700457
2096921,2096921, 148134, 700635
2096921,2096921, 148028, 700355
2096921,2096921, 148022, 700433
2096921,2096921, 147933, 700867
2096921,2096921, 148214, 700879
2096921,2096921, 148331, 701125
2096921,2096921, 148365, 701222
2096921,2096921, 148012, 700982
2096921,2096921, 147823, 701032
2096921,2096921, 148316, 701327
2096921,2096921, 148126, 701481
2096921,2096921, 148363, 701397
2096921,2096921, 148157, 701192
2096921,2096921, 148355, 701300
2096921,2096921, 148498, 701869
2096921,2096921, 148833, 701981
2096921,2096921, 148525, 701917
2096921,2096921, 148250, 701979
2096921,2096921, 148449, 701903
2096921,2096921, 148398, 701733
2096921,2096921, 148258, 701955
2096921,2096921, 148463, 702042
2096921,2096921, 148486, 701948
2096921,2096921, 148527, 702030
2096921,2096921, 148332, 702129
2096921,2096921, 148678, 702107
2096921,2096921, 148556, 701982
2096921,2096921, 148484, 702337
2096921,2096921, 148467, 702194
2096921,2096921, 148680, 702151
2096921,2096921, 148426, 702156
2096921,2096921, 148469, 702264
2096921,2096921, 148697, 702249
2096921,2096921, 148692, 702455
2096921,2096921, 148598, 702353
2096921,2096921, 148550, 702125
2096921,2096921, 148544, 702458
2096921,2096921, 148719, 702238
2096921,2096921, 148484, 702116
2096921,2096921, 148542, 702176
2096921,2096921, 148617, 702370
2096921,2096921, 148450, 702516
2096921,2096921, 148577, 702281
2096921,2096921, 148484, 702521
2096921,2096921, 148501, 702036
2096921,2096921, 148485, 702227
2096921,2096921, 148586, 702252
2096921,2096921, 148627, 702275
2096921,2096921, 148551, 702402
2096921,2096921, 148608, 702345
2096921,2096921, 148378, 702065
2096921,2096921, 148604, 702395
2096921,2096921, 148597, 702505
2096921,2096921, 148467, 702254
2096921,2096921, 148307, 701988
2096921,2096921, 148350, 701856
2096921,2096921, 148560, 701883
2096921,2096921, 148660, 701832
2096921,2096921, 148382, 701931
2096921,2096921, 148424, 701637
2096921,2096921, 148466, 701651
2096921,2096921, 148282, 701842
2096921,2096921, 148346, 701865
2096921,2096921, 148292, 701376
2096921,2096921, 148430, 701644
2096921,2096921, 148235, 701444
2096921,2096921, 148366, 701592
2096921,2096921, 148330, 701479
2096921,2096921, 148228, 701682
2096921,2096921, 148368, 701769
2096921,2096921, 148420, 701775
2096921,2096921, 148454, 701566
2096921,2096921, 148435, 701756
2096921,2096921, 148529, 701734
2096921,2096921, 148322, 701800
2096921,2096921, 148430, 701855
2096921,2096921, 148626, 701444
2096921,2096921, 148217, 701653
2096921,2096921, 148046, 702198
2096921,2096921, 148354, 701841
2096921,2096921, 148294, 701844
2096921,2096921, 148427, 701522
2096921,2096921, 148405, 701790
2096921,2096921, 148331, 701785
2096921,2096921, 148377, 701568
2096921,2096921, 148448, 701663
2096921,2096921, 148564, 701976
2096921,2096921, 148317, 701790
2096921,2096921, 148452, 701559
2096921,2096921, 148564, 702057
2096921,2096921, 148532, 702235
2096921,2096921, 148345, 701969
2096921,2096921, 148399, 701701
2096921,2096921, 148358, 701932
2096921,2096921, 148702, 702135
2096921,2096921, 148644, 702123
2096921,2096921, 148450, 702138
2096921,2096921, 148503, 702411
2096921,2096921, 148544, 702337
2096921,2096921, 148710, 702628
2096921,2096921, 148785, 702499
2096921,2096921, 148705, 702562
2096921,2096921, 148853, 702661
2096921,2096921, 148788, 702748
2096921,2096921, 148796, 702768
2096921,2096921, 148932, 703236
2096921,2096921, 148754, 703091
2096921,2096921, 148944, 702959
2096921,2096921, 149097, 702933
2096921,2096921, 149067, 703032
2096921,2096921, 148929, 702968
2096921,2096921, 149004, 703000
2096921,2096921, 149190, 703052
2096921,2096921, 148955, 703294
2096921,2096921, 149137, 703533
2096921,2096921, 149200, 703430
2096921,2096921, 149263, 703420
2096921,2096921, 149075, 703329
2096921,2096921, 149421, 703516
2096921,2096921, 149017, 703576
2096921,2096921, 149058, 703532
2096921,2096921, 148907, 703644
2096921,2096921, 149044, 703581
2096921,2096921, 149239, 703587
2096921,2096921, 149076, 703846
2096921,2096921, 149268, 703899
2096921,2096921, 149047, 703757
2096921,2096921, 149027, 704005
2096921,2096921, 149149, 703985
2096921,2096921, 149345, 704241
2096921,2096921, 149345, 704020
2096921,2096921, 149032, 704047
2096921,2096921, 149337, 703938
2096921,2096921, 149413, 704283
2096921,2096921, 149579, 704486
2096921,2096921, 149228, 704494
2096921,2096921, 149150, 704565
2096921,2096921, 149223, 704266
2096921,2096921, 149304, 704375
2096921,2096921, 149194, 704548
2096921,2096921, 149316, 704515
2096921,2096921, 149516, 704383
2096921,2096921, 149701, 704499
2096921,2096921, 149708, 704677
2096921,2096921, 149532, 704804
2096921,2096921, 149742, 704849
2096921,2096921, 149356, 704615
2096921,2096921, 149436, 704516
2096921,2096921, 149367, 704906
2096921,2096921, 149598, 705121
2096921,2096921, 149630, 705105
2096921,2096921, 149831, 705007
2096921,2096921, 149743, 705062
2096921,2096921, 149495, 705300
2096921,2096921, 149676, 705088
2096921,2096921, 149621, 705263
2096921,2096921, 149588, 705218
2096921,2096921, 149448, 705010
2096921,2096921, 149934, 705201
2096921,2096921, 149746, 705524
2096921,2096921, 149784, 705530
2096921,2096921, 149960, 705503
2096921,2096921, 149854, 705446
2096921,2096921, 149985, 705640
2096921,2096921, 149701, 705654
2096921,2096921, 150107, 705810
2096921,2096921, 149960, 705786
2096921,2096921, 149751, 705896
2096921,2096921, 149938, 706014
2096921,2096921, 150116, 706257
2096921,2096921, 150106, 706302
2096921,2096921, 149994, 706023
2096921,2096921, 149809, 706057
2096921,2096921, 149747, 706423
2096921,2096921, 149746, 706310
2096921,2096921, 150041, 706132
2096921,2096921, 149862, 706223
2096921,2096921, 149901, 706174
2096921,2096921, 150143, 706354
2096921,2096921, 150300, 706317
2096921,2096921, 150170, 706631
2096921,2096921, 150045, 706702
2096921,2096921, 149986, 706461
2096921,2096921, 150163, 706634
2096921,2096921, 150189, 706460
2096921,2096921, 149937, 706745
2096921,2096921, 150310, 706565
2096921,2096921, 150091, 706476
2096921,2096921, 150194, 706526
2096921,2096921, 150437, 706638
2096921,2096921, 150551, 706452
2096921,2096921, 150225, 706528
2096921,2096921, 150218, 706611
2096921,2096921, 149982, 706769
2096921,2096921, 149909, 707045
2096921,2096921, 150163, 706943
2096921,2096921, 150431, 706804
2096921,2096921, 150279, 706665
2096921,2096921, 150535, 706705
2096921,2096921, 150362, 706876
2096921,2096921, 150095, 706905
2096921,2096921, 150347, 706816
2096921,2096921, 150245, 707067
2096921,2096921, 150491, 707106
2096921,2096921, 150280, 707497
2096921,2096921, 150235, 707318
2096921,2096921, 150289, 707061
2096921,2096921, 150273, 707343
2096921,2096921, 150109, 707198
2096921,2096921, 150577, 707440
2096921,2096921, 150281, 707338
2096921,2096921, 150249, 707240
2096921,2096921, 150250, 707373
2096921,2096921, 150717, 707492
2096921,2096921, 150423, 707232
2096921,2096921, 150322, 707320
2096921,2096921, 150498, 707210
2096921,2096921, 150413, 707314
2096921,2096921, 150286, 707375
2096921,2096921, 150402, 707601
2096921,2096921, 150180, 707363
2096921,2096921, 150425, 707742
2096921,2096921, 150476, 707458
2096921,2096921, 150428, 707532
2096921,2096921, 150437, 707725
2096921,2096921, 150402, 707809
2096921,2096921, 150600, 707682
2096921,2096921, 150412, 707676
2096921,2096921, 150680, 707911
2096921,2096921, 150602, 707856
2096921,2096921, 150657, 707589
2096921,2096921, 150721, 707681
2096921,2096921, 150391, 707302
2096921,2096921, 150582, 707928
2096921,2096921, 150478, 707799
2096921,2096921, 150485, 707847
2096921,2096921, 150604, 707812
2096921,2096921, 150586, 707693
2096921,2096921, 150901, 707552
2096921,2096921, 150735, 707817
2096921,2096921, 150679, 708330
2096921,2096921, 150333, 708145
2096921,2096921, 150413, 708084
2096921,2096921, 150531, 707863
2096921,2096921, 150691, 707765
2096921,2096921, 150759, 707902
2096921,2096921, 150715, 708073
2096921,2096921, 150317, 708180
2096921,2096921, 150756, 708265
2096921,2096921, 150834, 708145
2096921,2096921, 150710, 708053
2096921,2096921, 150502, 707942
2096921,2096921, 150714, 707844
2096921,2096921, 150787, 708083
2096921,2096921, 150915, 708187
2096921,2096921, 150717, 708013
2096921,2096921, 150851, 708251
2096921,2096921, 150840, 708261
2096921,2096921, 150815, 708394
2096921,2096921, 150764, 708134
2096921,2096921, 150770, 708168
2096921,2096921, 150407, 708209
2096921,2096921, 150923, 708362
2096921,2096921, 150999, 708104
2096921,2096921, 150897, 708304
2096921,2096921, 151027, 708432
2096921,2096921, 150689, 708371
2096921,2096921, 151056, 708425
2096921,2096921, 150993, 708452
2096921,2096921, 150901, 708421
2096921,2096921, 150739, 708269
2096921,2096921, 150837, 708445
2096921,2096921, 150822, 708449
2096921,2096921, 150862, 708489
2096921,2096921, 150627, 708713
2096921,2096921, 150792, 708234
2096921,2096921, 151013, 708563
2096921,2096921, 150889, 708633
2096921,2096921, 150979, 708391
2096921,2096921, 150870, 708607
2096921,2096921, 150556, 708676
2096921,2096921, 150700, 708685
2096921,2096921, 150996, 708584
2096921,2096921, 150923, 708626
2096921,2096921, 151021, 708794
2096921,2096921, 151064, 709020
2096921,2096921, 151055, 708694
2096921,2096921, 150825, 708737
2096921,2096921, 150964, 708748
2096921,2096921, 150927, 708712
2096921,2096921, 151096, 708789
2096921,2096921, 151150, 708526
2096921,2096921, 151119, 708704
2096921,2096921, 150930, 708756
2096921,2096921, 150819, 708574
2096921,2096921, 150961, 708732
2096921,2096921, 151131, 709045
2096921,2096921, 150743, 708841
2096921,2096921, 150755, 708986
2096921,2096921, 151073, 708996
2096921,2096921, 151096, 708722
2096921,2096921, 150990, 708791
2096921,2096921, 150995, 708920
2096921,2096921, 150874, 708698
2096921,2096921, 150855, 708744
2096921,2096921, 150892, 708731
2096921,2096921, 151123, 709186
2096921,2096921, 150926, 708858
2096921,2096921, 151084, 708802
2096921,2096921, 150912, 708779
2096921,2096921, 151044, 708682
2096921,2096921, 151008, 708913
2096921,2096921, 151160, 708977
2096921,2096921, 151093, 708816
2096921,2096921, 151232, 708783
2096921,2096921, 151023, 708611
2096921,2096921, 150970, 708790
2096921,2096921, 150979, 708890
2096921,2096921, 150893, 708981
2096921,2096921, 150984, 708545
2096921,2096921, 150973, 708919
2096921,2096921, 151125, 708855
2096921,2096921, 151047, 709094
2096921,2096921, 151064, 709097
2096921,2096921, 151068, 708810
2096921,2096921, 151011, 708804
2096921,2096921, 150811, 708556
2096921,2096921, 151118, 708874
2096921,2096921, 150996, 709004
2096921,2096921, 151129, 708922
2096921,2096921, 150942, 708867
2096921,2096921, 150891, 708774
2096921,2096921, 151317, 709144
2096921,2096921, 150868, 709021
2096921,2096921, 151037, 709125
2096921,2096921, 151106, 708902
2096921,2096921, 151209, 709070
2096921,2096921, 151314, 708793
2096921,2096921, 151102, 708991
2096921,2096921, 151076, 708832
2096921,2096921, 150826, 708768
2096921,2096921, 150990, 708991
2096921,2096921, 151153, 709059
2096921,2096921, 151111, 709098
2096921,2096921, 151135, 708656
2096921,2096921, 151226, 708777
2096921,2096921, 150913, 708887
2096921,2096921, 151009, 709044
2096921,2096921, 150858, 708896
2096921,2096921, 150777, 709171
2096921,2096921, 151107, 709046
2096921,2096921, 151169, 708785
2096921,2096921, 150971, 709079
2096921,2096921, 151319, 709408
2096921,2096921, 151080, 708920
2096921,2096921, 150918, 709135
2096921,2096921, 151077, 708918
2096921,2096921, 151115, 709103
2096921,2096921, 150864, 708650
2096921,2096921, 150881, 708654
2096921,2096921, 151038, 708504
2096921,2096921, 150918, 708560
2096921,2096921, 150690, 708632
2096921,2096921, 150735, 708346
2096921,2096921, 150751, 708170
2096921,2096921, 150607, 708338
2096921,2096921, 150866, 708626
2096921,2096921, 150889, 707825
2096921,2096921, 150647, 708029
2096921,2096921, 150191, 707739
2096921,2096921, 150588, 707499
2096921,2096921, 150392, 707438
2096921,2096921, 150393, 707642
2096921,2096921, 150101, 707101
2096921,2096921, 150247, 706736
2096921,2096921, 149836, 706877
2096921,2096921, 149860, 706696
2096921,2096921, 150178, 706566
2096921,2096921, 149825, 706180
2096921,2096921, 149987, 705829
2096921,2096921, 149712, 705690
2096921,2096921, 149901, 705914
2096921,2096921, 149779, 705880
2096921,2096921, 149348, 705194
2096921,2096921, 149380, 704329
2096921,2096921, 149346, 703782
2096921,2096921, 148990, 703921
2096921,2096921, 148911, 703854
2096921,2096921, 148171, 702608
2096921,2096921, 148488, 701588
2096921,2096921, 148329, 701602
2096921,2096921, 148779, 701794
2096921,2096921, 148333, 701537
2096921,2096921, 147814, 700724
2096921,2096921, 147650, 699897
2096921,2096921, 147834, 699662
2096921,2096921, 147451, 699597
2096921,2096921, 147898, 699815
2096921,2096921, 147637, 698974
2096921,2096921, 147234, 698434
2096921,2096921, 146812, 698307
2096921,2096921, 146939, 698467
2096921,2096921, 147246, 698381
2096921,2096921, 146867, 697690
2096921,2096921, 146725, 697395
2096921,2096921, 146755, 697297
2096921,2096921, 146666, 697202
2096921,2096921, 146969, 697399
2096921,2096921, 146754, 697048
2096921,2096921, 146813, 696815
2096921,2096921, 146605, 696434
2096921,2096921, 146527, 696582
2096921,2096921, 146375, 696476
2096921,2096921, 146337, 696347
2096921,2096921, 146345, 696144
2096921,2096921, 146454, 696027
2096921,2096921, 146252, 696205
2096921,2096921, 146254, 695926
2096921,2096921, 146195, 695857
2096921,2096921, 146172, 695656
2096921,2096921, 146142, 695774
2096921,2096921, 146131, 695827
2096921,2096921, 146578, 695714
2096921,2096921, 146179, 695305
2096921,2096921, 146203, 695801
2096921,2096921, 146484, 695733
2096921,2096921, 146161, 695746
2096921,2096921, 146176, 695651
2096921,2096921, 146160, 695801
2096921,2096921, 146176, 695822
2096921,2096921, 145992, 695584
2096921,2096921, 146098, 695810
2096921,2096921, 146278, 695764
2096921,2096921, 146227, 695457
2096921,2096921, 146101, 695633
2096921,2096921, 146311, 695646
2096921,2096921, 146195, 695749
2096921,2096921, 146303, 695760
2096921,2096921, 146388, 695923
2096921,2096921, 146372, 695805
2096921,2096921, 146330, 695803
2096921,2096921, 146376, 695903
2096921,2096921, 146072, 695987
2096921,2096921, 146445, 695839
2096921,2096921, 146278, 696062
2096921,2096921, 146421, 696109
2096921,2096921, 146141, 695974
2096921,2096921, 146435, 696299
2096921,2096921, 146297, 696427
2096921,2096921, 146350, 696222
2096921,2096921, 145910, 696471
2096921,2096921, 146242, 696386
2096921,2096921, 146512, 696314
2096921,2096921, 146448, 696792
2096921,2096921, 146366, 697039
2096921,2096921, 146367, 697006
2096921,2096921, 146676, 696959
2096921,2096921, 146637, 696843
2096921,2096921, 146351, 696984
2096921,2096921, 146710, 697192
2096921,2096921, 146826, 697264
2096921,2096921, 146749, 696897
2096921,2096921, 146981, 697084
2096921,2096921, 147135, 697581
2096921,2096921, 146923, 697757
2096921,2096921, 147020, 697768
2096921,2096921, 146947, 697731
2096921,2096921, 146916, 697715
2096921,2096921, 147124, 697835
2096921,2096921, 147198, 698309
2096921,2096921, 147245, 698533
2096921,2096921, 147395, 698050
2096921,2096921, 147078, 697975
2096921,2096921, 147269, 698421
2096921,2096921, 147382, 698542
2096921,2096921, 147391, 698673
2096921,2096921, 147011, 698419
2096921,2096921, 147116, 698527
2096921,2096921, 147237, 698746
2096921,2096921, 147519, 699104
2096921,2096921, 147356, 699056
2096921,2096921, 147264, 698974
2096921,2096921, 147323, 698670
2096921,2096921, 147392, 699124
2096921,2096921, 147543, 699144
2096921,2096921, 147475, 699562
2096921,2096921, 147515, 699436
2096921,2096921, 147420, 699355
2096921,2096921, 147682, 699450
2096921,2096921, 147694, 699957
2096921,2096921, 147919, 699896
2096921,2096921, 147254, 699831
2096921,2096921, 147448, 699598
2096921,2096921, 147882, 699965
2096921,2096921, 147746, 700164
2096921,2096921, 147769, 700153
2096921,2096921, 147874, 700501
2096921,2096921, 148032, 700246
2096921,2096921, 148011, 700456
2096921,2096921, 147993, 700505
2096921,2096921, 147677, 700554
2096921,2096921, 147874, 700485
2096921,2096921, 148179, 700699
2096921,2096921, 148190, 700973
2096921,2096921, 148273, 701121
2096921,2096921, 148128, 701090
2096921,2096921, 148095, 701390
2096921,2096921, 148141, 700968
2096921,2096921, 148352, 701251
2096921,2096921, 148300, 701305
2096921,2096921, 148096, 701490
2096921,2096921, 148207, 701499
2096921,2096921, 148244, 701428
2096921,2096921, 148519, 701642
2096921,2096921, 148300, 701704
2096921,2096921, 148455, 701840
2096921,2096921, 148286, 701725
2096921,2096921, 148452, 701951
2096921,2096921, 148228, 701731
2096921,2096921, 148287, 701693
2096921,2096921, 148543, 701789
2096921,2096921, 148473, 701852
2096921,2096921, 148523, 702034
2096921,2096921, 148498, 701998
2096921,2096921, 148617, 702041
2096921,2096921, 148548, 702233
2096921,2096921, 148757, 701896
2096921,2096921, 148746, 702319
2096921,2096921, 148691, 702390
2096921,2096921, 148624, 702520
2096921,2096921, 148412, 702426
2096921,2096921, 148711, 702318
2096921,2096921, 148524, 702382
2096921,2096921, 148778, 702483
2096921,2096921, 148439, 702245
2096921,2096921, 148448, 702400
2096921,2096921, 148546, 702235
2096921,2096921, 148684, 702295
2096921,2096921, 148574, 702377
2096921,2096921, 148640, 702335
2096921,2096921, 148725, 702439
2096921,2096921, 148449, 702640
2096921,2096921, 148234, 702419
2096921,2096921, 148710, 702067
2096921,2096921, 148480, 702280
2096921,2096921, 148470, 702072
2096921,2096921, 148705, 702039
2096921,2096921, 148645, 702241
2096921,2096921, 148549, 702215
2096921,2096921, 148549, 702031
2096921,2096921, 148756, 702183
2096921,2096921, 148299, 701972
2096921,2096921, 148894, 701914
2096921,2096921, 148604, 701971
2096921,2096921, 148524, 701946
2096921,2096921, 148564, 702193
2096921,2096921, 148455, 702108
2096921,2096921, 148385, 701856
2096921,2096921, 148439, 701877
2096921,2096921, 148364, 701980
2096921,2096921, 148227, 701822
2096921,2096921, 148490, 701755
2096921,2096921, 148320, 701846
2096921,2096921, 148443, 701669
2096921,2096921, 148394, 701828
2096921,2096921, 148376, 701794
2096921,2096921, 148409, 701958
2096921,2096921, 148608, 701755
2096921,2096921, 148392, 701522
2096921,2096921, 148370, 701393
2096921,2096921, 148409, 701567
2096921,2096921, 148585, 702038
2096921,2096921, 148584, 701836
2096921,2096921, 148578, 701766
2096921,2096921, 148373, 701662
2096921,2096921, 148628, 701632
2096921,2096921, 148470, 701658
2096921,2096921, 148540, 701569
2096921,2096921, 148422, 701850
2096921,2096921, 148332, 701880
2096921,2096921, 148437, 701863
2096921,2096921, 148248, 702021
2096921,2096921, 148300, 701953
2096921,2096921, 148389, 702027
2096921,2096921, 148400, 701999
2096921,2096921, 148251, 701763
2096921,2096921, 148428, 701791
2096921,2096921, 148453, 701872
2096921,2096921, 148487, 701802
2096921,2096921, 148689, 701927
2096921,2096921, 148371, 702118
2096921,2096921, 148498, 702078
2096921,2096921, 148472, 701989
2096921,2096921, 148404, 702134
2096921,2096921, 148547, 702203
2096921,2096921, 148524, 702446
2096921,2096921, 148465, 702390
2096921,2096921, 148769, 702448
2096921,2096921, 148839, 702661
2096921,2096921, 148846, 702574
2096921,2096921, 148469, 702853
2096921,2096921, 148469, 702789
2096921,2096921, 148542, 702574
2096921,2096921, 148855, 703174
2096921,2096921, 148985, 702766
2096921,2096921, 148773, 703297
2096921,2096921, 148790, 703096
2096921,2096921, 148713, 703268
2096921,2096921, 148760, 703295
2096921,2096921, 148874, 703077
2096921,2096921, 148904, 703216
2096921,2096921, 148740, 703172
2096921,2096921, 148987, 703140
2096921,2096921, 149156, 703402
2096921,2096921, 149242, 703436
2096921,2096921, 148792, 703559
2096921,2096921, 149256, 703665
2096921,2096921, 148974, 703638
2096921,2096921, 149206, 703481
2096921,2096921, 149027, 703576
2096921,2096921, 149183, 703421
2096921,2096921, 148940, 703667
2096921,2096921, 148967, 703592
2096921,2096921, 149189, 703794
2096921,2096921, 149455, 704076
2096921,2096921, 149165, 703787
2096921,2096921, 149200, 704077
2096921,2096921, 148946, 704170
2096921,2096921, 149003, 704193
2096921,2096921, 148889, 704169
2096921,2096921, 149169, 704248
2096921,2096921, 149166, 704142
2096921,2096921, 149214, 704502
2096921,2096921, 149070, 704208
2096921,2096921, 149232, 704320
2096921,2096921, 149045, 704423
2096921,2096921, 149499, 704324
2096921,2096921, 149326, 704464
2096921,2096921, 149342, 704662
2096921,2096921, 149489, 704623
2096921,2096921, 149389, 704676
2096921,2096921, 149796, 704602
2096921,2096921, 149352, 704835
2096921,2096921, 149837, 704568
2096921,2096921, 149351, 704942
2096921,2096921, 149571, 704717
2096921,2096921, 149593, 704955
2096921,2096921, 149545, 705189
2096921,2096921, 149403, 705353
2096921,2096921, 149951, 705003
2096921,2096921, 149799, 705110
2096921,2096921, 149564, 705315
2096921,2096921, 149393, 705015
2096921,2096921, 149767, 705121
2096921,2096921, 149795, 705190
2096921,2096921, 149797, 705366
2096921,2096921, 149684, 705327
2096921,2096921, 149609, 705798
2096921,2096921, 149576, 705540
2096921,2096921, 149518, 705575
2096921,2096921, 149556, 705693
2096921,2096921, 149761, 705382
2096921,2096921, 149613, 705478
2096921,2096921, 150002, 705978
2096921,2096921, 149947, 705670
2096921,2096921, 150089, 705643
2096921,2096921, 150022, 705753
2096921,2096921, 149728, 705918
2096921,2096921, 150193, 705722
2096921,2096921, 149936, 706063
2096921,2096921, 149975, 705792
2096921,2096921, 149595, 706124
2096921,2096921, 149684, 706044
2096921,2096921, 150048, 706057
2096921,2096921, 150000, 706033
2096921,2096921, 150018, 706446
2096921,2096921, 150034, 706314
2096921,2096921, 150238, 706280
2096921,2096921, 150470, 706251
2096921,2096921, 150225, 706221
2096921,2096921, 150144, 706282
2096921,2096921, 149870, 706330
2096921,2096921, 150248, 706373
2096921,2096921, 150191, 706554
2096921,2096921, 150368, 706575
2096921,2096921, 150213, 706714
2096921,2096921, 150083, 706527
2096921,2096921, 150001, 706445
2096921,2096921, 150211, 706480
2096921,2096921, 150189, 706297
2096921,2096921, 150252, 706478
2096921,2096921, 150367, 706751
2096921,2096921, 149947, 706711
2096921,2096921, 150209, 706528
2096921,2096921, 150359, 706623
2096921,2096921, 150427, 706573
2096921,2096921, 150219, 706631
2096921,2096921, 150277, 706892
2096921,2096921, 150286, 706844
2096921,2096921, 149974, 706775
2096921,2096921, 150547, 706794
2096921,2096921, 150326, 707177
2096921,2096921, 150142, 707102
2096921,2096921, 150594, 707165
2096921,2096921, 150161, 707262
2096921,2096921, 150437, 707293
2096921,2096921, 150500, 707047
2096921,2096921, 150586, 706952
2096921,2096921, 150670, 707549
2096921,2096921, 150523, 707783
2096921,2096921, 150687, 707455
2096921,2096921, 150427, 707338
2096921,2096921, 150157, 707271
2096921,2096921, 150567, 707609
2096921,2096921, 150248, 707343
2096921,2096921, 150731, 707285
2096921,2096921, 150426, 707459
2096921,2096921, 150423, 707415
2096921,2096921, 150487, 707148
2096921,2096921, 150618, 707554
2096921,2096921, 150631, 707555
2096921,2096921, 150318, 707574
2096921,2096921, 150286, 707294
2096921,2096921, 150307, 707767
2096921,2096921, 150357, 707877
2096921,2096921, 150503, 707846
2096921,2096921, 150522, 707846
2096921,2096921, 150426, 707843
2096921,2096921, 150536, 707648
2096921,2096921, 150717, 707788
2096921,2096921, 150720, 707787
2096921,2096921, 150483, 707557
2096921,2096921, 150681, 707818
2096921,2096921, 150567, 707643
2096921,2096921, 150602, 707968
2096921,2096921, 150606, 708032
2096921,2096921, 151051, 707992
2096921,2096921, 150540, 708057
2096921,2096921, 150990, 708340
2096921,2096921, 150561, 707851
2096921,2096921, 150661, 708171
2096921,2096921, 150706, 708240
2096921,2096921, 150881, 708059
2096921,2096921, 150391, 707992
2096921,2096921, 150853, 708142
2096921,2096921, 150484, 707926
2096921,2096921, 150621, 708084
2096921,2096921, 150500, 707782
2096921,2096921, 150788, 707840
2096921,2096921, 150640, 707924
2096921,2096921, 150819, 708061
2096921,2096921, 150801, 707974
2096921,2096921, 150786, 708115
2096921,2096921, 150734, 708137
2096921,2096921, 150674, 708069
2096921,2096921, 150611, 708344
2096921,2096921, 150806, 708169
2096921,2096921, 150941, 708241
2096921,2096921, 150646, 708189
2096921,2096921, 150622, 708206
2096921,2096921, 151037, 708427
2096921,2096921, 150804, 708404
2096921,2096921, 150719, 708374
2096921,2096921, 150825, 708551
2096921,2096921, 150707, 708353
2096921,2096921, 150708, 708563
2096921,2096921, 150651, 708459
2096921,2096921, 151009, 708204
2096921,2096921, 150802, 708535
2096921,2096921, 150962, 708462
2096921,2096921, 150923, 708591
2096921,2096921, 151123, 708673
2096921,2096921, 150908, 708481
2096921,2096921, 150527, 708733
2096921,2096921, 150466, 708510
2096921,2096921, 150563, 708605
2096921,2096921, 150928, 708346
2096921,2096921, 150805, 708351
2096921,2096921, 151146, 708783
2096921,2096921, 151109, 708697
2096921,2096921, 150749, 708492
2096921,2096921, 150756, 708568
2096921,2096921, 150825, 708501
2096921,2096921, 150927, 708899
2096921,2096921, 150909, 708516
2096921,2096921, 150903, 708577
2096921,2096921, 151022, 708764
2096921,2096921, 150942, 708633
2096921,2096921, 150895, 708647
2096921,2096921, 150925, 708986
2096921,2096921, 150890, 708885
2096921,2096921, 150808, 708567
2096921,2096921, 150786, 708466
2096921,2096921, 150664, 708607
2096921,2096921, 150972, 708832
2096921,2096921, 150671, 708736
2096921,2096921, 150743, 708548
2096921,2096921, 150783, 708867
2096921,2096921, 150994, 709125
2096921,2096921, 150974, 708806
2096921,2096921, 150947, 709122
2096921,2096921, 151090, 709096
2096921,2096921, 151150, 708882
2096921,2096921, 150855, 708802
2096921,2096921, 150940, 709023
2096921,2096921, 150774, 708839
2096921,2096921, 151375, 708756
2096921,2096921, 151233, 708803
2096921,2096921, 151244, 708759
2096921,2096921, 151276, 709128
2096921,2096921, 151571, 709084
2096921,2096921, 151301, 709120
2096921,2096921, 150995, 708855
2096921,2096921, 151174, 708691
2096921,2096921, 151094, 708696
2096921,2096921, 150924, 708678
2096921,2096921, 151109, 708991
2096921,2096921, 151229, 709042
2096921,2096921, 150979, 709328
2096921,2096921, 150918, 709066
2096921,2096921, 150825, 708983
2096921,2096921, 150747, 708930
2096921,2096921, 150855, 709125
2096921,2096921, 151098, 708885
2096921,2096921, 151033, 708857
2096921,2096921, 151213, 708960
2096921,2096921, 150964, 708965
2096921,2096921, 151060, 708811
2096921,2096921, 150734, 709029
2096921,2096921, 150914, 708849
2096921,2096921, 150966, 709162
2096921,2096921, 151025, 709154
2096921,2096921, 151220, 708824
2096921,2096921, 151066, 708825
2096921,2096921, 151180, 708984
2096921,2096921, 150961, 709071
2096921,2096921, 151340, 709074
2096921,2096921, 151048, 709016
2096921,2096921, 150903, 708981
2096921,2096921, 150852, 709122
2096921,2096921, 150992, 709135
2096921,2096921, 150897, 709217
2096921,2096921, 150976, 709043
2096921,2096921, 150966, 709115
2096921,2096921, 151236, 708614
2096921,2096921, 150980, 708899
2096921,2096921, 150883, 708788
2096921,2096921, 151029, 709109
2096921,2096921, 150959, 709086
2096921,2096921, 150907, 709010
2096921,2096921, 150754, 709052
2096921,2096921, 151109, 709124
2096921,2096921, 151099, 709010
2096921,2096921, 150873, 709058
2096921,2096921, 150855, 709316
2096921,2096921, 150857, 708856
2096921,2096921, 151015, 708886
2096921,2096921, 150830, 709080
2096921,2096921, 150909, 708732
2096921,2096921, 150904, 708664
2096921,2096921, 150930, 708583
2096921,2096921, 150891, 708636
2096921,2096921, 151122, 708564
2096921,2096921, 150896, 708370
2096921,2096921, 150766, 708385
2096921,2096921, 150826, 708400
2096921,2096921, 150847, 708427
2096921,2096921, 150742, 708205
2096921,2096921, 150604, 707837
2096921,2096921, 150508, 707500
2096921,2096921, 150416, 707511
2096921,2096921, 150480, 707527
2096921,2096921, 150529, 707590
2096921,2096921, 150254, 707180
2096921,2096921, 149983, 706886
2096921,2096921, 150213, 706933
2096921,2096921, 150171, 706825
2096921,2096921, 150043, 706602
2096921,2096921, 150162, 706416
2096921,2096921, 149849, 705971
2096921,2096921, 149932, 706020
2096921,2096921, 149909, 705912
2096921,2096921, 149764, 706061
2096921,2096921, 149134, 705067
2096921,2096921, 149353, 704279
2096921,2096921, 149080, 704091
2096921,2096921, 149090, 703846
2096921,2096921, 149248, 704110
2096921,2096921, 148321, 702705
2096921,2096921, 148347, 701827
2096921,2096921, 148380, 701533
2096921,2096921, 148608, 701638
2096921,2096921, 148445, 701277
2096921,2096921, 147890, 700562
2096921,2096921, 147796, 699769
2096921,2096921, 147712, 699946
2096921,2096921, 147727, 699796
2096921,2096921, 147688, 699898
2096921,2096921, 147416, 699062
2096921,2096921, 147053, 698676
2096921,2096921, 147058, 698529
2096921,2096921, 146957, 698409
2096921,2096921, 147186, 698710
2096921,2096921, 147013, 698086
2096921,2096921, 146945, 697367
2096921,2096921, 146925, 697655
2096921,2096921, 146778, 697576
2096921,2096921, 146557, 697640
2096921,2096921, 146594, 696940
2096921,2096921, 146840, 696537
2096921,2096921, 146566, 696749
2096921,2096921, 146367, 696684
2096921,2096921, 146286, 696674
2096921,2096921, 146689, 696538
2096921,2096921, 146451, 696332
2096921,2096921, 146096, 696102
2096921,2096921, 146277, 695964
2096921,2096921, 146249, 696194
2096921,2096921, 145957, 695896
2096921,2096921, 146090, 695909
2096921,2096921, 145944, 695851
2096921,2096921, 145942, 695816
2096921,2096921, 146013, 695952
2096921,2096921, 146052, 696260
2096921,2096921, 145981, 695920
2096921,2096921, 146117, 695683
2096921,2096921, 145967, 695709
2096921,2096921, 146121, 695577
2096921,2096921, 146101, 695861
2096921,2096921, 146076, 695828
2096921,2096921, 146153, 695811
2096921,2096921, 145899, 695661
2096921,2096921, 146148, 695594
2096921,2096921, 146265, 695795
2096921,2096921, 146434, 696017
2096921,2096921, 146440, 695977
2096921,2096921, 146282, 695919
2096921,2096921, 146329, 695787
2096921,2096921, 146547, 695699
2096921,2096921, 146554, 695904
2096921,2096921, 146033, 695982
2096921,2096921, 146048, 696249
2096921,2096921, 146154, 696044
2096921,2096921, 146403, 696223
2096921,2096921, 146528, 696248
2096921,2096921, 146433, 696561
2096921,2096921, 146449, 695996
2096921,2096921, 146492, 696077
2096921,2096921, 146498, 696445
2096921,2096921, 146351, 696437
2096921,2096921, 146255, 696570
2096921,2096921, 146278, 696266
2096921,2096921, 146307, 696237
2096921,2096921, 146723, 696897
2096921,2096921, 146454, 696821
2096921,2096921, 146630, 696672
2096921,2096921, 146331, 696869
2096921,2096921, 146512, 696777
2096921,2096921, 146596, 696969
2096921,2096921, 146631, 697234
2096921,2096921, 146799, 697299
2096921,2096921, 146776, 697673
2096921,2096921, 146673, 697535
2096921,2096921, 146793, 697700
2096921,2096921, 146863, 697951
2096921,2096921, 146895, 697980
2096921,2096921, 147008, 697999
2096921,2096921, 146970, 697797
2096921,2096921, 147341, 697901
2096921,2096921, 147184, 698061
2096921,2096921, 147451, 698144
2096921,2096921, 147139, 698155
2096921,2096921, 147152, 698443
2096921,2096921, 146866, 698513
2096921,2096921, 147154, 698616
2096921,2096921, 147115, 698404
2096921,2096921, 147140, 698908
2096921,2096921, 147237, 698735
2096921,2096921, 147612, 699001
2096921,2096921, 147444, 699110
2096921,2096921, 147454, 699093
2096921,2096921, 147523, 699189
2096921,2096921, 147445, 699097
2096921,2096921, 147385, 699017
2096921,2096921, 147513, 699310
2096921,2096921, 147117, 699470
2096921,2096921, 147388, 699417
2096921,2096921, 147551, 699604
2096921,2096921, 147463, 699688
2096921,2096921, 147807, 699894
2096921,2096921, 147738, 700043
2096921,2096921, 147736, 699976
2096921,2096921, 147822, 699905
2096921,2096921, 147863, 699730
2096921,2096921, 147754, 700267
2096921,2096921, 147666, 700238
2096921,2096921, 147678, 700265
2096921,2096921, 148071, 700364
2096921,2096921, 147908, 700480
2096921,2096921, 148041, 700640
2096921,2096921, 147867, 700752
2096921,2096921, 148061, 700559
2096921,2096921, 147950, 700417
2096921,2096921, 148393, 700922
2096921,2096921, 148047, 700961
2096921,2096921, 148331, 701083
2096921,2096921, 148077, 701162
2096921,2096921, 148210, 701223
2096921,2096921, 148437, 701467
2096921,2096921, 148629, 701167
2096921,2096921, 148347, 701510
2096921,2096921, 148338, 701606
2096921,2096921, 148479, 701367
2096921,2096921, 148786, 701989
2096921,2096921, 148651, 701735
2096921,2096921, 148312, 701712
2096921,2096921, 148517, 701744
2096921,2096921, 148320, 702066
2096921,2096921, 148286, 702077
2096921,2096921, 148022, 701965
2096921,2096921, 148317, 701929
2096921,2096921, 148456, 701936
2096921,2096921, 148514, 702097
2096921,2096921, 148605, 702532
2096921,2096921, 148645, 702211
2096921,2096921, 148381, 702079
2096921,2096921, 148620, 702432
2096921,2096921, 148606, 702165
2096921,2096921, 148706, 702264
2096921,2096921, 148578, 702288
2096921,2096921, 148692, 702301
2096921,2096921, 148552, 702310
2096921,2096921, 148417, 702451
2096921,2096921, 148819, 702389
2096921,2096921, 148299, 702623
2096921,2096921, 148385, 702434
2096921,2096921, 148338, 702444
2096921,2096921, 148244, 702434
2096921,2096921, 148531, 702458
2096921,2096921, 148661, 702555
2096921,2096921, 148736, 702488
2096921,2096921, 148497, 702255
2096921,2096921, 148728, 702331
2096921,2096921, 148413, 702033
2096921,2096921, 148360, 702250
2096921,2096921, 148626, 702132
2096921,2096921, 148557, 702249
2096921,2096921, 148556, 702370
2096921,2096921, 148669, 702385
2096921,2096921, 148514, 702133
2096921,2096921, 148332, 702140
2096921,2096921, 148811, 702047
2096921,2096921, 148627, 702118
2096921,2096921, 148586, 702333
2096921,2096921, 148602, 702300
2096921,2096921, 148460, 702081
2096921,2096921, 148548, 701971
2096921,2096921, 148331, 702132
2096921,2096921, 148406, 701845
2096921,2096921, 148355, 701782
2096921,2096921, 148274, 701900
2096921,2096921, 148242, 701792
2096921,2096921, 148379, 701852
2096921,2096921, 148143, 701436
2096921,2096921, 148422, 701627
2096921,2096921, 148549, 701554
2096921,2096921, 148333, 701467
2096921,2096921, 148651, 701586
2096921,2096921, 147946, 701504
2096921,2096921, 148266, 701496
2096921,2096921, 148344, 701356
2096921,2096921, 148359, 701702
2096921,2096921, 148344, 701413
2096921,2096921, 148320, 701517
2096921,2096921, 148500, 701497
2096921,2096921, 148538, 701878
2096921,2096921, 148451, 701619
2096921,2096921, 148294, 701638
2096921,2096921, 148008, 701697
2096921,2096921, 148454, 701618
2096921,2096921, 148446, 701746
2096921,2096921, 148571, 701474
2096921,2096921, 148245, 701805
2096921,2096921, 148413, 701814
2096921,2096921, 148503, 701618
2096921,2096921, 148368, 701693
2096921,2096921, 148576, 702075
2096921,2096921, 148161, 701871
2096921,2096921, 148400, 701636
2096921,2096921, 148327, 701769
2096921,2096921, 148496, 701705
2096921,2096921, 148205, 702098
2096921,2096921, 148222, 701921
2096921,2096921, 148498, 702087
2096921,2096921, 148615, 702449
2096921,2096921, 148405, 702377
2096921,2096921, 148418, 702265
2096921,2096921, 148484, 702330
2096921,2096921, 148572, 702262
2096921,2096921, 148765, 702241
2096921,2096921, 148565, 702630
2096921,2096921, 148712, 702652
2096921,2096921, 148553, 702552
2096921,2096921, 148840, 702809
2096921,2096921, 148819, 702918
2096921,2096921, 148828, 702644
2096921,2096921, 148847, 702657
2096921,2096921, 148750, 702677
2096921,2096921, 148803, 703077
2096921,2096921, 149144, 703062
2096921,2096921, 149063, 703399
2096921,2096921, 149239, 703303
2096921,2096921, 148990, 703559
2096921,2096921, 149286, 703200
2096921,2096921, 148884, 703175
2096921,2096921, 148952, 703130
2096921,2096921, 149230, 703293
2096921,2096921, 149134, 703429
2096921,2096921, 148984, 703544
2096921,2096921, 149207, 703787
2096921,2096921, 149433, 703700
2096921,2096921, 149036, 703486
2096921,2096921, 148864, 703428
2096921,2096921, 149046, 703685
2096921,2096921, 148950, 703916
2096921,2096921, 149258, 703840
2096921,2096921, 149146, 703833
2096921,2096921, 149450, 703975
2096921,2096921, 149348, 703907
2096921,2096921, 149370, 704111
2096921,2096921, 149240, 703843
2096921,2096921, 149304, 704114
2096921,2096921, 149070, 704183
2096921,2096921, 149097, 704305
2096921,2096921, 149353, 704561
2096921,2096921, 149458, 704358
2096921,2096921, 149357, 704656
2096921,2096921, 149226, 704462
2096921,2096921, 149393, 704511
2096921,2096921, 149332, 704631
2096921,2096921, 149186, 704694
2096921,2096921, 149189, 704672
2096921,2096921, 149084, 704535
2096921,2096921, 149342, 704922
2096921,2096921, 149617, 705045
2096921,2096921, 149215, 704759
2096921,2096921, 149470, 705053
2096921,2096921, 149416, 705012
2096921,2096921, 149563, 705094
2096921,2096921, 149351, 704677
2096921,2096921, 149557, 705053
2096921,2096921, 149627, 704771
2096921,2096921, 149499, 704994
2096921,2096921, 149362, 705118
2096921,2096921, 149404, 705223
2096921,2096921, 149518, 705142
2096921,2096921, 149624, 705483
2096921,2096921, 150057, 705408
2096921,2096921, 149670, 705259
2096921,2096921, 149851, 705129
2096921,2096921, 149928, 705540
2096921,2096921, 149738, 705352
2096921,2096921, 149649, 705280
2096921,2096921, 150024, 705402
2096921,2096921, 150010, 705612
2096921,2096921, 149747, 705817
2096921,2096921, 149832, 705998
2096921,2096921, 149786, 705877
2096921,2096921, 149977, 705582
2096921,2096921, 149793, 705924
2096921,2096921, 149772, 705438
2096921,2096921, 149771, 705725
2096921,2096921, 149802, 705727
2096921,2096921, 149947, 706268
2096921,2096921, 149590, 706256
2096921,2096921, 149951, 706199
2096921,2096921, 150185, 706022
2096921,2096921, 149935, 705920
2096921,2096921, 150058, 706083
2096921,2096921, 150209, 706320
2096921,2096921, 149708, 706220
2096921,2096921, 149850, 705943
2096921,2096921, 149878, 706247
2096921,2096921, 149980, 706605
2096921,2096921, 150165, 706506
2096921,2096921, 150035, 706500
2096921,2096921, 150035, 706124
2096921,2096921, 150288, 706286
2096921,2096921, 150299, 706728
2096921,2096921, 150157, 706867
2096921,2096921, 150429, 706502
2096921,2096921, 150347, 706797
2096921,2096921, 150255, 706223
2096921,2096921, 150016, 706814
2096921,2096921, 150111, 706953
2096921,2096921, 150430, 706573
2096921,2096921, 150332, 706521
2096921,2096921, 150384, 706767
2096921,2096921, 150546, 706874
2096921,2096921, 150262, 707325
2096921,2096921, 149969, 707356
2096921,2096921, 150010, 707046
2096921,2096921, 150199, 706895
2096921,2096921, 150117, 706809
2096921,2096921, 150544, 707206
2096921,2096921, 150231, 707124
2096921,2096921, 150362, 707096
2096921,2096921, 150364, 707030
2096921,2096921, 150301, 707428
2096921,2096921, 150240, 707224
2096921,2096921, 150364, 707242
2096921,2096921, 150403, 707354
2096921,2096921, 150453, 707370
2096921,2096921, 150665, 707245
2096921,2096921, 150318, 707419
2096921,2096921, 150517, 707360
2096921,2096921, 150748, 707451
2096921,2096921, 150462, 707606
2096921,2096921, 150352, 707598
2096921,2096921, 150386, 707279
2096921,2096921, 150496, 707527
2096921,2096921, 150307, 707459
2096921,2096921, 150089, 707544
2096921,2096921, 150465, 707578
2096921,2096921, 150606, 707728
2096921,2096921, 150590, 707441
2096921,2096921, 150653, 707358
2096921,2096921, 150771, 707397
2096921,2096921, 150777, 707752
2096921,2096921, 150651, 707566
2096921,2096921, 150709, 707822
2096921,2096921, 150795, 707733
2096921,2096921, 150783, 707883
2096921,2096921, 150733, 708056
2096921,2096921, 150624, 707914
2096921,2096921, 150751, 707851
2096921,2096921, 150519, 708069
2096921,2096921, 150512, 707636
2096921,2096921, 150506, 707995
2096921,2096921, 150691, 708102
2096921,2096921, 150687, 708124
2096921,2096921, 150482, 707792
2096921,2096921, 150833, 707679
2096921,2096921, 150758, 707966
2096921,2096921, 150808, 708255
2096921,2096921, 150764, 708245
2096921,2096921, 150390, 707962
2096921,2096921, 150589, 707968
2096921,2096921, 150861, 708167
2096921,2096921, 150664, 708142
2096921,2096921, 151051, 708275
2096921,2096921, 150782, 708079
2096921,2096921, 150934, 708036
2096921,2096921, 150875, 708546
2096921,2096921, 150684, 708453
2096921,2096921, 150727, 708429
2096921,2096921, 150874, 708121
2096921,2096921, 150776, 708113
2096921,2096921, 150710, 708096
2096921,2096921, 150629, 708384
2096921,2096921, 150987, 708206
2096921,2096921, 150839, 708202
2096921,2096921, 150597, 708426
2096921,2096921, 150904, 708349
2096921,2096921, 151022, 708425
2096921,2096921, 150778, 708482
2096921,2096921, 150971, 708228
2096921,2096921, 150821, 708206
2096921,2096921, 150833, 708189
2096921,2096921, 150515, 708627
2096921,2096921, 150822, 708870
2096921,2096921, 150976, 708682
2096921,2096921, 151210, 708607
2096921,2096921, 150674, 708500
2096921,2096921, 151017, 708669
2096921,2096921, 151161, 708508
2096921,2096921, 150890, 708752
2096921,2096921, 151009, 708480
2096921,2096921, 151001, 708790
2096921,2096921, 151374, 708631
2096921,2096921, 151113, 708695
2096921,2096921, 151049, 708866
2096921,2096921, 151251, 708918
2096921,2096921, 150771, 708675
2096921,2096921, 150835, 708637
2096921,2096921, 151016, 708429
2096921,2096921, 151001, 708396
2096921,2096921, 150937, 708890
2096921,2096921, 150696, 709001
2096921,2096921, 150896, 708921
2096921,2096921, 150802, 709005
2096921,2096921, 151129, 708968
2096921,2096921, 151154, 708703
2096921,2096921, 151118, 708946
2096921,2096921, 150998, 708781
2096921,2096921, 151097, 708716
2096921,2096921, 151061, 709057
2096921,2096921, 151179, 709095
2096921,2096921, 151083, 708876
2096921,2096921, 150937, 708795
2096921,2096921, 151018, 708705
2096921,2096921, 150924, 708999
2096921,2096921, 150944, 708796
2096921,2096921, 150807, 708950
2096921,2096921, 150949, 708892
2096921,2096921, 150856, 708889
2096921,2096921, 150799, 709097
2096921,2096921, 151077, 709151
2096921,2096921, 150896, 709193
2096921,2096921, 150928, 709087
2096921,2096921, 150924, 709157
2096921,2096921, 150870, 709026
2096921,2096921, 151058, 708885
2096921,2096921, 151133, 709117
2096921,2096921, 151489, 709112
2096921,2096921, 151283, 709030
2096921,2096921, 151135, 709240
2096921,2096921, 151334, 709178
2096921,2096921, 151243, 709095
2096921,2096921, 151158, 709075
2096921,2096921, 151045, 709288
2096921,2096921, 150936, 708947
2096921,2096921, 150821, 708824
2096921,2096921, 150965, 708803
2096921,2096921, 150877, 708872
2096921,2096921, 150841, 708844
2096921,2096921, 151191, 708960
2096921,2096921, 151107, 708856
2096921,2096921, 150888, 709077
2096921,2096921, 150871, 708892
2096921,2096921, 150886, 708915
2096921,2096921, 150807, 709060
2096921,2096921, 150851, 708837
2096921,2096921, 151046, 708969
2096921,2096921, 151061, 709139
2096921,2096921, 151190, 709104
2096921,2096921, 150889, 709237
2096921,2096921, 151192, 709024
2096921,2096921, 151216, 709021
2096921,2096921, 150845, 709175
2096921,2096921, 150904, 708750
2096921,2096921, 151083, 708614
2096921,2096921, 151046, 709168
2096921,2096921, 151071, 708923
2096921,2096921, 151079, 708990
2096921,2096921, 151185, 709202
2096921,2096921, 151225, 709291
2096921,2096921, 150951, 709069
2096921,2096921, 150733, 709205
2096921,2096921, 150924, 708818
2096921,2096921, 150914, 708957
2096921,2096921, 151128, 709071
2096921,2096921, 150678, 708861
2096921,2096921, 150908, 709160
2096921,2096921, 151060, 708845
2096921,2096921, 151251, 709068
2096921,2096921, 151222, 709079
2096921,2096921, 151089, 709041
2096921,2096921, 150832, 708511
2096921,2096921, 150548, 708290
2096921,2096921, 150993, 708437
2096921,2096921, 150841, 708617
2096921,2096921, 151041, 708372
2096921,2096921, 150692, 708592
2096921,2096921, 150770, 708256
2096921,2096921, 150878, 708302
2096921,2096921, 150669, 708197
2096921,2096921, 150846, 708206
2096921,2096921, 150546, 707703
2096921,2096921, 150391, 707771
2096921,2096921, 150343, 707744
2096921,2096921, 150532, 707912
2096921,2096921, 150612, 707601
2096921,2096921, 150355, 707534
2096921,2096921, 150158, 707071
2096921,2096921, 150042, 707001
2096921,2096921, 150354, 706888
2096921,2096921, 150184, 706853
2096921,2096921, 149884, 706338
2096921,2096921, 149819, 706073
2096921,2096921, 149923, 706359
2096921,2096921, 149606, 706086
2096921,2096921, 150104, 705951
2096921,2096921, 149438, 704755
2096921,2096921, 149628, 704121
2096921,2096921, 149249, 704088
2096921,2096921, 149019, 704118
2096921,2096921, 149156, 703833
2096921,2096921, 148716, 702627
2096921,2096921, 148452, 701679
2096921,2096921, 148307, 701884
2096921,2096921, 148018, 701689
2096921,2096921, 148164, 701355
2096921,2096921, 147826, 700364
2096921,2096921, 147749, 699945
2096921,2096921, 147835, 699855
2096921,2096921, 147670, 700112
2096921,2096921, 147852, 699923
2096921,2096921, 147477, 699216
2096921,2096921, 147151, 698485
2096921,2096921, 147216, 698417
2096921,2096921, 147138, 698354
2096921,2096921, 147225, 698496
2096921,2096921, 146876, 697909
2096921,2096921, 146517, 697577
2096921,2096921, 146693, 697625
2096921,2096921, 146652, 697797
2096921,2096921, 146667, 697477
2096921,2096921, 146785, 696970
2096921,2096921, 146676, 696621
2096921,2096921, 146343, 696631
2096921,2096921, 146506, 696762
2096921,2096921, 146353, 696647
2096921,2096921, 146354, 696701
2096921,2096921, 146175, 696468
2096921,2096921, 146103, 696259
2096921,2096921, 146349, 696435
2096921,2096921, 146370, 696309
2096921,2096921, 146499, 695996
2096921,2096921, 146272, 696014
2096921,2096921, 146403, 695941
2096921,2096921, 146564, 696137
2096921,2096921, 146185, 695749
2096921,2096921, 145957, 695887
2096921,2096921, 145980, 695488
2096921,2096921, 145986, 695796
2096921,2096921, 146147, 695822
2096921,2096921, 146233, 695796
2096921,2096921, 146009, 695828
2096921,2096921, 146321, 695892
2096921,2096921, 146273, 695631
2096921,2096921, 146155, 695992
2096921,2096921, 146085, 695642
2096921,2096921, 146047, 695963
2096921,2096921, 146359, 695812
2096921,2096921, 146103, 695856
2096921,2096921, 146502, 695874
2096921,2096921, 146322, 695917
2096921,2096921, 146188, 696115
2096921,2096921, 146123, 696218
2096921,2096921, 146482, 696006
2096921,2096921, 146354, 696030
2096921,2096921, 146200, 695934
2096921,2096921, 146185, 696051
2096921,2096921, 146524, 696160
2096921,2096921, 146386, 696160
2096921,2096921, 146409, 696176
2096921,2096921, 146307, 696276
2096921,2096921, 146648, 696508
2096921,2096921, 146583, 696384
2096921,2096921, 146453, 696804
2096921,2096921, 146528, 696599
2096921,2096921, 146371, 696724
2096921,2096921, 146564, 696961
2096921,2096921, 146773, 697283
2096921,2096921, 146483, 696859
2096921,2096921, 146630, 696838
2096921,2096921, 146593, 697032
2096921,2096921, 146972, 697357
2096921,2096921, 146511, 697279
2096921,2096921, 146604, 697521
2096921,2096921, 146803, 697329
2096921,2096921, 146679, 697621
2096921,2096921, 147259, 697939
2096921,2096921, 147281, 697862
2096921,2096921, 147148, 697776
2096921,2096921, 147045, 697794
2096921,2096921, 147157, 697706
2096921,2096921, 147076, 697908
2096921,2096921, 147352, 698497
2096921,2096921, 147438, 698252
2096921,2096921, 147499, 698405
2096921,2096921, 147051, 698068
2096921,2096921, 147010, 698266
2096921,2096921, 147122, 698533
2096921,2096921, 147354, 698575
2096921,2096921, 147482, 698546
2096921,2096921, 147301, 698721
2096921,2096921, 147272, 698774
2096921,2096921, 147236, 699041
2096921,2096921, 147472, 698932
2096921,2096921, 147253, 699163
2096921,2096921, 147273, 699079
2096921,2096921, 147471, 699224
2096921,2096921, 147412, 699125
2096921,2096921, 147679, 699318
2096921,2096921, 147428, 699483
2096921,2096921, 147348, 699585
2096921,2096921, 147564, 699568
2096921,2096921, 147517, 699790
2096921,2096921, 147738, 699404
2096921,2096921, 147647, 699896
2096921,2096921, 147653, 699611
2096921,2096921, 147520, 699818
2096921,2096921, 147614, 700105
2096921,2096921, 147780, 700221
2096921,2096921, 147922, 700128
2096921,2096921, 148047, 700241
2096921,2096921, 147959, 700542
2096921,2096921, 148008, 700839
2096921,2096921, 147945, 700480
2096921,2096921, 147975, 700748
2096921,2096921, 148024, 700518
2096921,2096921, 148431, 701085
2096921,2096921, 148073, 701104
2096921,2096921, 148066, 701122
2096921,2096921, 148266, 700911
2096921,2096921, 148383, 701208
2096921,2096921, 147899, 701492
2096921,2096921, 148108, 701436
2096921,2096921, 148529, 701385
2096921,2096921, 148292, 701328
2096921,2096921, 148174, 701553
2096921,2096921, 148228, 701822
2096921,2096921, 148481, 701966
2096921,2096921, 148508, 701610
2096921,2096921, 148316, 701783
2096921,2096921, 148264, 701458
2096921,2096921, 148166, 701785
2096921,2096921, 148218, 701974
2096921,2096921, 148388, 702036
2096921,2096921, 148822, 701997
2096921,2096921, 148560, 702085
2096921,2096921, 148558, 701954
2096921,2096921, 148317, 702237
2096921,2096921, 148312, 702364
2096921,2096921, 148415, 702353
2096921,2096921, 148523, 702227
2096921,2096921, 148422, 702228
2096921,2096921, 148415, 702208
2096921,2096921, 148461, 702322
2096921,2096921, 148549, 702346
2096921,2096921, 148600, 701993
2096921,2096921, 148298, 702199
2096921,2096921, 148524, 702318
2096921,2096921, 148669, 702243
2096921,2096921, 148412, 702285
2096921,2096921, 148557, 702355
2096921,2096921, 148455, 702293
2096921,2096921, 148914, 702454
2096921,2096921, 148757, 702337
2096921,2096921, 148872, 702676
2096921,2096921, 148413, 702348
2096921,2096921, 148629, 702266
2096921,2096921, 148549, 702143
2096921,2096921, 148757, 702057
2096921,2096921, 148597, 702440
2096921,2096921, 148473, 702422
2096921,2096921, 148761, 702084
2096921,2096921, 148375, 702208
2096921,2096921, 148200, 702077
2096921,2096921, 148532, 702484
2096921,2096921, 148276, 702234
2096921,2096921, 148508, 702044
2096921,2096921, 148428, 702094
2096921,2096921, 148563, 702057
2096921,2096921, 148541, 701861
2096921,2096921, 148512, 701936
2096921,2096921, 148559, 701925
2096921,2096921, 148537, 701541
2096921,2096921, 148134, 701790
2096921,2096921, 148383, 701915
2096921,2096921, 148637, 701944
2096921,2096921, 148106, 701809
2096921,2096921, 148509, 701487
2096921,2096921, 148179, 701658
2096921,2096921, 148311, 701866
2096921,2096921, 148722, 701665
2096921,2096921, 148419, 701708
2096921,2096921, 147955, 701633
2096921,2096921, 148206, 701638
2096921,2096921, 148196, 701497
2096921,2096921, 148372, 701625
2096921,2096921, 148561, 701568
2096921,2096921, 148383, 701685
2096921,2096921, 148297, 701741
2096921,2096921, 148036, 701880
2096921,2096921, 148247, 701783
2096921,2096921, 148561, 701607
2096921,2096921, 148263, 701747
2096921,2096921, 148258, 701381
2096921,2096921, 148570, 701556
2096921,2096921, 148599, 701688
2096921,2096921, 148352, 701514
2096921,2096921, 148462, 701955
2096921,2096921, 148495, 701973
2096921,2096921, 148453, 701793
2096921,2096921, 148832, 701610
2096921,2096921, 148383, 701612
2096921,2096921, 148252, 702104
2096921,2096921, 148112, 701913
2096921,2096921, 148388, 701820
2096921,2096921, 148201, 702164
2096921,2096921, 148557, 702158
2096921,2096921, 148782, 702232
2096921,2096921, 148525, 702248
2096921,2096921, 148409, 702002
2096921,2096921, 148709, 702436
2096921,2096921, 148546, 702560
2096921,2096921, 148669, 702374
2096921,2096921, 148637, 702584
2096921,2096921, 148366, 702805
2096921,2096921, 148428, 702571
2096921,2096921, 148851, 702662
2096921,2096921, 148762, 702849
2096921,2096921, 148737, 703047
2096921,2096921, 148586, 702675
2096921,2096921, 148811, 702886
2096921,2096921, 148672, 703128
2096921,2096921, 148797, 703136
2096921,2096921, 149048, 703089
2096921,2096921, 148847, 703395
2096921,2096921, 148900, 703288
2096921,2096921, 148850, 703126
2096921,2096921, 149060, 703435
2096921,2096921, 149195, 703165
2096921,2096921, 149001, 703496
2096921,2096921, 149019, 703360
2096921,2096921, 149012, 703580
2096921,2096921, 149147, 703784
2096921,2096921, 149000, 703921
2096921,2096921, 148962, 703977
2096921,2096921, 149068, 703464
2096921,2096921, 149010, 703731
2096921,2096921, 149340, 703756
2096921,2096921, 149217, 703709
2096921,2096921, 149141, 703955
2096921,2096921, 149206, 704055
2096921,2096921, 149564, 704015
2096921,2096921, 149288, 704205
2096921,2096921, 149064, 704103
2096921,2096921, 149140, 704018
2096921,2096921, 148973, 703952
2096921,2096921, 149268, 704188
2096921,2096921, 149404, 704316
2096921,2096921, 149463, 704249
2096921,2096921, 149315, 704196
2096921,2096921, 149411, 704176
2096921,2096921, 149474, 704389
2096921,2096921, 149644, 704603
2096921,2096921, 149179, 704703
2096921,2096921, 149070, 704537
2096921,2096921, 149111, 704729
2096921,2096921, 149373, 704774
2096921,2096921, 149288, 704674
2096921,2096921, 149629, 705078
2096921,2096921, 149730, 705067
2096921,2096921, 149704, 704817
2096921,2096921, 149687, 705065
2096921,2096921, 149546, 704787
2096921,2096921, 149592, 704994
2096921,2096921, 149726, 704809
2096921,2096921, 149315, 704993
2096921,2096921, 149642, 705110
2096921,2096921, 149833, 705099
2096921,2096921, 149789, 705444
2096921,2096921, 149667, 705298
2096921,2096921, 149865, 705503
2096921,2096921, 149548, 705665
2096921,2096921, 150024, 705428
2096921,2096921, 149923, 705419
2096921,2096921, 150007, 705227
2096921,2096921, 149913, 705607
2096921,2096921, 149939, 705791
2096921,2096921, 149781, 705557
2096921,2096921, 149830, 706064
2096921,2096921, 149463, 705897
2096921,2096921, 149971, 705766
2096921,2096921, 150019, 705785
2096921,2096921, 149775, 705825
2096921,2096921, 149755, 705870
2096921,2096921, 149880, 705621
2096921,2096921, 150158, 705828
2096921,2096921, 149621, 706316
2096921,2096921, 149839, 706242
2096921,2096921, 149788, 706137
2096921,2096921, 149877, 706193
2096921,2096921, 150009, 706070
2096921,2096921, 150221, 706428
2096921,2096921, 150125, 706290
2096921,2096921, 150237, 706126
2096921,2096921, 150033, 706095
2096921,2096921, 149988, 706615
2096921,2096921, 150332, 706947
2096921,2096921, 149933, 706706
2096921,2096921, 150111, 706348
2096921,2096921, 150081, 706458
2096921,2096921, 149987, 706473
2096921,2096921, 150125, 706715
2096921,2096921, 150091, 706700
2096921,2096921, 150079, 706653
2096921,2096921, 149929, 706720
2096921,2096921, 149951, 706621
2096921,2096921, 150185, 707066
2096921,2096921, 150246, 706880
2096921,2096921, 149936, 706684
2096921,2096921, 150030, 706817
2096921,2096921, 150320, 706879
2096921,2096921, 150495, 707095
2096921,2096921, 150499, 706976
2096921,2096921, 150298, 706760
2096921,2096921, 150092, 706782
2096921,2096921, 150056, 706892
2096921,2096921, 150333, 706837
2096921,2096921, 150534, 707198
2096921,2096921, 150629, 707162
2096921,2096921, 150390, 706967
2096921,2096921, 150521, 706974
2096921,2096921, 150498, 707317
2096921,2096921, 150265, 707392
2096921,2096921, 150209, 707527
2096921,2096921, 150248, 707227
2096921,2096921, 150260, 707214
2096921,2096921, 150275, 707168
2096921,2096921, 150278, 707003
2096921,2096921, 150455, 707534
2096921,2096921, 150344, 707640
2096921,2096921, 150612, 707962
2096921,2096921, 150623, 707335
2096921,2096921, 150396, 707443
2096921,2096921, 150322, 707566
2096921,2096921, 150562, 707736
2096921,2096921, 150061, 707601
2096921,2096921, 150313, 707777
2096921,2096921, 150545, 707650
2096921,2096921, 150828, 707812
2096921,2096921, 150515, 707399
2096921,2096921, 150162, 707499
2096921,2096921, 150388, 707671
2096921,2096921, 150482, 707777
2096921,2096921, 150552, 707880
2096921,2096921, 150534, 707732
2096921,2096921, 150424, 708105
2096921,2096921, 150273, 707841
2096921,2096921, 150554, 707755
2096921,2096921, 150601, 707739
2096921,2096921, 150634, 707827
2096921,2096921, 150693, 707921
2096921,2096921, 150690, 708034
2096921,2096921, 150581, 707959
2096921,2096921, 150352, 707813
2096921,2096921, 150469, 708251
2096921,2096921, 150654, 708175
2096921,2096921, 150554, 708289
2096921,2096921, 150361, 708369
2096921,2096921, 150741, 707875
2096921,2096921, 150665, 707705
2096921,2096921, 150709, 707531
2096921,2096921, 150912, 707902
2096921,2096921, 150829, 708205
2096921,2096921, 150856, 708397
2096921,2096921, 150616, 708154
2096921,2096921, 150567, 708215
2096921,2096921, 150839, 708316
2096921,2096921, 150603, 708732
2096921,2096921, 150567, 708260
2096921,2096921, 150608, 708164
2096921,2096921, 150636, 707860
2096921,2096921, 150838, 708302
2096921,2096921, 150914, 708364
2096921,2096921, 150898, 708374
2096921,2096921, 150786, 708134
2096921,2096921, 150632, 708185
2096921,2096921, 150907, 708400
2096921,2096921, 150515, 708535
2096921,2096921, 150765, 708563
2096921,2096921, 150601, 708534
2096921,2096921, 150878, 708277
