2096921,2096921, 149132, 703022
2096921,2096921, 149006, 703320
2096921,2096921, 149162, 703347
2096921,2096921, 149217, 703153
2096921,2096921, 148957, 703220
2096921,2096921, 148975, 703586
2096921,2096921, 149047, 703523
2096921,2096921, 149028, 703307
2096921,2096921, 149035, 703650
2096921,2096921, 149157, 703737
2096921,2096921, 149152, 703309
2096921,2096921, 149484, 703612
2096921,2096921, 149300, 703984
2096921,2096921, 149135, 703702
2096921,2096921, 149001, 703536
2096921,2096921, 148945, 703784
2096921,2096921, 148946, 703828
2096921,2096921, 149468, 703957
2096921,2096921, 149023, 704002
2096921,2096921, 149246, 703936
2096921,2096921, 149473, 703766
2096921,2096921, 149596, 704289
2096921,2096921, 149283, 704244
2096921,2096921, 149081, 704147
2096921,2096921, 149290, 704386
2096921,2096921, 149428, 704420
2096921,2096921, 149727, 704555
2096921,2096921, 149980, 704739
2096921,2096921, 149677, 704411
2096921,2096921, 149256, 704394
2096921,2096921, 149427, 704512
2096921,2096921, 149165, 704853
2096921,2096921, 149389, 704830
2096921,2096921, 149641, 704673
2096921,2096921, 149406, 704568
2096921,2096921, 149476, 704688
2096921,2096921, 149453, 704815
2096921,2096921, 149535, 704943
2096921,2096921, 149672, 704849
2096921,2096921, 149510, 704959
2096921,2096921, 149450, 705051
2096921,2096921, 149546, 704978
2096921,2096921, 149648, 705317
2096921,2096921, 149494, 704883
2096921,2096921, 149809, 705425
2096921,2096921, 149525, 705643
2096921,2096921, 149630, 705546
2096921,2096921, 149842, 705225
2096921,2096921, 149915, 705569
2096921,2096921, 149789, 705377
2096921,2096921, 149947, 705305
2096921,2096921, 150225, 705492
2096921,2096921, 149922, 705714
2096921,2096921, 150184, 705483
2096921,2096921, 149933, 705325
2096921,2096921, 149879, 705662
2096921,2096921, 149993, 705660
2096921,2096921, 150000, 705571
2096921,2096921, 150013, 705649
2096921,2096921, 150116, 705864
2096921,2096921, 150208, 706101
2096921,2096921, 150036, 706050
2096921,2096921, 149882, 706283
2096921,2096921, 149928, 706116
2096921,2096921, 149966, 706347
2096921,2096921, 150339, 706291
2096921,2096921, 149917, 706291
2096921,2096921, 149868, 706171
2096921,2096921, 149805, 706188
2096921,2096921, 150383, 706342
2096921,2096921, 150042, 706451
2096921,2096921, 150477, 706521
2096921,2096921, 150243, 706359
2096921,2096921, 149930, 706158
2096921,2096921, 149838, 706236
2096921,2096921, 150182, 706562
2096921,2096921, 150053, 706510
2096921,2096921, 150239, 706840
2096921,2096921, 150043, 706619
2096921,2096921, 150229, 706552
2096921,2096921, 150190, 706619
2096921,2096921, 150157, 706593
2096921,2096921, 150392, 706769
2096921,2096921, 150320, 706928
2096921,2096921, 150290, 706662
2096921,2096921, 150281, 706405
2096921,2096921, 150405, 706758
2096921,2096921, 150367, 706838
2096921,2096921, 150241, 706719
2096921,2096921, 150218, 706736
2096921,2096921, 150367, 706635
2096921,2096921, 150346, 707080
2096921,2096921, 150344, 706804
2096921,2096921, 150509, 707075
2096921,2096921, 150469, 707144
2096921,2096921, 150297, 707313
2096921,2096921, 150511, 707044
2096921,2096921, 150440, 707206
2096921,2096921, 150431, 707234
2096921,2096921, 150435, 707492
2096921,2096921, 150407, 707318
2096921,2096921, 150271, 707352
2096921,2096921, 150545, 707275
2096921,2096921, 150497, 707368
2096921,2096921, 150478, 707744
2096921,2096921, 150454, 707466
2096921,2096921, 150676, 707480
2096921,2096921, 150337, 707125
2096921,2096921, 150600, 707650
2096921,2096921, 150397, 707598
2096921,2096921, 150617, 707399
2096921,2096921, 150326, 707336
2096921,2096921, 150503, 707569
2096921,2096921, 150923, 707470
2096921,2096921, 150621, 708035
2096921,2096921, 150889, 707540
2096921,2096921, 150602, 707491
2096921,2096921, 150838, 707707
2096921,2096921, 150776, 707697
2096921,2096921, 150735, 707719
2096921,2096921, 150866, 707504
2096921,2096921, 150788, 707459
2096921,2096921, 150501, 707634
2096921,2096921, 150708, 707800
2096921,2096921, 150532, 707643
2096921,2096921, 151049, 708028
2096921,2096921, 150704, 707532
2096921,2096921, 150459, 707904
2096921,2096921, 150527, 707755
2096921,2096921, 150571, 707500
2096921,2096921, 150855, 707758
2096921,2096921, 150766, 708300
2096921,2096921, 150565, 708093
2096921,2096921, 150924, 707891
2096921,2096921, 150420, 707971
2096921,2096921, 150464, 707951
2096921,2096921, 150381, 707947
2096921,2096921, 150774, 707919
2096921,2096921, 150522, 708078
2096921,2096921, 150778, 707912
2096921,2096921, 150759, 707822
2096921,2096921, 151029, 708117
2096921,2096921, 150857, 708035
2096921,2096921, 150903, 708245
2096921,2096921, 150752, 708128
2096921,2096921, 150792, 707953
2096921,2096921, 150885, 707943
2096921,2096921, 150924, 708224
2096921,2096921, 151001, 708156
2096921,2096921, 150870, 708221
2096921,2096921, 150719, 708421
2096921,2096921, 150813, 708224
2096921,2096921, 150807, 707969
2096921,2096921, 150850, 708394
2096921,2096921, 150972, 708239
2096921,2096921, 151123, 708452
2096921,2096921, 150918, 708201
2096921,2096921, 150853, 708112
2096921,2096921, 150895, 708301
2096921,2096921, 150855, 708381
2096921,2096921, 150869, 708317
2096921,2096921, 150791, 708237
2096921,2096921, 151035, 708189
2096921,2096921, 150990, 708358
2096921,2096921, 150774, 708279
2096921,2096921, 150948, 708268
2096921,2096921, 150825, 708552
2096921,2096921, 150723, 708639
2096921,2096921, 151039, 708644
2096921,2096921, 151005, 708333
2096921,2096921, 150744, 708424
2096921,2096921, 151143, 708490
2096921,2096921, 150995, 708989
2096921,2096921, 150827, 708865
2096921,2096921, 150896, 708525
2096921,2096921, 151080, 708594
2096921,2096921, 150991, 708839
2096921,2096921, 150940, 708633
2096921,2096921, 151039, 708916
2096921,2096921, 150742, 708708
2096921,2096921, 150877, 708691
2096921,2096921, 151124, 708543
2096921,2096921, 150830, 708659
2096921,2096921, 150903, 708730
2096921,2096921, 151099, 708840
2096921,2096921, 151008, 708766
2096921,2096921, 151011, 708730
2096921,2096921, 151134, 708898
2096921,2096921, 151197, 708923
2096921,2096921, 150963, 709142
2096921,2096921, 150988, 708753
2096921,2096921, 150970, 708648
2096921,2096921, 150850, 708584
2096921,2096921, 151008, 708662
2096921,2096921, 151107, 708747
2096921,2096921, 151113, 708891
2096921,2096921, 150851, 708786
2096921,2096921, 150842, 708994
2096921,2096921, 150598, 708761
2096921,2096921, 150838, 709042
2096921,2096921, 150533, 708811
2096921,2096921, 150888, 709035
2096921,2096921, 151031, 708974
2096921,2096921, 150898, 708883
2096921,2096921, 151055, 708756
2096921,2096921, 150817, 708866
2096921,2096921, 150988, 708700
2096921,2096921, 150889, 708535
2096921,2096921, 150886, 709029
2096921,2096921, 150690, 708934
2096921,2096921, 151208, 708520
2096921,2096921, 151152, 708959
2096921,2096921, 150873, 709108
2096921,2096921, 150925, 709008
2096921,2096921, 151011, 708936
2096921,2096921, 151006, 708889
2096921,2096921, 151156, 708589
2096921,2096921, 150952, 709002
2096921,2096921, 150999, 708790
2096921,2096921, 150954, 708765
2096921,2096921, 151040, 708394
2096921,2096921, 151099, 708708
2096921,2096921, 150812, 708799
2096921,2096921, 150714, 708981
2096921,2096921, 151058, 708789
2096921,2096921, 150949, 708886
2096921,2096921, 151127, 708847
2096921,2096921, 151295, 708924
2096921,2096921, 151150, 708811
2096921,2096921, 150981, 709004
2096921,2096921, 150854, 709032
2096921,2096921, 150888, 708923
2096921,2096921, 151014, 709051
2096921,2096921, 150955, 708954
2096921,2096921, 151191, 708964
2096921,2096921, 150960, 708941
2096921,2096921, 150964, 708829
2096921,2096921, 151006, 708901
2096921,2096921, 151047, 708982
2096921,2096921, 151301, 709179
2096921,2096921, 151198, 709134
2096921,2096921, 151135, 709108
2096921,2096921, 151054, 709018
2096921,2096921, 150843, 708679
2096921,2096921, 151103, 709111
2096921,2096921, 151269, 709054
2096921,2096921, 151286, 708696
2096921,2096921, 151169, 708518
2096921,2096921, 150756, 708295
2096921,2096921, 150653, 708534
2096921,2096921, 150908, 708372
2096921,2096921, 151027, 708480
2096921,2096921, 150928, 707969
2096921,2096921, 150810, 708124
2096921,2096921, 150919, 707739
2096921,2096921, 150891, 708133
2096921,2096921, 150669, 707799
2096921,2096921, 150514, 707772
2096921,2096921, 150281, 707525
2096921,2096921, 150433, 707425
2096921,2096921, 150598, 706972
2096921,2096921, 150547, 707288
2096921,2096921, 150195, 707014
2096921,2096921, 150085, 706529
2096921,2096921, 150350, 706364
2096921,2096921, 150098, 706613
2096921,2096921, 150224, 706266
2096921,2096921, 149863, 705992
2096921,2096921, 149934, 705881
2096921,2096921, 149967, 705897
2096921,2096921, 150027, 706000
2096921,2096921, 149303, 704506
2096921,2096921, 149105, 703783
2096921,2096921, 149130, 703846
2096921,2096921, 149101, 703659
2096921,2096921, 149067, 703852
2096921,2096921, 148592, 702464
2096921,2096921, 148478, 701754
2096921,2096921, 148303, 701519
2096921,2096921, 148396, 701322
2096921,2096921, 148348, 701276
2096921,2096921, 147923, 700186
2096921,2096921, 147575, 699480
2096921,2096921, 147749, 699581
2096921,2096921, 147697, 699901
2096921,2096921, 147660, 699839
2096921,2096921, 147237, 698936
2096921,2096921, 147025, 698079
2096921,2096921, 147305, 698224
2096921,2096921, 147170, 698436
2096921,2096921, 147074, 698242
2096921,2096921, 146722, 697466
2096921,2096921, 146635, 697338
2096921,2096921, 146606, 697056
2096921,2096921, 146693, 697321
2096921,2096921, 146801, 697358
2096921,2096921, 146484, 696734
2096921,2096921, 146541, 696341
2096921,2096921, 146486, 696208
2096921,2096921, 146476, 696386
2096921,2096921, 146423, 696325
2096921,2096921, 146370, 696372
2096921,2096921, 146426, 695891
2096921,2096921, 146381, 695755
2096921,2096921, 146473, 695940
2096921,2096921, 146636, 695859
2096921,2096921, 146367, 695527
2096921,2096921, 146182, 695735
2096921,2096921, 146284, 695548
2096921,2096921, 146381, 695797
2096921,2096921, 146374, 695916
2096921,2096921, 146185, 695989
2096921,2096921, 146117, 695540
2096921,2096921, 146076, 695372
2096921,2096921, 146225, 695699
2096921,2096921, 146385, 696008
2096921,2096921, 146223, 695445
2096921,2096921, 146123, 695455
2096921,2096921, 145942, 695630
2096921,2096921, 146074, 695766
2096921,2096921, 146474, 695791
2096921,2096921, 146311, 695772
2096921,2096921, 146471, 695426
2096921,2096921, 146384, 695478
2096921,2096921, 146010, 695747
2096921,2096921, 146192, 695834
2096921,2096921, 146443, 696033
2096921,2096921, 146017, 695873
2096921,2096921, 146340, 696141
2096921,2096921, 146205, 696099
2096921,2096921, 146239, 695803
2096921,2096921, 146546, 696153
2096921,2096921, 146160, 695774
2096921,2096921, 146176, 696069
2096921,2096921, 146359, 696220
2096921,2096921, 146693, 696517
2096921,2096921, 146578, 696537
2096921,2096921, 146606, 696253
2096921,2096921, 146293, 696512
2096921,2096921, 146476, 696674
2096921,2096921, 146547, 696562
2096921,2096921, 146537, 696795
2096921,2096921, 146401, 696861
2096921,2096921, 146731, 696698
2096921,2096921, 146682, 696818
2096921,2096921, 146608, 696478
2096921,2096921, 146708, 696939
2096921,2096921, 146837, 697257
2096921,2096921, 146750, 697220
2096921,2096921, 146932, 697247
2096921,2096921, 146672, 696998
2096921,2096921, 147149, 697287
2096921,2096921, 146657, 697574
2096921,2096921, 147047, 697563
2096921,2096921, 146840, 697625
2096921,2096921, 147105, 697682
2096921,2096921, 147070, 697860
2096921,2096921, 146967, 698228
2096921,2096921, 147088, 698169
2096921,2096921, 147500, 698232
2096921,2096921, 147268, 698023
2096921,2096921, 147305, 698287
2096921,2096921, 147210, 698277
2096921,2096921, 147403, 698378
2096921,2096921, 147194, 698235
2096921,2096921, 147349, 698475
2096921,2096921, 147402, 698428
2096921,2096921, 147484, 698761
2096921,2096921, 147278, 698835
2096921,2096921, 147380, 698982
2096921,2096921, 147377, 699096
2096921,2096921, 147860, 699263
2096921,2096921, 147473, 699482
2096921,2096921, 147714, 699276
2096921,2096921, 147752, 699147
2096921,2096921, 147531, 699609
2096921,2096921, 147754, 699604
2096921,2096921, 147917, 699617
2096921,2096921, 147832, 699820
2096921,2096921, 147765, 699807
2096921,2096921, 147834, 699640
2096921,2096921, 147648, 699887
2096921,2096921, 148060, 700018
2096921,2096921, 147840, 700343
2096921,2096921, 147939, 700111
2096921,2096921, 147939, 700221
2096921,2096921, 147943, 700313
2096921,2096921, 148040, 700421
2096921,2096921, 147792, 700656
2096921,2096921, 148314, 700622
2096921,2096921, 148325, 700443
2096921,2096921, 148120, 700528
2096921,2096921, 148201, 701225
2096921,2096921, 148123, 701198
2096921,2096921, 148271, 700797
2096921,2096921, 148312, 700867
2096921,2096921, 148502, 701161
2096921,2096921, 148299, 701347
2096921,2096921, 148429, 701299
2096921,2096921, 148371, 701485
2096921,2096921, 148130, 701499
2096921,2096921, 148350, 701907
2096921,2096921, 148404, 701743
2096921,2096921, 148714, 701432
2096921,2096921, 148787, 701497
2096921,2096921, 148614, 701684
2096921,2096921, 148434, 701868
2096921,2096921, 148433, 701925
2096921,2096921, 148686, 701960
2096921,2096921, 148402, 701831
2096921,2096921, 148170, 701866
2096921,2096921, 148517, 702071
2096921,2096921, 148346, 701892
2096921,2096921, 148430, 701992
2096921,2096921, 148542, 702059
2096921,2096921, 148633, 702481
2096921,2096921, 148466, 702168
2096921,2096921, 148639, 702092
2096921,2096921, 148551, 702097
2096921,2096921, 148729, 702136
2096921,2096921, 148655, 702017
2096921,2096921, 148453, 702309
2096921,2096921, 148501, 702101
2096921,2096921, 148646, 702225
2096921,2096921, 148641, 702089
2096921,2096921, 148495, 702282
2096921,2096921, 148744, 702159
2096921,2096921, 148671, 702032
2096921,2096921, 148517, 702099
2096921,2096921, 148525, 702219
2096921,2096921, 148435, 702141
2096921,2096921, 148428, 702201
2096921,2096921, 148580, 702377
2096921,2096921, 148412, 702129
2096921,2096921, 148449, 702026
2096921,2096921, 148706, 702024
2096921,2096921, 148421, 702207
2096921,2096921, 148591, 702237
2096921,2096921, 148781, 702311
2096921,2096921, 148644, 702216
2096921,2096921, 148319, 702088
2096921,2096921, 148379, 701942
2096921,2096921, 148570, 701954
2096921,2096921, 148598, 702009
2096921,2096921, 148499, 702053
2096921,2096921, 148720, 701831
2096921,2096921, 148573, 701648
2096921,2096921, 148433, 701658
2096921,2096921, 148330, 702025
2096921,2096921, 148614, 701789
2096921,2096921, 148571, 701652
2096921,2096921, 148464, 701313
2096921,2096921, 148276, 701504
2096921,2096921, 148361, 701553
2096921,2096921, 148516, 701829
2096921,2096921, 148171, 701535
2096921,2096921, 148462, 701661
2096921,2096921, 148527, 701568
2096921,2096921, 148268, 701532
2096921,2096921, 148397, 701445
2096921,2096921, 148163, 701276
2096921,2096921, 148242, 701428
2096921,2096921, 148365, 701244
2096921,2096921, 148694, 701522
2096921,2096921, 148505, 701681
2096921,2096921, 148315, 701880
2096921,2096921, 148063, 701843
2096921,2096921, 148498, 701565
2096921,2096921, 148361, 701635
2096921,2096921, 148243, 701487
2096921,2096921, 148437, 701365
2096921,2096921, 148458, 701714
2096921,2096921, 148499, 701704
2096921,2096921, 148746, 701642
2096921,2096921, 148623, 701651
2096921,2096921, 148335, 701992
2096921,2096921, 148432, 701892
2096921,2096921, 148383, 701883
2096921,2096921, 148706, 702019
2096921,2096921, 148611, 701871
2096921,2096921, 148734, 701707
2096921,2096921, 148487, 701914
2096921,2096921, 148686, 702309
2096921,2096921, 148895, 702028
2096921,2096921, 148575, 701995
2096921,2096921, 148485, 702287
2096921,2096921, 148600, 702630
2096921,2096921, 149072, 702771
2096921,2096921, 148584, 702594
2096921,2096921, 148457, 702520
2096921,2096921, 148500, 702436
2096921,2096921, 148919, 702561
2096921,2096921, 148673, 702727
2096921,2096921, 148663, 702904
2096921,2096921, 148908, 702927
2096921,2096921, 148760, 702951
2096921,2096921, 149152, 702913
2096921,2096921, 148956, 703204
2096921,2096921, 148875, 703151
2096921,2096921, 148979, 703038
2096921,2096921, 148888, 702816
2096921,2096921, 149047, 703150
2096921,2096921, 149094, 703340
2096921,2096921, 149053, 703191
2096921,2096921, 149110, 703415
2096921,2096921, 149311, 703534
2096921,2096921, 149427, 703513
2096921,2096921, 149042, 703704
2096921,2096921, 149147, 703675
2096921,2096921, 149182, 703487
2096921,2096921, 148989, 703501
2096921,2096921, 149251, 703702
2096921,2096921, 149031, 703931
2096921,2096921, 149127, 703772
2096921,2096921, 149172, 703900
2096921,2096921, 148912, 703808
2096921,2096921, 149300, 704053
2096921,2096921, 149380, 704062
2096921,2096921, 149429, 703762
2096921,2096921, 149581, 703795
2096921,2096921, 149380, 703906
2096921,2096921, 149368, 703990
2096921,2096921, 149509, 704293
2096921,2096921, 149319, 704360
2096921,2096921, 149045, 704328
2096921,2096921, 149464, 704358
2096921,2096921, 149426, 704536
2096921,2096921, 149512, 704665
2096921,2096921, 149325, 704735
2096921,2096921, 149718, 704702
2096921,2096921, 149492, 704505
2096921,2096921, 149395, 704417
2096921,2096921, 149488, 704351
2096921,2096921, 149552, 704661
2096921,2096921, 149546, 704398
2096921,2096921, 149732, 704707
2096921,2096921, 149457, 704672
2096921,2096921, 149408, 705037
2096921,2096921, 149629, 705097
2096921,2096921, 149575, 705164
2096921,2096921, 149679, 704976
2096921,2096921, 149658, 705245
2096921,2096921, 149780, 705054
2096921,2096921, 149607, 704842
2096921,2096921, 149839, 704862
2096921,2096921, 149631, 704786
2096921,2096921, 150005, 705347
2096921,2096921, 149822, 705493
2096921,2096921, 149929, 705555
2096921,2096921, 149813, 705622
2096921,2096921, 149846, 705523
2096921,2096921, 149562, 705701
2096921,2096921, 149682, 705649
2096921,2096921, 149574, 705503
2096921,2096921, 149595, 705417
2096921,2096921, 149759, 705365
2096921,2096921, 150040, 705640
2096921,2096921, 149880, 705726
2096921,2096921, 149899, 705950
2096921,2096921, 149904, 705762
2096921,2096921, 150094, 705741
2096921,2096921, 150238, 706017
2096921,2096921, 150019, 706209
2096921,2096921, 150100, 705953
2096921,2096921, 150161, 706089
2096921,2096921, 149975, 706108
2096921,2096921, 150086, 706242
2096921,2096921, 150127, 706099
2096921,2096921, 150323, 706058
2096921,2096921, 150437, 706622
2096921,2096921, 150223, 706658
2096921,2096921, 150378, 706854
2096921,2096921, 150142, 706499
2096921,2096921, 150294, 706173
2096921,2096921, 150161, 706473
2096921,2096921, 150233, 706439
2096921,2096921, 149798, 706792
2096921,2096921, 149935, 706348
2096921,2096921, 150167, 706450
2096921,2096921, 150126, 706368
2096921,2096921, 150267, 706700
2096921,2096921, 150379, 706630
2096921,2096921, 150332, 706680
2096921,2096921, 150250, 706833
2096921,2096921, 150124, 706641
2096921,2096921, 150242, 706793
2096921,2096921, 150444, 706878
2096921,2096921, 150510, 706706
2096921,2096921, 150161, 706783
2096921,2096921, 150250, 706759
2096921,2096921, 150300, 707092
2096921,2096921, 150304, 707243
2096921,2096921, 149948, 707010
2096921,2096921, 150467, 707015
2096921,2096921, 150333, 707189
2096921,2096921, 150389, 707083
2096921,2096921, 150291, 707472
2096921,2096921, 150523, 707369
2096921,2096921, 150588, 707130
2096921,2096921, 150533, 707195
2096921,2096921, 150520, 706977
2096921,2096921, 150323, 707432
2096921,2096921, 150468, 707486
2096921,2096921, 150213, 707322
2096921,2096921, 150587, 706952
2096921,2096921, 150332, 707374
2096921,2096921, 150821, 707397
2096921,2096921, 150537, 707378
2096921,2096921, 150630, 707230
2096921,2096921, 150257, 707511
2096921,2096921, 151028, 707582
2096921,2096921, 150823, 707673
2096921,2096921, 150566, 707488
2096921,2096921, 150368, 707483
2096921,2096921, 150463, 707502
2096921,2096921, 150215, 707344
2096921,2096921, 150453, 707725
2096921,2096921, 150556, 707872
2096921,2096921, 150426, 707950
2096921,2096921, 150467, 707685
2096921,2096921, 150335, 707912
2096921,2096921, 150527, 707756
2096921,2096921, 150724, 707755
2096921,2096921, 150552, 707806
2096921,2096921, 150728, 707696
2096921,2096921, 150676, 707862
2096921,2096921, 150414, 707749
2096921,2096921, 150491, 707730
2096921,2096921, 150515, 707533
2096921,2096921, 150664, 707797
2096921,2096921, 150900, 707776
2096921,2096921, 150608, 708132
2096921,2096921, 150627, 708098
2096921,2096921, 150829, 707750
2096921,2096921, 150887, 707913
2096921,2096921, 150547, 707921
2096921,2096921, 150757, 707950
2096921,2096921, 150788, 707943
2096921,2096921, 150789, 707948
2096921,2096921, 150768, 708059
2096921,2096921, 150671, 707807
2096921,2096921, 150962, 708155
2096921,2096921, 150917, 708488
2096921,2096921, 150730, 708203
2096921,2096921, 150844, 708164
2096921,2096921, 150892, 708073
2096921,2096921, 150791, 708096
2096921,2096921, 150459, 708219
2096921,2096921, 151090, 708184
2096921,2096921, 150958, 708344
2096921,2096921, 150809, 708158
2096921,2096921, 150957, 708138
2096921,2096921, 150926, 708351
2096921,2096921, 150616, 708541
2096921,2096921, 150719, 708646
2096921,2096921, 150560, 708609
2096921,2096921, 150897, 708640
2096921,2096921, 151042, 708499
2096921,2096921, 151040, 708526
2096921,2096921, 150914, 708436
2096921,2096921, 150857, 708454
2096921,2096921, 150776, 708381
2096921,2096921, 150922, 708421
2096921,2096921, 150713, 708629
2096921,2096921, 151108, 708699
2096921,2096921, 150798, 708573
2096921,2096921, 151142, 708501
2096921,2096921, 150827, 708644
2096921,2096921, 150776, 708507
2096921,2096921, 151026, 708846
2096921,2096921, 150776, 708855
2096921,2096921, 150757, 708725
2096921,2096921, 150913, 708391
2096921,2096921, 151235, 708512
2096921,2096921, 150773, 708631
2096921,2096921, 151020, 708585
2096921,2096921, 151024, 708898
2096921,2096921, 150941, 708625
2096921,2096921, 150873, 708766
2096921,2096921, 151144, 708700
2096921,2096921, 151130, 708779
2096921,2096921, 151116, 708675
2096921,2096921, 151232, 708901
2096921,2096921, 151374, 708783
2096921,2096921, 150996, 708983
2096921,2096921, 151032, 709024
2096921,2096921, 150982, 708828
2096921,2096921, 151110, 708779
2096921,2096921, 150871, 709070
2096921,2096921, 150983, 709094
2096921,2096921, 151057, 708908
2096921,2096921, 151110, 708798
2096921,2096921, 150898, 708791
2096921,2096921, 151192, 708937
2096921,2096921, 151038, 708764
2096921,2096921, 151047, 708832
2096921,2096921, 150952, 708811
2096921,2096921, 150918, 708719
2096921,2096921, 151022, 708786
2096921,2096921, 151020, 708620
2096921,2096921, 151192, 708599
2096921,2096921, 150895, 708955
2096921,2096921, 151100, 708990
2096921,2096921, 151178, 708733
2096921,2096921, 151021, 708573
2096921,2096921, 151026, 708897
2096921,2096921, 151028, 708920
2096921,2096921, 150909, 709067
2096921,2096921, 151045, 708952
2096921,2096921, 151020, 708841
2096921,2096921, 151141, 708884
2096921,2096921, 151040, 709110
2096921,2096921, 151217, 709081
2096921,2096921, 150930, 709154
2096921,2096921, 150966, 709039
2096921,2096921, 151148, 708742
2096921,2096921, 151283, 708909
2096921,2096921, 151003, 709186
2096921,2096921, 151049, 709005
2096921,2096921, 150918, 708925
2096921,2096921, 150511, 708841
2096921,2096921, 150886, 708787
2096921,2096921, 150990, 708926
2096921,2096921, 151047, 709180
2096921,2096921, 150971, 708976
2096921,2096921, 151108, 708799
2096921,2096921, 151069, 709010
2096921,2096921, 150874, 708788
2096921,2096921, 151128, 708929
2096921,2096921, 151100, 708863
2096921,2096921, 151022, 708882
2096921,2096921, 150884, 708848
2096921,2096921, 151139, 708754
2096921,2096921, 151103, 708622
2096921,2096921, 151260, 708805
2096921,2096921, 151145, 709037
2096921,2096921, 151432, 708977
2096921,2096921, 151088, 708835
2096921,2096921, 151059, 708838
2096921,2096921, 150958, 708711
2096921,2096921, 151148, 708782
2096921,2096921, 151132, 709023
2096921,2096921, 151139, 708966
2096921,2096921, 151340, 708814
2096921,2096921, 151261, 708582
2096921,2096921, 151015, 709076
2096921,2096921, 150993, 708629
2096921,2096921, 150869, 708622
2096921,2096921, 150662, 708571
2096921,2096921, 151020, 708529
2096921,2096921, 151001, 708492
2096921,2096921, 150892, 708296
2096921,2096921, 150951, 708267
2096921,2096921, 150785, 708173
2096921,2096921, 150656, 708217
2096921,2096921, 150889, 708101
2096921,2096921, 150445, 707776
2096921,2096921, 150608, 707733
2096921,2096921, 150581, 707544
2096921,2096921, 150386, 707521
2096921,2096921, 150361, 707565
2096921,2096921, 150129, 707245
2096921,2096921, 150247, 706808
2096921,2096921, 150194, 706745
2096921,2096921, 150308, 706641
2096921,2096921, 150075, 706855
2096921,2096921, 150376, 706410
2096921,2096921, 150109, 705911
2096921,2096921, 150158, 706283
2096921,2096921, 149751, 705918
2096921,2096921, 149984, 705903
2096921,2096921, 149424, 704806
2096921,2096921, 149411, 703910
2096921,2096921, 149172, 703990
2096921,2096921, 149486, 703650
2096921,2096921, 149325, 703868
2096921,2096921, 148549, 702572
2096921,2096921, 148367, 701579
2096921,2096921, 148119, 701735
2096921,2096921, 148433, 701468
2096921,2096921, 148617, 701397
2096921,2096921, 147841, 700247
2096921,2096921, 147431, 699688
2096921,2096921, 147486, 699795
2096921,2096921, 147597, 699683
2096921,2096921, 147684, 699596
2096921,2096921, 147402, 698876
2096921,2096921, 147247, 698395
2096921,2096921, 147338, 698446
2096921,2096921, 147237, 698555
2096921,2096921, 147351, 698305
2096921,2096921, 146866, 697569
2096921,2096921, 146672, 697313
2096921,2096921, 146854, 697376
2096921,2096921, 146874, 697118
2096921,2096921, 147099, 697283
2096921,2096921, 146390, 696692
2096921,2096921, 146791, 696953
2096921,2096921, 146513, 696700
2096921,2096921, 146529, 696939
2096921,2096921, 146360, 696550
2096921,2096921, 146415, 696598
2096921,2096921, 146345, 695969
2096921,2096921, 146263, 695828
2096921,2096921, 146281, 695881
2096921,2096921, 146744, 696047
2096921,2096921, 146293, 696017
2096921,2096921, 146387, 695949
2096921,2096921, 146159, 695733
2096921,2096921, 146474, 695596
2096921,2096921, 146073, 695689
2096921,2096921, 146143, 695855
2096921,2096921, 146132, 695799
2096921,2096921, 146219, 695565
2096921,2096921, 146338, 695428
2096921,2096921, 146305, 695547
2096921,2096921, 146042, 695695
2096921,2096921, 146192, 695579
2096921,2096921, 146044, 695622
2096921,2096921, 145990, 695576
2096921,2096921, 146087, 695542
2096921,2096921, 146172, 695623
2096921,2096921, 146486, 695552
2096921,2096921, 146430, 695894
2096921,2096921, 146159, 695778
2096921,2096921, 146066, 695827
2096921,2096921, 146485, 695915
2096921,2096921, 146416, 696092
2096921,2096921, 146201, 696112
2096921,2096921, 146269, 695928
2096921,2096921, 146172, 696159
2096921,2096921, 146209, 695834
2096921,2096921, 146491, 696031
2096921,2096921, 146381, 696263
2096921,2096921, 146493, 696257
2096921,2096921, 146239, 696198
2096921,2096921, 146603, 696519
2096921,2096921, 146478, 696570
2096921,2096921, 146630, 696504
2096921,2096921, 146622, 696593
2096921,2096921, 146660, 696635
2096921,2096921, 146598, 696545
2096921,2096921, 146796, 696657
2096921,2096921, 147002, 696852
2096921,2096921, 146781, 696843
2096921,2096921, 146637, 696726
2096921,2096921, 146848, 696995
2096921,2096921, 146817, 697207
2096921,2096921, 146847, 697195
2096921,2096921, 146906, 697422
2096921,2096921, 146904, 697579
2096921,2096921, 146827, 697682
2096921,2096921, 146988, 697848
2096921,2096921, 147184, 697406
2096921,2096921, 146817, 697571
2096921,2096921, 146911, 697710
2096921,2096921, 147191, 698249
2096921,2096921, 147137, 698245
2096921,2096921, 147069, 697918
2096921,2096921, 147212, 698080
2096921,2096921, 147122, 698185
2096921,2096921, 147272, 698448
2096921,2096921, 147093, 698183
2096921,2096921, 147312, 698257
2096921,2096921, 147207, 698595
2096921,2096921, 147081, 698604
2096921,2096921, 147290, 698910
2096921,2096921, 147472, 699020
2096921,2096921, 147462, 699038
2096921,2096921, 147444, 699111
2096921,2096921, 147159, 698924
2096921,2096921, 147476, 699324
2096921,2096921, 147595, 699336
2096921,2096921, 147348, 699177
2096921,2096921, 147404, 699477
2096921,2096921, 147573, 699278
2096921,2096921, 147620, 699448
2096921,2096921, 147837, 699916
2096921,2096921, 147681, 699683
2096921,2096921, 147627, 699661
2096921,2096921, 147707, 699599
2096921,2096921, 147809, 699985
2096921,2096921, 148030, 699911
2096921,2096921, 147931, 700167
2096921,2096921, 147876, 700095
2096921,2096921, 147697, 700122
2096921,2096921, 147936, 700426
2096921,2096921, 147943, 700660
2096921,2096921, 148045, 700671
2096921,2096921, 147798, 700654
2096921,2096921, 148089, 700739
2096921,2096921, 148031, 701064
2096921,2096921, 148202, 701206
2096921,2096921, 148122, 701014
2096921,2096921, 148175, 701166
2096921,2096921, 148075, 701138
2096921,2096921, 148235, 701286
2096921,2096921, 148288, 701187
2096921,2096921, 148264, 701561
2096921,2096921, 148321, 701215
2096921,2096921, 148362, 701443
2096921,2096921, 148461, 701587
2096921,2096921, 148394, 701583
2096921,2096921, 148590, 701536
2096921,2096921, 148599, 701680
2096921,2096921, 148315, 701501
2096921,2096921, 148531, 701783
2096921,2096921, 148364, 701836
2096921,2096921, 148620, 701945
2096921,2096921, 148513, 702157
2096921,2096921, 148419, 702276
2096921,2096921, 148423, 702463
2096921,2096921, 148560, 702095
2096921,2096921, 149032, 702248
2096921,2096921, 148746, 702270
2096921,2096921, 148873, 702072
2096921,2096921, 148896, 702002
2096921,2096921, 148373, 702010
2096921,2096921, 148576, 702242
2096921,2096921, 148498, 702288
2096921,2096921, 148208, 702312
2096921,2096921, 148787, 702280
2096921,2096921, 148786, 702160
2096921,2096921, 149025, 702232
2096921,2096921, 148523, 702094
2096921,2096921, 148781, 702149
2096921,2096921, 148420, 702164
2096921,2096921, 148422, 702211
2096921,2096921, 148811, 702470
2096921,2096921, 148214, 702647
2096921,2096921, 148568, 702267
2096921,2096921, 148626, 702300
2096921,2096921, 148762, 702064
2096921,2096921, 148728, 702077
2096921,2096921, 148543, 701998
2096921,2096921, 148471, 701709
2096921,2096921, 148509, 701785
2096921,2096921, 148368, 701726
2096921,2096921, 148281, 701904
2096921,2096921, 148548, 702015
2096921,2096921, 148654, 702220
2096921,2096921, 148372, 701930
2096921,2096921, 148419, 701409
2096921,2096921, 148819, 701675
2096921,2096921, 148700, 701729
2096921,2096921, 148639, 702158
2096921,2096921, 148295, 701576
2096921,2096921, 148140, 701619
2096921,2096921, 148404, 701790
2096921,2096921, 148214, 701941
2096921,2096921, 148492, 701971
2096921,2096921, 148559, 701707
2096921,2096921, 148396, 701800
2096921,2096921, 148448, 701452
2096921,2096921, 148428, 701754
2096921,2096921, 148251, 701703
2096921,2096921, 148443, 701625
2096921,2096921, 148206, 701619
2096921,2096921, 148341, 701495
2096921,2096921, 148341, 701542
2096921,2096921, 148265, 701415
2096921,2096921, 148212, 701589
2096921,2096921, 148250, 701703
2096921,2096921, 148210, 701741
2096921,2096921, 148131, 701319
2096921,2096921, 148192, 701750
2096921,2096921, 148204, 701787
2096921,2096921, 148428, 701617
2096921,2096921, 148475, 701726
2096921,2096921, 148455, 701521
2096921,2096921, 148509, 701654
2096921,2096921, 148343, 701644
2096921,2096921, 148351, 701556
2096921,2096921, 148294, 701673
2096921,2096921, 148592, 701721
2096921,2096921, 148197, 701786
2096921,2096921, 148316, 701848
2096921,2096921, 148496, 701690
2096921,2096921, 148313, 701823
2096921,2096921, 148179, 701905
2096921,2096921, 148525, 701577
2096921,2096921, 148547, 701816
2096921,2096921, 148572, 701826
2096921,2096921, 148922, 702400
2096921,2096921, 148550, 702227
2096921,2096921, 148386, 702112
2096921,2096921, 148521, 702234
2096921,2096921, 148839, 702478
2096921,2096921, 148829, 702761
2096921,2096921, 148797, 702481
2096921,2096921, 148550, 702538
2096921,2096921, 148738, 702897
2096921,2096921, 148867, 702986
2096921,2096921, 148812, 702497
2096921,2096921, 149121, 702600
2096921,2096921, 148838, 702691
2096921,2096921, 148917, 702856
2096921,2096921, 148690, 702791
2096921,2096921, 148571, 703043
2096921,2096921, 148770, 703172
2096921,2096921, 149015, 702965
2096921,2096921, 148999, 703471
2096921,2096921, 149069, 703299
2096921,2096921, 148996, 703396
2096921,2096921, 149046, 703132
2096921,2096921, 148774, 703317
2096921,2096921, 149222, 703577
2096921,2096921, 149105, 703527
2096921,2096921, 149033, 703725
2096921,2096921, 148901, 703733
2096921,2096921, 148839, 703548
2096921,2096921, 149281, 703695
2096921,2096921, 149376, 703757
2096921,2096921, 149362, 703856
2096921,2096921, 149189, 703789
2096921,2096921, 149156, 703671
2096921,2096921, 149362, 704103
2096921,2096921, 149533, 703882
2096921,2096921, 149307, 704218
2096921,2096921, 149100, 704067
2096921,2096921, 149208, 703903
2096921,2096921, 149311, 703925
2096921,2096921, 149454, 704357
2096921,2096921, 149638, 704342
2096921,2096921, 149379, 704299
2096921,2096921, 149308, 704092
2096921,2096921, 149371, 704549
2096921,2096921, 149457, 704384
2096921,2096921, 149404, 704686
2096921,2096921, 149657, 704589
2096921,2096921, 149395, 704433
2096921,2096921, 149439, 704626
2096921,2096921, 149390, 704747
2096921,2096921, 149305, 704849
2096921,2096921, 149639, 704662
2096921,2096921, 149823, 705076
2096921,2096921, 149627, 704977
2096921,2096921, 149596, 704999
2096921,2096921, 149554, 704831
2096921,2096921, 149638, 705170
2096921,2096921, 149480, 705056
2096921,2096921, 149334, 705179
2096921,2096921, 149293, 704924
2096921,2096921, 149694, 705003
2096921,2096921, 149661, 705174
2096921,2096921, 149667, 705450
2096921,2096921, 149776, 705470
2096921,2096921, 149556, 705698
2096921,2096921, 149738, 705600
2096921,2096921, 149658, 705458
2096921,2096921, 149929, 705353
2096921,2096921, 149901, 705573
2096921,2096921, 149512, 705415
2096921,2096921, 149733, 705537
2096921,2096921, 150075, 705751
2096921,2096921, 149768, 705695
2096921,2096921, 150045, 705902
2096921,2096921, 149867, 706101
2096921,2096921, 149854, 705757
2096921,2096921, 149896, 705895
2096921,2096921, 149935, 705650
2096921,2096921, 149760, 705637
2096921,2096921, 149801, 705905
2096921,2096921, 150146, 705938
2096921,2096921, 149747, 706108
2096921,2096921, 149769, 705980
2096921,2096921, 149873, 706246
2096921,2096921, 150015, 706175
2096921,2096921, 149846, 706340
2096921,2096921, 150062, 706143
2096921,2096921, 149825, 706283
2096921,2096921, 149817, 706429
2096921,2096921, 150329, 706445
2096921,2096921, 150405, 706622
2096921,2096921, 150341, 706704
2096921,2096921, 150099, 706217
2096921,2096921, 149988, 706260
2096921,2096921, 150210, 706414
2096921,2096921, 150056, 706648
2096921,2096921, 150269, 706623
2096921,2096921, 150009, 706436
2096921,2096921, 150135, 706800
2096921,2096921, 150079, 706725
2096921,2096921, 150357, 706417
2096921,2096921, 150413, 706655
2096921,2096921, 150499, 706720
2096921,2096921, 150351, 707364
2096921,2096921, 150096, 707134
2096921,2096921, 150067, 707071
2096921,2096921, 150360, 707041
2096921,2096921, 150150, 706875
2096921,2096921, 150373, 706886
2096921,2096921, 150509, 706835
2096921,2096921, 150500, 706896
2096921,2096921, 150293, 706989
2096921,2096921, 150548, 707016
2096921,2096921, 150494, 707325
2096921,2096921, 150688, 707392
2096921,2096921, 150583, 707358
2096921,2096921, 150655, 707327
2096921,2096921, 150407, 706790
2096921,2096921, 150300, 707235
2096921,2096921, 150326, 707398
2096921,2096921, 150250, 707194
2096921,2096921, 150341, 707233
2096921,2096921, 150394, 707185
2096921,2096921, 150607, 707442
2096921,2096921, 150430, 707438
2096921,2096921, 150802, 707572
2096921,2096921, 150535, 707386
2096921,2096921, 150655, 707147
2096921,2096921, 150672, 707250
2096921,2096921, 150430, 707810
2096921,2096921, 150800, 707674
2096921,2096921, 150649, 707781
2096921,2096921, 150571, 707420
2096921,2096921, 150786, 707703
2096921,2096921, 150599, 707906
2096921,2096921, 150922, 707863
2096921,2096921, 150965, 707934
2096921,2096921, 150758, 707703
2096921,2096921, 150562, 707838
2096921,2096921, 150557, 707756
2096921,2096921, 150569, 707798
2096921,2096921, 150668, 707848
2096921,2096921, 150402, 707787
2096921,2096921, 150617, 707878
2096921,2096921, 150610, 707855
2096921,2096921, 150593, 707943
2096921,2096921, 150719, 707781
2096921,2096921, 150823, 707747
2096921,2096921, 150590, 708128
2096921,2096921, 150619, 708067
2096921,2096921, 150796, 707715
2096921,2096921, 150849, 707732
2096921,2096921, 150738, 708000
2096921,2096921, 150745, 708182
2096921,2096921, 150792, 708137
2096921,2096921, 150583, 708336
2096921,2096921, 150755, 708078
2096921,2096921, 150979, 708053
2096921,2096921, 151117, 708035
2096921,2096921, 150847, 708432
2096921,2096921, 150839, 708242
2096921,2096921, 150876, 708016
2096921,2096921, 150946, 708066
2096921,2096921, 150999, 708470
2096921,2096921, 150999, 708373
2096921,2096921, 150738, 708120
2096921,2096921, 150827, 707966
2096921,2096921, 150787, 707927
2096921,2096921, 150791, 708261
2096921,2096921, 151215, 708381
2096921,2096921, 150839, 708301
2096921,2096921, 150733, 708183
2096921,2096921, 150980, 708316
2096921,2096921, 151090, 708326
2096921,2096921, 150994, 708449
2096921,2096921, 150869, 708264
2096921,2096921, 150826, 708425
2096921,2096921, 150943, 708372
2096921,2096921, 150993, 708318
2096921,2096921, 150801, 708466
2096921,2096921, 150888, 708073
2096921,2096921, 150957, 708305
2096921,2096921, 150652, 708847
2096921,2096921, 150794, 708608
2096921,2096921, 151004, 708801
2096921,2096921, 150877, 708906
2096921,2096921, 150809, 708608
2096921,2096921, 151045, 708408
2096921,2096921, 151228, 708304
2096921,2096921, 151156, 708580
2096921,2096921, 151140, 708291
2096921,2096921, 151465, 708389
2096921,2096921, 151307, 708692
2096921,2096921, 150861, 708969
2096921,2096921, 150866, 708727
2096921,2096921, 150794, 708673
2096921,2096921, 151093, 708727
2096921,2096921, 151332, 708635
2096921,2096921, 151179, 708829
2096921,2096921, 151078, 708748
2096921,2096921, 150825, 708664
2096921,2096921, 150749, 708602
2096921,2096921, 150979, 708677
2096921,2096921, 150779, 708728
2096921,2096921, 151045, 708599
2096921,2096921, 151109, 708702
2096921,2096921, 151199, 708833
2096921,2096921, 150708, 708876
2096921,2096921, 151041, 708622
2096921,2096921, 151038, 708803
2096921,2096921, 150956, 708852
2096921,2096921, 150960, 709050
2096921,2096921, 151007, 708654
2096921,2096921, 151044, 708902
2096921,2096921, 150858, 708596
2096921,2096921, 150887, 708822
2096921,2096921, 151016, 709011
2096921,2096921, 151288, 709071
2096921,2096921, 150920, 709068
2096921,2096921, 150754, 708916
2096921,2096921, 150979, 709077
2096921,2096921, 151119, 708842
2096921,2096921, 151163, 709021
2096921,2096921, 151118, 708816
2096921,2096921, 150911, 708812
2096921,2096921, 150886, 708639
2096921,2096921, 151098, 708917
2096921,2096921, 150913, 708787
2096921,2096921, 150890, 708824
2096921,2096921, 151062, 708531
2096921,2096921, 151003, 709045
2096921,2096921, 151030, 709028
2096921,2096921, 151137, 709023
2096921,2096921, 151150, 708889
2096921,2096921, 150878, 709028
2096921,2096921, 151500, 708753
2096921,2096921, 151317, 708788
2096921,2096921, 151254, 708491
2096921,2096921, 151131, 708415
2096921,2096921, 151099, 708627
2096921,2096921, 151042, 708881
2096921,2096921, 150886, 708893
2096921,2096921, 150745, 709003
2096921,2096921, 150698, 708960
2096921,2096921, 150939, 708818
2096921,2096921, 151322, 708789
2096921,2096921, 151204, 708796
2096921,2096921, 151188, 709015
2096921,2096921, 151066, 708994
2096921,2096921, 151066, 708676
2096921,2096921, 151175, 708756
2096921,2096921, 150957, 709152
2096921,2096921, 150998, 708752
2096921,2096921, 150992, 708683
2096921,2096921, 150832, 708673
2096921,2096921, 150877, 708780
2096921,2096921, 151166, 708730
2096921,2096921, 151295, 708633
2096921,2096921, 151088, 708627
2096921,2096921, 150823, 708818
2096921,2096921, 151170, 708686
2096921,2096921, 151125, 708719
2096921,2096921, 151063, 708949
2096921,2096921, 151041, 708525
2096921,2096921, 151011, 708356
2096921,2096921, 150857, 708455
2096921,2096921, 150924, 708034
2096921,2096921, 151140, 708441
2096921,2096921, 150788, 708209
2096921,2096921, 150721, 708353
2096921,2096921, 150654, 708201
2096921,2096921, 150690, 707869
2096921,2096921, 150745, 707684
2096921,2096921, 150767, 707668
2096921,2096921, 150725, 707395
2096921,2096921, 150497, 707306
2096921,2096921, 150194, 707387
2096921,2096921, 150275, 707501
2096921,2096921, 150255, 706805
2096921,2096921, 150500, 706573
2096921,2096921, 150344, 706422
2096921,2096921, 150311, 706465
2096921,2096921, 150355, 706897
2096921,2096921, 150105, 705914
2096921,2096921, 150081, 705816
2096921,2096921, 149806, 705491
2096921,2096921, 149708, 705778
2096921,2096921, 149900, 705943
2096921,2096921, 149376, 704586
2096921,2096921, 149267, 704141
2096921,2096921, 149378, 703996
2096921,2096921, 149235, 704122
2096921,2096921, 149188, 704038
2096921,2096921, 148450, 702321
2096921,2096921, 148234, 701519
2096921,2096921, 148321, 701248
2096921,2096921, 148473, 701264
2096921,2096921, 148332, 701343
2096921,2096921, 147485, 700219
2096921,2096921, 147567, 699642
2096921,2096921, 147713, 699492
2096921,2096921, 147898, 699548
2096921,2096921, 147648, 699611
2096921,2096921, 147311, 698767
2096921,2096921, 147039, 698168
2096921,2096921, 147267, 698208
2096921,2096921, 147303, 698130
2096921,2096921, 147165, 698240
2096921,2096921, 146828, 697437
2096921,2096921, 146621, 697424
2096921,2096921, 146909, 697225
2096921,2096921, 146869, 697402
2096921,2096921, 146671, 697149
2096921,2096921, 146468, 696549
2096921,2096921, 146508, 696494
2096921,2096921, 146483, 696656
2096921,2096921, 146561, 696576
2096921,2096921, 146723, 696374
2096921,2096921, 146369, 696265
2096921,2096921, 146343, 696340
2096921,2096921, 146316, 696374
2096921,2096921, 146324, 696005
2096921,2096921, 146333, 695916
2096921,2096921, 146148, 695701
2096921,2096921, 146269, 695558
2096921,2096921, 146396, 695454
2096921,2096921, 146330, 695799
2096921,2096921, 146369, 695460
2096921,2096921, 146500, 695552
2096921,2096921, 146291, 695743
2096921,2096921, 146333, 695976
2096921,2096921, 146008, 695391
2096921,2096921, 146200, 695116
2096921,2096921, 146195, 695186
2096921,2096921, 146270, 695725
2096921,2096921, 146174, 695665
2096921,2096921, 146322, 695489
2096921,2096921, 146146, 695598
2096921,2096921, 146270, 695736
2096921,2096921, 146096, 695951
2096921,2096921, 146372, 695788
2096921,2096921, 146251, 695891
2096921,2096921, 146285, 695779
2096921,2096921, 146409, 695929
2096921,2096921, 146357, 695928
2096921,2096921, 146127, 695595
2096921,2096921, 146223, 696026
2096921,2096921, 146350, 695735
2096921,2096921, 146396, 695829
2096921,2096921, 146457, 696072
2096921,2096921, 146500, 695982
2096921,2096921, 146554, 696376
2096921,2096921, 146336, 696041
2096921,2096921, 146437, 696196
2096921,2096921, 146910, 696261
2096921,2096921, 146555, 696774
2096921,2096921, 146503, 696414
2096921,2096921, 146317, 696333
2096921,2096921, 146383, 696379
2096921,2096921, 146306, 696843
2096921,2096921, 146262, 696877
2096921,2096921, 146585, 696796
2096921,2096921, 146523, 696957
2096921,2096921, 146505, 697191
2096921,2096921, 146492, 697361
2096921,2096921, 146831, 697346
2096921,2096921, 146678, 697263
2096921,2096921, 146846, 696988
2096921,2096921, 147084, 697441
2096921,2096921, 146806, 697285
2096921,2096921, 146989, 697487
2096921,2096921, 146820, 697316
2096921,2096921, 146902, 697419
2096921,2096921, 147169, 698229
2096921,2096921, 147076, 698261
2096921,2096921, 147003, 698116
2096921,2096921, 147098, 698165
2096921,2096921, 146937, 698153
2096921,2096921, 147057, 698299
2096921,2096921, 147381, 698552
2096921,2096921, 147080, 698427
2096921,2096921, 147585, 698338
2096921,2096921, 147494, 698449
2096921,2096921, 147664, 698641
2096921,2096921, 147750, 699025
2096921,2096921, 147341, 698948
2096921,2096921, 147203, 698953
2096921,2096921, 147261, 698821
2096921,2096921, 147586, 699364
2096921,2096921, 147636, 699428
2096921,2096921, 147669, 699256
2096921,2096921, 147518, 699395
2096921,2096921, 147719, 699173
2096921,2096921, 147765, 699352
2096921,2096921, 147936, 699853
2096921,2096921, 147738, 699995
2096921,2096921, 147744, 699772
2096921,2096921, 147705, 699575
2096921,2096921, 147703, 700064
2096921,2096921, 147817, 700233
2096921,2096921, 147755, 700151
2096921,2096921, 148040, 700302
2096921,2096921, 148209, 700255
2096921,2096921, 148059, 700593
2096921,2096921, 148252, 700882
2096921,2096921, 148252, 700655
2096921,2096921, 147940, 700337
2096921,2096921, 148165, 700871
2096921,2096921, 148297, 700770
2096921,2096921, 148257, 700800
2096921,2096921, 148399, 701143
2096921,2096921, 148479, 701099
2096921,2096921, 148426, 701294
2096921,2096921, 148521, 701306
2096921,2096921, 148497, 701282
2096921,2096921, 148575, 701260
2096921,2096921, 148376, 701525
2096921,2096921, 148471, 701238
2096921,2096921, 148434, 701483
2096921,2096921, 148271, 701537
2096921,2096921, 148566, 701621
2096921,2096921, 148666, 701517
2096921,2096921, 148499, 701798
2096921,2096921, 148460, 701832
2096921,2096921, 148592, 702038
2096921,2096921, 148575, 701998
2096921,2096921, 148514, 701760
2096921,2096921, 148625, 701765
2096921,2096921, 148726, 702024
2096921,2096921, 148688, 702522
2096921,2096921, 148625, 702399
2096921,2096921, 148608, 701913
2096921,2096921, 148626, 702144
2096921,2096921, 148628, 702226
2096921,2096921, 148872, 702592
2096921,2096921, 149047, 702437
2096921,2096921, 148913, 702236
2096921,2096921, 148488, 702197
2096921,2096921, 148507, 702157
2096921,2096921, 148665, 702203
2096921,2096921, 148559, 702260
2096921,2096921, 148384, 702373
2096921,2096921, 148553, 702058
2096921,2096921, 148806, 702641
2096921,2096921, 148793, 702424
2096921,2096921, 148753, 702330
2096921,2096921, 148687, 702620
2096921,2096921, 148595, 702194
2096921,2096921, 148626, 702261
2096921,2096921, 148515, 702078
2096921,2096921, 148601, 702403
2096921,2096921, 148470, 701958
2096921,2096921, 148559, 701987
2096921,2096921, 148705, 702091
2096921,2096921, 148659, 702195
2096921,2096921, 148668, 702019
2096921,2096921, 148548, 702066
2096921,2096921, 148367, 701912
2096921,2096921, 148534, 701888
2096921,2096921, 148300, 701856
2096921,2096921, 148561, 701827
2096921,2096921, 148810, 701918
2096921,2096921, 148308, 701792
2096921,2096921, 148271, 701757
2096921,2096921, 148066, 701418
2096921,2096921, 148308, 701785
2096921,2096921, 148469, 701584
2096921,2096921, 148905, 701652
2096921,2096921, 148541, 701477
2096921,2096921, 148387, 701446
2096921,2096921, 148431, 701495
2096921,2096921, 148424, 701331
2096921,2096921, 148494, 701391
2096921,2096921, 148550, 701568
2096921,2096921, 148380, 701362
2096921,2096921, 148431, 701536
2096921,2096921, 148496, 701569
2096921,2096921, 148407, 701631
2096921,2096921, 148380, 701941
2096921,2096921, 148364, 701941
2096921,2096921, 148498, 701463
2096921,2096921, 148303, 701640
2096921,2096921, 148319, 701598
2096921,2096921, 148699, 701579
2096921,2096921, 148733, 701469
2096921,2096921, 148253, 701589
2096921,2096921, 148722, 701653
2096921,2096921, 148815, 701844
2096921,2096921, 148695, 701887
2096921,2096921, 148176, 701524
2096921,2096921, 148109, 701479
2096921,2096921, 148594, 701395
2096921,2096921, 148650, 701896
2096921,2096921, 148811, 701750
2096921,2096921, 148743, 701778
2096921,2096921, 148650, 701680
2096921,2096921, 148475, 701783
2096921,2096921, 148527, 701828
2096921,2096921, 148867, 702220
2096921,2096921, 148864, 702178
2096921,2096921, 148599, 702287
2096921,2096921, 148410, 701902
2096921,2096921, 148670, 702162
2096921,2096921, 148652, 702236
2096921,2096921, 148558, 702328
2096921,2096921, 149023, 702576
2096921,2096921, 148858, 702353
2096921,2096921, 148851, 702363
2096921,2096921, 148590, 702705
2096921,2096921, 149218, 702907
2096921,2096921, 149058, 702934
2096921,2096921, 148758, 702792
2096921,2096921, 148533, 702695
2096921,2096921, 148833, 702908
2096921,2096921, 148890, 702975
2096921,2096921, 148973, 703120
2096921,2096921, 148873, 703086
2096921,2096921, 148895, 703331
2096921,2096921, 148996, 703279
2096921,2096921, 148997, 703353
2096921,2096921, 148963, 703343
2096921,2096921, 149136, 703533
2096921,2096921, 148923, 703462
2096921,2096921, 148631, 703483
2096921,2096921, 148998, 703388
2096921,2096921, 149104, 703342
2096921,2096921, 149298, 703538
2096921,2096921, 149093, 703907
2096921,2096921, 149232, 703664
2096921,2096921, 149004, 703774
2096921,2096921, 149480, 703731
2096921,2096921, 149262, 703543
2096921,2096921, 149476, 703360
2096921,2096921, 149107, 703994
2096921,2096921, 149162, 703728
2096921,2096921, 148933, 704060
2096921,2096921, 149206, 703973
2096921,2096921, 149304, 703838
2096921,2096921, 149402, 704296
2096921,2096921, 149408, 704275
2096921,2096921, 149343, 704214
2096921,2096921, 149271, 703898
2096921,2096921, 149356, 704112
2096921,2096921, 149543, 704710
2096921,2096921, 149587, 704524
2096921,2096921, 149501, 704536
2096921,2096921, 149504, 704636
2096921,2096921, 149499, 704583
2096921,2096921, 149521, 704830
2096921,2096921, 149707, 704852
2096921,2096921, 149456, 704742
2096921,2096921, 149649, 704900
2096921,2096921, 149514, 704557
2096921,2096921, 149426, 704842
2096921,2096921, 149566, 705193
2096921,2096921, 149653, 705006
2096921,2096921, 149600, 705017
2096921,2096921, 149717, 704813
2096921,2096921, 149571, 705042
2096921,2096921, 149866, 705434
2096921,2096921, 149796, 705308
2096921,2096921, 149871, 705057
2096921,2096921, 149908, 705164
2096921,2096921, 149763, 705205
2096921,2096921, 149851, 704984
2096921,2096921, 149776, 705164
2096921,2096921, 149955, 705428
2096921,2096921, 149798, 705532
2096921,2096921, 149655, 705532
2096921,2096921, 149846, 705636
2096921,2096921, 149879, 705570
2096921,2096921, 149986, 705297
2096921,2096921, 150189, 705467
2096921,2096921, 150171, 706010
2096921,2096921, 150028, 705708
2096921,2096921, 149980, 705802
2096921,2096921, 149833, 705862
2096921,2096921, 149759, 705808
2096921,2096921, 150238, 706233
2096921,2096921, 149916, 706472
2096921,2096921, 149810, 706397
2096921,2096921, 149931, 706260
2096921,2096921, 150206, 706049
2096921,2096921, 150296, 706502
2096921,2096921, 150118, 706359
2096921,2096921, 149920, 706381
2096921,2096921, 149929, 706179
2096921,2096921, 149811, 706319
2096921,2096921, 150459, 706397
2096921,2096921, 150223, 706177
2096921,2096921, 150424, 706315
2096921,2096921, 150228, 706294
2096921,2096921, 150398, 706410
2096921,2096921, 150520, 706425
2096921,2096921, 150331, 706664
2096921,2096921, 150111, 706576
2096921,2096921, 150296, 706810
2096921,2096921, 149948, 706561
2096921,2096921, 150079, 706785
2096921,2096921, 150136, 706866
2096921,2096921, 150515, 706490
2096921,2096921, 150347, 706413
2096921,2096921, 150264, 706596
2096921,2096921, 150361, 706687
2096921,2096921, 150378, 706916
2096921,2096921, 150077, 706945
2096921,2096921, 150136, 707164
2096921,2096921, 150144, 707092
2096921,2096921, 150385, 707055
2096921,2096921, 150371, 706994
2096921,2096921, 150458, 707095
2096921,2096921, 150622, 706972
2096921,2096921, 150503, 707180
2096921,2096921, 150508, 707056
2096921,2096921, 150739, 707348
2096921,2096921, 150481, 707264
2096921,2096921, 150583, 707323
2096921,2096921, 150379, 707170
2096921,2096921, 150510, 707795
2096921,2096921, 150425, 707504
2096921,2096921, 150627, 707375
2096921,2096921, 150706, 707250
2096921,2096921, 150747, 707336
2096921,2096921, 150678, 707439
2096921,2096921, 150403, 707736
2096921,2096921, 150341, 707227
2096921,2096921, 150431, 707502
2096921,2096921, 150602, 707475
2096921,2096921, 150449, 707522
2096921,2096921, 150466, 707639
2096921,2096921, 150720, 707501
2096921,2096921, 150487, 707692
2096921,2096921, 150559, 707619
2096921,2096921, 150743, 707642
2096921,2096921, 150664, 707813
2096921,2096921, 150824, 707708
2096921,2096921, 150623, 707465
2096921,2096921, 150869, 707753
2096921,2096921, 150686, 707684
2096921,2096921, 150983, 707723
2096921,2096921, 150750, 707914
2096921,2096921, 150494, 707859
2096921,2096921, 150880, 707901
2096921,2096921, 150665, 707917
2096921,2096921, 150828, 708127
2096921,2096921, 150657, 708152
2096921,2096921, 150717, 708006
2096921,2096921, 150465, 707859
2096921,2096921, 150770, 707908
2096921,2096921, 150823, 707890
2096921,2096921, 150772, 707959
2096921,2096921, 150851, 708135
2096921,2096921, 150914, 708099
2096921,2096921, 150768, 708107
2096921,2096921, 150856, 707927
2096921,2096921, 150820, 708080
2096921,2096921, 151017, 708369
2096921,2096921, 150621, 707832
2096921,2096921, 150896, 708298
2096921,2096921, 150640, 707920
2096921,2096921, 150833, 707822
2096921,2096921, 150770, 707950
2096921,2096921, 150730, 708088
2096921,2096921, 150737, 708209
2096921,2096921, 150735, 708273
2096921,2096921, 150824, 708298
2096921,2096921, 150480, 708081
2096921,2096921, 150716, 708140
2096921,2096921, 150881, 708225
2096921,2096921, 150725, 708342
2096921,2096921, 150817, 708315
2096921,2096921, 150636, 708173
2096921,2096921, 150973, 708311
2096921,2096921, 151083, 708510
2096921,2096921, 150941, 708729
2096921,2096921, 151147, 708407
2096921,2096921, 150951, 708540
2096921,2096921, 150816, 708303
2096921,2096921, 150470, 708155
2096921,2096921, 150783, 708321
2096921,2096921, 150818, 708490
2096921,2096921, 150860, 708544
2096921,2096921, 150887, 708397
2096921,2096921, 150793, 708435
2096921,2096921, 151082, 708750
2096921,2096921, 151235, 708583
2096921,2096921, 151056, 708585
2096921,2096921, 151028, 708798
2096921,2096921, 150733, 708760
2096921,2096921, 150845, 708498
2096921,2096921, 151126, 708419
2096921,2096921, 151213, 708849
2096921,2096921, 151227, 708811
2096921,2096921, 150903, 708795
2096921,2096921, 150911, 708679
2096921,2096921, 151109, 708841
2096921,2096921, 151022, 708941
2096921,2096921, 150860, 708695
2096921,2096921, 150993, 708761
2096921,2096921, 150612, 708491
2096921,2096921, 150992, 708568
2096921,2096921, 150719, 708787
2096921,2096921, 150921, 708869
2096921,2096921, 151076, 708824
2096921,2096921, 151108, 708915
2096921,2096921, 151124, 708938
2096921,2096921, 151008, 708556
2096921,2096921, 150717, 708814
2096921,2096921, 151220, 708954
2096921,2096921, 151150, 708851
2096921,2096921, 151139, 709135
2096921,2096921, 151107, 709092
2096921,2096921, 150919, 708943
2096921,2096921, 150918, 708740
2096921,2096921, 150975, 708984
2096921,2096921, 151007, 709101
2096921,2096921, 151270, 709154
2096921,2096921, 150918, 708900
2096921,2096921, 151082, 708862
2096921,2096921, 150852, 709039
2096921,2096921, 150974, 709085
2096921,2096921, 151031, 708944
2096921,2096921, 151167, 708950
2096921,2096921, 151321, 708936
2096921,2096921, 150986, 708947
2096921,2096921, 150954, 709140
2096921,2096921, 150868, 709047
2096921,2096921, 151024, 709142
2096921,2096921, 151078, 709020
2096921,2096921, 151313, 708805
2096921,2096921, 151216, 708850
2096921,2096921, 150881, 708858
2096921,2096921, 151054, 709104
2096921,2096921, 151188, 709061
2096921,2096921, 151224, 708978
2096921,2096921, 151250, 708988
2096921,2096921, 151030, 708901
2096921,2096921, 151050, 709004
2096921,2096921, 151094, 708895
2096921,2096921, 150965, 708951
2096921,2096921, 151216, 709076
2096921,2096921, 151148, 709013
2096921,2096921, 150983, 708812
2096921,2096921, 151205, 708822
2096921,2096921, 151163, 708799
2096921,2096921, 151134, 708893
2096921,2096921, 151118, 709206
2096921,2096921, 151110, 708934
2096921,2096921, 150827, 708836
2096921,2096921, 150988, 708848
2096921,2096921, 151110, 708964
2096921,2096921, 151237, 708811
2096921,2096921, 151074, 708867
2096921,2096921, 150896, 708861
2096921,2096921, 150994, 708743
2096921,2096921, 150958, 708726
2096921,2096921, 150856, 708835
2096921,2096921, 150928, 708466
2096921,2096921, 150862, 708777
2096921,2096921, 150768, 708871
2096921,2096921, 150941, 708849
2096921,2096921, 151139, 708802
2096921,2096921, 151154, 708891
2096921,2096921, 150874, 708461
2096921,2096921, 150775, 708582
2096921,2096921, 150867, 708745
2096921,2096921, 150759, 708567
2096921,2096921, 150690, 708665
2096921,2096921, 150925, 708128
2096921,2096921, 150939, 708026
2096921,2096921, 151039, 708166
2096921,2096921, 150714, 707979
2096921,2096921, 150966, 708029
2096921,2096921, 150546, 707764
2096921,2096921, 150588, 707624
2096921,2096921, 150365, 707263
2096921,2096921, 150264, 707399
2096921,2096921, 150364, 707520
2096921,2096921, 150280, 707166
2096921,2096921, 150358, 706740
2096921,2096921, 150104, 706718
2096921,2096921, 150067, 706612
2096921,2096921, 150210, 706509
2096921,2096921, 150018, 706035
2096921,2096921, 149898, 706031
2096921,2096921, 149675, 705963
2096921,2096921, 149880, 705626
2096921,2096921, 150024, 705590
2096921,2096921, 149395, 704348
2096921,2096921, 149032, 704040
2096921,2096921, 149324, 703879
2096921,2096921, 149486, 703648
2096921,2096921, 149186, 703872
2096921,2096921, 148622, 702538
2096921,2096921, 148467, 701857
2096921,2096921, 148532, 701641
2096921,2096921, 148234, 701582
2096921,2096921, 148254, 701485
2096921,2096921, 147856, 700509
2096921,2096921, 147773, 699719
2096921,2096921, 147463, 699892
2096921,2096921, 147740, 699709
2096921,2096921, 147582, 699860
2096921,2096921, 147266, 698608
2096921,2096921, 147025, 698456
2096921,2096921, 147289, 698373
2096921,2096921, 147165, 698188
2096921,2096921, 147058, 698279
2096921,2096921, 146909, 697418
2096921,2096921, 146649, 697064
2096921,2096921, 146669, 697177
2096921,2096921, 146859, 697393
2096921,2096921, 147027, 697290
2096921,2096921, 146297, 696740
2096921,2096921, 146538, 696608
2096921,2096921, 146452, 696700
2096921,2096921, 146596, 696810
2096921,2096921, 146705, 696629
2096921,2096921, 146210, 696288
2096921,2096921, 146347, 696502
2096921,2096921, 146721, 696031
2096921,2096921, 146368, 696142
2096921,2096921, 146520, 696040
2096921,2096921, 146430, 695680
2096921,2096921, 146203, 695623
2096921,2096921, 146206, 695932
2096921,2096921, 146266, 695783
2096921,2096921, 146211, 695775
2096921,2096921, 146201, 695685
2096921,2096921, 146110, 695490
2096921,2096921, 146341, 695709
2096921,2096921, 146465, 695629
2096921,2096921, 146294, 695833
2096921,2096921, 146159, 695718
2096921,2096921, 146235, 695440
2096921,2096921, 146487, 695690
2096921,2096921, 146420, 695730
2096921,2096921, 146556, 695501
2096921,2096921, 146211, 695662
2096921,2096921, 146196, 695627
2096921,2096921, 146212, 695836
2096921,2096921, 146392, 695825
2096921,2096921, 146228, 696032
2096921,2096921, 146465, 695796
2096921,2096921, 146299, 695966
2096921,2096921, 146400, 696026
2096921,2096921, 146197, 695954
2096921,2096921, 146314, 695754
2096921,2096921, 146491, 696120
2096921,2096921, 145955, 696196
2096921,2096921, 146136, 696226
2096921,2096921, 146415, 696222
2096921,2096921, 146457, 696127
2096921,2096921, 146585, 696635
2096921,2096921, 146802, 696438
2096921,2096921, 146476, 696658
2096921,2096921, 146624, 696243
2096921,2096921, 146646, 696409
2096921,2096921, 146554, 696872
2096921,2096921, 146693, 696750
2096921,2096921, 146683, 696657
2096921,2096921, 146550, 696919
2096921,2096921, 146520, 696972
2096921,2096921, 146656, 697356
2096921,2096921, 147106, 697257
2096921,2096921, 146757, 697449
2096921,2096921, 147109, 697145
2096921,2096921, 146853, 697085
2096921,2096921, 147068, 697416
2096921,2096921, 146905, 697711
2096921,2096921, 147185, 697899
2096921,2096921, 147048, 697703
2096921,2096921, 147250, 697643
2096921,2096921, 146953, 697890
2096921,2096921, 146983, 698372
2096921,2096921, 146965, 698402
2096921,2096921, 147017, 698320
2096921,2096921, 147014, 698165
2096921,2096921, 147157, 698249
2096921,2096921, 147213, 698642
2096921,2096921, 147264, 698563
2096921,2096921, 147422, 698843
2096921,2096921, 147500, 698629
2096921,2096921, 147168, 699120
2096921,2096921, 147294, 698909
2096921,2096921, 147374, 698908
2096921,2096921, 147399, 699104
2096921,2096921, 147353, 698868
2096921,2096921, 147408, 699437
2096921,2096921, 147461, 699393
2096921,2096921, 147391, 699530
2096921,2096921, 147607, 699415
2096921,2096921, 147459, 699557
2096921,2096921, 147637, 699771
2096921,2096921, 147642, 699610
2096921,2096921, 147621, 699876
2096921,2096921, 147587, 699573
2096921,2096921, 147669, 699837
2096921,2096921, 147645, 700250
2096921,2096921, 147878, 700103
2096921,2096921, 147704, 700290
2096921,2096921, 147801, 700140
2096921,2096921, 147981, 700470
2096921,2096921, 148015, 700532
2096921,2096921, 147992, 701019
2096921,2096921, 148007, 700812
2096921,2096921, 148037, 700641
2096921,2096921, 148009, 700601
2096921,2096921, 148075, 700967
2096921,2096921, 148156, 701138
2096921,2096921, 148072, 701202
2096921,2096921, 148091, 701190
2096921,2096921, 147854, 700845
2096921,2096921, 148151, 701346
2096921,2096921, 148314, 701266
2096921,2096921, 148166, 701572
2096921,2096921, 148264, 701428
2096921,2096921, 148303, 701704
2096921,2096921, 148183, 701639
2096921,2096921, 148360, 701828
2096921,2096921, 148573, 701919
2096921,2096921, 148843, 702070
2096921,2096921, 148705, 701798
2096921,2096921, 148420, 701921
2096921,2096921, 148686, 702083
2096921,2096921, 148480, 701636
2096921,2096921, 148798, 702142
2096921,2096921, 148785, 701835
2096921,2096921, 148564, 702121
2096921,2096921, 148128, 702016
2096921,2096921, 148354, 701843
2096921,2096921, 148448, 702211
2096921,2096921, 148584, 702253
2096921,2096921, 148499, 702115
2096921,2096921, 148644, 702301
2096921,2096921, 148644, 702251
2096921,2096921, 148690, 702180
2096921,2096921, 148712, 702022
2096921,2096921, 148635, 702255
2096921,2096921, 148508, 702209
2096921,2096921, 148498, 702157
2096921,2096921, 148315, 702049
2096921,2096921, 148774, 702197
2096921,2096921, 148848, 702281
2096921,2096921, 148797, 702776
2096921,2096921, 148628, 702556
2096921,2096921, 148901, 702056
2096921,2096921, 148728, 702093
2096921,2096921, 148752, 702090
2096921,2096921, 148744, 702367
2096921,2096921, 148663, 702090
2096921,2096921, 148543, 702127
2096921,2096921, 148126, 702446
2096921,2096921, 148310, 702132
2096921,2096921, 148361, 702202
2096921,2096921, 148589, 702379
2096921,2096921, 148752, 702122
2096921,2096921, 148487, 701727
2096921,2096921, 148422, 701974
2096921,2096921, 148580, 702004
2096921,2096921, 148363, 701924
2096921,2096921, 148464, 702152
2096921,2096921, 148721, 702113
2096921,2096921, 148507, 701942
2096921,2096921, 148283, 701825
2096921,2096921, 148455, 702065
2096921,2096921, 148296, 701659
2096921,2096921, 148131, 701716
2096921,2096921, 148208, 701534
2096921,2096921, 148181, 701616
2096921,2096921, 148073, 701436
2096921,2096921, 148363, 701630
2096921,2096921, 148498, 701904
2096921,2096921, 148571, 701828
2096921,2096921, 148547, 701555
2096921,2096921, 148363, 701669
2096921,2096921, 148478, 701275
2096921,2096921, 148327, 701610
2096921,2096921, 148663, 701844
2096921,2096921, 148474, 701468
2096921,2096921, 148371, 701649
2096921,2096921, 147859, 701863
2096921,2096921, 148523, 701691
2096921,2096921, 148315, 701806
2096921,2096921, 148546, 701749
2096921,2096921, 148352, 701782
2096921,2096921, 148264, 702042
2096921,2096921, 148361, 701641
2096921,2096921, 148299, 701768
2096921,2096921, 148345, 701810
2096921,2096921, 148133, 701702
2096921,2096921, 148034, 701698
2096921,2096921, 148416, 701902
2096921,2096921, 148564, 701853
2096921,2096921, 148714, 701961
2096921,2096921, 148913, 701965
2096921,2096921, 148426, 701863
2096921,2096921, 148638, 701815
2096921,2096921, 148384, 702336
2096921,2096921, 148377, 702296
2096921,2096921, 148449, 702153
2096921,2096921, 148802, 702196
2096921,2096921, 148590, 702167
2096921,2096921, 148721, 702883
2096921,2096921, 148773, 702557
2096921,2096921, 148914, 702544
2096921,2096921, 148774, 702426
2096921,2096921, 148667, 702812
2096921,2096921, 148973, 702653
2096921,2096921, 148922, 702826
2096921,2096921, 148788, 702599
2096921,2096921, 149032, 702541
2096921,2096921, 149144, 702787
2096921,2096921, 149088, 703044
2096921,2096921, 148987, 703342
2096921,2096921, 148854, 703324
2096921,2096921, 149073, 703204
2096921,2096921, 148985, 703236
2096921,2096921, 149135, 703311
2096921,2096921, 149122, 703390
2096921,2096921, 149048, 703567
2096921,2096921, 149122, 703536
2096921,2096921, 149239, 703353
2096921,2096921, 148951, 703727
2096921,2096921, 149219, 703306
2096921,2096921, 148998, 703305
2096921,2096921, 149109, 703446
2096921,2096921, 148819, 703402
2096921,2096921, 149033, 703819
2096921,2096921, 149208, 703854
2096921,2096921, 149350, 703984
2096921,2096921, 149147, 703857
2096921,2096921, 149266, 703720
2096921,2096921, 149324, 703887
2096921,2096921, 149444, 703907
2096921,2096921, 149437, 703996
2096921,2096921, 149259, 703857
2096921,2096921, 149214, 703984
2096921,2096921, 149443, 704222
2096921,2096921, 149482, 704428
2096921,2096921, 149158, 704444
2096921,2096921, 149115, 704207
2096921,2096921, 149100, 704259
2096921,2096921, 149416, 704519
2096921,2096921, 149544, 704662
2096921,2096921, 149717, 704506
2096921,2096921, 149692, 704674
2096921,2096921, 149582, 704494
2096921,2096921, 149777, 704713
2096921,2096921, 149431, 704924
2096921,2096921, 149652, 704915
2096921,2096921, 149926, 704732
2096921,2096921, 149859, 704864
2096921,2096921, 149462, 704922
2096921,2096921, 149717, 705031
2096921,2096921, 149757, 704880
2096921,2096921, 149737, 705005
2096921,2096921, 149505, 705030
2096921,2096921, 149323, 705229
2096921,2096921, 149815, 705166
2096921,2096921, 149712, 705281
2096921,2096921, 149717, 705564
2096921,2096921, 149557, 705319
2096921,2096921, 149958, 705433
2096921,2096921, 150041, 705548
2096921,2096921, 149716, 705640
2096921,2096921, 149555, 705505
2096921,2096921, 149814, 705391
2096921,2096921, 149867, 705435
2096921,2096921, 149669, 705793
2096921,2096921, 149906, 705483
2096921,2096921, 149860, 705907
2096921,2096921, 149664, 705934
2096921,2096921, 149746, 706003
2096921,2096921, 149852, 706016
2096921,2096921, 149960, 705950
2096921,2096921, 150185, 705947
2096921,2096921, 149846, 706009
2096921,2096921, 149873, 706214
2096921,2096921, 150077, 706402
2096921,2096921, 150024, 706432
2096921,2096921, 149994, 706364
2096921,2096921, 149590, 706281
2096921,2096921, 149798, 706474
2096921,2096921, 149936, 706137
2096921,2096921, 150071, 706126
2096921,2096921, 150236, 706278
2096921,2096921, 149975, 706151
2096921,2096921, 150208, 706225
2096921,2096921, 150043, 706407
2096921,2096921, 150273, 706047
2096921,2096921, 149781, 706378
2096921,2096921, 150238, 706452
2096921,2096921, 150137, 706849
2096921,2096921, 150434, 706697
2096921,2096921, 150484, 706666
2096921,2096921, 149990, 706770
2096921,2096921, 150139, 706861
2096921,2096921, 150477, 706787
2096921,2096921, 150295, 706807
2096921,2096921, 150348, 706868
2096921,2096921, 150327, 706704
2096921,2096921, 150265, 706656
2096921,2096921, 150495, 706874
2096921,2096921, 150242, 706851
2096921,2096921, 150230, 706740
2096921,2096921, 150320, 706920
2096921,2096921, 150190, 706995
2096921,2096921, 150099, 706921
2096921,2096921, 150393, 706852
2096921,2096921, 150274, 706845
2096921,2096921, 150414, 707605
2096921,2096921, 150514, 707191
2096921,2096921, 150366, 707281
2096921,2096921, 150315, 707270
2096921,2096921, 150457, 707152
2096921,2096921, 150498, 707159
2096921,2096921, 150415, 707586
2096921,2096921, 150464, 707223
2096921,2096921, 150624, 707484
2096921,2096921, 150536, 707428
2096921,2096921, 150535, 707267
2096921,2096921, 150103, 706880
2096921,2096921, 150492, 707621
2096921,2096921, 150557, 707549
2096921,2096921, 150338, 707625
2096921,2096921, 150407, 707575
2096921,2096921, 150373, 707476
2096921,2096921, 150744, 707384
2096921,2096921, 150379, 707733
2096921,2096921, 150586, 707543
2096921,2096921, 150777, 707714
2096921,2096921, 150749, 707510
2096921,2096921, 150657, 707984
2096921,2096921, 150817, 707660
2096921,2096921, 150983, 707817
2096921,2096921, 150642, 707606
2096921,2096921, 150434, 707692
2096921,2096921, 150829, 707748
2096921,2096921, 150391, 707755
2096921,2096921, 150757, 707730
2096921,2096921, 150645, 707874
2096921,2096921, 150801, 707883
2096921,2096921, 150580, 707872
2096921,2096921, 150594, 707749
2096921,2096921, 150827, 707661
2096921,2096921, 150696, 707874
2096921,2096921, 150739, 708065
2096921,2096921, 150690, 708175
2096921,2096921, 150651, 708110
2096921,2096921, 150837, 707898
2096921,2096921, 150947, 708005
2096921,2096921, 150954, 708205
2096921,2096921, 150758, 708206
2096921,2096921, 150823, 707993
2096921,2096921, 150807, 707753
2096921,2096921, 150787, 707936
2096921,2096921, 150827, 707999
2096921,2096921, 150976, 708233
2096921,2096921, 150855, 708219
2096921,2096921, 150657, 708070
2096921,2096921, 150788, 708214
2096921,2096921, 150832, 708159
2096921,2096921, 150733, 708165
2096921,2096921, 151025, 708372
2096921,2096921, 151065, 708292
2096921,2096921, 151047, 708371
2096921,2096921, 150678, 708277
2096921,2096921, 150773, 708411
2096921,2096921, 151034, 708507
2096921,2096921, 150902, 708408
2096921,2096921, 150884, 708549
2096921,2096921, 151110, 708517
2096921,2096921, 151009, 708112
2096921,2096921, 150647, 708383
2096921,2096921, 151111, 708177
2096921,2096921, 150700, 708469
2096921,2096921, 150517, 708601
2096921,2096921, 150706, 708427
2096921,2096921, 151110, 708474
2096921,2096921, 151025, 708743
2096921,2096921, 150960, 708366
2096921,2096921, 151014, 708695
2096921,2096921, 150908, 708808
2096921,2096921, 150855, 708270
2096921,2096921, 150717, 708503
2096921,2096921, 151083, 708322
2096921,2096921, 150926, 708798
2096921,2096921, 150837, 708634
2096921,2096921, 150689, 708687
2096921,2096921, 150747, 708548
2096921,2096921, 151017, 708577
2096921,2096921, 151086, 708726
2096921,2096921, 151042, 708514
2096921,2096921, 151169, 708933
2096921,2096921, 151050, 708983
2096921,2096921, 151058, 708660
2096921,2096921, 151077, 708473
2096921,2096921, 151254, 708409
2096921,2096921, 150971, 708427
2096921,2096921, 150913, 708709
2096921,2096921, 151042, 708552
2096921,2096921, 151088, 708813
2096921,2096921, 150827, 708712
2096921,2096921, 150965, 708671
2096921,2096921, 151126, 708498
2096921,2096921, 151208, 708932
2096921,2096921, 151450, 709105
2096921,2096921, 150970, 708813
2096921,2096921, 151013, 708742
2096921,2096921, 150862, 708835
2096921,2096921, 151046, 708682
2096921,2096921, 151339, 708671
2096921,2096921, 151020, 708879
2096921,2096921, 150906, 708971
2096921,2096921, 150934, 708590
2096921,2096921, 150843, 709032
2096921,2096921, 151169, 708734
2096921,2096921, 150883, 708867
2096921,2096921, 151028, 708873
2096921,2096921, 150952, 709026
2096921,2096921, 151182, 708971
2096921,2096921, 151055, 708576
2096921,2096921, 150913, 708755
2096921,2096921, 151093, 709121
2096921,2096921, 151398, 708915
2096921,2096921, 151185, 709177
2096921,2096921, 151157, 708840
2096921,2096921, 150855, 708816
2096921,2096921, 151097, 708842
2096921,2096921, 151001, 709013
2096921,2096921, 151284, 7090042096921,2096921, 151178, 709081
2096921,2096921, 151142, 709012
2096921,2096921, 151013, 708561
2096921,2096921, 151142, 708861
2096921,2096921, 151016, 708977
2096921,2096921, 150867, 709004
2096921,2096921, 150896, 708988
2096921,2096921, 150849, 708938
2096921,2096921, 150964, 709004
2096921,2096921, 151200, 709118
2096921,2096921, 150903, 709087
2096921,2096921, 151195, 709057
2096921,2096921, 151149, 708560
2096921,2096921, 151166, 709055
2096921,2096921, 151113, 708819
2096921,2096921, 151264, 709126
2096921,2096921, 151082, 708829
2096921,2096921, 150982, 709035
2096921,2096921, 150912, 709240
2096921,2096921, 151096, 708900
2096921,2096921, 151300, 708782
2096921,2096921, 151131, 708657
2096921,2096921, 151315, 708983
2096921,2096921, 150903, 709199
2096921,2096921, 150880, 709043
2096921,2096921, 150838, 708764
2096921,2096921, 151027, 708909
2096921,2096921, 150646, 708989
2096921,2096921, 150936, 709141
2096921,2096921, 151194, 709192
2096921,2096921, 151025, 708865
2096921,2096921, 150892, 708401
2096921,2096921, 150776, 708208
2096921,2096921, 151009, 708439
2096921,2096921, 151113, 708370
2096921,2096921, 150898, 708329
2096921,2096921, 150671, 708270
2096921,2096921, 150849, 708083
2096921,2096921, 150839, 707766
2096921,2096921, 150976, 707932
2096921,2096921, 150901, 707993
2096921,2096921, 150520, 707429
2096921,2096921, 150385, 707391
2096921,2096921, 150337, 707312
2096921,2096921, 150403, 707445
2096921,2096921, 150460, 707475
2096921,2096921, 150495, 706996
2096921,2096921, 150299, 706658
2096921,2096921, 150295, 706657
2096921,2096921, 150437, 706726
2096921,2096921, 150259, 706995
2096921,2096921, 150153, 706227
2096921,2096921, 150065, 705762
2096921,2096921, 149964, 706032
2096921,2096921, 149931, 706101
2096921,2096921, 149967, 705921
2096921,2096921, 149580, 704696
2096921,2096921, 149457, 704248
2096921,2096921, 149243, 704098
2096921,2096921, 149222, 704149
2096921,2096921, 149115, 703807
2096921,2096921, 148538, 702559
2096921,2096921, 148322, 701725
2096921,2096921, 148082, 701567
2096921,2096921, 148331, 701312
2096921,2096921, 148333, 701150
2096921,2096921, 147936, 700153
2096921,2096921, 147617, 699819
2096921,2096921, 147923, 699719
2096921,2096921, 147364, 699564
2096921,2096921, 147676, 699278
2096921,2096921, 147351, 698497
2096921,2096921, 147138, 698325
2096921,2096921, 147404, 698500
2096921,2096921, 147183, 698550
2096921,2096921, 147199, 698107
2096921,2096921, 147088, 697637
2096921,2096921, 146964, 697359
2096921,2096921, 147039, 697161
2096921,2096921, 146961, 697328
2096921,2096921, 146798, 697459
2096921,2096921, 146575, 696765
2096921,2096921, 146655, 696672
2096921,2096921, 146527, 696644
2096921,2096921, 146597, 696407
2096921,2096921, 146535, 696705
2096921,2096921, 146096, 696205
2096921,2096921, 146205, 695906
2096921,2096921, 146323, 695936
2096921,2096921, 146123, 695951
2096921,2096921, 146473, 695980
2096921,2096921, 146230, 695832
2096921,2096921, 146202, 695946
2096921,2096921, 146297, 695706
2096921,2096921, 146179, 695673
2096921,2096921, 146176, 695664
2096921,2096921, 146408, 695974
2096921,2096921, 146213, 695495
2096921,2096921, 146044, 695470
2096921,2096921, 146234, 695516
2096921,2096921, 146377, 695594
2096921,2096921, 146334, 695659
2096921,2096921, 146039, 695572
2096921,2096921, 146202, 695380
2096921,2096921, 146125, 695529
2096921,2096921, 146242, 695628
2096921,2096921, 146299, 695798
2096921,2096921, 146201, 695859
2096921,2096921, 146430, 695808
2096921,2096921, 146175, 695740
2096921,2096921, 146199, 695759
2096921,2096921, 146397, 695898
2096921,2096921, 146231, 696014
2096921,2096921, 146225, 696018
2096921,2096921, 146256, 695665
2096921,2096921, 146107, 696062
2096921,2096921, 146632, 696027
2096921,2096921, 146476, 696020
2096921,2096921, 146204, 696043
2096921,2096921, 146280, 696070
2096921,2096921, 146324, 696040
2096921,2096921, 146316, 696328
2096921,2096921, 146417, 696398
2096921,2096921, 146423, 696201
2096921,2096921, 146437, 696633
2096921,2096921, 146573, 696210
2096921,2096921, 146560, 696770
2096921,2096921, 146578, 696949
2096921,2096921, 146637, 696979
2096921,2096921, 146754, 696910
2096921,2096921, 146561, 696936
2096921,2096921, 146520, 696748
2096921,2096921, 146980, 697029
2096921,2096921, 146971, 697012
2096921,2096921, 147039, 697091
2096921,2096921, 146790, 697034
2096921,2096921, 146824, 697295
2096921,2096921, 146764, 697529
2096921,2096921, 146950, 697651
2096921,2096921, 146811, 697776
2096921,2096921, 147086, 697611
2096921,2096921, 146852, 698238
2096921,2096921, 147123, 697970
2096921,2096921, 146943, 697730
2096921,2096921, 146829, 697754
2096921,2096921, 146815, 697949
2096921,2096921, 147549, 698548
2096921,2096921, 147376, 698406
2096921,2096921, 147073, 698377
2096921,2096921, 146943, 698617
2096921,2096921, 147100, 698616
2096921,2096921, 147451, 698495
2096921,2096921, 147477, 699092
2096921,2096921, 147375, 698743
2096921,2096921, 147212, 698800
2096921,2096921, 147381, 699185
2096921,2096921, 147780, 699084
2096921,2096921, 147735, 699107
2096921,2096921, 147707, 699158
2096921,2096921, 147582, 699043
2096921,2096921, 147456, 699200
2096921,2096921, 147539, 699717
2096921,2096921, 147361, 700203
2096921,2096921, 147900, 699730
2096921,2096921, 147763, 699699
2096921,2096921, 147628, 699978
2096921,2096921, 147725, 700214
2096921,2096921, 147736, 700340
2096921,2096921, 147954, 700333
2096921,2096921, 148163, 700120
2096921,2096921, 148040, 699899
2096921,2096921, 148011, 700280
2096921,2096921, 148039, 700212
2096921,2096921, 147818, 700675
2096921,2096921, 147680, 700405
2096921,2096921, 147747, 700715
2096921,2096921, 148307, 700922
2096921,2096921, 148209, 700953
2096921,2096921, 148461, 700953
2096921,2096921, 148130, 701016
2096921,2096921, 148249, 701098
2096921,2096921, 148499, 701448
2096921,2096921, 148479, 701229
2096921,2096921, 148385, 701189
2096921,2096921, 148079, 701317
2096921,2096921, 148211, 701718
2096921,2096921, 148709, 701737
2096921,2096921, 148580, 701659
2096921,2096921, 148450, 701428
2096921,2096921, 148581, 701553
2096921,2096921, 148721, 701579
2096921,2096921, 148672, 702212
2096921,2096921, 148523, 701752
2096921,2096921, 148390, 701816
2096921,2096921, 148552, 701730
2096921,2096921, 148297, 701824
2096921,2096921, 148519, 702312
2096921,2096921, 148273, 702283
2096921,2096921, 148437, 701978
2096921,2096921, 148723, 702160
2096921,2096921, 148672, 702099
2096921,2096921, 148626, 702454
2096921,2096921, 148477, 702573
2096921,2096921, 148537, 702450
2096921,2096921, 148588, 701971
2096921,2096921, 148617, 701989
2096921,2096921, 148778, 702335
2096921,2096921, 148769, 702353
2096921,2096921, 148756, 702078
2096921,2096921, 148616, 702164
2096921,2096921, 148567, 702336
2096921,2096921, 148758, 702226
2096921,2096921, 148726, 702545
2096921,2096921, 148821, 702217
2096921,2096921, 148513, 702381
2096921,2096921, 148604, 702094
2096921,2096921, 148648, 702243
2096921,2096921, 148794, 702440
2096921,2096921, 148655, 702434
2096921,2096921, 148828, 702527
2096921,2096921, 148369, 702199
2096921,2096921, 148832, 702062
2096921,2096921, 148674, 702099
2096921,2096921, 148498, 701969
2096921,2096921, 148325, 702177
2096921,2096921, 148830, 701969
2096921,2096921, 148270, 702157
2096921,2096921, 148457, 701730
2096921,2096921, 148397, 701632
2096921,2096921, 148697, 701809
2096921,2096921, 148611, 701835
2096921,2096921, 148682, 702109
2096921,2096921, 148199, 701769
2096921,2096921, 148283, 701804
2096921,2096921, 148149, 701786
2096921,2096921, 148364, 701997
2096921,2096921, 148436, 701605
2096921,2096921, 148163, 701664
2096921,2096921, 148129, 701663
2096921,2096921, 148411, 701562
2096921,2096921, 148311, 701778
2096921,2096921, 148227, 701836
2096921,2096921, 148466, 701963
2096921,2096921, 148405, 701639
2096921,2096921, 148079, 701441
2096921,2096921, 148164, 701416
2096921,2096921, 148297, 701560
2096921,2096921, 148274, 701475
2096921,2096921, 148470, 701584
2096921,2096921, 148471, 701571
2096921,2096921, 148492, 701242
2096921,2096921, 148534, 701598
2096921,2096921, 148563, 701598
2096921,2096921, 148157, 701838
2096921,2096921, 148199, 701920
2096921,2096921, 148292, 701788
2096921,2096921, 148248, 701623
2096921,2096921, 148184, 701486
2096921,2096921, 148517, 701959
2096921,2096921, 148489, 701716
2096921,2096921, 148605, 701760
2096921,2096921, 148558, 701781
2096921,2096921, 148330, 701974
2096921,2096921, 148471, 701962
2096921,2096921, 148443, 702259
2096921,2096921, 148232, 702089
2096921,2096921, 148482, 702304
2096921,2096921, 148617, 702319
2096921,2096921, 148659, 702170
2096921,2096921, 148689, 702398
2096921,2096921, 148680, 702457
2096921,2096921, 149013, 702467
2096921,2096921, 148465, 702444
2096921,2096921, 148404, 702305
2096921,2096921, 148580, 702489
2096921,2096921, 148841, 702745
2096921,2096921, 148697, 702879
2096921,2096921, 148890, 702543
2096921,2096921, 148813, 702728
2096921,2096921, 149031, 702763
2096921,2096921, 148957, 702672
2096921,2096921, 149000, 703275
2096921,2096921, 149087, 703325
2096921,2096921, 149020, 703443
2096921,2096921, 149076, 703067
2096921,2096921, 148909, 703143
2096921,2096921, 148810, 703271
2096921,2096921, 149068, 703538
2096921,2096921, 149002, 703490
2096921,2096921, 149366, 703466
2096921,2096921, 149020, 703596
2096921,2096921, 148911, 703577
2096921,2096921, 149225, 703829
2096921,2096921, 149391, 703987
2096921,2096921, 149265, 704352
2096921,2096921, 148934, 703727
2096921,2096921, 149172, 703634
2096921,2096921, 149043, 703471
2096921,2096921, 149386, 703539
2096921,2096921, 149239, 703627
2096921,2096921, 149337, 703981
2096921,2096921, 149379, 704242
2096921,2096921, 149612, 704337
2096921,2096921, 149428, 704067
2096921,2096921, 149592, 703994
2096921,2096921, 149356, 704241
2096921,2096921, 149669, 704460
2096921,2096921, 149336, 704234
2096921,2096921, 149324, 703923
2096921,2096921, 149368, 704223
2096921,2096921, 149811, 704482
2096921,2096921, 149657, 704813
2096921,2096921, 149718, 704896
2096921,2096921, 149621, 704355
2096921,2096921, 149529, 704647
2096921,2096921, 149577, 704908
2096921,2096921, 149686, 705132
2096921,2096921, 149734, 705059
2096921,2096921, 149494, 704772
2096921,2096921, 149492, 704722
2096921,2096921, 149651, 705087
2096921,2096921, 149657, 705107
2096921,2096921, 149729, 705275
2096921,2096921, 149747, 704666
2096921,2096921, 149669, 705390
2096921,2096921, 149486, 705056
2096921,2096921, 149623, 705373
2096921,2096921, 149863, 705353
2096921,2096921, 149539, 705398
2096921,2096921, 149747, 705286
2096921,2096921, 149665, 704916
2096921,2096921, 149788, 705512
2096921,2096921, 149455, 705366
2096921,2096921, 149642, 705462
2096921,2096921, 149763, 705724
2096921,2096921, 150143, 705484
2096921,2096921, 149886, 705927
2096921,2096921, 150258, 705797
2096921,2096921, 150163, 705387
2096921,2096921, 150213, 705816
2096921,2096921, 149884, 705386
2096921,2096921, 150075, 706072
2096921,2096921, 150128, 705926
2096921,2096921, 149684, 705813
2096921,2096921, 149599, 705787
2096921,2096921, 149835, 706068
2096921,2096921, 150093, 706119
2096921,2096921, 149923, 706128
2096921,2096921, 149863, 706014
2096921,2096921, 149935, 706071
2096921,2096921, 149761, 706139
2096921,2096921, 150045, 706308
2096921,2096921, 150332, 706759
2096921,2096921, 150256, 706729
2096921,2096921, 150172, 706492
2096921,2096921, 150263, 706565
2096921,2096921, 150240, 706377
2096921,2096921, 150139, 706472
2096921,2096921, 150048, 706419
2096921,2096921, 150152, 706646
2096921,2096921, 150230, 706373
2096921,2096921, 150089, 706497
2096921,2096921, 150230, 706319
2096921,2096921, 150280, 706628
2096921,2096921, 150145, 706661
2096921,2096921, 149917, 706626
2096921,2096921, 149996, 706717
2096921,2096921, 150444, 706530
2096921,2096921, 150420, 706724
2096921,2096921, 150500, 706941
2096921,2096921, 150247, 707044
2096921,2096921, 150536, 706876
2096921,2096921, 150331, 707011
2096921,2096921, 150397, 707246
2096921,2096921, 150382, 707114
2096921,2096921, 150427, 707049
2096921,2096921, 150357, 707423
2096921,2096921, 150396, 707211
2096921,2096921, 150192, 706921
2096921,2096921, 150445, 707384
2096921,2096921, 150367, 707423
2096921,2096921, 150466, 707299
2096921,2096921, 150059, 707174
2096921,2096921, 150420, 707425
2096921,2096921, 150350, 707178
2096921,2096921, 150612, 707438
2096921,2096921, 150600, 707397
2096921,2096921, 150489, 707523
2096921,2096921, 150508, 707421
2096921,2096921, 150562, 707358
2096921,2096921, 150459, 707412
2096921,2096921, 150481, 707555
2096921,2096921, 150692, 707347
2096921,2096921, 150584, 707531
2096921,2096921, 150612, 707795
2096921,2096921, 150310, 707653
2096921,2096921, 150682, 707738
2096921,2096921, 150702, 707796
2096921,2096921, 150803, 707708
2096921,2096921, 150446, 707722
2096921,2096921, 150654, 707335
2096921,2096921, 150403, 707832
2096921,2096921, 150692, 708169
2096921,2096921, 150920, 708071
2096921,2096921, 150719, 707756
2096921,2096921, 150672, 707827
2096921,2096921, 150561, 707963
2096921,2096921, 150511, 707668
2096921,2096921, 150647, 707528
2096921,2096921, 150629, 707813
2096921,2096921, 150570, 707809
2096921,2096921, 150863, 707891
2096921,2096921, 150618, 708034
2096921,2096921, 150735, 708248
2096921,2096921, 150923, 708102
2096921,2096921, 150691, 707914
2096921,2096921, 150682, 707750
2096921,2096921, 150724, 707739
2096921,2096921, 150799, 707946
2096921,2096921, 150362, 707923
2096921,2096921, 150384, 707732
2096921,2096921, 150637, 708077
2096921,2096921, 150760, 708166
2096921,2096921, 150783, 708120
2096921,2096921, 150828, 708062
2096921,2096921, 150859, 708088
2096921,2096921, 150938, 708151
2096921,2096921, 150870, 708418
2096921,2096921, 150560, 708308
2096921,2096921, 150724, 708183
2096921,2096921, 150821, 708228
2096921,2096921, 150680, 707964
2096921,2096921, 150391, 708261
2096921,2096921, 150682, 708063
2096921,2096921, 150515, 708311
2096921,2096921, 150889, 708561
2096921,2096921, 150996, 708197
2096921,2096921, 151056, 708430
2096921,2096921, 150801, 708516
2096921,2096921, 150824, 708168
2096921,2096921, 150789, 708043
2096921,2096921, 150926, 708336
2096921,2096921, 150840, 708709
2096921,2096921, 150879, 708525
2096921,2096921, 151340, 708590
2096921,2096921, 150851, 708269
2096921,2096921, 150770, 708413
2096921,2096921, 150835, 708271
2096921,2096921, 151017, 708534
2096921,2096921, 150787, 708419
2096921,2096921, 150887, 708573
2096921,2096921, 151060, 708735
2096921,2096921, 150838, 708302
2096921,2096921, 150995, 708729
2096921,2096921, 151262, 708539
2096921,2096921, 150929, 708777
2096921,2096921, 150825, 708671
2096921,2096921, 150832, 708588
2096921,2096921, 150929, 708590
2096921,2096921, 150965, 708497
2096921,2096921, 150873, 708788
2096921,2096921, 150775, 708929
2096921,2096921, 150907, 708375
2096921,2096921, 150770, 708448
2096921,2096921, 150939, 708260
2096921,2096921, 151079, 708739
2096921,2096921, 150828, 708995
2096921,2096921, 150905, 708871
2096921,2096921, 150936, 708929
2096921,2096921, 150888, 708754
2096921,2096921, 150993, 708954
2096921,2096921, 150958, 709158
2096921,2096921, 151126, 708966
2096921,2096921, 150843, 708917
2096921,2096921, 151044, 709085
2096921,2096921, 150873, 708789
2096921,2096921, 150946, 708933
2096921,2096921, 151118, 708771
2096921,2096921, 151142, 709103
2096921,2096921, 150996, 708779
2096921,2096921, 150931, 708839
2096921,2096921, 150880, 708760
2096921,2096921, 151052, 709015
2096921,2096921, 151237, 708910
2096921,2096921, 151235, 709049
2096921,2096921, 151555, 709041
2096921,2096921, 151012, 709114
2096921,2096921, 151247, 708683
2096921,2096921, 151009, 708793
2096921,2096921, 151152, 708992
2096921,2096921, 151251, 709100
2096921,2096921, 151082, 708862
2096921,2096921, 151148, 709062
2096921,2096921, 151173, 708835
2096921,2096921, 150962, 708743
2096921,2096921, 151235, 708665
2096921,2096921, 151234, 708774
2096921,2096921, 151452, 708737
2096921,2096921, 151139, 708966
2096921,2096921, 151188, 709308
2096921,2096921, 151032, 709111
2096921,2096921, 151484, 708978
2096921,2096921, 150836, 709132
2096921,2096921, 150935, 708875
2096921,2096921, 150904, 708747
2096921,2096921, 151109, 708983
2096921,2096921, 151174, 709044
2096921,2096921, 151021, 708958
2096921,2096921, 151287, 709284
2096921,2096921, 150971, 708996
2096921,2096921, 151038, 708764
2096921,2096921, 151091, 709288
2096921,2096921, 151052, 709136
2096921,2096921, 151211, 709134
2096921,2096921, 150995, 708799
2096921,2096921, 150934, 708645
2096921,2096921, 150994, 708603
2096921,2096921, 151132, 708719
2096921,2096921, 151225, 709077
2096921,2096921, 150961, 709008
2096921,2096921, 151356, 709353
2096921,2096921, 151228, 708908
2096921,2096921, 150872, 709197
2096921,2096921, 150997, 709113
2096921,2096921, 150949, 709021
2096921,2096921, 150869, 709027
2096921,2096921, 150756, 708948
2096921,2096921, 150819, 708856
2096921,2096921, 151273, 708736
2096921,2096921, 151092, 708903
2096921,2096921, 151339, 708682
2096921,2096921, 151166, 708605
2096921,2096921, 151045, 708732
2096921,2096921, 150920, 708449
2096921,2096921, 150893, 708153
2096921,2096921, 150920, 708328
2096921,2096921, 150900, 708129
2096921,2096921, 150878, 707954
2096921,2096921, 150576, 708291
2096921,2096921, 150582, 708275
2096921,2096921, 150616, 708345
2096921,2096921, 150566, 707803
2096921,2096921, 150385, 707847
2096921,2096921, 150591, 707712
2096921,2096921, 150372, 707710
2096921,2096921, 150477, 707497
2096921,2096921, 150525, 707209
2096921,2096921, 150335, 706776
2096921,2096921, 150305, 706638
2096921,2096921, 150542, 706619
2096921,2096921, 150350, 706466
2096921,2096921, 149775, 706240
2096921,2096921, 149865, 706041
2096921,2096921, 149854, 705984
2096921,2096921, 150126, 705905
2096921,2096921, 150124, 705901
2096921,2096921, 149498, 704678
2096921,2096921, 149147, 704131
2096921,2096921, 149172, 703737
2096921,2096921, 149191, 704011
2096921,2096921, 149323, 703860
2096921,2096921, 148559, 702269
2096921,2096921, 148393, 701620
2096921,2096921, 148342, 701622
2096921,2096921, 148393, 701444
2096921,2096921, 148492, 701494
2096921,2096921, 147960, 700040
2096921,2096921, 147552, 699897
2096921,2096921, 147574, 699660
2096921,2096921, 147866, 700138
2096921,2096921, 147729, 699551
2096921,2096921, 147218, 698744
2096921,2096921, 147216, 698468
2096921,2096921, 147007, 698408
2096921,2096921, 147218, 698121
2096921,2096921, 147413, 698366
2096921,2096921, 146943, 697562
2096921,2096921, 146738, 697574
2096921,2096921, 146630, 697470
2096921,2096921, 146723, 697536
2096921,2096921, 146895, 697183
2096921,2096921, 146734, 696893
2096921,2096921, 146712, 696819
2096921,2096921, 146460, 696561
2096921,2096921, 146321, 696647
2096921,2096921, 146725, 696588
2096921,2096921, 146312, 696498
2096921,2096921, 146563, 696206
2096921,2096921, 146334, 696311
2096921,2096921, 146369, 695813
2096921,2096921, 146032, 696045
2096921,2096921, 146262, 696008
2096921,2096921, 146170, 696078
2096921,2096921, 146406, 695922
2096921,2096921, 146305, 695709
2096921,2096921, 146255, 695780
2096921,2096921, 146181, 695811
2096921,2096921, 146360, 695647
2096921,2096921, 146050, 695822
2096921,2096921, 146210, 695742
2096921,2096921, 146319, 695687
2096921,2096921, 145967, 695745
2096921,2096921, 146272, 695596
2096921,2096921, 146426, 695872
2096921,2096921, 146180, 695946
2096921,2096921, 146504, 695581
2096921,2096921, 146432, 695614
2096921,2096921, 146516, 695700
2096921,2096921, 146263, 695576
2096921,2096921, 146072, 695810
2096921,2096921, 146259, 695885
2096921,2096921, 146568, 695984
2096921,2096921, 146493, 696049
2096921,2096921, 146195, 696042
2096921,2096921, 146341, 696091
2096921,2096921, 146313, 695869
2096921,2096921, 146414, 696169
2096921,2096921, 146218, 696119
2096921,2096921, 146339, 696104
2096921,2096921, 146438, 696190
2096921,2096921, 146338, 696196
2096921,2096921, 146528, 696741
2096921,2096921, 146507, 696682
2096921,2096921, 146569, 696488
2096921,2096921, 146410, 696163
2096921,2096921, 146324, 696305
2096921,2096921, 146709, 696805
2096921,2096921, 146656, 696961
2096921,2096921, 146583, 696706
2096921,2096921, 146572, 696658
2096921,2096921, 146951, 696972
2096921,2096921, 146686, 697421
2096921,2096921, 146848, 697382
2096921,2096921, 146648, 697442
2096921,2096921, 146839, 697288
2096921,2096921, 146942, 697550
2096921,2096921, 147225, 697702
2096921,2096921, 146908, 697894
2096921,2096921, 147041, 697737
2096921,2096921, 146847, 697585
2096921,2096921, 146733, 697687
2096921,2096921, 147183, 698390
2096921,2096921, 147404, 698245
2096921,2096921, 147238, 698283
2096921,2096921, 147080, 698004
2096921,2096921, 147235, 697882
2096921,2096921, 146963, 698626
2096921,2096921, 147610, 698529
2096921,2096921, 147629, 698820
2096921,2096921, 147403, 698617
2096921,2096921, 146981, 698645
2096921,2096921, 147284, 699042
2096921,2096921, 147292, 699434
2096921,2096921, 147127, 699259
2096921,2096921, 147446, 698868
2096921,2096921, 147361, 699174
2096921,2096921, 147425, 699306
2096921,2096921, 147583, 699164
2096921,2096921, 147292, 699351
2096921,2096921, 147737, 699602
2096921,2096921, 147374, 699497
2096921,2096921, 147528, 699585
2096921,2096921, 147626, 699706
2096921,2096921, 147812, 699706
2096921,2096921, 147714, 699671
2096921,2096921, 147710, 699805
2096921,2096921, 148012, 700162
2096921,2096921, 147898, 700174
2096921,2096921, 147830, 700354
2096921,2096921, 147975, 700300
2096921,2096921, 147829, 700493
2096921,2096921, 148023, 700845
2096921,2096921, 147972, 700976
2096921,2096921, 148173, 700513
2096921,2096921, 148132, 700537
2096921,2096921, 148281, 700681
2096921,2096921, 147992, 701032
2096921,2096921, 148115, 701202
2096921,2096921, 148055, 701323
2096921,2096921, 147925, 701219
2096921,2096921, 147929, 701093
2096921,2096921, 148415, 701446
2096921,2096921, 148615, 701551
2096921,2096921, 148372, 701451
2096921,2096921, 148342, 701145
2096921,2096921, 148257, 701365
2096921,2096921, 148388, 701798
2096921,2096921, 148316, 701944
2096921,2096921, 148466, 701835
2096921,2096921, 147886, 702004
2096921,2096921, 148362, 701784
2096921,2096921, 148410, 702000
2096921,2096921, 148555, 702050
2096921,2096921, 148453, 701880
2096921,2096921, 148757, 701922
2096921,2096921, 148682, 702029
2096921,2096921, 148780, 702143
2096921,2096921, 148557, 702258
2096921,2096921, 148514, 702004
2096921,2096921, 148620, 701887
2096921,2096921, 148537, 702185
2096921,2096921, 148402, 702046
2096921,2096921, 148597, 702128
2096921,2096921, 148483, 702063
2096921,2096921, 148666, 702593
2096921,2096921, 148859, 702475
2096921,2096921, 148710, 702294
2096921,2096921, 148960, 702122
2096921,2096921, 148823, 702438
2096921,2096921, 148725, 702175
2096921,2096921, 148882, 702492
2096921,2096921, 148642, 702270
2096921,2096921, 148697, 702401
2096921,2096921, 148385, 702351
2096921,2096921, 148550, 702327
2096921,2096921, 148658, 702319
2096921,2096921, 148641, 701995
2096921,2096921, 148557, 702216
2096921,2096921, 148672, 702328
2096921,2096921, 148473, 702372
2096921,2096921, 148413, 702046
2096921,2096921, 148350, 702345
2096921,2096921, 148291, 702117
2096921,2096921, 148440, 702216
2096921,2096921, 148529, 701918
2096921,2096921, 148833, 701814
2096921,2096921, 148547, 702031
2096921,2096921, 148817, 701927
2096921,2096921, 148588, 701838
2096921,2096921, 148270, 702242
2096921,2096921, 148394, 702022
2096921,2096921, 148207, 701968
2096921,2096921, 148245, 701653
2096921,2096921, 148706, 701914
2096921,2096921, 148628, 701927
2096921,2096921, 148335, 702156
2096921,2096921, 148436, 702022
2096921,2096921, 148461, 701900
2096921,2096921, 148282, 701705
2096921,2096921, 148140, 701874
2096921,2096921, 148202, 701418
2096921,2096921, 148196, 701476
2096921,2096921, 148215, 701425
2096921,2096921, 148302, 701526
2096921,2096921, 148392, 701708
2096921,2096921, 148597, 701724
2096921,2096921, 148656, 701787
2096921,2096921, 148678, 701565
2096921,2096921, 148457, 701446
2096921,2096921, 148218, 701761
2096921,2096921, 148446, 701886
2096921,2096921, 148495, 701699
2096921,2096921, 148399, 701601
2096921,2096921, 148561, 701683
2096921,2096921, 148614, 701709
2096921,2096921, 148857, 701809
2096921,2096921, 148569, 702109
2096921,2096921, 148462, 701961
2096921,2096921, 148591, 702043
2096921,2096921, 147908, 701741
2096921,2096921, 148376, 701966
2096921,2096921, 148637, 701942
2096921,2096921, 148502, 702134
2096921,2096921, 148484, 702165
2096921,2096921, 148358, 702136
2096921,2096921, 148586, 701870
2096921,2096921, 148614, 702043
2096921,2096921, 148657, 702335
2096921,2096921, 148743, 702320
2096921,2096921, 148642, 702066
2096921,2096921, 148509, 702153
2096921,2096921, 148721, 702563
2096921,2096921, 148622, 702560
2096921,2096921, 148870, 702544
2096921,2096921, 148652, 702318
2096921,2096921, 149061, 702412
2096921,2096921, 148990, 702859
2096921,2096921, 148877, 702582
2096921,2096921, 148908, 702635
2096921,2096921, 148935, 702798
2096921,2096921, 148671, 702897
2096921,2096921, 148606, 703069
2096921,2096921, 148537, 703029
2096921,2096921, 148638, 703289
2096921,2096921, 148691, 703135
2096921,2096921, 149035, 703045
2096921,2096921, 149025, 703061
2096921,2096921, 148947, 703295
2096921,2096921, 149225, 703503
2096921,2096921, 149153, 703339
2096921,2096921, 149211, 703345
2096921,2096921, 149385, 703936
2096921,2096921, 149256, 703862
2096921,2096921, 148949, 703720
2096921,2096921, 149044, 703555
2096921,2096921, 149062, 703398
2096921,2096921, 149032, 703833
2096921,2096921, 148912, 703949
2096921,2096921, 149322, 703770
2096921,2096921, 149277, 703746
2096921,2096921, 149104, 703670
2096921,2096921, 149092, 704232
2096921,2096921, 149298, 704193
2096921,2096921, 149258, 704360
2096921,2096921, 149395, 703869
2096921,2096921, 149015, 704319
2096921,2096921, 149546, 704078
2096921,2096921, 149216, 704282
2096921,2096921, 149418, 704403
2096921,2096921, 149502, 704454
2096921,2096921, 149471, 704243
2096921,2096921, 149361, 704679
2096921,2096921, 149543, 704751
2096921,2096921, 149429, 705002
2096921,2096921, 149221, 704927
2096921,2096921, 149222, 704820
2096921,2096921, 149274, 704839
2096921,2096921, 149587, 704746
2096921,2096921, 149934, 704861
2096921,2096921, 149880, 704955
2096921,2096921, 149965, 705189
2096921,2096921, 149804, 705254
2096921,2096921, 149426, 705135
2096921,2096921, 149584, 705181
2096921,2096921, 149691, 705079
2096921,2096921, 149805, 704951
2096921,2096921, 149835, 705284
2096921,2096921, 149746, 705534
2096921,2096921, 149694, 705162
2096921,2096921, 149838, 705288
2096921,2096921, 149745, 705351
2096921,2096921, 149992, 705728
2096921,2096921, 149763, 705487
2096921,2096921, 149720, 705518
2096921,2096921, 149883, 705612
2096921,2096921, 150033, 705477
2096921,2096921, 149658, 705751
2096921,2096921, 150218, 706031
2096921,2096921, 149724, 705654
2096921,2096921, 149760, 706023
2096921,2096921, 149895, 705955
2096921,2096921, 150015, 706153
2096921,2096921, 149955, 706036
2096921,2096921, 149986, 706258
2096921,2096921, 149889, 705780
2096921,2096921, 149715, 705943
2096921,2096921, 150076, 706143
2096921,2096921, 150129, 706143
2096921,2096921, 149999, 706227
2096921,2096921, 149957, 706337
2096921,2096921, 150093, 706515
2096921,2096921, 150042, 706556
2096921,2096921, 150241, 706416
2096921,2096921, 150374, 706359
2096921,2096921, 149854, 706415
2096921,2096921, 149915, 706305
2096921,2096921, 150330, 706299
2096921,2096921, 149811, 706459
2096921,2096921, 149941, 706650
2096921,2096921, 150009, 706660
2096921,2096921, 150469, 706746
2096921,2096921, 150214, 706725
2096921,2096921, 150369, 706887
2096921,2096921, 150288, 706211
2096921,2096921, 150424, 706449
2096921,2096921, 150210, 706662
2096921,2096921, 150206, 706871
2096921,2096921, 150094, 706785
2096921,2096921, 150108, 706687
2096921,2096921, 150334, 706622
2096921,2096921, 150380, 706861
2096921,2096921, 150502, 706981
2096921,2096921, 150532, 707248
2096921,2096921, 150358, 706787
2096921,2096921, 150398, 707013
2096921,2096921, 150472, 706931
2096921,2096921, 150283, 706948
2096921,2096921, 150313, 707054
2096921,2096921, 150502, 707199
2096921,2096921, 150315, 707107
2096921,2096921, 150282, 707217
2096921,2096921, 150600, 707117
2096921,2096921, 150581, 707338
2096921,2096921, 150583, 707284
2096921,2096921, 150443, 707487
2096921,2096921, 150517, 707411
2096921,2096921, 150482, 707278
2096921,2096921, 150633, 707231
2096921,2096921, 150340, 707553
2096921,2096921, 150248, 707413
2096921,2096921, 150363, 706973
2096921,2096921, 150229, 707031
2096921,2096921, 150520, 707275
2096921,2096921, 150758, 707434
2096921,2096921, 150733, 707511
2096921,2096921, 150326, 707279
2096921,2096921, 150631, 707454
2096921,2096921, 150431, 707548
2096921,2096921, 150516, 707538
2096921,2096921, 150637, 707604
2096921,2096921, 150554, 707672
2096921,2096921, 150986, 707429
2096921,2096921, 150810, 707467
2096921,2096921, 150815, 707709
2096921,2096921, 150761, 707611
2096921,2096921, 150906, 707671
2096921,2096921, 150743, 707963
2096921,2096921, 150511, 707680
2096921,2096921, 150870, 707764
2096921,2096921, 150508, 707539
2096921,2096921, 150706, 707758
2096921,2096921, 150758, 707876
2096921,2096921, 150877, 707800
2096921,2096921, 150815, 707718
2096921,2096921, 150549, 707933
2096921,2096921, 150478, 708158
2096921,2096921, 150743, 708256
2096921,2096921, 150380, 707727
2096921,2096921, 150779, 708018
2096921,2096921, 150686, 708180
2096921,2096921, 150863, 708030
2096921,2096921, 150616, 707849
2096921,2096921, 150908, 707955
2096921,2096921, 150964, 708135
2096921,2096921, 150713, 708298
2096921,2096921, 150740, 707817
2096921,2096921, 150962, 707942
2096921,2096921, 150853, 708012
2096921,2096921, 150749, 708265
2096921,2096921, 150885, 708491
2096921,2096921, 150888, 708133
2096921,2096921, 150768, 707858
2096921,2096921, 150892, 708120
2096921,2096921, 151110, 707954
2096921,2096921, 150883, 708002
2096921,2096921, 150988, 708073
2096921,2096921, 150894, 708224
2096921,2096921, 150777, 708233
2096921,2096921, 151017, 708013
2096921,2096921, 150999, 708202
2096921,2096921, 150951, 708425
2096921,2096921, 150842, 708373
2096921,2096921, 151048, 708276
2096921,2096921, 150872, 708155
2096921,2096921, 150640, 708356
2096921,2096921, 150834, 708529
2096921,2096921, 150739, 708310
2096921,2096921, 150890, 708696
2096921,2096921, 151009, 708609
2096921,2096921, 150828, 708419
2096921,2096921, 150704, 708496
2096921,2096921, 150805, 708465
2096921,2096921, 151048, 708699
2096921,2096921, 150838, 708286
2096921,2096921, 150936, 708494
2096921,2096921, 150976, 708343
2096921,2096921, 151060, 708472
2096921,2096921, 151061, 708422
2096921,2096921, 151098, 708827
2096921,2096921, 150941, 708738
2096921,2096921, 150786, 708784
2096921,2096921, 150987, 708883
2096921,2096921, 150838, 708790
2096921,2096921, 151093, 708509
2096921,2096921, 151209, 708790
2096921,2096921, 151106, 708733
2096921,2096921, 150835, 708459
2096921,2096921, 150902, 708375
2096921,2096921, 150886, 708589
2096921,2096921, 150887, 708882
2096921,2096921, 151017, 708892
2096921,2096921, 150919, 708810
2096921,2096921, 150778, 708891
2096921,2096921, 150728, 708649
2096921,2096921, 150997, 708551
2096921,2096921, 150949, 708518
2096921,2096921, 151077, 708839
2096921,2096921, 151025, 709103
2096921,2096921, 151144, 708661
2096921,2096921, 150796, 708840
2096921,2096921, 150896, 708586
2096921,2096921, 150912, 708753
2096921,2096921, 151075, 708904
2096921,2096921, 151099, 709023
2096921,2096921, 150964, 709098
2096921,2096921, 151011, 708891
2096921,2096921, 150779, 709163
2096921,2096921, 151158, 708858
2096921,2096921, 151245, 708866
2096921,2096921, 151366, 708923
2096921,2096921, 151081, 708728
2096921,2096921, 151024, 708800
2096921,2096921, 151000, 708976
2096921,2096921, 151046, 708691
2096921,2096921, 150953, 708827
2096921,2096921, 150725, 709152
2096921,2096921, 150891, 708796
2096921,2096921, 151152, 708850
2096921,2096921, 150837, 708922
2096921,2096921, 150842, 709126
2096921,2096921, 150951, 708756
2096921,2096921, 151057, 708955
2096921,2096921, 151078, 709004
2096921,2096921, 151079, 708805
2096921,2096921, 151003, 708959
2096921,2096921, 150837, 708914
2096921,2096921, 151108, 709219
2096921,2096921, 151115, 709206
2096921,2096921, 151229, 709128
2096921,2096921, 151084, 708984
2096921,2096921, 150918, 708918
2096921,2096921, 151169, 708552
2096921,2096921, 151248, 708773
2096921,2096921, 150931, 708753
2096921,2096921, 150805, 708823
2096921,2096921, 151191, 708904
2096921,2096921, 151256, 708710
2096921,2096921, 151031, 709246
2096921,2096921, 151191, 709024
2096921,2096921, 150923, 709179
2096921,2096921, 151107, 708872
2096921,2096921, 151148, 708740
2096921,2096921, 151068, 708602
2096921,2096921, 150924, 708822
2096921,2096921, 150964, 708857
2096921,2096921, 150852, 709047
2096921,2096921, 150925, 708907
2096921,2096921, 151098, 708784
2096921,2096921, 151197, 708840
2096921,2096921, 151190, 708794
2096921,2096921, 151225, 708812
2096921,2096921, 151131, 708497
2096921,2096921, 150992, 708488
2096921,2096921, 151167, 708535
2096921,2096921, 150954, 708245
2096921,2096921, 150656, 708480
2096921,2096921, 150572, 708450
2096921,2096921, 150955, 708199
2096921,2096921, 150633, 707949
2096921,2096921, 150476, 708096
2096921,2096921, 150557, 708025
2096921,2096921, 150675, 707476
2096921,2096921, 150668, 707521
2096921,2096921, 150322, 707581
2096921,2096921, 150397, 707550
2096921,2096921, 150452, 707552
2096921,2096921, 150312, 707229
2096921,2096921, 150269, 706938
2096921,2096921, 150202, 706989
2096921,2096921, 150264, 706971
2096921,2096921, 150312, 706823
2096921,2096921, 150259, 706226
2096921,2096921, 149664, 706030
2096921,2096921, 150015, 706101
2096921,2096921, 150038, 705898
2096921,2096921, 149866, 705394
2096921,2096921, 149123, 704205
2096921,2096921, 149427, 703882
2096921,2096921, 149341, 704281
2096921,2096921, 149153, 704141
2096921,2096921, 149181, 704017
2096921,2096921, 148568, 702044
2096921,2096921, 148523, 701612
2096921,2096921, 148304, 701317
2096921,2096921, 148316, 701484
2096921,2096921, 148444, 701375
2096921,2096921, 147569, 700120
2096921,2096921, 147580, 699688
2096921,2096921, 147477, 699733
2096921,2096921, 147573, 700084
2096921,2096921, 147805, 699922
2096921,2096921, 147317, 698847
2096921,2096921, 147227, 698321
2096921,2096921, 147004, 698178
2096921,2096921, 147246, 698512
2096921,2096921, 147226, 698548
2096921,2096921, 146850, 697553
2096921,2096921, 146577, 697372
2096921,2096921, 146594, 697389
2096921,2096921, 146858, 697007
2096921,2096921, 147018, 697017
2096921,2096921, 146444, 696658
2096921,2096921, 146713, 696544
2096921,2096921, 146672, 696359
2096921,2096921, 146130, 696215
2096921,2096921, 146591, 696517
2096921,2096921, 146568, 696324
2096921,2096921, 146149, 696138
2096921,2096921, 146365, 695976
2096921,2096921, 146556, 696179
2096921,2096921, 146287, 696031
2096921,2096921, 146174, 695660
2096921,2096921, 146330, 695902
2096921,2096921, 146334, 695564
2096921,2096921, 146160, 695455
2096921,2096921, 146174, 695865
2096921,2096921, 146421, 695577
2096921,2096921, 146502, 695511
2096921,2096921, 146441, 695711
2096921,2096921, 146638, 695618
2096921,2096921, 146101, 695544
2096921,2096921, 146027, 695720
2096921,2096921, 146274, 695634
2096921,2096921, 146307, 695725
2096921,2096921, 146042, 695616
2096921,2096921, 146022, 695366
2096921,2096921, 146180, 695573
2096921,2096921, 146215, 695795
2096921,2096921, 146473, 695999
2096921,2096921, 146202, 695601
2096921,2096921, 146250, 695596
2096921,2096921, 146172, 695736
2096921,2096921, 146153, 695754
2096921,2096921, 146623, 695785
2096921,2096921, 146280, 695907
2096921,2096921, 146405, 695935
2096921,2096921, 146151, 696090
2096921,2096921, 146210, 695744
2096921,2096921, 146181, 696085
2096921,2096921, 146391, 696022
2096921,2096921, 146025, 696156
2096921,2096921, 146451, 696130
2096921,2096921, 146389, 696118
2096921,2096921, 146471, 696322
2096921,2096921, 146354, 696444
2096921,2096921, 146684, 696534
2096921,2096921, 146538, 696861
2096921,2096921, 146704, 696823
2096921,2096921, 146279, 696809
2096921,2096921, 146491, 696734
2096921,2096921, 146591, 696829
2096921,2096921, 146472, 697159
2096921,2096921, 146604, 697224
2096921,2096921, 146608, 697246
2096921,2096921, 146718, 697173
2096921,2096921, 147007, 697374
2096921,2096921, 147205, 697710
2096921,2096921, 146914, 697709
2096921,2096921, 146913, 697455
2096921,2096921, 147164, 697581
2096921,2096921, 147065, 697658
2096921,2096921, 147120, 697773
2096921,2096921, 147222, 698167
2096921,2096921, 147076, 698222
2096921,2096921, 147115, 698067
2096921,2096921, 147032, 698068
2096921,2096921, 147044, 698169
2096921,2096921, 147187, 698569
2096921,2096921, 147386, 698483
2096921,2096921, 147409, 698335
2096921,2096921, 147204, 698383
2096921,2096921, 147336, 698646
2096921,2096921, 147567, 698938
2096921,2096921, 147581, 698816
2096921,2096921, 147468, 698768
2096921,2096921, 147396, 698726
2096921,2096921, 147455, 699204
2096921,2096921, 147557, 699549
2096921,2096921, 147786, 699488
2096921,2096921, 147582, 699154
2096921,2096921, 147298, 699201
2096921,2096921, 147681, 699746
2096921,2096921, 147637, 699681
2096921,2096921, 147669, 699753
2096921,2096921, 147619, 699886
2096921,2096921, 147695, 699813
2096921,2096921, 147846, 700079
2096921,2096921, 148075, 700070
2096921,2096921, 148035, 700257
2096921,2096921, 147922, 700314
2096921,2096921, 147796, 700020
2096921,2096921, 147881, 700470
2096921,2096921, 147923, 700620
2096921,2096921, 148114, 700476
2096921,2096921, 148092, 700644
2096921,2096921, 148197, 700930
2096921,2096921, 148208, 701158
2096921,2096921, 148124, 701156
2096921,2096921, 147796, 700777
2096921,2096921, 147734, 701000
2096921,2096921, 148119, 700732
2096921,2096921, 148394, 701374
2096921,2096921, 148382, 701417
2096921,2096921, 148386, 701485
2096921,2096921, 148093, 701252
2096921,2096921, 148057, 701551
2096921,2096921, 148424, 701852
2096921,2096921, 148551, 701888
2096921,2096921, 147979, 701792
2096921,2096921, 148455, 701844
2096921,2096921, 148464, 701252
2096921,2096921, 148329, 701580
2096921,2096921, 148608, 702089
2096921,2096921, 148577, 702286
2096921,2096921, 148628, 702214
2096921,2096921, 148546, 702156
2096921,2096921, 148414, 702167
2096921,2096921, 148382, 702111
2096921,2096921, 148566, 702096
2096921,2096921, 148532, 702107
2096921,2096921, 148396, 701910
2096921,2096921, 148602, 702497
2096921,2096921, 148733, 702481
2096921,2096921, 148705, 702362
2096921,2096921, 148569, 702279
2096921,2096921, 148683, 702109
2096921,2096921, 148573, 702109
2096921,2096921, 148629, 701930
2096921,2096921, 148614, 702241
2096921,2096921, 148724, 701941
2096921,2096921, 148951, 701758
2096921,2096921, 148745, 701790
2096921,2096921, 148411, 702099
2096921,2096921, 148360, 702010
2096921,2096921, 148430, 702396
2096921,2096921, 148667, 702176
2096921,2096921, 148488, 702123
2096921,2096921, 148344, 701827
2096921,2096921, 148397, 702182
2096921,2096921, 148536, 701970
2096921,2096921, 148500, 701861
2096921,2096921, 148674, 702023
2096921,2096921, 148487, 702115
2096921,2096921, 148828, 701866
2096921,2096921, 148586, 701804
2096921,2096921, 148662, 701774
2096921,2096921, 148534, 701618
2096921,2096921, 148850, 701981
2096921,2096921, 148616, 701860
2096921,2096921, 148429, 701843
2096921,2096921, 148658, 701537
2096921,2096921, 148475, 701463
2096921,2096921, 148355, 701764
2096921,2096921, 148349, 701815
2096921,2096921, 148518, 701738
2096921,2096921, 148154, 701520
2096921,2096921, 148046, 701365
2096921,2096921, 148314, 701735
2096921,2096921, 148339, 701585
2096921,2096921, 148548, 701586
2096921,2096921, 148164, 701317
2096921,2096921, 148482, 701291
2096921,2096921, 148249, 701391
2096921,2096921, 148451, 701434
2096921,2096921, 148454, 701581
2096921,2096921, 148452, 701606
2096921,2096921, 148475, 701707
2096921,2096921, 148356, 701463
2096921,2096921, 148499, 701496
2096921,2096921, 148291, 701527
2096921,2096921, 148549, 701787
2096921,2096921, 148243, 701575
2096921,2096921, 148591, 701514
2096921,2096921, 148143, 701363
2096921,2096921, 148037, 701598
2096921,2096921, 148346, 701748
2096921,2096921, 148516, 701934
2096921,2096921, 148230, 701729
2096921,2096921, 148253, 701713
2096921,2096921, 148553, 702048
2096921,2096921, 148611, 702024
2096921,2096921, 148725, 701998
2096921,2096921, 148633, 701955
2096921,2096921, 148243, 701814
2096921,2096921, 148581, 701851
2096921,2096921, 148529, 701874
2096921,2096921, 148826, 702081
2096921,2096921, 148553, 701940
2096921,2096921, 148397, 702314
2096921,2096921, 148475, 702037
2096921,2096921, 148755, 702107
2096921,2096921, 148867, 702456
2096921,2096921, 148582, 702775
2096921,2096921, 149011, 702356
2096921,2096921, 148939, 702486
2096921,2096921, 148651, 702539
2096921,2096921, 148616, 702546
2096921,2096921, 149132, 703069
2096921,2096921, 148877, 703013
2096921,2096921, 149032, 702913
2096921,2096921, 148912, 702839
2096921,2096921, 148997, 703041
2096921,2096921, 148826, 703085
2096921,2096921, 148631, 702864
2096921,2096921, 148851, 702972
2096921,2096921, 148842, 702808
2096921,2096921, 148914, 703312
2096921,2096921, 148979, 703282
2096921,2096921, 149093, 703424
2096921,2096921, 149276, 703277
2096921,2096921, 149012, 703429
2096921,2096921, 148768, 703488
2096921,2096921, 149118, 703410
2096921,2096921, 149110, 703331
2096921,2096921, 149177, 703477
2096921,2096921, 149196, 703494
2096921,2096921, 149248, 703795
2096921,2096921, 149177, 703549
2096921,2096921, 149157, 703414
2096921,2096921, 149375, 703568
2096921,2096921, 149396, 703694
2096921,2096921, 149502, 704258
2096921,2096921, 149457, 704281
2096921,2096921, 149352, 704212
2096921,2096921, 149395, 704279
2096921,2096921, 149012, 703632
2096921,2096921, 149426, 704173
2096921,2096921, 149250, 704122
2096921,2096921, 149681, 704301
2096921,2096921, 149393, 704227
2096921,2096921, 149386, 704332
2096921,2096921, 149557, 704474
2096921,2096921, 149476, 704495
2096921,2096921, 149268, 704651
2096921,2096921, 149545, 704483
2096921,2096921, 149492, 704647
2096921,2096921, 149458, 704813
2096921,2096921, 149505, 704791
2096921,2096921, 149725, 704945
2096921,2096921, 149693, 704846
2096921,2096921, 149525, 704863
2096921,2096921, 149717, 705132
2096921,2096921, 149864, 705081
2096921,2096921, 149623, 704892
2096921,2096921, 149533, 705001
2096921,2096921, 149646, 704876
2096921,2096921, 149611, 705354
2096921,2096921, 149608, 705198
2096921,2096921, 149559, 705119
2096921,2096921, 149977, 704989
2096921,2096921, 149878, 705133
2096921,2096921, 150005, 705574
2096921,2096921, 149957, 705494
2096921,2096921, 149785, 705468
2096921,2096921, 149641, 705425
2096921,2096921, 149589, 705564
2096921,2096921, 149745, 705892
2096921,2096921, 149885, 705655
2096921,2096921, 149909, 705876
2096921,2096921, 149918, 705626
2096921,2096921, 149787, 705364
2096921,2096921, 149804, 705734
2096921,2096921, 149877, 706070
2096921,2096921, 150164, 705818
2096921,2096921, 150115, 705512
2096921,2096921, 149887, 705843
2096921,2096921, 149904, 706091
2096921,2096921, 149866, 706183
2096921,2096921, 150093, 706199
2096921,2096921, 149937, 706101
2096921,2096921, 149938, 706030
2096921,2096921, 150248, 706397
2096921,2096921, 150158, 706319
2096921,2096921, 149988, 706174
2096921,2096921, 150125, 706126
2096921,2096921, 150073, 706300
2096921,2096921, 149955, 706554
2096921,2096921, 149998, 706465
2096921,2096921, 150009, 706432
2096921,2096921, 150321, 706506
2096921,2096921, 150414, 706375
2096921,2096921, 150415, 706573
2096921,2096921, 150122, 706607
2096921,2096921, 149934, 706415
2096921,2096921, 150005, 706501
2096921,2096921, 149869, 706500
2096921,2096921, 150142, 706662
2096921,2096921, 149990, 706616
2096921,2096921, 150167, 706764
2096921,2096921, 150470, 706802
2096921,2096921, 150329, 706891
2096921,2096921, 150466, 707151
2096921,2096921, 150569, 707029
2096921,2096921, 150260, 706695
2096921,2096921, 150258, 706712
2096921,2096921, 150259, 706872
2096921,2096921, 150487, 707453
2096921,2096921, 150282, 707096
2096921,2096921, 150357, 707143
2096921,2096921, 150187, 707091
2096921,2096921, 150430, 707042
2096921,2096921, 150734, 707138
2096921,2096921, 150474, 707334
2096921,2096921, 150775, 707077
2096921,2096921, 150464, 707371
2096921,2096921, 150641, 707417
2096921,2096921, 150409, 707355
2096921,2096921, 150543, 707391
2096921,2096921, 150317, 707275
2096921,2096921, 150431, 707331
2096921,2096921, 150396, 707380
2096921,2096921, 150560, 707515
2096921,2096921, 150459, 707699
2096921,2096921, 150527, 707924
2096921,2096921, 150402, 707593
2096921,2096921, 150638, 707754
2096921,2096921, 150652, 707704
2096921,2096921, 150448, 707409
2096921,2096921, 150577, 707476
2096921,2096921, 150672, 707321
2096921,2096921, 150891, 707566
2096921,2096921, 150836, 707738
2096921,2096921, 150789, 707645
2096921,2096921, 150365, 707537
2096921,2096921, 150728, 707875
2096921,2096921, 150548, 707736
2096921,2096921, 150664, 707818
2096921,2096921, 150604, 707697
2096921,2096921, 150799, 707338
2096921,2096921, 150888, 707618
2096921,2096921, 150687, 707881
2096921,2096921, 150774, 708180
2096921,2096921, 150810, 707991
2096921,2096921, 150864, 707707
2096921,2096921, 150760, 708097
2096921,2096921, 150528, 707934
2096921,2096921, 150449, 708275
2096921,2096921, 150681, 708066
2096921,2096921, 150812, 707699
2096921,2096921, 150895, 708009
2096921,2096921, 150720, 707918
