2096921,2096921,159853,697470
2096921,2096921,159822,697397
2096921,2096921,160135,697486
2096921,2096921,159835,697481
2096921,2096921,159653,697349
2096921,2096921,159923,697790
2096921,2096921,159992,697993
2096921,2096921,159936,698083
2096921,2096921,159892,698055
2096921,2096921,160148,697761
2096921,2096921,160221,698176
2096921,2096921,160119,697981
2096921,2096921,160319,698396
2096921,2096921,160177,698325
2096921,2096921,160362,698083
2096921,2096921,160539,698839
2096921,2096921,160325,698897
2096921,2096921,160394,698668
2096921,2096921,160657,698694
2096921,2096921,160679,698781
2096921,2096921,160856,698982
2096921,2096921,160697,698936
2096921,2096921,160730,699189
2096921,2096921,160723,699118
2096921,2096921,160959,699306
2096921,2096921,160931,699384
2096921,2096921,160858,699458
2096921,2096921,160851,699571
2096921,2096921,160648,699394
2096921,2096921,160733,699565
2096921,2096921,160756,699836
2096921,2096921,160859,699959
2096921,2096921,161032,699762
2096921,2096921,161116,700048
2096921,2096921,161097,700377
2096921,2096921,161442,700669
2096921,2096921,161233,700800
2096921,2096921,161146,700530
2096921,2096921,161142,700519
2096921,2096921,161001,700284
2096921,2096921,161482,701026
2096921,2096921,161311,700847
2096921,2096921,161476,701227
2096921,2096921,161676,701338
2096921,2096921,161479,701172
2096921,2096921,161721,701480
2096921,2096921,161504,701825
2096921,2096921,161225,702076
2096921,2096921,161326,701502
2096921,2096921,161843,701362
2096921,2096921,161594,701843
2096921,2096921,161687,701966
2096921,2096921,161676,701885
2096921,2096921,161720,702033
2096921,2096921,161560,702087
2096921,2096921,161712,702185
2096921,2096921,161959,702707
2096921,2096921,161945,702450
2096921,2096921,161874,702293
2096921,2096921,162205,702658
2096921,2096921,161837,702811
2096921,2096921,161790,702892
2096921,2096921,161893,702626
2096921,2096921,162214,702915
2096921,2096921,162124,702843
2096921,2096921,162015,703208
2096921,2096921,162140,703427
2096921,2096921,162420,703083
2096921,2096921,162507,703455
2096921,2096921,162289,703172
2096921,2096921,162292,703562
2096921,2096921,162422,703445
2096921,2096921,162505,703325
2096921,2096921,162540,703359
2096921,2096921,162402,703563
2096921,2096921,162697,703598
2096921,2096921,162135,703613
2096921,2096921,162501,703908
2096921,2096921,162410,704077
2096921,2096921,162515,703752
2096921,2096921,162394,703919
2096921,2096921,162269,703508
2096921,2096921,162213,703644
2096921,2096921,162183,703921
2096921,2096921,162279,703852
2096921,2096921,162392,703887
2096921,2096921,162566,704082
2096921,2096921,162443,703954
2096921,2096921,162592,704256
2096921,2096921,162372,704235
2096921,2096921,162625,704258
2096921,2096921,162215,703983
2096921,2096921,162325,704056
2096921,2096921,162097,703953
2096921,2096921,162590,703851
2096921,2096921,162281,704009
2096921,2096921,162467,703764
2096921,2096921,162168,704144
2096921,2096921,162321,703860
2096921,2096921,162405,704223
2096921,2096921,162189,703600
2096921,2096921,162274,703971
2096921,2096921,162351,703712
2096921,2096921,162098,703809
2096921,2096921,162114,703585
2096921,2096921,161994,703679
2096921,2096921,162357,703562
2096921,2096921,162395,703551
2096921,2096921,162695,703479
2096921,2096921,162558,703484
2096921,2096921,162173,702890
2096921,2096921,162343,703329
2096921,2096921,162247,703522
2096921,2096921,162265,703704
2096921,2096921,162272,703496
2096921,2096921,162376,703469
2096921,2096921,162410,703354
2096921,2096921,162131,703328
2096921,2096921,162410,703606
2096921,2096921,162358,703179
2096921,2096921,162355,703172
2096921,2096921,161978,703220
2096921,2096921,162345,703394
2096921,2096921,162322,703594
2096921,2096921,162079,703637
2096921,2096921,162274,703381
2096921,2096921,162237,703517
2096921,2096921,162268,703307
2096921,2096921,162141,703612
2096921,2096921,162233,703743
2096921,2096921,162111,703569
2096921,2096921,162276,703394
2096921,2096921,162448,703401
2096921,2096921,162179,703344
2096921,2096921,162179,703625
2096921,2096921,162198,703897
2096921,2096921,162262,704102
2096921,2096921,162141,704186
2096921,2096921,162049,703652
2096921,2096921,162341,703439
2096921,2096921,162139,703385
2096921,2096921,162344,703539
2096921,2096921,162236,703640
2096921,2096921,162234,703582
2096921,2096921,162335,703931
2096921,2096921,162511,704107
2096921,2096921,162496,704071
2096921,2096921,162668,704111
2096921,2096921,162483,704160
2096921,2096921,162599,704265
2096921,2096921,162517,704216
2096921,2096921,162642,704578
2096921,2096921,162457,704476
2096921,2096921,162274,704419
2096921,2096921,162743,704463
2096921,2096921,162870,704400
2096921,2096921,163152,704333
2096921,2096921,162825,704676
2096921,2096921,162750,704890
2096921,2096921,162547,704474
2096921,2096921,162755,704828
2096921,2096921,162830,704897
2096921,2096921,162541,704773
2096921,2096921,162999,704966
2096921,2096921,163146,704856
2096921,2096921,163124,705149
2096921,2096921,163323,704933
2096921,2096921,163050,705139
2096921,2096921,163123,705326
2096921,2096921,162762,705227
2096921,2096921,162915,705369
2096921,2096921,162731,705129
2096921,2096921,163030,705213
2096921,2096921,163383,705459
2096921,2096921,163037,705572
2096921,2096921,163188,705489
2096921,2096921,162993,705817
2096921,2096921,163028,705726
2096921,2096921,163197,705598
2096921,2096921,163339,705576
2096921,2096921,162936,705682
2096921,2096921,163202,705895
2096921,2096921,163428,706089
2096921,2096921,163134,706013
2096921,2096921,163362,705726
2096921,2096921,163313,706165
2096921,2096921,163295,706066
2096921,2096921,163301,706439
2096921,2096921,163196,706122
2096921,2096921,163425,706251
2096921,2096921,163504,706319
2096921,2096921,163154,706675
2096921,2096921,163370,706530
2096921,2096921,163422,706362
2096921,2096921,163264,706532
2096921,2096921,163717,706773
2096921,2096921,163196,707220
2096921,2096921,163391,706681
2096921,2096921,163548,706536
2096921,2096921,163596,706745
2096921,2096921,163602,707115
2096921,2096921,163618,707023
2096921,2096921,163646,706930
2096921,2096921,163671,707206
2096921,2096921,163398,706856
2096921,2096921,163591,707104
2096921,2096921,163658,706974
2096921,2096921,163606,706958
2096921,2096921,163650,707349
2096921,2096921,163436,707285
2096921,2096921,163754,707024
2096921,2096921,163593,707155
2096921,2096921,163692,706990
2096921,2096921,163954,707272
2096921,2096921,163852,707354
2096921,2096921,164195,707765
2096921,2096921,163836,707739
2096921,2096921,163733,707698
2096921,2096921,163909,707639
2096921,2096921,163844,708022
2096921,2096921,164339,707663
2096921,2096921,164216,707686
2096921,2096921,164067,707723
2096921,2096921,164170,707749
2096921,2096921,164074,707874
2096921,2096921,164048,707881
2096921,2096921,164056,707846
2096921,2096921,164134,708137
2096921,2096921,163772,708060
2096921,2096921,164023,708205
2096921,2096921,163904,708267
2096921,2096921,163998,708398
2096921,2096921,163897,708326
2096921,2096921,163955,708085
2096921,2096921,164204,708104
2096921,2096921,163868,708267
2096921,2096921,164050,708551
2096921,2096921,164094,708711
2096921,2096921,163843,708357
2096921,2096921,163862,708136
2096921,2096921,164092,708527
2096921,2096921,163949,708470
2096921,2096921,163992,708516
2096921,2096921,164055,708669
2096921,2096921,164346,708560
2096921,2096921,164280,708768
2096921,2096921,164206,708546
2096921,2096921,164094,708922
2096921,2096921,164378,708768
2096921,2096921,164161,708778
2096921,2096921,164411,708500
2096921,2096921,164441,708739
2096921,2096921,163965,708769
2096921,2096921,164440,708929
2096921,2096921,164485,708619
2096921,2096921,164580,708998
2096921,2096921,164520,708711
2096921,2096921,164674,708594
2096921,2096921,164740,708633
2096921,2096921,164552,708559
2096921,2096921,164424,709025
2096921,2096921,164438,709049
2096921,2096921,164251,708698
2096921,2096921,164398,708908
2096921,2096921,164336,709054
2096921,2096921,164521,709401
2096921,2096921,164283,709039
2096921,2096921,164670,709185
2096921,2096921,164491,709067
2096921,2096921,164419,709289
2096921,2096921,164466,708904
2096921,2096921,164393,709531
2096921,2096921,164334,709251
2096921,2096921,164304,709438
2096921,2096921,164751,709595
2096921,2096921,164668,709870
2096921,2096921,164677,709754
2096921,2096921,164458,709362
2096921,2096921,164367,709281
2096921,2096921,164598,709360
2096921,2096921,164575,709609
2096921,2096921,164241,709616
2096921,2096921,164454,709512
2096921,2096921,164587,709866
2096921,2096921,164714,709538
2096921,2096921,164973,709612
2096921,2096921,164461,709664
2096921,2096921,164529,709854
2096921,2096921,164572,709723
2096921,2096921,164392,709699
2096921,2096921,164409,709845
2096921,2096921,164640,709967
2096921,2096921,164640,709808
2096921,2096921,164672,709765
2096921,2096921,164500,709674
2096921,2096921,164715,709827
2096921,2096921,164538,709929
2096921,2096921,164663,710055
2096921,2096921,164660,710028
2096921,2096921,164855,710009
2096921,2096921,164970,710032
2096921,2096921,164889,709978
2096921,2096921,164734,709853
2096921,2096921,164958,709955
2096921,2096921,164932,709916
2096921,2096921,164777,710002
2096921,2096921,164631,710110
2096921,2096921,164687,710469
2096921,2096921,164681,710030
2096921,2096921,164742,710111
2096921,2096921,164807,710035
2096921,2096921,164791,709945
2096921,2096921,164723,710160
2096921,2096921,164743,710179
2096921,2096921,164932,710388
2096921,2096921,164916,710145
2096921,2096921,164911,710258
2096921,2096921,165039,710216
2096921,2096921,164855,709917
2096921,2096921,164985,710136
2096921,2096921,165121,710185
2096921,2096921,165184,710312
2096921,2096921,164906,710231
2096921,2096921,165049,710066
2096921,2096921,165071,709991
2096921,2096921,164962,710254
2096921,2096921,165255,710374
2096921,2096921,165012,710159
2096921,2096921,164613,710136
2096921,2096921,164602,710077
2096921,2096921,164777,710087
2096921,2096921,164956,710237
2096921,2096921,164862,710314
2096921,2096921,165238,710256
2096921,2096921,164930,710290
2096921,2096921,165272,710483
2096921,2096921,164883,710431
2096921,2096921,165065,710423
2096921,2096921,164829,710318
2096921,2096921,165032,710632
2096921,2096921,164886,710439
2096921,2096921,164706,710723
2096921,2096921,164859,710545
2096921,2096921,164914,710473
2096921,2096921,165150,710153
2096921,2096921,164795,710714
2096921,2096921,164910,710467
2096921,2096921,164898,710348
2096921,2096921,164929,710659
2096921,2096921,165068,710341
2096921,2096921,164985,710270
2096921,2096921,164824,710508
2096921,2096921,164824,710517
2096921,2096921,165079,710747
2096921,2096921,165281,710769
2096921,2096921,165133,710803
2096921,2096921,165055,710533
2096921,2096921,165003,710726
2096921,2096921,164567,710427
2096921,2096921,164927,710813
2096921,2096921,165131,710769
2096921,2096921,165132,710299
2096921,2096921,165245,710443
2096921,2096921,164986,710628
2096921,2096921,165000,710483
2096921,2096921,164853,710551
2096921,2096921,164999,710825
2096921,2096921,164943,710784
2096921,2096921,165098,710480
2096921,2096921,165103,710434
2096921,2096921,165071,710469
2096921,2096921,165107,710241
2096921,2096921,164841,710278
2096921,2096921,164969,710246
2096921,2096921,165301,710295
2096921,2096921,165057,710541
2096921,2096921,165155,710476
2096921,2096921,164743,710433
2096921,2096921,165237,710383
2096921,2096921,164835,710316
2096921,2096921,164847,710458
2096921,2096921,164864,710304
2096921,2096921,164935,710367
2096921,2096921,164927,710581
2096921,2096921,165072,710667
2096921,2096921,165151,710526
2096921,2096921,164981,710183
2096921,2096921,164879,710284
2096921,2096921,164851,710331
2096921,2096921,164693,710419
2096921,2096921,164836,710236
2096921,2096921,165050,710373
2096921,2096921,165082,710518
2096921,2096921,165113,710627
2096921,2096921,165086,710480
2096921,2096921,164887,710366
2096921,2096921,165134,710118
2096921,2096921,164825,710543
2096921,2096921,164712,710422
2096921,2096921,164991,710437
2096921,2096921,165205,710134
2096921,2096921,165120,710342
2096921,2096921,164825,710250
2096921,2096921,164834,710254
2096921,2096921,164987,710270
2096921,2096921,165248,710044
2096921,2096921,165422,710305
2096921,2096921,165220,710206
2096921,2096921,164854,710125
2096921,2096921,164897,710314
2096921,2096921,164944,709669
2096921,2096921,164770,709780
2096921,2096921,164966,709497
2096921,2096921,164755,709590
2096921,2096921,164521,709686
2096921,2096921,164914,709306
2096921,2096921,164792,709408
2096921,2096921,164965,709404
2096921,2096921,164758,709329
2096921,2096921,164668,709138
2096921,2096921,164408,708438
2096921,2096921,164509,708595
2096921,2096921,164479,708743
2096921,2096921,164342,708771
2096921,2096921,164205,708577
2096921,2096921,164325,707867
2096921,2096921,164161,707696
2096921,2096921,164103,707758
2096921,2096921,163907,707701
2096921,2096921,163718,707867
2096921,2096921,163552,707083
2096921,2096921,163470,706682
2096921,2096921,163599,706810
2096921,2096921,163866,706817
2096921,2096921,163315,706666
2096921,2096921,162942,705248
2096921,2096921,162957,705063
2096921,2096921,163200,704916
2096921,2096921,162921,704938
2096921,2096921,162145,705117
2096921,2096921,161914,703046
2096921,2096921,161883,702546
2096921,2096921,161710,702542
2096921,2096921,161652,702366
2096921,2096921,161605,702548
2096921,2096921,161081,701059
2096921,2096921,161406,700729
2096921,2096921,161309,700328
2096921,2096921,161187,700280
2096921,2096921,160956,700274
2096921,2096921,160654,699326
2096921,2096921,160891,698944
2096921,2096921,160595,699040
2096921,2096921,160685,699062
2096921,2096921,160242,699172
2096921,2096921,160302,698302
2096921,2096921,160098,698285
2096921,2096921,159849,697853
2096921,2096921,160127,697572
2096921,2096921,159947,697536
2096921,2096921,159795,697270
2096921,2096921,159941,696991
2096921,2096921,160137,697221
2096921,2096921,159819,697222
2096921,2096921,160035,697039
2096921,2096921,159943,696633
2096921,2096921,160090,696423
2096921,2096921,159764,696256
2096921,2096921,159597,696653
2096921,2096921,159504,696588
2096921,2096921,159383,696023
2096921,2096921,159663,695966
2096921,2096921,159718,696188
2096921,2096921,159674,696216
2096921,2096921,159731,695960
2096921,2096921,159474,696103
2096921,2096921,159367,696292
2096921,2096921,159644,696056
2096921,2096921,159447,695861
2096921,2096921,159248,696069
2096921,2096921,159496,695816
2096921,2096921,159575,695915
2096921,2096921,159699,696013
2096921,2096921,159286,695884
2096921,2096921,159523,695870
2096921,2096921,159512,696011
2096921,2096921,159634,695941
2096921,2096921,159546,696122
2096921,2096921,159378,695946
2096921,2096921,159256,695869
2096921,2096921,159232,696142
2096921,2096921,159451,695726
2096921,2096921,159223,695948
2096921,2096921,159606,696048
2096921,2096921,159503,695747
2096921,2096921,159665,696150
2096921,2096921,159953,696053
2096921,2096921,159856,696293
2096921,2096921,160050,696311
2096921,2096921,159777,696389
2096921,2096921,159861,696582
2096921,2096921,159382,696281
2096921,2096921,159680,696487
2096921,2096921,159675,696401
2096921,2096921,159614,696598
2096921,2096921,159915,696776
2096921,2096921,159712,696941
2096921,2096921,159965,696713
2096921,2096921,159855,696617
2096921,2096921,160216,696855
2096921,2096921,159980,696986
2096921,2096921,160183,696982
2096921,2096921,160015,696810
2096921,2096921,159984,697133
2096921,2096921,160307,696960
2096921,2096921,160312,697302
2096921,2096921,160233,697118
2096921,2096921,160099,697317
2096921,2096921,160087,697330
2096921,2096921,160169,697080
2096921,2096921,159957,697526
2096921,2096921,160484,697654
2096921,2096921,160667,697845
2096921,2096921,160520,697566
2096921,2096921,160412,697895
2096921,2096921,160602,698198
2096921,2096921,160730,697973
2096921,2096921,160344,698308
2096921,2096921,160177,698058
2096921,2096921,160260,698058
2096921,2096921,160536,698166
2096921,2096921,160675,698292
2096921,2096921,160388,698392
2096921,2096921,160324,698596
2096921,2096921,160723,698592
2096921,2096921,160548,698954
2096921,2096921,160639,698916
2096921,2096921,160572,699067
2096921,2096921,160535,698922
2096921,2096921,160861,698794
2096921,2096921,160878,698885
2096921,2096921,160968,699246
2096921,2096921,160808,699127
2096921,2096921,160992,698904
2096921,2096921,161175,698887
2096921,2096921,161278,699545
2096921,2096921,161143,699409
2096921,2096921,161033,699836
2096921,2096921,161207,699659
2096921,2096921,160887,699405
2096921,2096921,161177,699712
2096921,2096921,161311,699587
2096921,2096921,161304,699836
2096921,2096921,161212,699637
2096921,2096921,161314,699645
2096921,2096921,161403,700381
2096921,2096921,161454,700262
2096921,2096921,161314,700458
2096921,2096921,161173,700030
2096921,2096921,161514,699908
2096921,2096921,161328,700389
2096921,2096921,161415,700139
2096921,2096921,161316,700245
2096921,2096921,161379,700178
2096921,2096921,161610,699995
2096921,2096921,161275,700497
2096921,2096921,161377,700444
2096921,2096921,161285,700415
2096921,2096921,161196,700462
2096921,2096921,161326,700547
2096921,2096921,161372,700486
2096921,2096921,161641,700496
2096921,2096921,161456,700519
2096921,2096921,161684,700558
2096921,2096921,161419,700868
2096921,2096921,161455,700662
2096921,2096921,161488,700881
2096921,2096921,161510,700956
2096921,2096921,161489,700795
2096921,2096921,161514,700968
2096921,2096921,161545,700981
2096921,2096921,161694,701008
2096921,2096921,161826,700968
2096921,2096921,161873,700919
2096921,2096921,161831,701020
2096921,2096921,161844,700791
2096921,2096921,161739,700719
2096921,2096921,161795,700829
2096921,2096921,161544,700859
2096921,2096921,161697,700593
2096921,2096921,161765,700654
2096921,2096921,161789,700739
2096921,2096921,161765,700531
2096921,2096921,161721,700641
2096921,2096921,161536,700455
2096921,2096921,161810,700895
2096921,2096921,161645,700467
2096921,2096921,161516,700426
2096921,2096921,161679,700498
2096921,2096921,161549,700272
2096921,2096921,161639,700320
2096921,2096921,161535,699963
2096921,2096921,161532,700063
2096921,2096921,161680,699925
2096921,2096921,161517,700221
2096921,2096921,161262,699872
2096921,2096921,161336,699741
2096921,2096921,161173,699840
2096921,2096921,161378,700013
2096921,2096921,161330,699910
2096921,2096921,161087,699563
2096921,2096921,161489,699488
2096921,2096921,161540,699801
2096921,2096921,161097,699901
2096921,2096921,161288,699717
2096921,2096921,161181,699677
2096921,2096921,161286,699691
2096921,2096921,161344,699524
2096921,2096921,161545,699549
2096921,2096921,161308,699546
2096921,2096921,161039,699426
2096921,2096921,161040,699371
2096921,2096921,161153,699468
2096921,2096921,161312,699564
2096921,2096921,161227,699598
2096921,2096921,161053,699338
2096921,2096921,161098,699607
2096921,2096921,161016,699240
2096921,2096921,161310,699023
2096921,2096921,161161,699345
2096921,2096921,161123,699352
2096921,2096921,161345,699188
2096921,2096921,161197,699153
2096921,2096921,161286,699448
2096921,2096921,161214,699163
2096921,2096921,161514,699229
2096921,2096921,161375,699413
2096921,2096921,161259,699736
2096921,2096921,161243,699490
2096921,2096921,161158,699335
2096921,2096921,160952,699319
2096921,2096921,160927,699347
2096921,2096921,161117,699465
2096921,2096921,161337,699432
2096921,2096921,161368,699154
2096921,2096921,161466,699566
2096921,2096921,161398,699296
2096921,2096921,161211,699622
2096921,2096921,161163,699739
2096921,2096921,161418,699376
2096921,2096921,161504,699775
2096921,2096921,161539,699481
2096921,2096921,161310,699784
2096921,2096921,161445,699744
2096921,2096921,161928,699547
2096921,2096921,161933,699963
2096921,2096921,161670,699981
2096921,2096921,161576,700075
2096921,2096921,161909,700042
2096921,2096921,161553,699671
2096921,2096921,161488,700048
2096921,2096921,161867,700163
2096921,2096921,161912,700303
2096921,2096921,162103,699995
2096921,2096921,161818,700170
2096921,2096921,162020,700423
2096921,2096921,161940,700521
2096921,2096921,161724,700627
2096921,2096921,161738,700490
2096921,2096921,161677,700246
2096921,2096921,161847,700139
2096921,2096921,161951,700344
2096921,2096921,161637,700484
2096921,2096921,161979,700616
2096921,2096921,162048,700475
2096921,2096921,161742,700642
2096921,2096921,161599,700849
2096921,2096921,161906,700630
2096921,2096921,161706,700851
2096921,2096921,161812,700901
2096921,2096921,162134,700792
2096921,2096921,161931,700912
2096921,2096921,162026,700713
2096921,2096921,162202,700819
2096921,2096921,162317,700784
2096921,2096921,162253,701295
2096921,2096921,162294,701349
2096921,2096921,162149,701495
2096921,2096921,162056,701268
2096921,2096921,161981,701030
2096921,2096921,162291,701302
2096921,2096921,162197,701132
2096921,2096921,162117,701081
2096921,2096921,162362,701166
2096921,2096921,162053,701642
2096921,2096921,162211,701572
2096921,2096921,162281,701391
2096921,2096921,162145,701495
2096921,2096921,162252,701170
2096921,2096921,162213,701373
2096921,2096921,162277,701206
2096921,2096921,162313,701648
2096921,2096921,162565,701708
2096921,2096921,162373,701620
2096921,2096921,162734,701235
2096921,2096921,162516,701658
2096921,2096921,162520,701870
2096921,2096921,162358,701443
2096921,2096921,162324,701604
2096921,2096921,162458,701449
2096921,2096921,162112,701679
2096921,2096921,162375,701487
2096921,2096921,162601,701413
2096921,2096921,162747,701619
2096921,2096921,162432,701778
2096921,2096921,162443,702090
2096921,2096921,162662,701982
2096921,2096921,162435,702165
2096921,2096921,162337,702020
2096921,2096921,162341,702030
2096921,2096921,162375,702114
2096921,2096921,162490,702196
2096921,2096921,162464,702034
2096921,2096921,162613,702025
2096921,2096921,162938,702312
2096921,2096921,162678,702208
2096921,2096921,162683,702314
2096921,2096921,162692,702315
2096921,2096921,162411,702319
2096921,2096921,162723,702330
2096921,2096921,162685,702267
2096921,2096921,162824,702268
2096921,2096921,162718,702365
2096921,2096921,162750,702653
2096921,2096921,162612,702537
2096921,2096921,162898,702957
2096921,2096921,162705,702879
2096921,2096921,162444,702868
2096921,2096921,162933,702759
2096921,2096921,162749,702572
2096921,2096921,162676,702388
2096921,2096921,162612,702647
2096921,2096921,162671,702795
2096921,2096921,162711,702404
2096921,2096921,162572,702403
2096921,2096921,162870,702487
2096921,2096921,162528,702780
2096921,2096921,162751,702822
2096921,2096921,162715,702631
2096921,2096921,162880,702638
2096921,2096921,162951,702643
2096921,2096921,162896,702906
2096921,2096921,162983,702526
2096921,2096921,163033,702841
2096921,2096921,162866,702797
2096921,2096921,162857,702608
2096921,2096921,163038,702760
2096921,2096921,163091,702793
2096921,2096921,162885,702822
2096921,2096921,162999,702639
2096921,2096921,162784,703010
2096921,2096921,162856,702937
2096921,2096921,162915,702827
2096921,2096921,163180,702815
2096921,2096921,162882,702932
2096921,2096921,163034,703136
2096921,2096921,163265,702868
2096921,2096921,163297,703158
2096921,2096921,163006,702903
2096921,2096921,162937,702988
2096921,2096921,162885,703121
2096921,2096921,162977,703094
2096921,2096921,162976,703070
2096921,2096921,162940,703016
2096921,2096921,163336,703167
2096921,2096921,163231,703115
2096921,2096921,163069,702883
2096921,2096921,162870,703222
2096921,2096921,162854,703062
2096921,2096921,163070,703180
2096921,2096921,162646,703432
2096921,2096921,163153,703237
2096921,2096921,162983,703299
2096921,2096921,163041,703111
2096921,2096921,163120,702964
2096921,2096921,163059,703112
2096921,2096921,162964,703447
2096921,2096921,163034,703164
2096921,2096921,163121,703590
2096921,2096921,162870,703205
2096921,2096921,163414,703354
2096921,2096921,163242,703440
2096921,2096921,163381,703271
2096921,2096921,163500,703331
2096921,2096921,163301,703345
2096921,2096921,163061,703679
2096921,2096921,163079,703901
2096921,2096921,163074,703558
2096921,2096921,162966,703257
2096921,2096921,163068,703073
2096921,2096921,163036,703506
2096921,2096921,163029,703228
2096921,2096921,163205,703242
2096921,2096921,163255,703599
2096921,2096921,163103,703141
2096921,2096921,163159,703351
2096921,2096921,163358,703829
2096921,2096921,163171,703557
2096921,2096921,163197,703167
2096921,2096921,163153,703302
2096921,2096921,163032,703514
2096921,2096921,163262,703228
2096921,2096921,163262,703624
2096921,2096921,163512,703970
2096921,2096921,163569,703460
2096921,2096921,163499,703508
2096921,2096921,163003,703602
2096921,2096921,163097,703636
2096921,2096921,163317,703621
2096921,2096921,163233,703689
2096921,2096921,163429,703205
2096921,2096921,163291,703631
2096921,2096921,163514,703696
2096921,2096921,163244,703440
2096921,2096921,163367,703454
2096921,2096921,163529,703464
2096921,2096921,163155,703572
2096921,2096921,163282,703385
2096921,2096921,163345,703633
2096921,2096921,163447,703477
2096921,2096921,163356,703607
2096921,2096921,163547,703457
2096921,2096921,163482,703523
2096921,2096921,163170,703465
2096921,2096921,163305,703982
2096921,2096921,163618,703826
2096921,2096921,163509,703387
2096921,2096921,163511,703606
2096921,2096921,163432,703546
2096921,2096921,163550,703539
2096921,2096921,163478,703795
2096921,2096921,163454,703483
2096921,2096921,163422,703743
2096921,2096921,163391,703708
2096921,2096921,163547,703437
2096921,2096921,163592,703942
2096921,2096921,163231,703654
2096921,2096921,163169,703845
2096921,2096921,162986,703773
2096921,2096921,163465,703786
2096921,2096921,163554,703815
2096921,2096921,163388,703710
2096921,2096921,163554,703841
2096921,2096921,163635,703907
2096921,2096921,163258,703881
2096921,2096921,163168,703828
2096921,2096921,163260,703726
2096921,2096921,163320,703809
2096921,2096921,163485,703716
2096921,2096921,163345,703960
2096921,2096921,163204,704018
2096921,2096921,163120,703835
2096921,2096921,163212,703863
2096921,2096921,163469,703587
2096921,2096921,163354,703935
2096921,2096921,163473,703802
2096921,2096921,163161,703852
2096921,2096921,163269,703961
2096921,2096921,163280,703949
2096921,2096921,163444,703761
2096921,2096921,163379,703737
2096921,2096921,163422,703532
2096921,2096921,163459,703643
2096921,2096921,163394,703824
2096921,2096921,163394,703711
2096921,2096921,163178,703923
2096921,2096921,163518,703683
2096921,2096921,163268,703786
2096921,2096921,163401,703918
2096921,2096921,163408,703564
2096921,2096921,163124,703969
2096921,2096921,163449,703922
2096921,2096921,163453,703700
2096921,2096921,163563,703593
2096921,2096921,163236,703686
2096921,2096921,163232,703640
2096921,2096921,163329,703618
2096921,2096921,163387,703968
2096921,2096921,163344,703759
2096921,2096921,163397,703526
2096921,2096921,163367,703828
2096921,2096921,163415,703591
2096921,2096921,163271,703448
2096921,2096921,163335,703709
2096921,2096921,163434,703644
2096921,2096921,163365,703405
2096921,2096921,163448,703704
2096921,2096921,163313,703524
2096921,2096921,163493,703503
2096921,2096921,163379,703522
2096921,2096921,163370,703318
2096921,2096921,163180,703373
2096921,2096921,163500,703549
2096921,2096921,163387,703529
2096921,2096921,163894,703668
2096921,2096921,163536,703941
2096921,2096921,163447,703759
2096921,2096921,163323,703355
2096921,2096921,163657,703318
2096921,2096921,163473,703266
2096921,2096921,163354,703321
2096921,2096921,163185,703239
2096921,2096921,163060,702953
2096921,2096921,163422,703455
2096921,2096921,162991,703320
2096921,2096921,163220,702946
2096921,2096921,163239,702887
2096921,2096921,163060,702875
2096921,2096921,163180,702815
2096921,2096921,162828,702713
2096921,2096921,162801,702353
2096921,2096921,162823,702348
2096921,2096921,162903,702436
2096921,2096921,162607,702549
2096921,2096921,162649,702536
2096921,2096921,162409,701511
2096921,2096921,162617,701539
2096921,2096921,162754,701431
2096921,2096921,162679,701452
2096921,2096921,162289,701369
2096921,2096921,162422,700978
2096921,2096921,162549,700474
2096921,2096921,162159,700604
2096921,2096921,162235,700664
2096921,2096921,161715,700700
2096921,2096921,161234,699236
2096921,2096921,161420,699009
2096921,2096921,161462,698720
2096921,2096921,161365,698645
2096921,2096921,160890,698768
2096921,2096921,160562,696731
2096921,2096921,160436,696333
2096921,2096921,160551,696172
2096921,2096921,160672,696461
2096921,2096921,160050,696315
2096921,2096921,159633,694935
2096921,2096921,159777,694720
2096921,2096921,159814,694508
2096921,2096921,159658,694495
2096921,2096921,159464,694432
2096921,2096921,159315,693442
2096921,2096921,159374,692949
2096921,2096921,159052,693173
2096921,2096921,159144,692978
2096921,2096921,159071,693019
2096921,2096921,159161,692314
2096921,2096921,159005,692076
2096921,2096921,159164,691935
2096921,2096921,158854,692108
2096921,2096921,158586,691874
2096921,2096921,158705,691249
2096921,2096921,158934,691353
2096921,2096921,158597,691366
2096921,2096921,158305,691150
2096921,2096921,158408,691425
2096921,2096921,158444,691048
2096921,2096921,158576,690708
2096921,2096921,158386,690749
2096921,2096921,157862,690811
2096921,2096921,158384,690899
2096921,2096921,157964,690656
2096921,2096921,157960,690477
2096921,2096921,158059,690607
2096921,2096921,158198,690609
2096921,2096921,158307,690493
2096921,2096921,158214,690164
2096921,2096921,158480,690584
2096921,2096921,158176,690622
2096921,2096921,158260,690276
2096921,2096921,158010,690474
2096921,2096921,158116,690468
2096921,2096921,158186,690497
2096921,2096921,158360,690640
2096921,2096921,158276,690163
2096921,2096921,158251,690299
2096921,2096921,158309,690822
2096921,2096921,158301,690754
2096921,2096921,158198,690830
2096921,2096921,157991,690736
2096921,2096921,158243,690531
2096921,2096921,158308,690611
2096921,2096921,158239,690843
2096921,2096921,158559,690507
2096921,2096921,158250,690505
2096921,2096921,158167,690850
2096921,2096921,158524,690916
2096921,2096921,158499,691174
2096921,2096921,158596,690812
2096921,2096921,158384,690937
2096921,2096921,158367,690914
2096921,2096921,158271,691242
2096921,2096921,158721,691357
2096921,2096921,158514,691279
2096921,2096921,158822,690990
2096921,2096921,158802,691036
2096921,2096921,158797,691334
2096921,2096921,158670,691384
2096921,2096921,158605,691622
2096921,2096921,158828,691670
2096921,2096921,158855,691407
2096921,2096921,158800,691735
2096921,2096921,158505,691713
2096921,2096921,158743,692001
2096921,2096921,158942,691931
2096921,2096921,159115,692038
2096921,2096921,159085,692336
2096921,2096921,159342,692561
2096921,2096921,159096,692609
2096921,2096921,158973,692938
2096921,2096921,159119,692657
2096921,2096921,158875,692718
2096921,2096921,159009,693099
2096921,2096921,158989,693004
2096921,2096921,158932,692739
2096921,2096921,159145,692991
2096921,2096921,159348,693405
2096921,2096921,159231,693442
2096921,2096921,159093,693452
2096921,2096921,159068,693287
2096921,2096921,159308,693110
2096921,2096921,159401,693807
2096921,2096921,159314,693936
2096921,2096921,159275,693883
2096921,2096921,159451,693633
2096921,2096921,159371,693800
2096921,2096921,159339,694133
2096921,2096921,159509,694110
2096921,2096921,159501,694227
2096921,2096921,159303,694240
2096921,2096921,159781,693939
2096921,2096921,159791,694473
2096921,2096921,159718,694450
2096921,2096921,159879,694636
2096921,2096921,159783,694769
2096921,2096921,160065,694575
2096921,2096921,159727,694692
2096921,2096921,159991,694977
2096921,2096921,160321,695042
2096921,2096921,159855,694868
2096921,2096921,159931,694837
2096921,2096921,160066,695161
2096921,2096921,160308,695389
2096921,2096921,160261,695691
2096921,2096921,160390,695728
2096921,2096921,160245,695627
2096921,2096921,160613,695749
2096921,2096921,160334,695912
2096921,2096921,160348,695718
2096921,2096921,160463,695542
2096921,2096921,160680,695616
2096921,2096921,160738,695726
2096921,2096921,160660,696010
2096921,2096921,160643,696135
2096921,2096921,160621,696294
2096921,2096921,160718,696115
2096921,2096921,160604,696318
2096921,2096921,160447,696454
2096921,2096921,160541,696580
2096921,2096921,160452,696402
2096921,2096921,160517,696252
2096921,2096921,160631,696552
2096921,2096921,160824,696716
2096921,2096921,160539,696679
2096921,2096921,160571,696961
2096921,2096921,160474,696885
2096921,2096921,160901,696869
2096921,2096921,160609,697022
2096921,2096921,160740,697096
2096921,2096921,160655,697114
2096921,2096921,160462,697015
2096921,2096921,160747,697141
2096921,2096921,160731,696948
2096921,2096921,160616,697242
2096921,2096921,160634,697200
2096921,2096921,160774,697174
2096921,2096921,160612,697173
2096921,2096921,160797,697356
2096921,2096921,160613,697272
2096921,2096921,160698,696970
2096921,2096921,160688,697221
2096921,2096921,160770,697134
2096921,2096921,160712,697061
2096921,2096921,160804,697025
2096921,2096921,160739,697178
2096921,2096921,160905,697243
2096921,2096921,160917,697045
2096921,2096921,160770,697214
2096921,2096921,160797,697224
2096921,2096921,160827,696987
2096921,2096921,160785,697144
2096921,2096921,160786,696820
2096921,2096921,160532,696788
2096921,2096921,160687,696981
2096921,2096921,160753,697221
2096921,2096921,160481,697045
2096921,2096921,160753,696991
2096921,2096921,160492,696938
2096921,2096921,160672,696902
2096921,2096921,160747,696962
2096921,2096921,160596,696790
2096921,2096921,160338,696959
2096921,2096921,160483,696971
2096921,2096921,160559,696741
2096921,2096921,160587,696454
2096921,2096921,160749,696682
2096921,2096921,160560,696966
2096921,2096921,160438,696562
2096921,2096921,160630,696560
2096921,2096921,160511,696646
2096921,2096921,160448,696451
2096921,2096921,160577,696850
2096921,2096921,160498,696548
2096921,2096921,160691,696939
2096921,2096921,160580,696559
2096921,2096921,160660,696610
2096921,2096921,160773,696737
2096921,2096921,160595,696715
2096921,2096921,160476,696477
2096921,2096921,160588,696436
2096921,2096921,160605,696529
2096921,2096921,160599,696760
2096921,2096921,160605,696603
2096921,2096921,160738,696852
2096921,2096921,160956,696861
2096921,2096921,160817,696854
2096921,2096921,160785,696853
2096921,2096921,160832,696691
2096921,2096921,160771,696791
2096921,2096921,160695,696796
2096921,2096921,160678,697136
2096921,2096921,160862,696862
2096921,2096921,161025,697125
2096921,2096921,160614,697359
2096921,2096921,160702,697063
2096921,2096921,161095,696984
2096921,2096921,160739,697600
2096921,2096921,161028,697579
2096921,2096921,160741,697468
2096921,2096921,160892,697460
2096921,2096921,160855,697702
2096921,2096921,160964,698028
2096921,2096921,160930,697988
2096921,2096921,161077,697930
2096921,2096921,161193,697499
2096921,2096921,161106,697932
2096921,2096921,161146,698186
2096921,2096921,161163,698088
2096921,2096921,161132,698187
2096921,2096921,161108,698316
2096921,2096921,161187,698121
2096921,2096921,161299,698246
2096921,2096921,161394,698727
2096921,2096921,161363,698820
2096921,2096921,161248,698432
2096921,2096921,161059,698508
2096921,2096921,161421,698974
2096921,2096921,161386,698694
2096921,2096921,161378,698941
2096921,2096921,161407,698812
2096921,2096921,161405,698843
2096921,2096921,161369,699025
2096921,2096921,161569,698833
2096921,2096921,161496,699187
2096921,2096921,161506,699167
2096921,2096921,161469,699155
2096921,2096921,161522,699438
2096921,2096921,161556,699579
2096921,2096921,161547,699584
2096921,2096921,161617,699449
2096921,2096921,161694,699467
2096921,2096921,161743,699616
2096921,2096921,161570,699897
2096921,2096921,161616,699473
2096921,2096921,161724,699904
2096921,2096921,162019,699658
2096921,2096921,162165,699793
2096921,2096921,161965,700109
2096921,2096921,161786,699914
2096921,2096921,161895,699938
2096921,2096921,161832,699864
2096921,2096921,161755,700081
2096921,2096921,161988,700385
2096921,2096921,162122,700120
2096921,2096921,162082,700308
2096921,2096921,162053,700355
2096921,2096921,161969,700495
2096921,2096921,162129,700518
2096921,2096921,162266,700467
2096921,2096921,162247,700354
2096921,2096921,162217,700280
2096921,2096921,162123,700703
2096921,2096921,162181,700834
2096921,2096921,162270,701020
2096921,2096921,162175,700900
2096921,2096921,162158,700983
2096921,2096921,162228,700917
2096921,2096921,162515,701152
2096921,2096921,162473,700732
2096921,2096921,162311,701169
2096921,2096921,162388,701179
2096921,2096921,162307,701441
2096921,2096921,162137,701549
2096921,2096921,162360,701871
2096921,2096921,162368,701411
2096921,2096921,162396,701701
2096921,2096921,162528,701874
2096921,2096921,162497,702059
2096921,2096921,162563,701773
2096921,2096921,162634,701883
2096921,2096921,162642,701811
2096921,2096921,162757,702008
2096921,2096921,162750,702141
2096921,2096921,162561,702038
2096921,2096921,162344,702355
2096921,2096921,162842,702433
2096921,2096921,162958,702726
2096921,2096921,162577,702156
2096921,2096921,162438,702179
2096921,2096921,162031,702372
2096921,2096921,162291,702721
2096921,2096921,162592,702616
2096921,2096921,163131,702920
2096921,2096921,162567,702878
2096921,2096921,162837,702617
2096921,2096921,162476,702731
2096921,2096921,162619,702589
2096921,2096921,162579,703036
2096921,2096921,162649,702903
2096921,2096921,162690,702912
2096921,2096921,162699,702741
2096921,2096921,162822,703105
2096921,2096921,162963,702985
2096921,2096921,162967,703496
2096921,2096921,163123,703278
2096921,2096921,163117,703087
2096921,2096921,162913,702968
2096921,2096921,163179,703091
2096921,2096921,162726,703179
2096921,2096921,163078,703179
2096921,2096921,162925,703614
2096921,2096921,162751,703589
2096921,2096921,162859,703436
2096921,2096921,163005,703836
2096921,2096921,162915,703423
2096921,2096921,163075,703545
2096921,2096921,163483,703923
2096921,2096921,163348,703774
2096921,2096921,163171,703995
2096921,2096921,163128,703642
2096921,2096921,163452,703481
2096921,2096921,163211,703804
2096921,2096921,163323,704089
2096921,2096921,163138,704097
2096921,2096921,163438,703846
2096921,2096921,163428,703976
2096921,2096921,163576,704174
2096921,2096921,163512,704064
2096921,2096921,163278,703996
2096921,2096921,163414,703892
2096921,2096921,163326,703863
2096921,2096921,163542,704033
2096921,2096921,163441,704024
2096921,2096921,163580,704276
2096921,2096921,163465,704244
2096921,2096921,163732,704507
2096921,2096921,163501,704552
2096921,2096921,163395,704450
2096921,2096921,163359,704453
2096921,2096921,162968,704344
2096921,2096921,163641,704409
2096921,2096921,163757,704716
2096921,2096921,163509,704619
2096921,2096921,163737,704891
2096921,2096921,163626,704649
2096921,2096921,163610,704856
2096921,2096921,163724,704975
2096921,2096921,163673,705242
2096921,2096921,163842,704993
2096921,2096921,163632,705002
2096921,2096921,163793,705171
2096921,2096921,163447,705110
2096921,2096921,163454,704941
2096921,2096921,163725,705363
2096921,2096921,163777,705363
2096921,2096921,163829,705231
2096921,2096921,164066,705168
2096921,2096921,164001,705239
2096921,2096921,163938,705217
2096921,2096921,163555,705339
2096921,2096921,163690,705374
2096921,2096921,163721,705318
2096921,2096921,163806,705680
2096921,2096921,163967,705743
2096921,2096921,163880,705632
2096921,2096921,164001,705580
2096921,2096921,163779,705510
2096921,2096921,163894,705641
2096921,2096921,163364,705701
2096921,2096921,163587,705679
2096921,2096921,163459,705658
2096921,2096921,163825,706037
2096921,2096921,163604,706133
2096921,2096921,163842,706276
2096921,2096921,164099,705938
2096921,2096921,163920,706075
2096921,2096921,164133,706439
2096921,2096921,163684,706428
2096921,2096921,163434,706257
2096921,2096921,163751,706173
2096921,2096921,163670,706199
2096921,2096921,163797,706296
2096921,2096921,163732,705984
2096921,2096921,163731,706469
2096921,2096921,163603,706048
2096921,2096921,163910,706167
2096921,2096921,163978,706202
2096921,2096921,163914,706828
2096921,2096921,164218,706529
2096921,2096921,163896,706393
2096921,2096921,163822,706230
2096921,2096921,163842,706300
2096921,2096921,163887,706657
2096921,2096921,164352,706577
2096921,2096921,164159,706486
2096921,2096921,164090,706706
2096921,2096921,164122,706879
2096921,2096921,164195,706861
2096921,2096921,164168,706965
2096921,2096921,163983,706845
2096921,2096921,164049,706684
2096921,2096921,164222,706917
2096921,2096921,163912,706878
2096921,2096921,163977,706940
2096921,2096921,164109,707074
2096921,2096921,164019,707004
2096921,2096921,164047,707417
2096921,2096921,163912,707233
2096921,2096921,164127,706943
2096921,2096921,163957,707065
2096921,2096921,163949,707046
2096921,2096921,164143,707072
2096921,2096921,163892,706962
2096921,2096921,164043,707140
2096921,2096921,164006,707174
2096921,2096921,164113,707090
2096921,2096921,164052,707102
2096921,2096921,163897,707565
2096921,2096921,164170,707378
2096921,2096921,164213,707433
2096921,2096921,164233,707574
2096921,2096921,164219,707506
2096921,2096921,164249,707364
2096921,2096921,164145,707375
2096921,2096921,164452,707731
2096921,2096921,164371,707412
2096921,2096921,164221,707543
2096921,2096921,164338,707446
2096921,2096921,164389,707394
2096921,2096921,164339,707516
2096921,2096921,164193,707531
2096921,2096921,164377,707168
2096921,2096921,164361,707759
2096921,2096921,164152,707663
2096921,2096921,164546,707705
2096921,2096921,164480,707665
2096921,2096921,164253,707679
2096921,2096921,164269,707739
2096921,2096921,164217,707713
2096921,2096921,164309,707662
2096921,2096921,164456,707698
2096921,2096921,164308,707645
2096921,2096921,164547,707416
2096921,2096921,164729,707485
2096921,2096921,164781,707780
2096921,2096921,164693,707699
2096921,2096921,164235,707992
2096921,2096921,164218,707857
2096921,2096921,164203,708076
2096921,2096921,164338,707936
2096921,2096921,164377,707792
2096921,2096921,164542,707919
2096921,2096921,164610,707925
2096921,2096921,164260,708282
2096921,2096921,164518,708034
2096921,2096921,164663,708013
2096921,2096921,164554,708071
2096921,2096921,164351,707746
2096921,2096921,164426,707899
2096921,2096921,164331,707759
2096921,2096921,164732,708103
2096921,2096921,164260,707774
2096921,2096921,164328,708138
2096921,2096921,164531,708201
2096921,2096921,164531,708326
2096921,2096921,164366,708385
2096921,2096921,164301,708452
2096921,2096921,164434,708208
2096921,2096921,164406,708446
2096921,2096921,164530,707927
2096921,2096921,164538,707886
2096921,2096921,164603,707724
2096921,2096921,164336,707815
2096921,2096921,164580,708157
2096921,2096921,164414,707858
2096921,2096921,164433,707714
2096921,2096921,164484,707697
2096921,2096921,164295,707628
2096921,2096921,164271,707613
2096921,2096921,164306,707544
2096921,2096921,164068,707592
2096921,2096921,163893,707093
2096921,2096921,164155,706997
2096921,2096921,164088,707099
2096921,2096921,163796,706959
2096921,2096921,163902,707033
2096921,2096921,163838,706534
2096921,2096921,163834,706387
2096921,2096921,163668,706160
2096921,2096921,163469,706218
2096921,2096921,163442,706203
2096921,2096921,163319,705922
2096921,2096921,163344,705873
2096921,2096921,163380,705749
2096921,2096921,163103,705523
2096921,2096921,162829,705578
2096921,2096921,162796,704054
2096921,2096921,162725,703632
2096921,2096921,162487,703804
2096921,2096921,162571,703617
2096921,2096921,161592,703632
2096921,2096921,161451,701760
2096921,2096921,161535,701516
2096921,2096921,161435,701508
2096921,2096921,161550,701181
2096921,2096921,161160,701195
2096921,2096921,160920,700121
2096921,2096921,161150,699799
2096921,2096921,161002,699439
2096921,2096921,160990,699901
2096921,2096921,160694,699963
2096921,2096921,160443,698545
2096921,2096921,160661,698185
2096921,2096921,160256,698318
2096921,2096921,160132,698498
2096921,2096921,160183,698782
2096921,2096921,160228,698045
2096921,2096921,160073,697568
2096921,2096921,159986,697469
2096921,2096921,160148,697259
2096921,2096921,159534,697696
2096921,2096921,159688,696791
2096921,2096921,159868,696687
2096921,2096921,159848,696750
2096921,2096921,159903,696811
2096921,2096921,159886,696692
2096921,2096921,159591,696315
2096921,2096921,159661,696623
2096921,2096921,159613,696519
2096921,2096921,159512,696409
2096921,2096921,159364,696345
2096921,2096921,159354,696041
2096921,2096921,159524,696219
2096921,2096921,159724,696005
2096921,2096921,159432,696261
2096921,2096921,159624,696378
2096921,2096921,159678,696201
2096921,2096921,159625,696043
2096921,2096921,159421,695800
2096921,2096921,159520,695591
2096921,2096921,159393,695852
2096921,2096921,159471,695977
2096921,2096921,159666,695803
2096921,2096921,159688,696095
2096921,2096921,159873,696108
2096921,2096921,159645,696202
2096921,2096921,159682,696343
2096921,2096921,159463,696304
2096921,2096921,159675,696392
2096921,2096921,159460,695997
2096921,2096921,159423,696186
2096921,2096921,159577,696531
2096921,2096921,159371,696315
2096921,2096921,159778,696522
2096921,2096921,159593,696657
2096921,2096921,159842,696537
2096921,2096921,159785,696764
2096921,2096921,159791,696987
2096921,2096921,159756,696828
2096921,2096921,159810,696749
2096921,2096921,159894,696880
2096921,2096921,159631,697228
2096921,2096921,160089,697262
2096921,2096921,160053,697298
2096921,2096921,160098,696924
2096921,2096921,160103,697198
2096921,2096921,160056,697783
2096921,2096921,160073,697767
2096921,2096921,159985,697598
2096921,2096921,160004,697939
2096921,2096921,160104,697686
2096921,2096921,160498,698215
2096921,2096921,160498,697805
2096921,2096921,160443,698242
2096921,2096921,160445,698087
2096921,2096921,160168,698478
2096921,2096921,160538,698550
2096921,2096921,160602,699074
2096921,2096921,160755,698794
2096921,2096921,160383,698532
2096921,2096921,160451,698732
2096921,2096921,160616,698885
2096921,2096921,160791,699226
2096921,2096921,160729,699209
2096921,2096921,160941,699166
2096921,2096921,160773,699286
2096921,2096921,160912,699739
2096921,2096921,160935,699662
2096921,2096921,160767,699079
2096921,2096921,160948,699270
2096921,2096921,161128,699422
2096921,2096921,161258,699655
2096921,2096921,161236,699613
2096921,2096921,161183,700263
2096921,2096921,161111,700152
2096921,2096921,161125,699948
2096921,2096921,161362,700607
2096921,2096921,161206,700410
2096921,2096921,161105,700294
2096921,2096921,161250,700054
2096921,2096921,161381,700567
2096921,2096921,161101,700511
2096921,2096921,161383,700768
2096921,2096921,161428,701015
2096921,2096921,161436,700968
2096921,2096921,161611,701112
2096921,2096921,161485,701173
2096921,2096921,161612,701488
2096921,2096921,161500,701431
2096921,2096921,161255,701615
2096921,2096921,161362,701276
2096921,2096921,161490,701665
2096921,2096921,161519,701831
2096921,2096921,161573,702186
2096921,2096921,161621,701911
2096921,2096921,161698,702079
2096921,2096921,162110,702554
2096921,2096921,162091,702572
2096921,2096921,161994,702486
2096921,2096921,161857,702592
2096921,2096921,161804,702278
2096921,2096921,162306,702658
2096921,2096921,162026,702662
2096921,2096921,161932,702740
2096921,2096921,161942,702744
2096921,2096921,162145,703017
2096921,2096921,162086,703174
2096921,2096921,162045,703472
2096921,2096921,161967,703209
2096921,2096921,162080,703243
2096921,2096921,162238,703072
2096921,2096921,162046,703378
2096921,2096921,162469,703255
2096921,2096921,162162,703411
2096921,2096921,162373,703618
2096921,2096921,162366,703533
2096921,2096921,162189,703654
2096921,2096921,162326,703665
2096921,2096921,161984,703870
2096921,2096921,162248,703692
2096921,2096921,162199,703597
2096921,2096921,162504,703635
2096921,2096921,162309,703746
2096921,2096921,162506,703894
2096921,2096921,162471,703688
2096921,2096921,162253,703772
2096921,2096921,162546,703936
2096921,2096921,162499,703888
2096921,2096921,162573,703942
2096921,2096921,162564,704112
2096921,2096921,162514,704010
2096921,2096921,162358,704071
2096921,2096921,162386,704178
2096921,2096921,162600,703815
2096921,2096921,162572,703953
2096921,2096921,162302,703953
2096921,2096921,162412,703948
2096921,2096921,162413,703977
2096921,2096921,162410,703830
2096921,2096921,162444,703974
2096921,2096921,162329,703576
2096921,2096921,162292,703806
2096921,2096921,162090,703566
2096921,2096921,162206,703862
2096921,2096921,162245,703765
2096921,2096921,162103,703799
2096921,2096921,162537,703720
2096921,2096921,162330,703647
2096921,2096921,162320,703470
2096921,2096921,162526,703457
2096921,2096921,162254,703774
2096921,2096921,162103,703425
2096921,2096921,161982,703445
2096921,2096921,162288,703692
2096921,2096921,162438,703796
2096921,2096921,162302,703726
2096921,2096921,162384,703740
2096921,2096921,162338,703346
2096921,2096921,162248,703568
2096921,2096921,162064,703609
2096921,2096921,162285,703260
2096921,2096921,162154,703377
2096921,2096921,162367,703245
2096921,2096921,162144,703402
2096921,2096921,162385,703266
2096921,2096921,162480,703380
2096921,2096921,162177,703494
2096921,2096921,162061,703473
2096921,2096921,162198,703277
2096921,2096921,162325,703268
2096921,2096921,162389,703394
2096921,2096921,162563,703607
2096921,2096921,162074,703692
2096921,2096921,162313,703418
2096921,2096921,161960,703421
2096921,2096921,162381,703489
2096921,2096921,162326,703879
2096921,2096921,162020,703642
2096921,2096921,162183,703723
2096921,2096921,162103,703676
2096921,2096921,162241,703686
2096921,2096921,162560,703850
2096921,2096921,162506,704136
2096921,2096921,162172,703676
2096921,2096921,162141,704121
2096921,2096921,162616,703933
2096921,2096921,162770,704119
2096921,2096921,162613,704035
2096921,2096921,162405,703797
2096921,2096921,162579,704171
2096921,2096921,162413,704032
2096921,2096921,162564,704450
2096921,2096921,162490,704608
2096921,2096921,162937,704778
2096921,2096921,162661,704589
2096921,2096921,163111,704576
2096921,2096921,163124,704762
2096921,2096921,162840,704540
2096921,2096921,162801,704587
2096921,2096921,162680,704508
2096921,2096921,162576,704853
2096921,2096921,162924,704996
2096921,2096921,162761,705087
2096921,2096921,162895,704985
2096921,2096921,162752,705259
2096921,2096921,162852,705081
2096921,2096921,162763,704903
2096921,2096921,162686,705207
2096921,2096921,162910,705240
2096921,2096921,163010,705225
2096921,2096921,163274,705338
2096921,2096921,162972,705495
2096921,2096921,163019,705551
2096921,2096921,163213,705340
2096921,2096921,163254,705198
2096921,2096921,163183,705443
2096921,2096921,163243,705893
2096921,2096921,163226,705671
2096921,2096921,163229,705907
2096921,2096921,163051,705649
2096921,2096921,163264,705724
2096921,2096921,163220,705832
2096921,2096921,163080,706114
2096921,2096921,163301,705924
2096921,2096921,163330,706150
2096921,2096921,163366,706106
2096921,2096921,163347,706294
2096921,2096921,163428,706589
2096921,2096921,163374,706275
2096921,2096921,163331,706046
2096921,2096921,163590,706339
2096921,2096921,163249,706775
2096921,2096921,163495,706451
2096921,2096921,163694,706685
2096921,2096921,163357,706417
2096921,2096921,163517,706396
2096921,2096921,163634,706941
2096921,2096921,163598,706944
2096921,2096921,163250,706782
2096921,2096921,163429,706815
2096921,2096921,163822,706893
2096921,2096921,163644,706655
2096921,2096921,163569,707380
2096921,2096921,163699,707156
2096921,2096921,163770,707045
2096921,2096921,163624,706809
2096921,2096921,163600,707213
2096921,2096921,163546,707143
2096921,2096921,163744,706819
2096921,2096921,163753,707118
2096921,2096921,163891,707292
2096921,2096921,163893,707463
2096921,2096921,163785,707558
2096921,2096921,163765,707605
2096921,2096921,163844,707676
2096921,2096921,163666,707775
2096921,2096921,163907,707733
2096921,2096921,163818,707534
2096921,2096921,163908,707675
2096921,2096921,163733,707578
2096921,2096921,163911,707633
2096921,2096921,163846,707912
2096921,2096921,163646,707848
2096921,2096921,163974,707907
2096921,2096921,164063,708021
2096921,2096921,163997,707998
2096921,2096921,164053,707879
2096921,2096921,164138,708067
2096921,2096921,164066,707940
2096921,2096921,163970,707970
2096921,2096921,163944,708177
2096921,2096921,164103,708270
2096921,2096921,164068,708261
2096921,2096921,164204,708070
2096921,2096921,164180,708353
2096921,2096921,164331,708304
2096921,2096921,164461,708184
2096921,2096921,164190,708373
2096921,2096921,164068,708407
2096921,2096921,164435,708340
2096921,2096921,164069,708563
2096921,2096921,163891,708591
2096921,2096921,164457,708506
2096921,2096921,164364,708490
2096921,2096921,164247,708705
2096921,2096921,164427,708668
2096921,2096921,164510,708909
2096921,2096921,164342,708413
2096921,2096921,164621,708914
2096921,2096921,164249,708609
2096921,2096921,164365,708862
2096921,2096921,164382,708554
2096921,2096921,164543,708623
2096921,2096921,164292,708912
2096921,2096921,164441,708852
2096921,2096921,164390,708855
2096921,2096921,164657,708969
2096921,2096921,164492,709279
2096921,2096921,164389,708841
2096921,2096921,164562,709174
2096921,2096921,164700,709020
2096921,2096921,164298,709011
2096921,2096921,164343,708999
2096921,2096921,164611,709173
2096921,2096921,164591,709103
2096921,2096921,164480,709354
2096921,2096921,164351,709674
2096921,2096921,164757,709499
2096921,2096921,164393,709233
2096921,2096921,164662,709289
2096921,2096921,164408,709692
2096921,2096921,164458,709712
2096921,2096921,164312,709365
2096921,2096921,164684,709742
2096921,2096921,164548,709433
2096921,2096921,164489,709532
2096921,2096921,164690,709814
2096921,2096921,164852,709562
2096921,2096921,164551,709568
2096921,2096921,164698,709530
2096921,2096921,164848,709734
2096921,2096921,164744,709576
2096921,2096921,164639,709885
2096921,2096921,164730,709757
2096921,2096921,164780,709947
2096921,2096921,165034,709703
2096921,2096921,164899,709904
2096921,2096921,164693,709748
2096921,2096921,164385,709821
2096921,2096921,164933,709851
2096921,2096921,164689,709872
2096921,2096921,164660,709692
2096921,2096921,164764,709896
2096921,2096921,164813,709965
2096921,2096921,164903,710102
2096921,2096921,164885,710063
2096921,2096921,164935,710253
2096921,2096921,164769,709943
2096921,2096921,164742,709939
2096921,2096921,164595,709814
2096921,2096921,164794,710200
2096921,2096921,164907,709921
2096921,2096921,164874,710287
2096921,2096921,165098,710247
2096921,2096921,164913,710196
2096921,2096921,164647,710370
2096921,2096921,164803,710340
2096921,2096921,164787,710387
2096921,2096921,164747,710402
2096921,2096921,164701,710205
2096921,2096921,165076,710348
2096921,2096921,164712,710232
2096921,2096921,164553,710375
2096921,2096921,164739,710302
2096921,2096921,164802,710091
2096921,2096921,164776,710277
2096921,2096921,164861,710493
2096921,2096921,164777,710440
2096921,2096921,164924,710551
2096921,2096921,164818,710493
2096921,2096921,164674,710448
2096921,2096921,164828,710472
2096921,2096921,164947,710360
2096921,2096921,164888,710477
2096921,2096921,164629,710502
2096921,2096921,164937,710733
2096921,2096921,165448,710512
2096921,2096921,165026,710235
2096921,2096921,164999,710288
2096921,2096921,164728,710348
2096921,2096921,164781,710363
2096921,2096921,164904,710285
2096921,2096921,165003,710654
2096921,2096921,165021,710724
2096921,2096921,164878,710425
2096921,2096921,165136,710316
2096921,2096921,165067,710309
2096921,2096921,165086,710388
2096921,2096921,164967,710358
2096921,2096921,165169,710439
2096921,2096921,165188,710334
2096921,2096921,165067,710696
2096921,2096921,164880,710865
2096921,2096921,164997,710395
2096921,2096921,165258,710439
2096921,2096921,164838,710694
2096921,2096921,165265,710568
2096921,2096921,165281,710576
2096921,2096921,164886,710516
2096921,2096921,165124,710530
2096921,2096921,165098,710472
2096921,2096921,165101,710692
2096921,2096921,165031,710544
2096921,2096921,165390,710699
2096921,2096921,165295,710742
2096921,2096921,165429,710906
2096921,2096921,165227,710851
2096921,2096921,165104,710758
2096921,2096921,165386,710581
2096921,2096921,165022,710565
2096921,2096921,165054,710479
2096921,2096921,165090,710564
2096921,2096921,165252,710574
2096921,2096921,165311,710603
2096921,2096921,165017,710580
2096921,2096921,165228,710650
2096921,2096921,165247,710492
2096921,2096921,165120,710428
2096921,2096921,165087,710662
2096921,2096921,165288,710386
2096921,2096921,165102,710646
2096921,2096921,165212,710527
2096921,2096921,164847,710716
2096921,2096921,164898,710693
2096921,2096921,165227,710467
2096921,2096921,165158,710834
2096921,2096921,165064,710721
2096921,2096921,164817,710448
2096921,2096921,164860,710579
2096921,2096921,164872,710506
2096921,2096921,165124,710602
2096921,2096921,165214,710454
2096921,2096921,165062,710641
2096921,2096921,165083,710569
2096921,2096921,164943,710592
2096921,2096921,165366,710659
2096921,2096921,165327,710675
2096921,2096921,165373,710768
2096921,2096921,165026,710533
2096921,2096921,165154,710284
2096921,2096921,165049,710322
2096921,2096921,164898,710260
2096921,2096921,164951,710640
2096921,2096921,164912,710426
2096921,2096921,164977,710595
2096921,2096921,165118,710553
2096921,2096921,165097,710435
2096921,2096921,164900,710507
2096921,2096921,164860,710503
2096921,2096921,164936,710466
2096921,2096921,164912,710603
2096921,2096921,165041,710518
2096921,2096921,165179,710612
2096921,2096921,165064,710534
2096921,2096921,165115,710563
2096921,2096921,164960,710023
2096921,2096921,164719,710561
2096921,2096921,164927,710422
2096921,2096921,164896,710263
2096921,2096921,164963,710315
2096921,2096921,165028,710080
2096921,2096921,164568,709677
2096921,2096921,165008,709716
2096921,2096921,164633,709688
2096921,2096921,164853,709964
2096921,2096921,164648,709796
2096921,2096921,164725,709378
2096921,2096921,164829,709515
2096921,2096921,164612,709402
2096921,2096921,164568,709368
2096921,2096921,164547,709437
2096921,2096921,164435,709066
2096921,2096921,164368,708684
2096921,2096921,164462,708649
2096921,2096921,164326,708575
2096921,2096921,164445,708697
2096921,2096921,164294,708031
2096921,2096921,164258,708118
2096921,2096921,164207,708083
2096921,2096921,163972,708146
2096921,2096921,163657,707842
2096921,2096921,163536,706985
2096921,2096921,163625,707019
2096921,2096921,163770,706911
2096921,2096921,163846,707097
2096921,2096921,163318,706973
2096921,2096921,163106,705397
2096921,2096921,162770,705218
2096921,2096921,162812,704876
2096921,2096921,162779,705216
2096921,2096921,162194,704854
2096921,2096921,161944,703010
2096921,2096921,162016,702449
2096921,2096921,161974,702505
2096921,2096921,161925,702460
2096921,2096921,161452,702460
2096921,2096921,161466,700831
2096921,2096921,161477,700657
2096921,2096921,161184,700711
2096921,2096921,161200,700395
2096921,2096921,160725,700642
2096921,2096921,160614,699498
2096921,2096921,160541,699315
2096921,2096921,160671,699268
2096921,2096921,160338,699176
2096921,2096921,160295,699350
2096921,2096921,160224,698604
2096921,2096921,160193,698135
2096921,2096921,160431,698109
2096921,2096921,160387,697800
2096921,2096921,159681,697914
2096921,2096921,159693,697313
2096921,2096921,159795,697100
2096921,2096921,159983,697188
2096921,2096921,160081,697341
2096921,2096921,159620,697405
2096921,2096921,159712,696850
2096921,2096921,159401,696728
2096921,2096921,159236,696505
2096921,2096921,159511,696512
2096921,2096921,159636,696937
2096921,2096921,159659,696578
2096921,2096921,159802,696595
2096921,2096921,159780,696468
2096921,2096921,159658,696628
2096921,2096921,159462,696571
2096921,2096921,159900,696259
2096921,2096921,159295,696163
2096921,2096921,159446,696129
2096921,2096921,159122,696120
2096921,2096921,159626,696157
2096921,2096921,159540,696099
2096921,2096921,159483,695967
2096921,2096921,159621,696159
2096921,2096921,159440,696180
2096921,2096921,159623,696078
2096921,2096921,159414,696135
2096921,2096921,159341,695991
2096921,2096921,159493,696382
2096921,2096921,159722,696355
2096921,2096921,159513,696438
2096921,2096921,159571,696123
2096921,2096921,159696,696176
2096921,2096921,159569,696056
2096921,2096921,159314,696144
2096921,2096921,159587,696214
2096921,2096921,159562,696271
2096921,2096921,159678,696379
2096921,2096921,159656,696092
2096921,2096921,159779,696226
2096921,2096921,159718,696192
2096921,2096921,159586,696431
2096921,2096921,159557,696521
2096921,2096921,159659,696385
2096921,2096921,159836,696406
2096921,2096921,160180,696465
2096921,2096921,160034,696709
2096921,2096921,160100,696810
2096921,2096921,159534,696931
2096921,2096921,159973,697110
2096921,2096921,160100,696921
2096921,2096921,159979,697061
2096921,2096921,160024,697266
2096921,2096921,159835,697250
2096921,2096921,159952,696954
2096921,2096921,160017,697276
2096921,2096921,160263,697712
2096921,2096921,160068,697297
2096921,2096921,160533,697429
2096921,2096921,160370,697471
2096921,2096921,160085,697533
2096921,2096921,160298,697776
2096921,2096921,160365,697911
2096921,2096921,160467,697959
2096921,2096921,160560,697754
2096921,2096921,160541,697732
2096921,2096921,160577,698441
2096921,2096921,160328,698445
2096921,2096921,160637,698205
2096921,2096921,160313,698344
2096921,2096921,160422,698191
2096921,2096921,160379,698548
2096921,2096921,160595,698557
2096921,2096921,160462,698639
2096921,2096921,160553,698618
2096921,2096921,160707,698437
2096921,2096921,161083,698697
2096921,2096921,160694,698937
2096921,2096921,160739,699021
2096921,2096921,160694,698916
2096921,2096921,160601,698933
2096921,2096921,160754,699051
2096921,2096921,160701,699174
2096921,2096921,160862,699316
2096921,2096921,160762,699639
2096921,2096921,160738,699273
2096921,2096921,160920,699605
2096921,2096921,161042,699429
2096921,2096921,161141,699346
2096921,2096921,161172,699175
2096921,2096921,161211,699429
2096921,2096921,161276,699600
2096921,2096921,161126,699883
2096921,2096921,161139,700049
2096921,2096921,161115,700119
2096921,2096921,161438,700176
2096921,2096921,161238,700419
2096921,2096921,161334,700319
2096921,2096921,161230,700512
2096921,2096921,161415,700237
2096921,2096921,161356,700250
2096921,2096921,161553,700477
2096921,2096921,161297,700488
2096921,2096921,161566,700649
2096921,2096921,161551,700509
2096921,2096921,161411,700497
2096921,2096921,161605,700625
2096921,2096921,161525,700801
2096921,2096921,161709,700768
2096921,2096921,161498,700899
2096921,2096921,161633,700831
2096921,2096921,161528,700694
2096921,2096921,161774,701136
2096921,2096921,161642,701020
2096921,2096921,161817,701077
2096921,2096921,161730,700947
2096921,2096921,161882,701060
2096921,2096921,161763,701057
2096921,2096921,161263,701055
2096921,2096921,161585,701347
2096921,2096921,161489,701228
2096921,2096921,161651,700930
2096921,2096921,161631,700882
2096921,2096921,161625,701293
2096921,2096921,161764,701121
2096921,2096921,161798,700954
2096921,2096921,161584,700901
2096921,2096921,161706,700855
2096921,2096921,161929,701152
2096921,2096921,161903,700750
2096921,2096921,161944,700967
2096921,2096921,161423,700820
2096921,2096921,161673,700874
2096921,2096921,162069,700967
2096921,2096921,161730,700703
2096921,2096921,161450,700948
2096921,2096921,161544,700934
2096921,2096921,161578,700887
2096921,2096921,161774,700869
2096921,2096921,161526,700613
2096921,2096921,161515,700641
2096921,2096921,161583,700409
2096921,2096921,161631,700350
2096921,2096921,161440,700557
2096921,2096921,161605,700539
2096921,2096921,161541,700349
2096921,2096921,161657,700202
2096921,2096921,161407,700416
2096921,2096921,161392,700139
2096921,2096921,161429,700215
2096921,2096921,161301,699917
2096921,2096921,161327,700033
2096921,2096921,161343,700045
2096921,2096921,161396,700217
2096921,2096921,161380,699951
2096921,2096921,161375,699994
2096921,2096921,161479,699881
2096921,2096921,161300,699781
2096921,2096921,161218,699449
2096921,2096921,161364,699797
2096921,2096921,161268,699599
2096921,2096921,161381,699734
2096921,2096921,161420,699849
2096921,2096921,161328,699845
2096921,2096921,161372,699827
2096921,2096921,161161,699541
2096921,2096921,161560,699610
2096921,2096921,161515,699471
2096921,2096921,161198,699621
2096921,2096921,161212,699611
2096921,2096921,161134,699409
2096921,2096921,161271,699468
2096921,2096921,161482,699448
2096921,2096921,161354,699577
2096921,2096921,161180,699548
2096921,2096921,161281,699736
2096921,2096921,161289,699798
2096921,2096921,161216,699884
2096921,2096921,161372,699443
2096921,2096921,161190,699633
2096921,2096921,161109,699453
2096921,2096921,161262,699325
2096921,2096921,161119,699619
2096921,2096921,161279,699550
2096921,2096921,161020,699485
2096921,2096921,161414,699692
2096921,2096921,161338,700085
2096921,2096921,161338,700070
2096921,2096921,161157,699869
2096921,2096921,161397,700106
2096921,2096921,161162,699706
2096921,2096921,161497,700229
2096921,2096921,161645,700009
2096921,2096921,161321,700270
2096921,2096921,161267,700140
2096921,2096921,161349,700276
2096921,2096921,161513,700496
2096921,2096921,161362,700587
2096921,2096921,161548,700311
2096921,2096921,161255,700589
2096921,2096921,161503,700383
2096921,2096921,161435,700157
2096921,2096921,161705,700300
2096921,2096921,162034,700570
2096921,2096921,161747,700521
2096921,2096921,161406,700470
2096921,2096921,161742,700524
2096921,2096921,161677,700808
2096921,2096921,161613,700638
2096921,2096921,161507,700719
2096921,2096921,161544,700838
2096921,2096921,161502,700634
2096921,2096921,161742,700978
2096921,2096921,161674,700682
2096921,2096921,161849,700871
2096921,2096921,162059,700938
2096921,2096921,161933,700902
2096921,2096921,161884,700794
2096921,2096921,161568,701119
2096921,2096921,161569,701049
2096921,2096921,161619,700641
2096921,2096921,161998,700641
2096921,2096921,161754,700873
2096921,2096921,161857,701260
2096921,2096921,161825,701116
2096921,2096921,162152,701367
2096921,2096921,162086,701384
2096921,2096921,162001,701420
2096921,2096921,162102,701268
2096921,2096921,162090,701068
2096921,2096921,162163,701460
2096921,2096921,162062,701597
2096921,2096921,162132,701619
2096921,2096921,162319,701429
2096921,2096921,162244,701687
2096921,2096921,162488,701551
2096921,2096921,162383,701667
2096921,2096921,162332,701620
2096921,2096921,162103,701459
2096921,2096921,162237,701528
2096921,2096921,162025,701647
2096921,2096921,162224,701904
2096921,2096921,162329,701495
2096921,2096921,162213,701763
2096921,2096921,162496,701619
2096921,2096921,162447,701840
2096921,2096921,162594,701961
2096921,2096921,162313,701853
2096921,2096921,162532,701743
2096921,2096921,162325,701659
2096921,2096921,162605,702171
2096921,2096921,162569,702087
2096921,2096921,162244,702066
2096921,2096921,162683,702029
2096921,2096921,162521,702012
2096921,2096921,162718,702290
2096921,2096921,162817,702161
2096921,2096921,162692,702061
2096921,2096921,162782,701840
2096921,2096921,162732,702110
2096921,2096921,162803,702231
2096921,2096921,162760,702333
2096921,2096921,162647,702521
2096921,2096921,162616,702675
2096921,2096921,162908,702545
2096921,2096921,162803,702392
2096921,2096921,162424,702493
2096921,2096921,162788,702533
2096921,2096921,162810,702396
2096921,2096921,163029,702383
2096921,2096921,162731,702281
2096921,2096921,162698,702256
2096921,2096921,162747,702671
2096921,2096921,162743,702574
2096921,2096921,162885,702459
2096921,2096921,162754,702562
2096921,2096921,162929,702690
2096921,2096921,162684,702594
2096921,2096921,162336,702646
2096921,2096921,162634,702599
2096921,2096921,162600,702629
2096921,2096921,162805,702688
2096921,2096921,163146,702582
2096921,2096921,162749,702613
2096921,2096921,162885,703002
2096921,2096921,162730,702903
2096921,2096921,162831,702863
2096921,2096921,162827,702685
2096921,2096921,162757,702433
2096921,2096921,162884,702670
2096921,2096921,163121,702747
2096921,2096921,163064,703024
2096921,2096921,162874,702630
2096921,2096921,163166,703123
2096921,2096921,162914,703124
2096921,2096921,162959,703057
2096921,2096921,162927,702949
2096921,2096921,163090,702932
2096921,2096921,162807,702728
2096921,2096921,162999,702855
2096921,2096921,163052,703014
2096921,2096921,163281,702994
2096921,2096921,163581,702958
2096921,2096921,163404,702904
2096921,2096921,163276,702984
2096921,2096921,163272,703123
2096921,2096921,163023,703208
2096921,2096921,163438,703045
2096921,2096921,162931,703020
2096921,2096921,163050,702917
2096921,2096921,163170,703186
2096921,2096921,163111,703088
2096921,2096921,163037,703022
2096921,2096921,162996,703147
2096921,2096921,163279,703085
2096921,2096921,163117,703469
2096921,2096921,163244,703405
2096921,2096921,163107,703444
2096921,2096921,162866,703255
2096921,2096921,163074,702972
2096921,2096921,163085,702941
2096921,2096921,162975,702932
2096921,2096921,163011,703218
2096921,2096921,163157,703431
2096921,2096921,163395,703297
2096921,2096921,163377,703392
2096921,2096921,163330,703416
2096921,2096921,163354,703750
2096921,2096921,163032,703391
2096921,2096921,163070,703521
2096921,2096921,163053,703448
2096921,2096921,163123,703388
2096921,2096921,163385,703269
2096921,2096921,163044,703172
2096921,2096921,163234,703419
2096921,2096921,163018,703572
2096921,2096921,163059,703441
2096921,2096921,163189,703165
2096921,2096921,163168,703716
2096921,2096921,163034,703479
2096921,2096921,163151,703286
2096921,2096921,163146,703341
2096921,2096921,163217,703543
2096921,2096921,162976,703459
2096921,2096921,163189,703457
2096921,2096921,163234,703273
2096921,2096921,163488,703377
2096921,2096921,163248,703467
2096921,2096921,163263,703370
2096921,2096921,163123,703506
2096921,2096921,163090,703326
2096921,2096921,163030,703536
2096921,2096921,163379,703879
2096921,2096921,163207,703566
2096921,2096921,163112,703704
2096921,2096921,163168,703679
2096921,2096921,163278,703991
2096921,2096921,163216,703783
2096921,2096921,163122,703902
2096921,2096921,163166,703842
2096921,2096921,163090,703773
2096921,2096921,163160,703750
2096921,2096921,163228,703496
2096921,2096921,163292,703504
2096921,2096921,163244,703838
2096921,2096921,163298,703482
2096921,2096921,163447,703499
2096921,2096921,163215,703839
2096921,2096921,163219,703501
2096921,2096921,163055,703511
2096921,2096921,163212,703770
2096921,2096921,163288,703816
2096921,2096921,163591,703695
2096921,2096921,163395,703892
2096921,2096921,163409,703993
2096921,2096921,163216,703891
2096921,2096921,163221,703927
2096921,2096921,163200,703681
2096921,2096921,163269,703759
2096921,2096921,163146,703658
2096921,2096921,163517,703681
2096921,2096921,163316,703627
2096921,2096921,163348,703651
2096921,2096921,163209,703826
2096921,2096921,163370,703619
2096921,2096921,163239,703559
2096921,2096921,163237,703889
2096921,2096921,163172,704002
2096921,2096921,163183,703663
2096921,2096921,163166,703422
2096921,2096921,162971,703967
2096921,2096921,163213,703790
2096921,2096921,163412,703781
2096921,2096921,163584,703655
2096921,2096921,163500,703806
2096921,2096921,163744,704027
2096921,2096921,163650,703830
2096921,2096921,163223,703841
2096921,2096921,163494,703816
2096921,2096921,163592,704102
2096921,2096921,163286,704025
2096921,2096921,163295,703787
2096921,2096921,163302,703740
2096921,2096921,163523,703665
2096921,2096921,163303,703770
2096921,2096921,163712,703834
2096921,2096921,163606,703859
2096921,2096921,163489,703742
2096921,2096921,163373,704018
2096921,2096921,163590,703821
2096921,2096921,163271,703644
2096921,2096921,163438,703725
2096921,2096921,163209,703646
2096921,2096921,163402,703837
2096921,2096921,163450,703613
2096921,2096921,163357,703591
2096921,2096921,163382,703941
2096921,2096921,163493,703721
2096921,2096921,163581,703960
2096921,2096921,163512,703631
2096921,2096921,163231,703725
2096921,2096921,163426,703691
2096921,2096921,163421,703825
2096921,2096921,163635,703772
2096921,2096921,163430,703823
2096921,2096921,163599,703834
2096921,2096921,163493,703829
2096921,2096921,163481,703940
2096921,2096921,163056,703609
2096921,2096921,163073,703522
2096921,2096921,163229,703454
2096921,2096921,163314,703534
2096921,2096921,163458,703697
2096921,2096921,163463,703625
2096921,2096921,163310,703781
2096921,2096921,163334,703531
2096921,2096921,163444,703705
2096921,2096921,163106,703549
2096921,2096921,163210,703327
2096921,2096921,163307,703725
2096921,2096921,163132,703790
2096921,2096921,163035,703796
2096921,2096921,163163,703918
2096921,2096921,163162,703667
2096921,2096921,163382,703885
2096921,2096921,163456,703800
2096921,2096921,163498,703643
2096921,2096921,163476,703809
2096921,2096921,163325,703766
2096921,2096921,163217,703524
2096921,2096921,163288,703814
2096921,2096921,163324,703829
2096921,2096921,163305,703461
2096921,2096921,163230,703311
2096921,2096921,163276,703290
2096921,2096921,163088,703341
2096921,2096921,163130,703343
2096921,2096921,163241,702915
2096921,2096921,163018,702963
2096921,2096921,163101,703236
2096921,2096921,162596,703068
2096921,2096921,162597,702322
2096921,2096921,162546,702420
2096921,2096921,162852,702242
2096921,2096921,162679,702238
2096921,2096921,162732,702851
2096921,2096921,162588,701587
2096921,2096921,162368,701730
2096921,2096921,162414,701259
2096921,2096921,162281,701697
2096921,2096921,162116,701594
2096921,2096921,161704,700856
2096921,2096921,162238,700742
2096921,2096921,162170,700683
2096921,2096921,162033,700759
2096921,2096921,161762,700856
2096921,2096921,161144,699542
2096921,2096921,161651,698726
2096921,2096921,161371,698625
2096921,2096921,161392,698621
2096921,2096921,160663,698635
2096921,2096921,160616,696815
2096921,2096921,160406,696560
2096921,2096921,160646,696436
2096921,2096921,160496,696280
2096921,2096921,159769,696324
2096921,2096921,159849,695079
2096921,2096921,159762,694640
2096921,2096921,159830,694373
2096921,2096921,159770,694416
2096921,2096921,159418,694235
2096921,2096921,159340,693273
2096921,2096921,159286,693138
2096921,2096921,159364,693118
2096921,2096921,159183,693160
2096921,2096921,158729,693536
2096921,2096921,158821,692334
2096921,2096921,158820,692219
2096921,2096921,159041,692257
2096921,2096921,158627,692203
2096921,2096921,158564,691977
2096921,2096921,158382,691545
2096921,2096921,158497,691871
2096921,2096921,158588,691642
2096921,2096921,158597,691457
2096921,2096921,158396,691281
2096921,2096921,158171,690860
2096921,2096921,158343,690672
2096921,2096921,158190,690566
2096921,2096921,158358,690761
2096921,2096921,158131,690733
2096921,2096921,158078,690625
2096921,2096921,158093,690658
2096921,2096921,158080,690466
2096921,2096921,158336,690126
2096921,2096921,158124,690702
2096921,2096921,158261,690607
2096921,2096921,158200,690397
2096921,2096921,158161,690231
2096921,2096921,157995,690644
2096921,2096921,157995,690553
2096921,2096921,158143,690424
2096921,2096921,158192,690619
2096921,2096921,158239,690647
2096921,2096921,158161,690458
2096921,2096921,158102,690551
2096921,2096921,158196,691002
2096921,2096921,158276,690840
2096921,2096921,158131,690509
2096921,2096921,158323,690650
2096921,2096921,158222,690734
2096921,2096921,158436,690766
2096921,2096921,158302,690559
2096921,2096921,157992,690521
2096921,2096921,158170,690810
2096921,2096921,158128,690738
2096921,2096921,158303,690719
2096921,2096921,158421,690988
2096921,2096921,158271,690751
2096921,2096921,158176,690813
2096921,2096921,158245,690783
2096921,2096921,158591,691408
2096921,2096921,158392,691568
2096921,2096921,158450,691071
2096921,2096921,158835,691377
2096921,2096921,158806,691433
2096921,2096921,158408,691655
2096921,2096921,158529,691714
2096921,2096921,158763,691674
2096921,2096921,158691,691634
2096921,2096921,158753,691834
2096921,2096921,158990,691953
2096921,2096921,158971,691737
2096921,2096921,158572,692256
2096921,2096921,158734,692164
2096921,2096921,158605,692290
2096921,2096921,159224,692503
2096921,2096921,159088,692687
2096921,2096921,159027,692694
2096921,2096921,159041,692469
2096921,2096921,158903,692285
2096921,2096921,159053,692845
2096921,2096921,158945,692848
2096921,2096921,158868,692936
2096921,2096921,158881,693257
2096921,2096921,159540,693220
2096921,2096921,159301,693433
2096921,2096921,159320,693428
2096921,2096921,158807,693186
2096921,2096921,158876,693369
2096921,2096921,159322,693167
2096921,2096921,159427,693658
2096921,2096921,159385,693804
2096921,2096921,159363,693694
2096921,2096921,159712,693904
2096921,2096921,159586,693592
2096921,2096921,159803,693987
2096921,2096921,159541,694042
2096921,2096921,159223,694106
2096921,2096921,159529,694182
2096921,2096921,159591,694419
2096921,2096921,159728,694467
2096921,2096921,159964,694619
2096921,2096921,159938,694859
2096921,2096921,159764,694457
2096921,2096921,159770,694483
2096921,2096921,160054,694598
2096921,2096921,160117,694999
2096921,2096921,160142,694785
2096921,2096921,159921,694905
2096921,2096921,160100,695144
2096921,2096921,159890,695577
2096921,2096921,159912,695496
2096921,2096921,160209,695509
2096921,2096921,160396,695514
2096921,2096921,160357,695716
2096921,2096921,160507,695845
2096921,2096921,160279,695550
2096921,2096921,160064,695837
2096921,2096921,160487,695698
2096921,2096921,160146,695902
2096921,2096921,160439,695938
2096921,2096921,160415,695996
2096921,2096921,160607,696256
2096921,2096921,160334,696537
2096921,2096921,160596,696498
2096921,2096921,160558,696518
2096921,2096921,160704,696601
2096921,2096921,160718,696312
2096921,2096921,160487,696427
2096921,2096921,160565,696235
2096921,2096921,160643,696542
2096921,2096921,160654,696931
2096921,2096921,160567,696954
2096921,2096921,160587,696908
2096921,2096921,160742,697012
2096921,2096921,160611,697024
2096921,2096921,160730,696701
2096921,2096921,160790,696877
2096921,2096921,160912,696889
2096921,2096921,160936,696748
2096921,2096921,160651,696806
2096921,2096921,160743,696791
2096921,2096921,160750,697133
2096921,2096921,160925,697127
2096921,2096921,160849,697426
2096921,2096921,160855,697106
2096921,2096921,160658,697046
2096921,2096921,160870,697367
2096921,2096921,161104,696911
2096921,2096921,160781,697298
2096921,2096921,160639,697149
2096921,2096921,160719,697021
2096921,2096921,160934,697086
2096921,2096921,160598,697162
2096921,2096921,160718,697173
2096921,2096921,160749,696976
2096921,2096921,160683,696912
2096921,2096921,160866,696768
2096921,2096921,160889,696802
2096921,2096921,160827,696818
2096921,2096921,160707,696884
2096921,2096921,160950,697095
2096921,2096921,160978,696861
2096921,2096921,160814,696690
2096921,2096921,160529,696890
2096921,2096921,160564,696737
2096921,2096921,160769,696719
2096921,2096921,160880,696822
2096921,2096921,160844,696680
2096921,2096921,160634,696671
2096921,2096921,160882,696568
2096921,2096921,160527,696908
2096921,2096921,160733,696847
2096921,2096921,160605,696833
2096921,2096921,160712,696793
2096921,2096921,160412,696418
2096921,2096921,160598,696678
2096921,2096921,160688,696765
2096921,2096921,160663,696459
2096921,2096921,160837,696598
2096921,2096921,160815,696487
2096921,2096921,160673,696570
2096921,2096921,160745,696586
2096921,2096921,160776,696505
2096921,2096921,161026,696728
2096921,2096921,160632,696474
2096921,2096921,160810,696545
2096921,2096921,160633,696893
2096921,2096921,160465,696697
2096921,2096921,160764,696611
2096921,2096921,160715,696445
2096921,2096921,160601,696615
2096921,2096921,160799,696787
2096921,2096921,160603,697029
2096921,2096921,160720,696714
2096921,2096921,160768,696883
2096921,2096921,160698,697099
2096921,2096921,160885,696873
2096921,2096921,160609,696830
2096921,2096921,160767,696681
2096921,2096921,160807,696698
2096921,2096921,160660,697235
2096921,2096921,160808,697008
2096921,2096921,160790,697210
2096921,2096921,160908,697298
2096921,2096921,161166,697512
2096921,2096921,161018,697494
2096921,2096921,161020,697400
2096921,2096921,160789,697395
2096921,2096921,160901,697362
2096921,2096921,161176,697736
2096921,2096921,160924,697716
2096921,2096921,161037,697781
2096921,2096921,161142,697524
2096921,2096921,161041,697771
2096921,2096921,161227,698044
2096921,2096921,161087,697968
2096921,2096921,161005,697971
2096921,2096921,160982,698024
2096921,2096921,161185,698210
2096921,2096921,161243,698305
2096921,2096921,161200,698085
2096921,2096921,161432,698224
2096921,2096921,161295,698540
2096921,2096921,161250,698715
2096921,2096921,161422,698846
2096921,2096921,161156,698850
2096921,2096921,161302,698800
2096921,2096921,161408,698895
2096921,2096921,161189,698561
2096921,2096921,161414,698931
2096921,2096921,161522,699076
2096921,2096921,161694,698916
2096921,2096921,161691,698903
2096921,2096921,161448,698818
2096921,2096921,161453,699230
2096921,2096921,161469,698996
2096921,2096921,161564,699348
2096921,2096921,161394,699118
2096921,2096921,161386,699439
2096921,2096921,161693,699387
2096921,2096921,161777,699552
2096921,2096921,161716,699873
2096921,2096921,161637,699662
2096921,2096921,161845,699492
2096921,2096921,161886,700016
2096921,2096921,161840,700011
2096921,2096921,161787,699743
2096921,2096921,162039,699363
2096921,2096921,161895,699755
2096921,2096921,161732,700116
2096921,2096921,162000,700427
2096921,2096921,161780,700268
2096921,2096921,161818,700311
2096921,2096921,162049,700643
2096921,2096921,162084,700481
2096921,2096921,161871,700591
2096921,2096921,161930,700287
2096921,2096921,162045,700304
2096921,2096921,162071,700596
2096921,2096921,162325,700834
2096921,2096921,162136,700761
2096921,2096921,162086,700940
2096921,2096921,162004,701036
2096921,2096921,162421,701055
2096921,2096921,162047,701052
2096921,2096921,162048,701227
2096921,2096921,162072,701187
2096921,2096921,162175,700899
2096921,2096921,162296,701069
2096921,2096921,162307,701311
2096921,2096921,162237,701258
2096921,2096921,162401,701366
2096921,2096921,162327,701436
2096921,2096921,162525,701457
2096921,2096921,162430,701467
2096921,2096921,162535,701613
2096921,2096921,162385,701848
2096921,2096921,162518,701681
2096921,2096921,162600,701639
2096921,2096921,162498,701927
2096921,2096921,162774,701816
2096921,2096921,162719,701990
2096921,2096921,162740,702088
2096921,2096921,162871,701824
2096921,2096921,162830,702082
2096921,2096921,162354,702203
2096921,2096921,162639,701972
2096921,2096921,162552,701948
2096921,2096921,162405,702143
2096921,2096921,162691,702239
2096921,2096921,162627,702411
2096921,2096921,162591,702440
2096921,2096921,162853,702350
2096921,2096921,162922,702856
2096921,2096921,163186,702877
2096921,2096921,163063,702729
2096921,2096921,162863,702709
2096921,2096921,162835,702680
2096921,2096921,163061,702595
2096921,2096921,162789,702684
2096921,2096921,162987,702745
2096921,2096921,162996,702527
2096921,2096921,162955,703034
2096921,2096921,163002,702987
2096921,2096921,162931,703134
2096921,2096921,162673,703140
2096921,2096921,162845,702831
2096921,2096921,163029,702993
2096921,2096921,163174,703133
2096921,2096921,163154,703036
2096921,2096921,163084,703326
2096921,2096921,163294,703379
2096921,2096921,163276,703381
2096921,2096921,163123,703354
2096921,2096921,163071,703505
2096921,2096921,162944,703448
2096921,2096921,162955,703472
2096921,2096921,163100,703787
2096921,2096921,163341,703769
2096921,2096921,163309,703959
2096921,2096921,162943,704069
2096921,2096921,163255,703776
2096921,2096921,162888,703873
2096921,2096921,163407,703968
2096921,2096921,163585,704148
2096921,2096921,163475,704045
2096921,2096921,163226,703932
2096921,2096921,163320,704162
2096921,2096921,163227,704227
2096921,2096921,163452,704281
2096921,2096921,163665,704306
2096921,2096921,163506,704212
2096921,2096921,163283,704214
2096921,2096921,163469,704095
2096921,2096921,163590,704318
2096921,2096921,163759,704397
2096921,2096921,163613,704430
2096921,2096921,163398,704598
2096921,2096921,163378,704597
2096921,2096921,163664,704654
2096921,2096921,163596,704494
2096921,2096921,163435,704648
2096921,2096921,163431,704600
2096921,2096921,163804,704554
2096921,2096921,163467,704729
2096921,2096921,163420,704741
2096921,2096921,163347,705003
2096921,2096921,163692,705024
2096921,2096921,163758,705016
2096921,2096921,163484,705044
2096921,2096921,163685,705194
2096921,2096921,163656,705022
2096921,2096921,163792,705081
2096921,2096921,163530,704757
2096921,2096921,163746,705082
2096921,2096921,163562,705112
2096921,2096921,163668,705464
2096921,2096921,163707,705336
2096921,2096921,163569,705024
2096921,2096921,163484,705557
2096921,2096921,163653,705411
2096921,2096921,164034,705414
2096921,2096921,164073,705492
2096921,2096921,163965,705472
2096921,2096921,164006,705609
2096921,2096921,163655,705803
2096921,2096921,163648,705650
2096921,2096921,163775,705748
2096921,2096921,163728,705517
2096921,2096921,163507,705801
2096921,2096921,163765,705731
2096921,2096921,163782,705565
2096921,2096921,163621,706149
2096921,2096921,163714,706090
2096921,2096921,163661,705940
2096921,2096921,163486,705822
2096921,2096921,163865,705647
2096921,2096921,163904,705697
2096921,2096921,163847,706088
2096921,2096921,163878,706399
2096921,2096921,164113,706163
2096921,2096921,164022,706412
2096921,2096921,164079,706123
2096921,2096921,163717,706172
2096921,2096921,164032,706088
2096921,2096921,163859,706115
2096921,2096921,163904,706223
2096921,2096921,163949,706156
2096921,2096921,163904,706319
2096921,2096921,163872,706282
2096921,2096921,163900,706493
2096921,2096921,164135,706668
2096921,2096921,163962,706575
2096921,2096921,164050,706325
2096921,2096921,164196,706556
2096921,2096921,164266,706401
2096921,2096921,164318,706662
2096921,2096921,164371,706628
2096921,2096921,164407,706767
2096921,2096921,163998,706672
2096921,2096921,164353,706473
2096921,2096921,164024,706751
2096921,2096921,164353,706681
2096921,2096921,164328,706706
2096921,2096921,164241,707031
2096921,2096921,164218,706663
2096921,2096921,164393,706725
2096921,2096921,164313,706664
2096921,2096921,164271,706785
2096921,2096921,164299,706808
2096921,2096921,163966,707121
2096921,2096921,164148,707095
2096921,2096921,164342,706818
2096921,2096921,164262,707122
2096921,2096921,164021,707056
2096921,2096921,164076,707246
2096921,2096921,164091,707196
2096921,2096921,164047,706913
2096921,2096921,164128,707157
2096921,2096921,163951,707162
2096921,2096921,164084,707278
2096921,2096921,163987,707419
2096921,2096921,164134,707145
2096921,2096921,164656,707306
2096921,2096921,164417,707400
2096921,2096921,164270,707131
2096921,2096921,163946,706908
2096921,2096921,164232,707370
2096921,2096921,164358,707151
2096921,2096921,164512,707389
2096921,2096921,164186,707517
2096921,2096921,164431,707254
2096921,2096921,164388,707311
2096921,2096921,164522,707584
2096921,2096921,164531,707601
2096921,2096921,164343,707524
2096921,2096921,164313,707637
2096921,2096921,164303,707459
2096921,2096921,164561,707333
2096921,2096921,164463,707176
2096921,2096921,164524,707626
2096921,2096921,164525,707468
2096921,2096921,164563,707697
2096921,2096921,164485,708163
2096921,2096921,164465,707733
2096921,2096921,164631,707755
2096921,2096921,164446,707607
2096921,2096921,164606,707452
2096921,2096921,164480,707658
2096921,2096921,164597,707531
2096921,2096921,164649,707660
2096921,2096921,164380,707691
2096921,2096921,164312,707694
2096921,2096921,164199,707865
2096921,2096921,164657,707843
2096921,2096921,164494,708011
2096921,2096921,164324,708168
2096921,2096921,164384,708172
2096921,2096921,164282,707871
2096921,2096921,164503,707907
2096921,2096921,164385,708381
2096921,2096921,164524,708288
2096921,2096921,164236,707972
2096921,2096921,164473,708121
2096921,2096921,164457,708086
2096921,2096921,164554,708164
2096921,2096921,164426,708355
2096921,2096921,164556,708426
2096921,2096921,164363,708260
2096921,2096921,164271,707981
2096921,2096921,164577,707672
2096921,2096921,164186,707947
2096921,2096921,164215,707752
2096921,2096921,164239,707783
2096921,2096921,164158,707731
2096921,2096921,164229,707657
2096921,2096921,164062,707547
2096921,2096921,164103,707459
2096921,2096921,163910,707435
2096921,2096921,163900,706748
2096921,2096921,164077,706809
2096921,2096921,163945,706701
2096921,2096921,163963,706662
2096921,2096921,163608,706737
2096921,2096921,163728,706421
2096921,2096921,163605,706401
2096921,2096921,163762,706140
2096921,2096921,163665,706218
2096921,2096921,163461,705953
2096921,2096921,163528,705389
2096921,2096921,163250,705532
2096921,2096921,163528,705245
2096921,2096921,163174,705382
2096921,2096921,162882,705216
2096921,2096921,162533,704004
2096921,2096921,162507,703299
2096921,2096921,162562,703140
2096921,2096921,162607,703543
2096921,2096921,161873,703365
2096921,2096921,161692,701580
2096921,2096921,161790,701221
2096921,2096921,162044,701395
2096921,2096921,161682,701155
2096921,2096921,161255,700763
2096921,2096921,160894,699495
2096921,2096921,160918,699524
2096921,2096921,160972,699461
2096921,2096921,160869,699311
2096921,2096921,160692,699349
2096921,2096921,160870,698301
2096921,2096921,160614,698082
2096921,2096921,160613,698246
2096921,2096921,160373,698137
2096921,2096921,160201,698279
2096921,2096921,160068,697271
2096921,2096921,160206,697352
2096921,2096921,160270,697408
2096921,2096921,159912,696994
2096921,2096921,159832,697056
2096921,2096921,159758,696631
2096921,2096921,159862,696502
2096921,2096921,159811,696568
2096921,2096921,159672,696533
2096921,2096921,159599,696722
2096921,2096921,159561,696134
2096921,2096921,159655,696036
2096921,2096921,159529,696199
2096921,2096921,159620,695779
2096921,2096921,159350,696248
2096921,2096921,159336,695933
2096921,2096921,159335,695993
2096921,2096921,159691,695993
2096921,2096921,159373,695772
2096921,2096921,159308,695668
2096921,2096921,159604,695747
2096921,2096921,159380,696032
2096921,2096921,159444,695850
2096921,2096921,159383,695865
2096921,2096921,159374,695939
2096921,2096921,159325,695788
2096921,2096921,159386,695845
2096921,2096921,159574,695745
2096921,2096921,159557,695896
2096921,2096921,159436,696059
2096921,2096921,160118,696309
2096921,2096921,159820,696120
2096921,2096921,159575,696485
2096921,2096921,159645,696380
2096921,2096921,159542,696320
2096921,2096921,159561,696568
2096921,2096921,159681,696428
2096921,2096921,159922,696828
2096921,2096921,159284,696557
2096921,2096921,159602,696515
2096921,2096921,159821,696577
2096921,2096921,159416,696771
2096921,2096921,159498,696671
2096921,2096921,159428,696698
2096921,2096921,159651,696607
2096921,2096921,159870,696683
2096921,2096921,159739,696924
2096921,2096921,159663,696747
2096921,2096921,159988,697108
2096921,2096921,159826,697056
2096921,2096921,160098,697370
2096921,2096921,159930,697488
2096921,2096921,159953,697673
2096921,2096921,159858,697682
2096921,2096921,160208,697746
2096921,2096921,160239,697883
2096921,2096921,160349,697977
2096921,2096921,160201,698055
2096921,2096921,160174,697857
2096921,2096921,160375,698134
2096921,2096921,160419,698667
2096921,2096921,160533,698545
2096921,2096921,160753,698455
2096921,2096921,160582,698166
2096921,2096921,160723,698603
2096921,2096921,160990,698996
2096921,2096921,160518,698813
2096921,2096921,160948,699148
2096921,2096921,160514,698994
2096921,2096921,160825,699003
2096921,2096921,160682,699365
2096921,2096921,160723,699316
2096921,2096921,160531,699499
2096921,2096921,160790,699158
2096921,2096921,160937,699329
2096921,2096921,161020,699599
2096921,2096921,161184,699873
2096921,2096921,161190,700011
2096921,2096921,161314,699759
2096921,2096921,161502,700041
2096921,2096921,161338,700200
2096921,2096921,161208,700282
2096921,2096921,161227,700423
2096921,2096921,161217,700204
2096921,2096921,161114,700350
2096921,2096921,161508,700720
2096921,2096921,160980,700816
2096921,2096921,161090,701081
2096921,2096921,161024,700959
2096921,2096921,161465,700770
2096921,2096921,161856,701108
2096921,2096921,161718,701399
2096921,2096921,161733,701482
2096921,2096921,161709,701331
2096921,2096921,161756,701505
2096921,2096921,161558,701510
2096921,2096921,161693,701913
2096921,2096921,161658,701976
2096921,2096921,161731,702107
2096921,2096921,161673,701820
2096921,2096921,161834,702262
2096921,2096921,161868,702127
2096921,2096921,161759,702368
2096921,2096921,161781,702585
2096921,2096921,161606,702338
2096921,2096921,161761,702777
2096921,2096921,161950,702985
2096921,2096921,161952,702801
2096921,2096921,161856,702587
2096921,2096921,162038,703105
2096921,2096921,162153,703167
2096921,2096921,161945,703125
2096921,2096921,162125,703060
2096921,2096921,162158,703182
2096921,2096921,162367,703367
2096921,2096921,162505,703365
2096921,2096921,162248,703441
2096921,2096921,162373,703693
2096921,2096921,162530,703311
2096921,2096921,162397,703347
2096921,2096921,162334,703652
2096921,2096921,162384,703600
2096921,2096921,162269,703763
2096921,2096921,162497,703540
2096921,2096921,162218,703150
2096921,2096921,162116,703644
2096921,2096921,162443,703800
2096921,2096921,162437,703623
2096921,2096921,162400,703677
2096921,2096921,162238,703611
2096921,2096921,162410,703698
2096921,2096921,162499,703544
2096921,2096921,162381,703697
2096921,2096921,162654,703453
2096921,2096921,162474,703712
2096921,2096921,162546,703663
2096921,2096921,162527,703785
2096921,2096921,162752,703667
2096921,2096921,162301,703776
2096921,2096921,162425,703842
2096921,2096921,162547,703925
2096921,2096921,162484,703924
2096921,2096921,162332,703535
2096921,2096921,162408,703513
2096921,2096921,162078,703445
2096921,2096921,162055,703772
2096921,2096921,162364,703664
2096921,2096921,162500,703803
2096921,2096921,162500,703667
2096921,2096921,162460,703760
2096921,2096921,162318,703838
2096921,2096921,162129,703651
2096921,2096921,162240,703750
2096921,2096921,162259,703499
2096921,2096921,162264,703743
2096921,2096921,162479,703603
2096921,2096921,162303,703484
2096921,2096921,162406,703621
2096921,2096921,162300,703497
2096921,2096921,162355,703713
2096921,2096921,162345,703398
2096921,2096921,162156,703629
2096921,2096921,162059,703389
2096921,2096921,162197,703129
2096921,2096921,162091,703310
2096921,2096921,162027,703074
2096921,2096921,162140,703424
2096921,2096921,162052,703757
2096921,2096921,162423,703497
2096921,2096921,162112,703368
2096921,2096921,162226,703391
2096921,2096921,162261,703304
2096921,2096921,161877,703086
2096921,2096921,161932,703157
2096921,2096921,161965,703363
2096921,2096921,162480,703341
2096921,2096921,162242,703066
2096921,2096921,162100,703318
2096921,2096921,162459,703109
2096921,2096921,162542,703466
2096921,2096921,162218,703414
2096921,2096921,162211,703303
2096921,2096921,162418,703501
2096921,2096921,162551,703336
2096921,2096921,162610,703693
2096921,2096921,162522,703323
2096921,2096921,162414,703752
2096921,2096921,162571,703851
2096921,2096921,162344,703548
2096921,2096921,162508,703766
2096921,2096921,162632,704052
2096921,2096921,162469,704112
2096921,2096921,162511,704026
2096921,2096921,162566,703958
2096921,2096921,162606,704037
2096921,2096921,162836,704574
2096921,2096921,162750,704607
2096921,2096921,162785,704570
2096921,2096921,162859,704412
2096921,2096921,162602,704302
2096921,2096921,162841,704664
2096921,2096921,162765,704742
2096921,2096921,162737,704769
2096921,2096921,162703,704662
2096921,2096921,162908,704825
2096921,2096921,162919,704828
2096921,2096921,163196,704971
2096921,2096921,162818,704906
2096921,2096921,162827,704962
2096921,2096921,162794,705086
2096921,2096921,162855,705048
2096921,2096921,162827,705271
2096921,2096921,163022,705001
2096921,2096921,162662,705203
2096921,2096921,162752,704992
2096921,2096921,163054,705478
2096921,2096921,162971,705476
2096921,2096921,163049,705495
2096921,2096921,163013,705380
2096921,2096921,163154,705322
2096921,2096921,162927,705561
2096921,2096921,163004,705683
2096921,2096921,163049,705646
2096921,2096921,163147,705638
2096921,2096921,163281,705513
2096921,2096921,163084,705732
2096921,2096921,163239,705944
2096921,2096921,163327,705862
2096921,2096921,163219,705790
2096921,2096921,163432,705990
2096921,2096921,163435,705889
2096921,2096921,163375,706007
2096921,2096921,163495,706233
2096921,2096921,163051,706185
2096921,2096921,163566,705867
2096921,2096921,163377,706323
2096921,2096921,163340,706495
2096921,2096921,163738,706439
2096921,2096921,163515,706405
2096921,2096921,163545,706682
2096921,2096921,163769,706646
2096921,2096921,163536,706944
2096921,2096921,163431,706781
2096921,2096921,163664,706914
2096921,2096921,163248,706415
2096921,2096921,163593,706942
2096921,2096921,164005,706766
2096921,2096921,163523,706833
2096921,2096921,163896,706858
2096921,2096921,163617,706919
2096921,2096921,163701,706843
2096921,2096921,163869,706766
2096921,2096921,163495,707162
2096921,2096921,163542,707150
2096921,2096921,163553,707173
2096921,2096921,163527,707146
2096921,2096921,163883,707481
2096921,2096921,163821,707243
2096921,2096921,163819,707276
2096921,2096921,163894,707282
2096921,2096921,163666,707795
2096921,2096921,163740,707567
2096921,2096921,163587,707535
2096921,2096921,163938,707426
2096921,2096921,163910,707514
2096921,2096921,163769,707816
2096921,2096921,163567,708093
2096921,2096921,163736,707945
2096921,2096921,164017,707864
2096921,2096921,164301,707941
2096921,2096921,164038,708093
2096921,2096921,163809,707978
2096921,2096921,164052,707852
2096921,2096921,164180,707728
2096921,2096921,164149,707721
2096921,2096921,164366,707906
2096921,2096921,164302,708013
2096921,2096921,164494,708120
2096921,2096921,164395,708219
2096921,2096921,164098,708272
2096921,2096921,164186,708326
2096921,2096921,164027,708520
2096921,2096921,164261,708362
2096921,2096921,164256,708198
2096921,2096921,164457,708335
2096921,2096921,164435,708281
2096921,2096921,164462,708196
2096921,2096921,164432,708402
2096921,2096921,164363,708445
2096921,2096921,164218,708350
2096921,2096921,164171,708272
2096921,2096921,164540,708381
2096921,2096921,164247,708794
2096921,2096921,164395,708505
2096921,2096921,164425,708603
2096921,2096921,164463,708779
2096921,2096921,164178,708558
2096921,2096921,164288,708456
2096921,2096921,164172,708607
2096921,2096921,164150,708728
2096921,2096921,164743,708596
2096921,2096921,164653,708867
2096921,2096921,164776,708715
2096921,2096921,164076,708804
2096921,2096921,164196,708742
2096921,2096921,164446,708855
2096921,2096921,164352,709198
2096921,2096921,164602,708941
2096921,2096921,164486,709085
2096921,2096921,164506,709104
2096921,2096921,164213,709140
2096921,2096921,164522,709181
2096921,2096921,164527,709477
2096921,2096921,164237,709400
2096921,2096921,164281,709399
2096921,2096921,164535,709572
2096921,2096921,164454,709608
2096921,2096921,164428,709271
2096921,2096921,164424,709188
2096921,2096921,164562,709507
2096921,2096921,164714,709507
2096921,2096921,164468,709347
2096921,2096921,164540,709555
2096921,2096921,164490,709402
2096921,2096921,164569,709561
2096921,2096921,164768,709430
2096921,2096921,165114,709647
2096921,2096921,164711,709572
2096921,2096921,164558,709712
2096921,2096921,164682,709400
2096921,2096921,164701,709513
2096921,2096921,164689,709633
2096921,2096921,164836,709563
2096921,2096921,164616,709510
2096921,2096921,164810,709601
2096921,2096921,164476,709469
2096921,2096921,164685,709563
2096921,2096921,165040,709605
2096921,2096921,165105,709536
2096921,2096921,165183,709847
2096921,2096921,164988,709914
2096921,2096921,164715,710028
2096921,2096921,164713,709919
2096921,2096921,164815,709919
2096921,2096921,164679,710024
2096921,2096921,164756,710086
2096921,2096921,164960,709658
2096921,2096921,164832,709963
2096921,2096921,164964,710266
2096921,2096921,165041,709859
2096921,2096921,164882,709480
2096921,2096921,164827,710047
2096921,2096921,164784,710066
2096921,2096921,164803,709794
2096921,2096921,165036,709876
2096921,2096921,165022,710215
2096921,2096921,165268,710459
2096921,2096921,164727,710105
2096921,2096921,164989,710279
2096921,2096921,164960,709999
2096921,2096921,164770,710375
2096921,2096921,164678,710526
2096921,2096921,164741,710317
2096921,2096921,164648,710158
2096921,2096921,164798,710175
2096921,2096921,165092,710206
2096921,2096921,165138,710426
2096921,2096921,165110,710139
2096921,2096921,164701,710348
2096921,2096921,164558,710503
2096921,2096921,165174,710590
2096921,2096921,164855,710497
2096921,2096921,165225,710229
2096921,2096921,165149,710456
2096921,2096921,164854,710707
2096921,2096921,164969,710323
2096921,2096921,165333,710482
2096921,2096921,165174,710301
2096921,2096921,165126,710509
2096921,2096921,165462,710779
2096921,2096921,164876,710526
2096921,2096921,165017,710432
2096921,2096921,165043,710467
2096921,2096921,164673,710490
2096921,2096921,165039,710509
2096921,2096921,165180,710386
2096921,2096921,165344,710364
2096921,2096921,165175,710573
2096921,2096921,165125,710398
2096921,2096921,165258,710190
2096921,2096921,165221,710638
2096921,2096921,165143,710364
2096921,2096921,164860,710760
2096921,2096921,164988,710267
2096921,2096921,164991,710410
2096921,2096921,165081,710798
2096921,2096921,164930,710593
2096921,2096921,165058,710562
2096921,2096921,164949,710826
2096921,2096921,165106,710814
2096921,2096921,164907,710563
2096921,2096921,165136,710809
2096921,2096921,165175,710592
2096921,2096921,165115,710467
2096921,2096921,165037,710646
2096921,2096921,164938,710596
2096921,2096921,165252,710752
2096921,2096921,165161,710665
2096921,2096921,165200,710972
2096921,2096921,165247,710725
2096921,2096921,165153,710672
2096921,2096921,165126,710368
2096921,2096921,165005,710132
2096921,2096921,164989,710416
2096921,2096921,164827,710260
2096921,2096921,165175,710351
2096921,2096921,164861,710633
2096921,2096921,165087,710901
2096921,2096921,165022,710593
2096921,2096921,164838,710718
2096921,2096921,165048,710660
2096921,2096921,164760,710606
2096921,2096921,164845,710434
2096921,2096921,164733,710356
2096921,2096921,165015,710378
2096921,2096921,165045,710543
2096921,2096921,165136,710660
2096921,2096921,165055,710749
2096921,2096921,165084,710734
2096921,2096921,165031,710454
2096921,2096921,164753,710416
2096921,2096921,164812,710521
2096921,2096921,164848,710167
2096921,2096921,164988,710468
2096921,2096921,164969,710426
2096921,2096921,164858,710772
2096921,2096921,164949,710689
2096921,2096921,165062,710426
2096921,2096921,164892,710330
2096921,2096921,164798,710132
2096921,2096921,165068,710270
2096921,2096921,164985,710187
2096921,2096921,165048,710437
2096921,2096921,164997,710284
2096921,2096921,164721,710358
2096921,2096921,164763,710463
2096921,2096921,165190,710136
2096921,2096921,165482,710202
2096921,2096921,164930,710370
2096921,2096921,165134,710412
2096921,2096921,164988,710271
2096921,2096921,165276,710093
2096921,2096921,164913,710251
2096921,2096921,165104,710162
2096921,2096921,164972,710217
2096921,2096921,165135,709783
2096921,2096921,164966,709994
2096921,2096921,164808,709943
2096921,2096921,164801,709737
2096921,2096921,164844,710121
2096921,2096921,164738,709532
2096921,2096921,164726,709272
2096921,2096921,164619,709502
2096921,2096921,164557,709195
2096921,2096921,164374,709298
2096921,2096921,164595,708917
2096921,2096921,164359,709087
2096921,2096921,164460,708691
2096921,2096921,164367,708673
2096921,2096921,164161,708505
2096921,2096921,163981,708012
2096921,2096921,164047,708052
2096921,2096921,163978,707748
2096921,2096921,163944,707969
2096921,2096921,163706,707913
2096921,2096921,163654,707104
2096921,2096921,163784,706952
2096921,2096921,163661,707033
2096921,2096921,163954,707058
2096921,2096921,163225,706770
2096921,2096921,163036,705169
2096921,2096921,162998,704917
2096921,2096921,162842,705016
2096921,2096921,162665,705221
2096921,2096921,162087,705008
2096921,2096921,161890,702976
2096921,2096921,161838,702913
2096921,2096921,161764,702451
2096921,2096921,162154,702394
2096921,2096921,161442,702577
2096921,2096921,161173,700933
2096921,2096921,161190,700497
2096921,2096921,160995,700463
2096921,2096921,160892,700532
2096921,2096921,160886,700438
2096921,2096921,160757,699484
2096921,2096921,161066,699352
2096921,2096921,160868,699021
2096921,2096921,160767,699105
2096921,2096921,160485,699386
2096921,2096921,160380,698612
2096921,2096921,160357,697929
2096921,2096921,160524,697892
2096921,2096921,160340,697924
2096921,2096921,160145,697634
2096921,2096921,160180,697378
2096921,2096921,160142,696934
2096921,2096921,160106,697118
2096921,2096921,160117,697382
2096921,2096921,159817,697215
2096921,2096921,160087,696786
2096921,2096921,159989,696501
2096921,2096921,159983,696648
2096921,2096921,159506,696294
2096921,2096921,159656,696332
2096921,2096921,159702,696052
2096921,2096921,159722,696219
2096921,2096921,159542,696292
2096921,2096921,159557,696458
2096921,2096921,159793,696253
2096921,2096921,159397,696079
2096921,2096921,159468,696052
2096921,2096921,159535,696021
2096921,2096921,159589,695926
2096921,2096921,159774,696185
2096921,2096921,159612,696096
2096921,2096921,159474,696021
2096921,2096921,159548,695956
2096921,2096921,159559,695994
2096921,2096921,159795,696001
2096921,2096921,159504,696374
2096921,2096921,159347,696194
2096921,2096921,159428,696222
2096921,2096921,159722,696157
2096921,2096921,159520,696113
2096921,2096921,160026,696338
2096921,2096921,160136,696121
2096921,2096921,159776,696332
2096921,2096921,159775,696178
2096921,2096921,159695,696313
2096921,2096921,159604,696128
2096921,2096921,159712,696312
2096921,2096921,159507,696126
2096921,2096921,159705,696288
2096921,2096921,159684,696096
2096921,2096921,159771,696359
2096921,2096921,159662,696483
2096921,2096921,159660,696469
2096921,2096921,159895,696682
2096921,2096921,159928,696778
2096921,2096921,159917,696817
2096921,2096921,160053,696951
2096921,2096921,159842,697141
2096921,2096921,160052,696788
2096921,2096921,159924,696850
2096921,2096921,159998,697090
2096921,2096921,159989,697163
2096921,2096921,160010,697471
2096921,2096921,160242,697295
2096921,2096921,160262,697503
2096921,2096921,160188,697345
2096921,2096921,160322,697575
2096921,2096921,160150,697323
2096921,2096921,160133,697483
2096921,2096921,160684,697262
2096921,2096921,160320,697759
2096921,2096921,160445,698012
2096921,2096921,160512,697955
2096921,2096921,160555,697876
2096921,2096921,160515,697834
2096921,2096921,160444,698101
2096921,2096921,160657,698343
2096921,2096921,160447,698328
2096921,2096921,160560,698276
2096921,2096921,160563,697878
2096921,2096921,160654,698305
2096921,2096921,160728,698702
2096921,2096921,160606,698713
2096921,2096921,160412,698650
2096921,2096921,160629,698771
2096921,2096921,160809,698963
2096921,2096921,160697,698888
2096921,2096921,160660,698754
2096921,2096921,160876,699187
2096921,2096921,161108,698847
2096921,2096921,160933,699327
2096921,2096921,160754,699175
2096921,2096921,160828,699269
2096921,2096921,160721,699296
2096921,2096921,160965,699148
2096921,2096921,161146,699486
2096921,2096921,160960,700015
2096921,2096921,161059,699598
2096921,2096921,161078,699700
2096921,2096921,161099,699479
2096921,2096921,161331,699881
2096921,2096921,161245,699741
2096921,2096921,161206,699880
2096921,2096921,161148,700288
2096921,2096921,161303,700046
2096921,2096921,161306,700253
2096921,2096921,161166,700112
2096921,2096921,161219,700530
2096921,2096921,161436,700610
2096921,2096921,161476,700302
2096921,2096921,161433,700591
2096921,2096921,161612,700428
2096921,2096921,161697,700424
2096921,2096921,161760,700765
2096921,2096921,161714,700819
2096921,2096921,161483,700947
2096921,2096921,161589,700771
2096921,2096921,161660,700717
2096921,2096921,161601,700701
2096921,2096921,161869,700510
2096921,2096921,161944,700953
2096921,2096921,161893,700991
2096921,2096921,161813,700952
2096921,2096921,162062,700820
2096921,2096921,161954,700826
2096921,2096921,161565,700949
2096921,2096921,161509,700938
2096921,2096921,161513,701116
2096921,2096921,161384,701296
2096921,2096921,161960,700927
2096921,2096921,161928,701347
2096921,2096921,161927,701172
2096921,2096921,161720,701218
2096921,2096921,161869,701412
2096921,2096921,162266,701361
2096921,2096921,161984,701293
2096921,2096921,161450,700840
2096921,2096921,161791,700800
2096921,2096921,161610,700671
2096921,2096921,161384,700905
2096921,2096921,161710,700937
2096921,2096921,161498,701170
2096921,2096921,161589,700944
2096921,2096921,161727,701074
2096921,2096921,162040,701104
2096921,2096921,161616,700806
2096921,2096921,161739,700787
2096921,2096921,161703,700708
2096921,2096921,161678,700753
2096921,2096921,161741,700897
2096921,2096921,161565,700624
2096921,2096921,161486,700729
2096921,2096921,161475,700610
2096921,2096921,161720,700429
2096921,2096921,161532,700663
2096921,2096921,161659,700264
2096921,2096921,161395,700338
2096921,2096921,161718,700145
2096921,2096921,161862,700290
2096921,2096921,161598,700315
2096921,2096921,161485,699990
2096921,2096921,161398,700042
2096921,2096921,161354,700015
2096921,2096921,161623,699899
2096921,2096921,161438,700045
2096921,2096921,161332,699874
2096921,2096921,161325,700120
2096921,2096921,161412,699785
2096921,2096921,161181,699805
2096921,2096921,161279,699767
2096921,2096921,161408,699477
2096921,2096921,161277,700093
2096921,2096921,161389,699860
2096921,2096921,161297,699645
2096921,2096921,161066,699744
2096921,2096921,161265,699785
2096921,2096921,161565,699499
2096921,2096921,161257,699656
2096921,2096921,161415,699741
2096921,2096921,161375,699645
2096921,2096921,161678,699539
2096921,2096921,161215,699367
2096921,2096921,161637,699644
2096921,2096921,161472,699216
2096921,2096921,161296,699432
2096921,2096921,161504,699437
2096921,2096921,161088,699699
2096921,2096921,161238,699756
2096921,2096921,161335,699657
2096921,2096921,161380,699875
2096921,2096921,161092,699808
2096921,2096921,161340,699586
2096921,2096921,161473,699537
2096921,2096921,161434,699688
2096921,2096921,161607,699917
2096921,2096921,161384,700113
2096921,2096921,161548,699989
2096921,2096921,161655,699862
2096921,2096921,161668,700050
2096921,2096921,161673,699842
2096921,2096921,161438,700210
2096921,2096921,161467,699966
2096921,2096921,161581,700121
2096921,2096921,161493,700253
2096921,2096921,161844,700429
2096921,2096921,162002,700388
2096921,2096921,161685,700026
2096921,2096921,161556,700160
2096921,2096921,161699,700338
2096921,2096921,161705,700291
2096921,2096921,161915,700486
2096921,2096921,161838,700672
2096921,2096921,161769,700713
2096921,2096921,161728,700584
2096921,2096921,161619,700728
2096921,2096921,161877,700492
2096921,2096921,161637,700705
2096921,2096921,161732,700742
2096921,2096921,161788,700703
2096921,2096921,162076,700732
2096921,2096921,162173,701002
2096921,2096921,161932,700963
2096921,2096921,162093,700813
2096921,2096921,162158,700980
2096921,2096921,161847,700849
2096921,2096921,162207,701064
2096921,2096921,162282,700777
2096921,2096921,162037,701110
2096921,2096921,161907,701125
2096921,2096921,161656,700945
2096921,2096921,161662,700980
2096921,2096921,161604,701188
2096921,2096921,162005,701187
2096921,2096921,161927,701223
2096921,2096921,162036,701213
2096921,2096921,162099,701469
2096921,2096921,162167,701289
2096921,2096921,162162,701171
2096921,2096921,162163,701592
2096921,2096921,162010,701388
2096921,2096921,161828,701671
2096921,2096921,162065,701632
2096921,2096921,162138,701790
2096921,2096921,162325,701531
2096921,2096921,162417,701607
2096921,2096921,161934,701581
2096921,2096921,161869,701531
2096921,2096921,161969,701625
2096921,2096921,162296,701684
2096921,2096921,162547,701642
2096921,2096921,162345,701738
2096921,2096921,162295,701695
2096921,2096921,162579,701890
2096921,2096921,162497,701855
2096921,2096921,162474,701648
2096921,2096921,162336,701906
2096921,2096921,162293,701680
2096921,2096921,162633,702004
2096921,2096921,162589,701782
2096921,2096921,162404,702093
2096921,2096921,162458,702087
2096921,2096921,162494,702129
2096921,2096921,162673,701993
2096921,2096921,162700,702076
2096921,2096921,162771,702164
2096921,2096921,162863,702098
2096921,2096921,162831,701765
2096921,2096921,162356,701976
2096921,2096921,162626,702264
2096921,2096921,162531,701915
2096921,2096921,162612,702066
2096921,2096921,162641,702521
2096921,2096921,162256,702582
2096921,2096921,162602,702539
2096921,2096921,162701,702519
2096921,2096921,162407,702627
2096921,2096921,162698,702399
2096921,2096921,162517,702401
2096921,2096921,162449,702232
2096921,2096921,162560,702360
2096921,2096921,162978,702559
2096921,2096921,162867,702578
2096921,2096921,163026,702612
2096921,2096921,162704,702776
2096921,2096921,162658,702625
2096921,2096921,162312,702423
2096921,2096921,162696,702760
2096921,2096921,162699,702940
2096921,2096921,162486,703158
2096921,2096921,162759,702833
2096921,2096921,162708,702802
2096921,2096921,162965,702536
2096921,2096921,162961,702558
2096921,2096921,162929,702831
2096921,2096921,162944,702748
2096921,2096921,163046,702621
2096921,2096921,163124,702924
2096921,2096921,162767,702842
2096921,2096921,163008,702694
2096921,2096921,162784,702738
2096921,2096921,162925,702903
2096921,2096921,163060,702748
2096921,2096921,162965,702981
2096921,2096921,162957,703019
2096921,2096921,162759,703184
2096921,2096921,162748,702920
2096921,2096921,162816,703114
2096921,2096921,163195,702932
2096921,2096921,162862,702954
2096921,2096921,163072,702797
2096921,2096921,163157,702957
2096921,2096921,163069,703274
2096921,2096921,163005,702850
2096921,2096921,162985,703026
2096921,2096921,163142,703045
2096921,2096921,163038,703007
2096921,2096921,163144,702925
2096921,2096921,163291,702784
2096921,2096921,163326,702743
2096921,2096921,162991,702887
2096921,2096921,162995,702952
2096921,2096921,163176,703189
2096921,2096921,163062,703128
2096921,2096921,163521,703260
2096921,2096921,163207,703227
2096921,2096921,163290,703218
2096921,2096921,163299,703347
2096921,2096921,163111,703410
2096921,2096921,163229,703403
2096921,2096921,163260,703269
2096921,2096921,163468,703061
2096921,2096921,163308,703162
2096921,2096921,163216,703391
2096921,2096921,163137,703433
2096921,2096921,163244,703141
2096921,2096921,163426,703584
2096921,2096921,163237,703407
2096921,2096921,163215,703224
2096921,2096921,163294,703224
2096921,2096921,163272,703216
2096921,2096921,163055,703354
2096921,2096921,162886,703480
2096921,2096921,163058,703460
2096921,2096921,163126,703776
2096921,2096921,163216,703495
2096921,2096921,163351,703442
2096921,2096921,163346,703545
2096921,2096921,163190,703557
2096921,2096921,163225,703126
2096921,2096921,162819,703445
2096921,2096921,163134,703538
2096921,2096921,163654,703636
2096921,2096921,163444,703580
2096921,2096921,163451,703339
2096921,2096921,163399,703562
2096921,2096921,163390,703336
2096921,2096921,163044,703385
2096921,2096921,163438,703444
2096921,2096921,163449,703391
2096921,2096921,163435,703428
2096921,2096921,163219,703347
2096921,2096921,163105,703151
2096921,2096921,163168,703090
2096921,2096921,163170,703415
2096921,2096921,163551,703304
2096921,2096921,163232,703370
2096921,2096921,163523,703488
2096921,2096921,163168,703304
2096921,2096921,163421,703363
2096921,2096921,163415,703327
2096921,2096921,163463,703653
2096921,2096921,163203,703641
2096921,2096921,163245,703804
2096921,2096921,163477,703593
2096921,2096921,163335,703464
2096921,2096921,163266,703432
2096921,2096921,163027,703611
2096921,2096921,163238,703770
2096921,2096921,163006,703431
2096921,2096921,163230,703590
2096921,2096921,163324,703772
2096921,2096921,163473,703734
2096921,2096921,163265,703672
2096921,2096921,163060,703804
2096921,2096921,163387,704013
2096921,2096921,163195,704142
2096921,2096921,163455,703896
2096921,2096921,163281,703566
2096921,2096921,163413,703322
2096921,2096921,163281,703360
2096921,2096921,163535,703815
2096921,2096921,163494,703753
2096921,2096921,163495,704092
2096921,2096921,163211,703919
2096921,2096921,163113,703887
2096921,2096921,163329,703818
2096921,2096921,163689,703850
2096921,2096921,163694,703612
2096921,2096921,163578,703700
2096921,2096921,163196,703587
2096921,2096921,163638,703748
2096921,2096921,163528,703441
2096921,2096921,163629,703557
2096921,2096921,163590,703661
2096921,2096921,163431,704011
2096921,2096921,163509,703863
2096921,2096921,163310,703733
2096921,2096921,163170,703708
2096921,2096921,163238,703601
2096921,2096921,163588,703847
2096921,2096921,163318,704004
2096921,2096921,163410,703785
2096921,2096921,163367,703954
2096921,2096921,163707,703778
2096921,2096921,163520,703945
2096921,2096921,163269,704086
2096921,2096921,163258,703606
2096921,2096921,163202,703391
2096921,2096921,163340,703597
2096921,2096921,163233,703482
2096921,2096921,163612,703584
2096921,2096921,163514,703661
2096921,2096921,163461,703562
2096921,2096921,163445,703552
2096921,2096921,163634,703755
2096921,2096921,163482,703754
2096921,2096921,163397,703523
2096921,2096921,163722,703638
2096921,2096921,163466,703916
2096921,2096921,163564,703851
2096921,2096921,163501,703736
2096921,2096921,163231,703807
2096921,2096921,163416,703644
2096921,2096921,163282,703669
2096921,2096921,163265,703699
2096921,2096921,163333,703466
2096921,2096921,163183,703277
2096921,2096921,163291,703823
2096921,2096921,163204,703545
2096921,2096921,163473,703651
2096921,2096921,163339,703637
2096921,2096921,163463,703714
2096921,2096921,163163,703896
2096921,2096921,163224,703822
2096921,2096921,163427,703706
2096921,2096921,163447,703558
2096921,2096921,163285,703676
2096921,2096921,163328,703511
2096921,2096921,163402,703419
2096921,2096921,163540,703561
2096921,2096921,163192,703282
2096921,2096921,163101,703459
2096921,2096921,163376,703558
2096921,2096921,163452,703670
2096921,2096921,163660,703583
2096921,2096921,163314,703428
2096921,2096921,163260,703504
2096921,2096921,163277,703538
2096921,2096921,163512,703663
2096921,2096921,163346,703644
2096921,2096921,163498,703013
2096921,2096921,163396,703194
2096921,2096921,163443,703116
2096921,2096921,163303,703316
2096921,2096921,163225,703268
2096921,2096921,163346,702807
2096921,2096921,163245,702527
2096921,2096921,163175,702709
2096921,2096921,163071,702508
2096921,2096921,163042,702613
2096921,2096921,163159,702156
2096921,2096921,162840,702136
2096921,2096921,162873,702246
2096921,2096921,162914,702087
2096921,2096921,162783,702079
2096921,2096921,162500,701573
2096921,2096921,162354,701441
2096921,2096921,162329,701358
2096921,2096921,162076,701463
2096921,2096921,162375,701361
2096921,2096921,162095,700805
2096921,2096921,161901,700655
2096921,2096921,162309,700631
2096921,2096921,162115,700693
2096921,2096921,161810,700506
2096921,2096921,161499,699035
2096921,2096921,161400,698244
2096921,2096921,161295,698622
2096921,2096921,161125,698434
2096921,2096921,160749,698531
2096921,2096921,160431,696491
2096921,2096921,160611,696221
2096921,2096921,160350,696457
2096921,2096921,160374,695958
2096921,2096921,159783,695891
2096921,2096921,159641,694802
2096921,2096921,159588,694312
2096921,2096921,159404,694253
2096921,2096921,159640,694096
2096921,2096921,159300,694609
2096921,2096921,159266,693059
2096921,2096921,159355,693139
2096921,2096921,159332,693341
2096921,2096921,159359,693208
2096921,2096921,159052,693136
2096921,2096921,158793,692299
2096921,2096921,158843,691958
2096921,2096921,159227,691969
2096921,2096921,159037,691904
2096921,2096921,158590,691986
2096921,2096921,158367,691494
2096921,2096921,158401,691502
2096921,2096921,158535,691179
2096921,2096921,158582,691224
2096921,2096921,158398,691184
2096921,2096921,158429,690643
2096921,2096921,158368,690710
2096921,2096921,158406,690873
2096921,2096921,158382,690651
2096921,2096921,158220,690764
2096921,2096921,158118,690445
2096921,2096921,158275,690758
2096921,2096921,158584,690646
2096921,2096921,158169,690612
2096921,2096921,158471,690534
2096921,2096921,158398,690507
2096921,2096921,158384,690550
2096921,2096921,158264,690412
2096921,2096921,158310,690396
2096921,2096921,158245,690052
2096921,2096921,158368,690371
2096921,2096921,158226,690617
2096921,2096921,158102,690563
2096921,2096921,158144,690548
2096921,2096921,158299,690662
2096921,2096921,158250,690403
2096921,2096921,158078,690317
2096921,2096921,158187,690553
2096921,2096921,157948,690737
2096921,2096921,158255,690332
2096921,2096921,158106,690306
2096921,2096921,158080,690765
2096921,2096921,158244,690830
2096921,2096921,158416,690856
2096921,2096921,158386,690788
2096921,2096921,158175,690812
2096921,2096921,158265,690848
2096921,2096921,158351,690916
2096921,2096921,158224,690772
2096921,2096921,158469,690992
